Wave,Anorthite
96.5247,1698.42
97.0496,1694.77
97.5723,1695.38
98.0972,1699.16
98.6198,1701.81
99.1446,1704.74
99.6693,1707.45
100.192,1709.2
100.717,1708.56
101.239,1709.38
101.764,1711.48
102.286,1715.41
102.811,1723.71
103.333,1734.6
103.858,1749.52
104.38,1773.7
104.904,1784.89
105.427,1789.69
105.951,1795.9
106.473,1801.97
106.998,1809.27
107.52,1817.89
108.044,1827.42
108.566,1838.06
109.09,1849.81
109.612,1862.88
110.136,1876.79
110.658,1884.33
111.183,1888.83
111.704,1890.64
112.229,1890.06
112.75,1887.41
113.272,1882.21
113.796,1878.58
114.318,1882.96
114.842,1886.13
115.364,1886.79
115.887,1886.94
116.409,1885.96
116.931,1884.68
117.454,1882.03
117.976,1878.47
118.5,1874.85
119.021,1871.95
119.543,1874.07
120.066,1878.32
120.588,1881.05
121.109,1883.38
121.633,1885.69
122.154,1887.99
122.675,1890.26
123.199,1892.5
123.72,1894.7
124.241,1896.83
124.764,1898.89
125.286,1900.8
125.807,1902.33
126.33,1901.64
126.851,1899.87
127.372,1896.41
127.893,1894.37
128.416,1893.9
128.937,1897.4
129.458,1909.31
129.981,1913.23
130.502,1918.69
131.023,1921.15
131.544,1922.5
132.067,1924.75
132.587,1927.31
133.108,1930.21
133.629,1933.23
134.152,1936.59
134.672,1940.38
135.193,1944.48
135.714,1949.06
136.234,1953.54
136.757,1953.09
137.277,1954.68
137.798,1958.85
138.318,1966.02
138.839,1976.61
139.359,1977.52
139.881,1973.12
140.402,1968.98
140.922,1976.54
141.442,1995.07
141.963,2008.87
142.483,2019.47
143.005,2026.65
143.525,2030.55
144.045,2031.6
144.565,2029.47
145.085,2023.9
145.606,2015.26
146.126,2003.6
146.646,1989.68
147.165,1984.22
147.688,1980.12
148.207,1977.31
148.727,1976.36
149.247,1974.55
149.767,1964.46
150.287,1955.73
150.806,1944.16
151.326,1929.96
151.846,1922.13
152.365,1921.55
152.885,1922.42
153.405,1923.82
153.924,1927.38
154.444,1928.83
154.963,1915.45
155.483,1917.5
156.002,1918.11
156.522,1924.71
157.041,1942.84
157.56,1949.57
158.08,1939.6
158.599,1920.47
159.118,1920.1
159.638,1929.01
160.157,1946.01
160.676,1978.89
161.195,1968.84
161.714,1963.38
162.233,1959
162.753,1954.65
163.272,1950.72
163.791,1951.62
164.31,1955.2
164.826,1966.81
165.345,1980.28
165.864,1994.14
166.383,2000.26
166.902,2007.13
167.421,2014.73
167.94,2015.17
168.458,2020.54
168.977,2027.59
169.494,2033.1
170.012,2048.36
170.531,2058.39
171.05,2066.16
171.568,2071.35
172.087,2073.95
172.605,2073.44
173.122,2070.43
173.64,2077.09
174.159,2089.19
174.677,2102.97
175.195,2118.17
175.712,2134.19
176.23,2135.79
176.748,2131.22
177.267,2121.95
177.785,2118.23
178.301,2122.02
178.819,2137.76
179.337,2170.62
179.855,2195.5
180.371,2223.35
180.889,2247.04
181.407,2257.59
181.925,2261.28
182.441,2263.33
182.959,2262.38
183.477,2256.51
183.995,2248.03
184.511,2236.42
185.029,2222.34
185.547,2205.84
186.062,2189.45
186.58,2183.5
187.098,2182.86
187.613,2188.05
188.131,2199.56
188.649,2204.3
189.164,2205.49
189.682,2207.49
190.199,2200.05
190.715,2193.04
191.232,2189.79
191.75,2185.35
192.265,2192.65
192.782,2204.33
193.3,2205.9
193.815,2205.3
194.332,2203.77
194.847,2203.31
195.365,2201.85
195.882,2197.59
196.397,2190.22
196.914,2179.02
197.429,2164.39
197.946,2146.56
198.461,2127.15
198.978,2110.48
199.495,2098.65
200.01,2086.36
200.527,2073.98
201.042,2061.94
201.559,2049.76
202.074,2040.51
202.591,2033.74
203.105,2035.4
203.622,2037.59
204.137,2041.05
204.654,2044.64
205.168,2038.49
205.685,2036.59
206.199,2024.68
206.716,2011.87
207.231,1997.91
207.747,1993.17
208.262,1991.66
208.778,1996.22
209.292,2001.62
209.809,2006.98
210.323,2012.08
210.838,2016.08
211.354,2020.17
211.868,2026.43
212.384,2032.36
212.899,2042.25
213.415,2038.24
213.929,2032.11
214.443,2020.3
214.959,2013.94
215.473,2009.5
215.989,2006.53
216.503,2005.28
217.017,2010.89
217.533,2005.89
218.047,1996.18
218.561,1988.7
219.077,1982.98
219.591,1978.76
220.105,1975.32
220.621,1972.92
221.134,1970.95
221.648,1970.38
222.164,1970.4
222.677,1970.42
223.191,1969.28
223.707,1963.84
224.22,1959.71
224.734,1963.17
225.249,1966.09
225.763,1969.49
226.276,1973.53
226.79,1978.75
227.305,1984.44
227.819,1987.59
228.332,1989.08
228.847,1988.62
229.361,1982.5
229.874,1974.97
230.387,1965.74
230.9,1953.88
231.415,1954.44
231.929,1955.31
232.442,1961.36
232.955,1981.97
233.47,1993.82
233.983,1999.2
234.496,1993.04
235.009,1989.48
235.522,1991.55
236.035,2002.99
236.55,2018.07
237.063,2027.47
237.575,2036.86
238.088,2042.49
238.601,2043.32
239.114,2041.59
239.628,2038.44
240.141,2035.46
240.654,2038.37
241.166,2052.6
241.679,2063.98
242.192,2076.8
242.704,2092.82
243.217,2093.06
243.729,2083.43
244.244,2072.62
244.756,2060.24
245.268,2058.25
245.781,2060.18
246.293,2064.63
246.805,2065.28
247.318,2065.41
247.83,2063.07
248.342,2061.1
248.854,2057.96
249.367,2052.71
249.879,2049.98
250.391,2049.93
250.903,2056.33
251.415,2060.99
251.927,2062.02
252.439,2060.57
252.951,2056.72
253.463,2053.13
253.975,2048.52
254.487,2043.21
254.998,2037.87
255.51,2032.11
256.022,2025.77
256.534,2018.53
257.046,2010.47
257.557,2032.62
258.069,2032.24
258.581,2030.1
259.092,2028.99
259.604,2029.05
260.115,2030.52
260.627,2033.29
261.136,2041.04
261.648,2038.98
262.159,2034.77
262.671,2033.12
263.182,2031.49
263.694,2030.2
264.205,2029.16
264.716,2028.81
265.228,2028.74
265.737,2028.88
266.248,2029.29
266.759,2019.22
267.27,2014.53
267.781,2019.74
268.293,2026.62
268.802,2041.71
269.313,2054.65
269.824,2065.13
270.335,2069.29
270.846,2070.21
271.357,2069.12
271.865,2066.12
272.376,2060.62
272.887,2054.2
273.398,2049.08
273.907,2046.32
274.418,2056.76
274.928,2070.3
275.439,2099.77
275.95,2113.52
276.458,2131.15
276.969,2121.74
277.48,2113.45
277.988,2129.47
278.499,2159.21
279.009,2202.87
279.52,2189.2
280.028,2193.03
280.538,2197.78
281.049,2205
281.557,2210.5
282.067,2212.54
282.578,2212.11
283.086,2211.08
283.596,2204.74
284.107,2196.12
284.615,2184.16
285.125,2170.02
285.635,2153.56
286.143,2137.28
286.653,2135.55
287.163,2132.48
287.671,2132.28
288.181,2133.36
288.691,2134.39
289.199,2134.02
289.709,2129.4
290.217,2119.1
290.727,2104.76
291.237,2089.6
291.744,2078.61
292.254,2069.08
292.762,2061.59
293.272,2055.2
293.779,2052.2
294.289,2050.38
294.799,2047
295.306,2041.37
295.816,2029.78
296.323,2024.11
296.833,2019.57
297.34,2015.85
297.85,2013.02
298.357,2010.55
298.866,2008
299.374,2004.71
299.883,1999.68
300.39,1995.31
300.9,1991.72
301.407,1988.25
301.916,1989.04
302.423,1989.44
302.933,1991.53
303.44,1994.69
303.947,1996.98
304.456,1996
304.963,1987.61
305.472,1976.64
305.979,1964.05
306.488,1956.73
306.995,1956.81
307.502,1958.2
308.011,1959.11
308.517,1960.01
309.026,1960.32
309.533,1961.27
310.04,1962.55
310.549,1963.93
311.055,1965.38
311.564,1966.51
312.071,1967.42
312.577,1968.85
313.086,1971.54
313.592,1975.18
314.099,1978
314.607,1979.84
315.114,1980.99
315.62,1981.8
316.129,1981.63
316.635,1980.8
317.142,1979.43
317.65,1977.6
318.156,1980.46
318.663,1983.82
319.169,1990.51
319.677,1996.55
320.183,2000.49
320.689,2000.19
321.198,1996.56
321.704,1990.56
322.21,1984.51
322.716,1975.71
323.224,1972.3
323.73,1973.84
324.236,1979.49
324.742,1988.74
325.248,1998.71
325.756,2003.39
326.261,2009.27
326.767,2004.53
327.273,1995.44
327.779,1987.41
328.287,1980.76
328.792,1975.22
329.298,1970.24
329.804,1966.18
330.309,1963.17
330.817,1961.02
331.323,1959.71
331.828,1959.24
332.334,1959.35
332.839,1960.2
333.344,1960.59
333.85,1958.92
334.355,1950.71
334.863,1944.85
335.368,1942.52
335.873,1945.27
336.379,1948.05
336.884,1955
337.389,1965.99
337.894,1975.71
338.4,1980.9
338.905,1985.37
339.41,1988.88
339.915,1991.4
340.42,1992.85
340.927,1993.35
341.432,1992.76
341.937,1991.1
342.442,1988.5
342.947,1985.77
343.452,1983.48
343.957,1982.14
344.462,1981.69
344.967,1982.37
345.471,1983.37
345.976,1987.85
346.481,1991.2
346.986,1990.07
347.49,1986.7
347.995,1982.76
348.499,1978.94
349.004,1974.92
349.507,1970.67
350.011,1966.12
350.516,1960.99
351.02,1959.41
351.525,1965.28
352.029,1967.31
352.533,1970.07
353.038,1973.9
353.542,1976.79
354.046,1978.86
354.551,1980.06
355.055,1980.09
355.557,1977.82
356.061,1973.97
356.566,1968.42
357.07,1961.21
357.574,1955.68
358.078,1950.51
358.582,1948.94
359.086,1946.36
359.588,1951.24
360.092,1960.51
360.596,1970.66
361.1,1982.84
361.604,1987.99
362.106,1987.73
362.61,1988.6
363.113,1988.84
363.617,1989.51
364.121,1990.27
364.623,1991.33
365.126,1992.51
365.63,1994.26
366.134,1995.95
366.637,1998.9
367.139,2002.59
367.642,2005.09
368.146,2006.12
368.65,2003.94
369.151,2000.32
369.654,1994.9
370.158,1987.8
370.659,1979.12
371.163,1969.2
371.666,1958.7
372.169,1957.59
372.671,1955.31
373.174,1961.68
373.677,1972.79
374.178,1970.32
374.681,1963.05
375.185,1950.8
375.686,1948.94
376.189,1949.82
376.692,1954.8
377.193,1962.22
377.696,1967.69
378.199,1971.9
378.7,1974.64
379.203,1975.72
379.704,1975.71
380.206,1974.81
380.709,1973.68
381.21,1972.09
381.713,1970.29
382.214,1969.82
382.716,1970.01
383.219,1971.79
383.72,1973.65
384.222,1974
384.723,1973.06
385.226,1966.92
385.726,1961.56
386.229,1954.38
386.729,1947.45
387.232,1946.88
387.734,1948.15
388.235,1953.21
388.737,1959.47
389.237,1965.9
389.74,1973.08
390.24,1982.31
390.742,1992.23
391.242,2003.39
391.745,2013.7
392.245,2004.19
392.747,1993.98
393.247,1999.14
393.747,2021.87
394.249,2031.88
394.749,2040.22
395.252,2045.15
395.752,2049.41
396.254,2051.37
396.753,2051.79
397.253,2051.39
397.755,2053.26
398.255,2053.08
398.757,2052.62
399.257,2051.97
399.759,2051.13
400.258,2050.1
400.758,2049.35
401.26,2048.48
401.759,2047.6
402.259,2046.89
402.761,2046.3
403.26,2046.03
403.76,2046.4
404.261,2047.72
404.761,2051.66
405.26,2059.09
405.762,2059.19
406.261,2056.5
406.761,2051.46
407.262,2040.71
407.761,2031.76
408.261,2031.01
408.762,2029.73
409.261,2027.95
409.761,2025.05
410.26,2021.45
410.761,2017.47
411.26,2013.47
411.759,2008.97
412.258,2004.04
412.759,2008.54
413.258,2016
413.757,2023.79
414.256,2027.92
414.757,2028.58
415.256,2025.07
415.755,2014.64
416.254,2010.14
416.753,2006.68
417.254,2004.86
417.753,2009.61
418.251,2016.84
418.75,2021.57
419.249,2026.06
419.749,2029.35
420.248,2032.19
420.747,2033.58
421.245,2034.74
421.744,2035.76
422.242,2037.49
422.741,2043.86
423.242,2054.83
423.74,2061.11
424.238,2069.01
424.737,2079.76
425.235,2085.2
425.734,2084.97
426.232,2078.92
426.73,2069.42
427.228,2062.32
427.727,2057.49
428.225,2054.91
428.725,2055.17
429.223,2058.59
429.721,2065.78
430.22,2067.82
430.718,2067.37
431.216,2062.11
431.714,2056.64
432.212,2051.11
432.71,2045.65
433.208,2039.54
433.706,2033.56
434.203,2027.87
434.701,2023.04
435.199,2027.02
435.697,2043.95
436.195,2053.3
436.692,2064.19
437.19,2068.66
437.688,2066.19
438.186,2056.61
438.683,2042.51
439.181,2033.56
439.676,2027.73
440.174,2023.76
440.671,2021
441.169,2019.29
441.666,2018.78
442.164,2019.39
442.661,2020.58
443.159,2021.79
443.656,2019.32
444.154,2007.5
444.651,1997.32
445.146,1988.5
445.643,1981.17
446.141,1975.64
446.638,1971.58
447.135,1980.51
447.632,1991.85
448.129,1996.04
448.624,1996.84
449.121,1991.08
449.618,1981.86
450.116,1974.29
450.613,1969.99
451.107,1967.08
451.604,1967.78
452.101,1970.83
452.598,1975.94
453.095,1981.86
453.59,1990.02
454.087,1996.78
454.583,2001.4
455.08,2003.48
455.575,2000.98
456.072,1998.52
456.568,1995.47
457.065,1992.02
457.559,1988.97
458.056,1986.29
458.553,1983.93
459.049,1982.55
459.544,1982.25
460.04,1983.1
460.537,1984.69
461.031,1986.81
461.527,1989.26
462.024,1991.09
462.518,1991.43
463.014,1984.93
463.511,1974.74
464.005,1965.29
464.501,1965.34
464.997,1965.91
465.492,1975.09
465.988,1978.6
466.484,1983.69
466.978,1985.73
467.474,1983.1
467.968,1988.97
468.464,1994.66
468.96,2004.08
469.454,2013.98
469.95,2021.72
470.444,2027.66
470.94,2031.61
471.436,2033.6
471.929,2035.45
472.425,2040.02
472.919,2045.08
473.415,2050.22
473.908,2055.61
474.404,2062.05
474.898,2068.02
475.393,2072.07
475.887,2074.01
476.383,2074.09
476.876,2073.85
477.372,2078.2
477.865,2087.7
478.361,2101.78
478.854,2120.07
479.35,2142.92
479.843,2169.84
480.338,2201.38
480.832,2231.18
481.327,2229.82
481.82,2227.38
482.316,2226.9
482.809,2229.24
483.304,2232.86
483.797,2248.5
484.29,2262.54
484.785,2273.57
485.279,2276.47
485.774,2267.61
486.267,2251.22
486.76,2226.3
487.255,2198.91
487.748,2173.52
488.243,2157.14
488.735,2151.11
489.228,2157.09
489.723,2164.87
490.216,2172.48
490.709,2170.25
491.204,2170.57
491.696,2163.15
492.189,2157.48
492.684,2163.21
493.176,2176.1
493.669,2191.95
494.164,2210.37
494.656,2232.99
495.149,2258.33
495.641,2285.1
496.136,2314.24
496.628,2346.04
497.121,2381.22
497.615,2417.7
498.108,2453.6
498.6,2484.75
499.092,2510.99
499.587,2536.12
500.079,2557.69
500.571,2576.38
501.063,2591.76
501.556,2603.45
502.05,2610.57
502.542,2605.46
503.034,2588.85
503.526,2560.94
504.018,2525.92
504.512,2492.72
505.004,2456.95
505.496,2418.71
505.988,2382.53
506.48,2345.28
506.972,2320.61
507.466,2302.17
507.958,2284.17
508.45,2270.29
508.942,2258.59
509.433,2249.22
509.925,2244.02
510.417,2236.82
510.909,2225.19
511.402,2215.19
511.894,2205.53
512.386,2193.07
512.877,2185.99
513.369,2183.99
513.86,2179.39
514.352,2174.98
514.843,2167.31
515.335,2158.68
515.826,2143.19
516.318,2137.62
516.809,2132.87
517.3,2130.96
517.792,2130.45
518.283,2132.03
518.774,2134.52
519.265,2137.88
519.757,2141.42
520.248,2144.56
520.739,2148.04
521.23,2151.76
521.721,2155.44
522.212,2158.99
522.703,2161.9
523.194,2161.18
523.685,2155.14
524.176,2148.54
524.667,2140.01
525.158,2127.97
525.649,2115.93
526.14,2105.41
526.631,2094.36
527.122,2083.67
527.613,2075.07
528.103,2067.73
528.592,2061.66
529.083,2057.04
529.574,2053.95
530.064,2052.06
530.555,2051.57
531.045,2051.24
531.536,2047.11
532.027,2039.24
532.515,2029.5
533.006,2017.88
533.496,2007.42
533.987,2007.23
534.477,2010.26
534.967,2014.33
535.456,2018.53
535.946,2020.24
536.436,2024.04
536.927,2027.05
537.417,2029.65
537.905,2030.08
538.395,2023.33
538.886,2012.21
539.376,1998.97
539.864,1991.28
540.354,1985.77
540.844,1982.24
541.334,1980.82
541.822,1981.71
542.312,1985.26
542.802,1990.53
543.292,1996.89
543.78,2002.38
544.27,2007.79
544.76,2013.65
545.248,2019.38
545.737,2025.29
546.227,2030.73
546.715,2036.21
547.205,2041.64
547.695,2047.4
548.182,2053.92
548.672,2061
549.161,2068.8
549.649,2076.96
550.139,2085.17
550.628,2093.68
551.116,2093.53
551.605,2088.02
552.095,2084.18
552.582,2087.12
553.072,2087.9
553.559,2091.14
554.048,2094.32
554.538,2097.45
555.025,2100.44
555.514,2103.64
556.002,2106.53
556.491,2105.64
556.978,2101.64
557.467,2091.2
557.954,2086.72
558.443,2084.3
558.933,2083.86
559.42,2085.02
559.909,2085.7
560.396,2087.35
560.885,2089.49
561.372,2092.08
561.861,2095.05
562.348,2096.98
562.836,2092.71
563.323,2065.87
563.812,2062.67
564.299,2062.2
564.788,2062.57
565.275,2065.13
565.761,2063.3
566.25,2058.21
566.737,2051.64
567.225,2039.84
567.712,2032.08
568.201,2032.34
568.687,2028.65
569.174,2023.13
569.662,2013.35
570.149,2005.6
570.637,1990.09
571.124,1980.52
571.61,1974.75
572.099,1971.59
572.585,1970.88
573.071,1971.03
573.56,1971.92
574.046,1969.76
574.534,1968.3
575.02,1968.39
575.507,1968.83
575.993,1970.62
576.481,1973.66
576.967,1976.75
577.453,1980.83
577.941,1987.57
578.427,1991.97
578.913,1989.52
579.401,1981.14
579.887,1974.43
580.373,1968.22
580.859,1965.05
581.347,1964.39
581.833,1965.98
582.319,1969.47
582.805,1973.36
583.292,1977.04
583.778,1977.33
584.264,1976.22
584.75,1975
585.237,1973.47
585.723,1972.55
586.209,1972.11
586.694,1972.1
587.18,1972.2
587.667,1971.8
588.153,1969.94
588.638,1968.09
589.124,1965.81
589.609,1964.62
590.095,1965.35
590.582,1965.27
591.068,1967.27
591.553,1970
592.038,1972.59
592.523,1974.04
593.009,1966.1
593.494,1957.94
593.979,1958.6
594.464,1964.34
594.952,1978.93
595.437,1992.21
595.922,1999.52
596.407,1995.11
596.892,1992.76
597.377,1980.91
597.862,1969.99
598.347,1970.51
598.832,1971.35
599.317,1973.22
599.802,1975.18
600.287,1976.58
600.772,1977.45
601.256,1977.91
601.741,1978.33
602.226,1978.69
602.711,1977.08
603.195,1976.48
603.68,1977.14
604.165,1981.73
604.65,1984.25
605.134,1983.34
605.619,1980.53
606.103,1973.92
606.588,1964.66
607.072,1957.71
607.557,1957.31
608.041,1960.89
608.526,1965.15
609.01,1971.56
609.495,1977
609.979,1978.53
610.461,1979.31
610.946,1979.66
611.43,1979.85
611.914,1980.29
612.352,1980.23
612.842,1980.12
613.333,1978.79
613.821,1964.82
614.311,1962.94
614.801,1966.02
615.289,1972.44
615.779,1979.71
616.269,1988.88
616.757,1999.34
617.247,2005.04
617.735,1999.23
618.225,1989.07
618.715,1980.4
619.203,1970.53
619.693,1964.45
620.181,1964.6
620.671,1972.57
621.159,1981.04
621.648,1988.85
622.138,1995.69
622.626,2000.24
623.116,1999.32
623.603,2000.23
624.093,2000.95
624.581,2002.45
625.07,2002.62
625.558,1998.8
626.047,1993.7
626.535,1988.3
627.024,1982.88
627.512,1978.19
628.001,1974
628.489,1981.29
628.978,1981.96
629.465,1991.22
629.955,1985.8
630.442,1972.97
630.931,1965.21
631.419,1960.82
631.908,1970.85
632.395,1988.65
632.882,1998.27
633.371,2002.19
633.859,2001.28
634.348,1996.49
634.835,1988.93
635.324,1978.48
635.811,1972.59
636.298,1970.96
636.787,1966.71
637.274,1969.85
637.763,1973.07
638.249,1975.97
638.736,1978.67
639.225,1981.14
639.712,1983.23
640.199,1979.78
640.688,1979.4
641.174,1979.63
641.661,1980.11
642.15,1980.22
642.636,1980.22
643.123,1979.97
643.612,1979.31
644.098,1978.37
644.585,1976.44
645.073,1974.69
645.56,1976
646.046,1983.34
646.535,1988.69
647.021,1990.54
647.507,1990.79
647.994,1989.6
648.482,1986.41
648.968,1981.34
649.455,1975.83
649.941,1970.98
650.429,1967.1
650.915,1963.33
651.402,1960.21
651.888,1957.71
652.376,1955.84
652.862,1954.62
653.348,1954.45
653.834,1957.1
654.32,1961.74
654.808,1968.47
655.294,1977.49
655.78,1981.5
656.266,1977.59
656.752,1976.01
657.238,1966
657.726,1958.53
658.211,1956.45
658.697,1957.15
659.183,1957.38
659.669,1958.63
660.154,1958.43
660.64,1958.79
661.128,1958.65
661.613,1958.35
662.099,1958.43
662.585,1958.73
663.07,1960.03
663.556,1962.38
664.041,1965.8
664.527,1969.92
665.012,1973.62
665.497,1976.25
665.983,1977.57
666.47,1978.1
666.956,1978.63
667.441,1979.23
667.926,1980.2
668.411,1980.45
668.897,1981.11
669.382,1981.99
669.867,1983.97
670.352,1987.74
670.837,1994.44
671.323,2005.76
671.808,2009.77
672.293,2011.26
672.778,2010.61
673.263,2007.85
673.748,2006.38
674.233,2018.69
674.718,2021.61
675.203,2023.56
675.687,2029.28
676.172,2028.27
676.657,2017.53
677.142,2019.64
677.625,2029.63
678.109,2034.86
678.594,2039.61
679.079,2043.56
679.563,2045.74
680.048,2046.75
680.533,2047.8
681.017,2047.85
681.502,2046.81
681.986,2044.54
682.471,2040.81
682.953,2034.13
683.438,2023.68
683.922,2010.18
684.407,2005.8
684.891,2007.15
685.376,2011.66
685.86,2015.35
686.342,2014.21
686.826,2012.77
687.311,2011.11
687.795,2009.36
688.279,2005.91
688.763,2002.32
689.245,1997.98
689.73,1994.41
690.214,1992.01
690.698,1990.97
691.18,1991.66
691.664,1992.82
692.148,1996.49
692.632,1999.46
693.116,1994.79
693.598,1986.03
694.082,1978.69
694.565,1975.63
695.049,1975.1
695.531,1974.44
696.015,1976.87
696.499,1983.92
696.98,1984.23
697.464,1977.31
697.948,1973.16
698.432,1971.32
698.913,1972.16
699.397,1975.08
699.88,1978.06
700.362,1981.89
700.845,1986.16
701.329,1985.1
701.81,1979.91
702.294,1976.88
702.777,1977.58
703.259,1979.29
703.742,1980.43
704.225,1984.75
704.707,1986.52
705.19,1982.2
705.671,1977.84
706.155,1972.15
706.638,1972.72
707.119,1973.17
707.602,1980.87
708.083,1985.44
708.566,1989.19
709.05,1993.81
709.531,1998.48
710.014,1988.89
710.495,1973.08
710.978,1961.11
711.459,1953.34
711.942,1950.73
712.423,1958.82
712.905,1960.91
713.388,1962.32
713.869,1963.85
714.352,1963.53
714.833,1957.92
715.315,1956.97
715.796,1957.04
716.279,1960.54
716.76,1966.52
717.242,1972.83
717.723,1977.6
718.204,1981.11
718.686,1983.54
719.167,1985.23
719.649,1985.74
720.13,1984.14
720.612,1979.58
721.093,1993.39
721.575,2009.01
722.055,2013.34
722.536,2004.29
723.018,1982.14
723.499,1949.02
723.981,1955.29
724.461,1964.18
724.943,1967.27
725.424,1968.68
725.904,1970.15
726.386,1971.6
726.866,1972.05
727.346,1972.26
727.828,1972.4
728.308,1972.33
728.788,1973.62
729.271,1983.26
729.75,1985.98
730.232,1984.7
730.712,1981.39
731.192,1981.68
731.672,1983.96
732.154,1986.79
732.634,1990.03
733.114,1993.85
733.596,1998.63
734.075,2003.64
734.555,2007.88
735.037,2011.33
735.516,2013.54
735.996,2014.91
736.476,2014.14
736.957,2013.23
737.437,2012.11
737.917,2011.93
738.396,2018.76
738.878,2026.3
739.357,2033.08
739.836,2038.13
740.316,2041.09
740.795,2040.92
741.277,2038.69
741.756,2034.85
742.235,2029.19
742.715,2021.77
743.194,2014.31
743.675,2007.84
744.154,2003.54
744.634,1999.65
745.113,1998.6
745.592,1999.25
746.071,2000.2
746.552,2001.23
747.031,2002.36
747.51,2003.17
747.989,2005.42
748.468,1999.58
748.947,1993.3
749.426,1988.47
749.905,1985.13
750.384,1980.29
750.865,1981.01
751.344,1987.77
751.823,1993.77
752.302,2001.14
752.78,2007.18
753.259,2008.86
753.738,2005.03
754.216,1994.71
754.695,2002.43
755.174,2003.89
755.652,2000
756.131,2000
756.61,2000
757.088,2000
757.567,2022.07
758.045,2014.74
758.524,2027.18
759.002,2048.24
759.48,2040.9
759.959,2043.26
760.437,2044.27
760.916,2042.88
761.394,2040.2
761.872,2036.64
762.35,2031.54
762.829,2028.28
763.307,2024.11
763.785,2024.75
764.263,2024.32
764.741,2021.73
765.22,2016.98
765.698,2010.12
766.176,2011.73
766.654,2012.85
767.13,2020.77
767.608,2026.25
768.086,2030.16
768.564,2031.64
769.042,2030.25
769.519,2027.08
769.997,2023.38
770.475,2018.16
770.951,2010.94
771.429,2002.25
771.906,1993.99
772.384,1986.59
772.862,1980.34
773.34,1978.41
773.815,1977.61
774.293,1978.11
774.771,1979.88
775.248,1982.99
775.726,1985.85
776.203,1988.38
776.679,1990.75
777.156,1993.17
777.634,1995.54
778.111,1998.55
778.587,1988.8
779.064,1972.58
779.541,1960.98
780.019,1962.71
780.494,1968.56
780.971,1978.49
781.448,1989.81
781.926,1986.97
782.401,1983.02
782.878,1979.5
783.355,1973.08
783.83,1964.89
784.307,1957.86
784.785,1952.93
785.262,1950.33
785.737,1949.67
786.214,1950.65
786.691,1954.26
787.166,1959.92
787.643,1967.94
788.12,1977.16
788.594,1978.29
789.071,1979.49
789.548,1977.09
790.023,1974
790.5,1972.13
790.974,1971.27
791.451,1971.19
791.928,1967.88
792.403,1964.24
792.879,1960.53
793.354,1955.59
793.83,1961.2
794.307,1969.55
794.782,1975.97
795.258,1979.65
795.733,1981.92
796.209,1982.02
796.684,1981.55
797.16,1980.16
797.634,1977.62
798.111,1974.36
798.587,1970.88
799.061,1967.06
799.538,1962.99
800.012,1958.67
800.488,1954.13
800.963,1952.02
801.439,1948.13
801.913,1943.7
802.389,1937.1
802.863,1926.22
803.339,1922.86
803.813,1924.46
804.287,1929.69
804.763,1937.57
805.238,1946.25
805.714,1957.96
806.188,1958.16
806.663,1953.94
807.137,1939.4
807.613,1930.12
808.087,1931.88
808.561,1944.47
809.037,1955.83
809.51,1963.67
809.986,1970.09
810.46,1973.34
810.934,1973.95
811.409,1972.5
811.883,1968.89
812.357,1963.55
812.832,1957.78
813.306,1951.9
813.779,1947.31
814.255,1945.06
814.728,1942.93
815.202,1941.86
815.677,1941.53
816.151,1942.3
816.624,1944
817.1,1947.67
817.573,1953.71
818.046,1959.61
818.522,1964.95
818.995,1967.99
819.468,1964.02
819.941,1958.51
820.417,1951.98
820.89,1944.59
821.363,1939.84
821.838,1935.59
822.311,1935.26
822.784,1938.46
823.257,1947.63
823.73,1952.94
824.205,1951.95
824.678,1945.63
825.151,1933.88
825.624,1929.61
826.097,1948.14
826.572,1961.16
827.045,1970.65
827.518,1978.35
827.991,1980.88
828.464,1976.6
828.938,1965.06
829.411,1953.1
829.884,1941.13
830.356,1930.6
830.829,1931.37
831.302,1932.15
831.774,1935.73
832.249,1942.3
832.721,1951.21
833.194,1941.76
833.667,1926.5
834.139,1912.71
834.612,1904.74
835.084,1925.9
835.556,1943.95
836.029,1956.63
836.501,1965.44
836.974,1970.44
837.448,1972.24
837.92,1970.28
838.392,1964.18
838.865,1954.97
839.337,1948.86
839.809,1943.87
840.281,1938.21
840.753,1934.17
841.225,1930.89
841.698,1932.14
842.17,1934.47
842.642,1939.29
843.114,1944.87
843.586,1949.58
844.058,1953.97
844.53,1958.69
845.002,1961.89
845.474,1962.48
845.945,1960.93
846.417,1955.06
846.889,1948.59
847.359,1942.33
847.831,1935.75
848.302,1930.32
848.774,1930.21
849.246,1935.88
849.718,1939.1
850.189,1941.58
850.661,1943.5
851.132,1944.24
851.604,1945.39
852.076,1947.51
852.545,1949.47
853.017,1950.8
853.488,1951.83
853.96,1952.17
854.431,1951.81
854.902,1949.65
855.374,1946.25
855.843,1942.2
856.315,1938.5
856.786,1935.77
857.257,1934.65
857.728,1935.09
858.2,1936.63
858.669,1939.31
859.14,1942.82
859.611,1947.15
860.082,1952.69
860.551,1958.71
861.023,1964.68
861.494,1967.47
861.965,1966.22
862.436,1957.32
862.905,1947.75
863.376,1938.43
863.847,1929.48
864.317,1926.87
864.786,1928.42
865.257,1934.13
865.728,1941.4
866.197,1949.75
866.668,1957.57
867.138,1958.75
867.607,1954.76
868.078,1945.15
868.549,1926.23
869.019,1917.78
869.488,1920.83
869.959,1954.39
870.427,1953.45
870.898,1956.79
871.368,1959.21
871.837,1960.56
872.307,1953.62
872.778,1952.23
873.246,1954.75
873.717,1962.45
874.187,1948.33
874.656,1935.16
875.126,1923.1
875.594,1918.57
876.065,1916.7
876.535,1920.88
877.003,1923.64
877.473,1926.23
877.942,1928.76
878.412,1930.82
878.88,1932.59
879.35,1933.09
879.818,1930.79
880.288,1932.78
880.756,1935.59
881.226,1939.85
881.696,1942.96
882.164,1944.09
882.634,1945.87
883.102,1946.2
883.572,1947.22
884.04,1947.09
884.51,1945.48
884.978,1938.61
885.446,1925.55
885.915,1924.07
886.383,1936.22
886.853,1972.56
887.321,1983.08
887.79,1970.39
888.258,1961.12
888.728,1952.39
889.195,1947.46
889.663,1946.2
890.133,1949.64
890.6,1950.61
891.07,1951.47
891.537,1952.12
892.005,1953.02
892.474,1953.98
892.942,1954.89
893.411,1955.58
893.878,1956.11
894.346,1956.31
894.815,1956.33
895.282,1955.32
895.75,1953.73
896.219,1952.29
896.686,1952.05
897.153,1952.73
897.623,1953.79
898.09,1954.59
898.557,1953.34
899.026,1950.38
899.493,1946.67
899.96,1942.2
900.427,1937.23
900.896,1931.96
901.363,1927.53
901.83,1925.18
902.299,1925.25
902.766,1925.98
903.233,1927.17
903.7,1928.24
904.169,1930.02
904.636,1932.46
905.102,1935.79
905.569,1939.95
906.036,1945.49
906.505,1952.32
906.971,1959.33
907.438,1964.95
907.905,1969.35
908.371,1973.1
908.84,1975.65
909.307,1970.82
909.773,1945.08
910.24,1931.87
910.706,1928.04
911.173,1929.85
911.641,1935.43
912.108,1936.75
912.574,1936.18
913.04,1938.71
913.507,1941.33
913.973,1944.67
914.439,1948.44
914.906,1952.12
915.372,1955.49
915.84,1955.41
916.307,1950.8
916.773,1946.06
917.239,1941.6
917.705,1937.11
918.171,1932.4
918.637,1927.85
919.103,1923.71
919.569,1920.2
920.036,1917.83
920.502,1916.53
920.968,1916.6
921.433,1919.34
921.899,1920.46
922.365,1921.76
922.831,1923.67
923.297,1926.7
923.763,1930.97
924.229,1936.23
924.695,1942.91
925.16,1941.71
925.626,1940.98
926.092,1939.38
926.557,1935.82
927.023,1933.22
927.489,1930.48
927.954,1928.24
928.42,1926.67
928.886,1925.93
929.351,1926.37
929.817,1930.87
930.28,1935.35
930.746,1939.96
931.211,1942.71
931.677,1943.69
932.142,1943.29
932.607,1939.63
933.073,1934.04
933.538,1927.56
934.003,1921.14
934.467,1922.16
934.932,1924.27
935.397,1933.18
935.862,1943.33
936.328,1953.99
936.793,1962.68
937.256,1969.25
937.721,1973.7
938.186,1976.06
938.651,1976.42
939.116,1974.64
939.579,1970.87
940.044,1964.99
940.509,1957.12
940.974,1947.58
941.439,1936.26
941.902,1925.43
942.367,1927.5
942.832,1934.67
943.297,1945.49
943.76,1954
944.224,1965.58
944.689,1972.04
945.152,1939.22
945.617,1936.05
946.081,1937.23
946.546,1940.29
947.009,1943.89
947.473,1945.04
947.938,1947
948.401,1949.38
948.865,1951.4
949.33,1953.11
949.792,1954.45
950.257,1955.32
950.721,1955.41
951.183,1954.82
951.648,1953.44
952.112,1951.58
952.575,1951.85
953.039,1956.61
953.501,1963.26
953.966,1968.51
954.43,1971.93
954.892,1975.75
955.356,1979
955.819,1980.73
956.283,1981.04
956.745,1977.97
957.209,1972.37
957.673,1963.51
958.135,1953.83
958.599,1945.99
959.061,1940.38
959.525,1936.59
959.987,1936.84
960.451,1937.91
960.913,1939.15
961.377,1941.68
961.839,1946.1
962.303,1950.13
962.765,1953.63
963.228,1955.36
963.69,1953.68
964.154,1950.86
964.616,1946.72
965.079,1939.7
965.541,1932.78
966.005,1929.56
966.467,1930.28
966.93,1933.45
967.392,1936.91
967.853,1941
968.317,1945.55
968.778,1950.92
969.242,1956.72
969.703,1962.96
970.165,1969.53
970.628,1975.84
971.09,1982.34
971.553,1987.69
972.015,1983.99
972.476,1977.04
972.939,1967.4
973.401,1969.47
973.862,1973.44
974.325,1977.71
974.786,1985.71
975.247,1993.01
975.711,1997.89
976.172,1995.93
976.633,1990.65
977.096,1988.34
977.557,1984.13
978.018,1978.74
978.481,1974.07
978.942,1970.09
979.403,1967.89
979.864,1966.85
980.327,1969.01
980.788,1975.38
981.249,1981.18
981.712,1989.51
982.173,1990.44
982.634,1986.5
983.094,1977.08
983.555,1964.25
984.018,1954.01
984.479,1945.92
984.939,1934.23
985.4,1932.52
985.861,1940.53
986.323,1953.3
986.784,1964.17
987.245,1973
987.705,1980
988.166,1971.68
988.628,1951.73
989.089,1940.28
989.549,1940.07
990.01,1935.3
990.47,1931.87
990.93,1929.46
991.391,1927.8
991.853,1926.73
992.313,1926.15
992.774,1926.13
993.234,1926.47
993.694,1927.03
994.155,1927.89
994.615,1929.08
995.075,1930.52
995.535,1932.33
995.995,1934.28
996.456,1936.38
996.916,1938.54
997.376,1940.25
997.836,1941.04
998.298,1939.78
998.758,1936.57
999.218,1931.53
999.678,1925.14
1000.14,1920.73
1000.6,1918.11
1001.06,1917.48
1001.52,1917.74
1001.98,1918.55
1002.44,1920.31
1002.9,1922.71
1003.36,1925.07
1003.81,1926.55
1004.27,1926.47
1004.73,1925.93
1005.19,1921.03
1005.65,1916.13
1006.11,1911.52
1006.57,1906.95
1007.03,1902.99
1007.49,1900.32
1007.95,1898.34
1008.41,1898.52
1008.87,1902.88
1009.33,1905.46
1009.79,1905.99
1010.25,1901.84
1010.71,1897.14
1011.17,1889.33
1011.62,1886.88
1012.08,1886.25
1012.54,1889.8
1013,1896.01
1013.46,1900.92
1013.92,1904.88
1014.38,1908.14
1014.84,1910.46
1015.3,1911.56
1015.75,1911.18
1016.21,1909.43
1016.67,1907.37
1017.13,1903.5
1017.59,1899.13
1018.05,1894.13
1018.51,1888.22
1018.96,1883.47
1019.42,1902.36
1019.88,1899.32
1020.34,1896.51
1020.8,1891
1021.26,1885.98
1021.71,1883.22
1022.17,1879.21
1022.63,1874.78
1023.09,1872.98
1023.55,1875.03
1024.01,1873.45
1024.46,1871.69
1024.92,1874.38
1025.38,1878.45
1025.84,1881.88
1026.3,1882.91
1026.75,1880.35
1027.21,1876.57
1027.67,1871.7
1028.13,1867.22
1028.58,1864
1029.04,1865.82
1029.5,1869.26
1029.96,1868.67
1030.42,1866.92
1030.87,1864.05
1031.33,1862.62
1031.79,1863.63
1032.25,1865.45
1032.7,1866.87
1033.16,1867.6
1033.62,1867.92
1034.08,1867.37
1034.53,1866.14
1034.99,1865.17
1035.45,1864.77
1035.91,1865.82
1036.36,1867.57
1036.82,1870.11
1037.28,1872.76
1037.73,1873.85
1038.19,1874.63
1038.65,1874.7
1039.1,1871.56
1039.56,1860.01
1040.02,1849.38
1040.47,1852.78
1040.93,1859.08
1041.39,1867.95
1041.84,1874.04
1042.3,1869.05
1042.76,1866.26
1043.22,1862.74
1043.67,1859.31
1044.13,1855.64
1044.59,1852.84
1045.04,1852.47
1045.5,1852.84
1045.95,1854.84
1046.41,1857.73
1046.87,1860.35
1047.32,1862.04
1047.78,1863.46
1048.24,1863.98
1048.7,1863.61
1049.17,1862.54
1049.63,1860.77
1050.09,1858.18
1050.55,1856.04
1051.01,1856.06
1051.47,1858.35
1051.93,1859.35
1052.4,1859.1
1052.86,1858.53
1053.32,1857.78
1053.78,1856.71
1054.24,1855.3
1054.7,1853.48
1055.16,1851.31
1055.62,1848.83
1056.09,1845.84
1056.55,1842.68
1057.01,1840.98
1057.47,1846.83
1057.93,1852.23
1058.39,1853.38
1058.85,1852.68
1059.31,1850.8
1059.77,1849.73
1060.23,1849.64
1060.7,1848.88
1061.16,1849.14
1061.62,1852.84
1062.08,1854.26
1062.54,1854.5
1063,1850.25
1063.46,1845.18
1063.92,1841.86
1064.38,1845.62
1064.84,1849.37
1065.3,1854.26
1065.76,1861.41
1066.22,1867.13
1066.68,1864.8
1067.14,1858.31
1067.6,1851.01
1068.06,1845.34
1068.52,1841.06
1068.98,1840.87
1069.44,1839.59
1069.91,1835.11
1070.37,1829.72
1070.83,1824.59
1071.29,1823.07
1071.75,1820.71
1072.21,1823.54
1072.67,1830.94
1073.13,1837.52
1073.59,1842.65
1074.05,1846.86
1074.51,1850.39
1074.96,1852.83
1075.42,1854.13
1075.88,1854.28
1076.34,1852.85
1076.8,1850.25
1077.26,1847.71
1077.72,1848.06
1078.18,1850.05
1078.64,1855.79
1079.1,1862.8
1079.56,1864.5
1080.02,1859.41
1080.48,1842.4
1080.94,1821.55
1081.4,1835.82
1081.86,1838.72
1082.32,1838.65
1082.77,1837.9
1083.23,1837.39
1083.69,1836.92
1084.15,1836.21
1084.61,1835.56
1085.07,1834.79
1085.53,1834
1085.99,1833.06
1086.45,1832.23
1086.91,1830.8
1087.36,1829.03
1087.82,1825.79
1088.28,1826.47
1088.74,1830.55
1089.2,1835.34
1089.66,1836.95
1090.12,1838.15
1090.57,1839.35
1091.03,1841.35
1091.49,1842.96
1091.95,1846.04
1092.41,1846.19
1092.87,1838.84
1093.33,1834.05
1093.78,1831.03
1094.24,1829.72
1094.7,1830.13
1095.16,1832.2
1095.62,1835.77
1096.07,1842.07
1096.53,1849.53
1096.99,1857.72
1097.45,1862.18
1097.91,1859.49
1098.37,1855.86
1098.82,1849.9
1099.28,1842.35
1099.74,1836
1100.2,1834.76
1100.66,1836.43
1101.11,1834.53
1101.57,1832.17
1102.03,1828.87