Wave,Enstatite
95.4877,2822
96.0105,2792.5
96.5354,2841.69
97.0581,2926.66
97.583,2950.73
98.1078,2940.55
98.6305,2936.09
99.1552,2940.12
99.6778,2953.18
100.203,2976.56
100.725,3009.97
101.25,3054.15
101.772,3109.09
102.297,3175.31
102.821,3252.65
103.344,3341.85
103.868,3442.46
104.391,3548.59
104.915,3607.18
105.437,3639.4
105.962,3645.01
106.484,3651.94
107.008,3660.47
107.53,3676.49
108.055,3716.75
108.577,3771.85
109.101,3837.41
109.623,3913.3
110.145,3995.24
110.669,4086.83
111.191,4186.22
111.715,4294.54
112.237,4410.16
112.761,4534.23
113.283,4636.25
113.805,4671.41
114.329,4635.3
114.85,4581.67
115.374,4520.41
115.896,4453.64
116.42,4380.11
116.941,4315.72
117.463,4266.13
117.987,4235.03
118.508,4226.52
119.03,4233.73
119.553,4259.14
120.075,4298.91
120.596,4350.23
121.12,4400.55
121.641,4407.42
122.162,4385.46
122.686,4366.44
123.207,4358.5
123.728,4363.84
124.252,4386.21
124.773,4424.73
125.294,4483.31
125.817,4559.59
126.339,4653.93
126.86,4768
127.383,4903.43
127.904,5116.55
128.425,5397.85
128.946,5666.13
129.469,6179.63
129.99,6721.13
130.511,7454.63
131.031,8689.13
131.554,10107.6
132.075,11511.1
132.596,12977.6
133.117,13924.1
133.64,14313.6
134.16,13224.1
134.681,14501.6
135.201,15257.2
135.722,10337.7
136.245,8281.15
136.765,6564.44
137.286,6021.97
137.806,5746.07
138.327,5412.81
138.849,5176.7
139.37,5020.57
139.89,4885.68
140.41,4780.75
140.931,4702.51
141.451,4652.63
141.971,4625.29
142.493,4606.19
143.014,4605.43
143.534,4622.23
144.054,4655.07
144.574,4670.47
145.094,4644.89
145.614,4592.76
146.134,4521.08
146.654,4466.07
147.174,4436.32
147.696,4428.56
148.216,4440.8
148.736,4470
149.256,4513.71
149.775,4567.35
150.295,4629.73
150.815,4699.11
151.335,4771.24
151.854,4840.45
152.374,4896.26
152.894,4927.06
153.413,4928.61
153.933,4895.02
154.452,4823.99
154.972,4714.24
155.491,4590.25
156.011,4508.93
156.53,4455.79
157.05,4427.98
157.569,4408.56
158.088,4393.79
158.608,4383.8
159.127,4381.25
159.646,4384.22
160.165,4388.48
160.685,4392.88
161.204,4389.25
161.723,4375.46
162.242,4359.57
162.761,4348.81
163.28,4354.96
163.797,4376.55
164.316,4413.62
164.835,4474.28
165.354,4551.98
165.873,4624.88
166.392,4667.54
166.91,4623
167.429,4553.14
167.948,4485.55
168.465,4422.27
168.983,4369.23
169.502,4318.57
170.021,4278.47
170.539,4245.92
171.058,4228.48
171.577,4222.07
172.093,4237
172.612,4249.95
173.13,4247.52
173.649,4245.89
174.167,4242.2
174.683,4238.78
175.202,4234.63
175.72,4231.18
176.238,4230
176.757,4230.05
177.273,4230.49
177.791,4234.58
178.309,4240.26
178.828,4247.16
179.344,4254.56
179.862,4261.91
180.38,4267.64
180.898,4268.51
181.414,4269.2
181.932,4267.56
182.45,4267.99
182.968,4270.92
183.484,4290.47
184.001,4300
184.519,4300
185.035,4310
185.553,4312
186.071,4300
186.586,4273.32
187.104,4297.49
187.622,4311.05
188.139,4327.46
188.655,4351.13
189.172,4383.39
189.688,4423.71
190.205,4470.54
190.723,4521.16
191.238,4567.58
191.756,4600.86
192.273,4624.52
192.789,4627.54
193.306,4625.16
193.821,4619.05
194.339,4612.34
194.856,4611.97
195.371,4609.8
195.888,4609.74
196.403,4608.99
196.92,4607.67
197.438,4602.91
197.953,4559.85
198.47,4539.73
198.985,4525.66
199.502,4530.26
200.017,4553.52
200.534,4597.35
201.048,4663.63
201.565,4748.88
202.08,4853.58
202.597,4977.25
203.114,5119.13
203.628,5279.73
204.145,5457.47
204.66,5489.66
205.177,5322.65
205.691,5138.22
206.206,4926.41
206.722,4804.34
207.237,4674.13
207.753,4610.81
208.268,4562.02
208.784,4526.71
209.299,4505.22
209.815,4504.52
210.33,4500.45
210.846,4493.76
211.36,4479.58
211.874,4462.68
212.391,4445.28
212.905,4430.77
213.421,4420.63
213.935,4408.51
214.449,4400.66
214.966,4416.63
215.48,4441.14
215.996,4464.69
216.51,4485.98
217.024,4502.79
217.54,4517.15
218.054,4527.06
218.568,4532.62
219.083,4534.61
219.597,4534.41
220.111,4532.72
220.627,4532.98
221.141,4538.85
221.654,4548.26
222.17,4536.29
222.684,4526.73
223.197,4521.12
223.713,4517.62
224.227,4516.57
224.74,4512.52
225.254,4534.6
225.769,4562.09
226.283,4608.44
226.796,4640.02
227.312,4648.6
227.825,4661.18
228.338,4682.86
228.852,4709.66
229.367,4741.88
229.88,4781.47
230.393,4831.63
230.907,4898.34
231.42,4983.26
231.935,5124.68
232.448,5287.04
232.961,5526.62
233.474,5815.41
233.987,6131.37
234.502,6434.17
235.015,6666.36
235.528,6858.72
236.041,6968.98
236.554,7027.63
237.067,6981.14
237.582,6903.81
238.094,6662.36
238.607,6371.16
239.12,6051.67
239.633,5774.34
240.145,5590.77
240.658,5485.86
241.171,5461.72
241.685,5413.02
242.198,5381.42
242.71,5367.11
243.223,5328.19
243.735,5302.95
244.248,5265.27
244.76,5215.94
245.273,5155.44
245.785,5084.62
246.297,5001.94
246.81,4909.28
247.322,4832.84
247.834,4785.97
248.348,4713.16
248.861,4665.91
249.373,4670
249.885,4665
250.397,4670
250.909,4665
251.421,4669.52
251.933,4638.3
252.445,4612.42
252.957,4591.46
253.469,4576.29
253.981,4565.33
254.493,4557.27
255.005,4553.69
255.514,4554.13
256.026,4559.12
256.538,4567.58
257.05,4582.17
257.561,4605.37
258.073,4618.46
258.585,4611.65
259.096,4586.48
259.608,4574.99
260.12,4574.18
260.631,4569.62
261.143,4565.31
261.654,4562.28
262.164,4559.65
262.675,4560.5
263.186,4562.58
263.698,4564.76
264.209,4562.83
264.72,4506.56
265.232,4491.29
265.743,4508.08
266.252,4521.23
266.763,4526.65
267.274,4527.86
267.786,4525.67
268.297,4522.04
268.808,4516.43
269.317,4515.02
269.828,4522.46
270.339,4535.97
270.85,4565.08
271.361,4596.11
271.87,4619.42
272.38,4635.94
272.891,4643.42
273.402,4640.63
273.911,4624.16
274.422,4615.67
274.932,4613.88
275.443,4617.64
275.952,4626.11
276.462,4636.47
276.973,4640.88
277.484,4636.08
277.992,4638.9
278.503,4626.03
279.013,4606.53
279.524,4605.19
280.032,4600.94
280.543,4612
281.053,4633.78
281.561,4651.91
282.072,4664.25
282.582,4671.37
283.09,4679.84
283.6,4678.84
284.111,4676.62
284.619,4673.49
285.129,4673.49
285.639,4685.29
286.147,4696.09
286.657,4705.71
287.165,4717.02
287.675,4727.55
288.185,4740.46
288.693,4754.56
289.203,4768.77
289.713,4782.85
290.221,4796.99
290.731,4810.8
291.239,4822.72
291.749,4835.24
292.256,4847.56
292.766,4859.28
293.276,4871.32
293.783,4866.27
294.293,4870.43
294.801,4890.46
295.31,4921.13
295.818,4945.08
296.327,4964.76
296.835,4978.28
297.344,4995.96
297.852,5033.5
298.361,5077.68
298.869,5131.07
299.378,5171.6
299.885,5206.17
300.395,5196.42
300.902,5156.55
301.411,5118.25
301.918,5082.43
302.428,5050.04
302.935,5022.17
303.444,4998.86
303.951,4976.29
304.458,4957.09
304.967,4940.28
305.474,4930.15
305.983,5023.09
306.49,5029.26
306.999,5019.57
307.506,5028.11
308.013,5049.96
308.522,5069.08
309.028,5086.07
309.537,5100.26
310.044,5110.82
310.551,5117.79
311.059,5121.06
311.566,5120.45
312.073,5113.05
312.581,5099.96
313.088,5082.94
313.594,5064.91
314.103,5052.26
314.61,5038.82
315.116,5026.24
315.625,5014.83
316.131,5005.86
316.637,5000.23
317.146,5000.15
317.652,5005.66
318.158,5021.2
318.665,5027.25
319.173,5031.83
319.679,5042.72
320.185,5053.51
320.694,5079.24
321.2,5102.43
321.706,5121.25
322.212,5136.67
322.72,5151
323.226,5162.54
323.732,5171.87
324.238,5178.25
324.744,5188.19
325.252,5215.02
325.758,5257.21
326.264,5316.68
326.769,5367.8
327.275,5425.67
327.783,5492.61
328.289,5558.41
328.794,5627.63
329.3,5685.61
329.806,5740.71
330.311,5793.76
330.819,5866.94
331.325,5957.5
331.83,6073.63
332.336,6215.14
332.841,6378.45
333.347,6566.34
333.852,6778.49
334.357,7015.25
334.865,7282.75
335.37,7573.05
335.876,7906.91
336.381,8290.36
336.886,8725.67
337.391,9186.75
337.897,9732.98
338.402,10362.4
338.907,11074.8
339.412,11795.3
339.917,12549.8
340.422,13239.6
340.927,13936.2
341.432,14448.7
341.937,14798.9
342.442,14962.6
342.947,14728.4
343.454,14367.1
343.959,13911.6
344.464,13435.7
344.969,12745.9
345.471,12016.9
345.976,11341.4
346.481,10734.3
346.986,10151.9
347.49,9620.34
347.995,9138.95
348.499,8708.23
349.004,8327.52
349.509,8004.55
350.013,7733.3
350.518,7485.56
351.022,7280.25
351.527,7119.6
352.031,6984.57
352.535,6852.94
353.04,6722.62
353.544,6601.41
354.046,6489.33
354.551,6394.52
355.055,6310.75
355.559,6239.86
356.064,6181.63
356.568,6135.95
357.072,6102.83
357.576,6081.13
358.078,6063.76
358.582,6056.78
359.086,6038.76
359.59,6006.78
360.094,5960.96
360.598,5899.7
361.1,5835.89
361.604,5769.88
362.108,5704.44
362.612,5649.29
363.115,5608.47
363.617,5572.22
364.121,5541.48
364.625,5515.22
365.128,5492.25
365.63,5474.26
366.134,5440.78
366.637,5405.69
367.141,5374.7
367.642,5428.13
368.146,5238.55
368.65,5350
369.153,5370
369.654,5380
370.158,5350.54
370.661,5341.7
371.165,5302.57
371.666,5304.63
372.169,5245.03
372.673,5271.7
373.174,5268.67
373.677,5270.91
374.18,5277.52
374.681,5289.7
375.185,5307.65
375.688,5333.67
376.189,5358.21
376.692,5383.3
377.195,5409.09
377.696,5438.4
378.199,5456.58
378.7,5462.05
379.203,5454.64
379.706,5462.93
380.206,5480.83
380.709,5535.85
381.21,5589.68
381.713,5619.71
382.216,5626.33
382.716,5607.68
383.219,5576.73
383.72,5535.92
384.222,5489.2
384.723,5443.41
385.226,5406.81
385.726,5374.04
386.229,5344.43
386.731,5321.71
387.232,5306.6
387.734,5298.84
388.235,5300.24
388.737,5311.94
389.237,5329.07
389.74,5351.09
390.24,5375.19
390.742,5396.71
391.242,5419.58
391.745,5452.63
392.245,5492.42
392.745,5537.54
393.247,5589.1
393.747,5646.48
394.249,5710.36
394.749,5780.95
395.252,5858.24
395.752,5950.8
396.254,6074.98
396.753,6239.1
397.253,6424.63
397.755,6604.9
398.255,6783.92
398.757,6922.92
399.257,7063.09
399.757,7166.19
400.258,7232.41
400.758,7257.08
401.258,7234.14
401.759,7171.44
402.259,7072.25
402.761,6953.37
403.26,6811.65
403.76,6659.76
404.261,6528.35
404.761,6392.19
405.26,6258.34
405.76,6165.38
406.261,6090.82
406.761,6031.74
407.26,5983.41
407.761,5947.6
408.261,5917.29
408.76,5894.17
409.261,5878.39
409.761,5869.19
410.26,5867
410.759,5870.29
411.26,5881.02
411.759,5899.07
412.258,5925.83
412.757,5962.9
413.258,6009.35
413.757,6068.37
414.256,6142.98
414.755,6234.14
415.254,6343.93
415.755,6478.78
416.254,6626.08
416.753,6810.78
417.252,7025.49
417.75,7268.69
418.251,7538.82
418.75,7804.08
419.249,7958.07
419.747,8119.33
420.246,8172.6
420.745,8192.05
421.243,8088.65
421.744,7906.45
422.242,7664.58
422.741,7397.52
423.239,7098.24
423.738,6819.22
424.236,6579.7
424.735,6358.43
425.233,6169.49
425.731,6013.28
426.232,5882.94
426.73,5782.73
427.228,5709.43
427.727,5661.28
428.225,5630.67
428.723,5576.35
429.221,5535.05
429.719,5491.8
430.217,5459.54
430.716,5440.42
431.214,5426.68
431.712,5416.91
432.21,5410.93
432.708,5408.67
433.206,5410.71
433.703,5416.72
434.201,5408.27
434.699,5401.43
435.197,5405.19
435.695,5417
436.193,5438.44
436.69,5475.16
437.188,5514.22
437.686,5547.3
438.184,5595.65
438.681,5658.76
439.179,5743.29
439.676,5852.32
440.174,5981.84
440.669,6131.08
441.167,6300.63
441.664,6490.17
442.162,6697.76
442.659,6904.68
443.157,7059.82
443.654,7164.78
444.151,7173.98
444.649,7090.03
445.144,6978.53
445.641,6831.5
446.139,6655.5
446.636,6479.49
447.133,6319.26
447.63,6149.23
448.125,6007.49
448.622,5885.2
449.119,5749.49
449.616,5638.19
450.113,5573.36
450.61,5534.05
451.105,5509.29
451.602,5482.11
452.099,5442.09
452.596,5411.1
453.091,5387.32
453.588,5371.04
454.085,5357.18
454.581,5349.28
455.078,5348.91
455.573,5349.96
456.07,5349.35
456.566,5336.57
457.061,5325.8
457.557,5315.18
458.054,5304.96
458.551,5295.43
459.045,5285.44
459.542,5274.11
460.038,5263.14
460.533,5252.53
461.029,5242.29
461.525,5234.22
462.02,5246.06
462.516,5253.42
463.012,5264.43
463.507,5274.32
464.003,5275.14
464.499,5270.5
464.993,5257.64
465.49,5246.3
465.986,5237.34
466.48,5230.84
466.976,5230.44
467.47,5235.88
467.966,5246.08
468.462,5255.46
468.956,5265.33
469.452,5272.71
469.946,5273.83
470.442,5271.67
470.938,5256.17
471.432,5235.43
471.927,5214.68
472.421,5196.47
472.917,5193.01
473.411,5192.42
473.906,5197.96
474.4,5209.61
474.896,5230.65
475.389,5256.24
475.885,5255.56
476.379,5213.78
476.874,5215.4
477.368,5228.53
477.863,5245.72
478.357,5255.71
478.852,5263.03
479.345,5269.34
479.841,5272.6
480.334,5273.02
480.83,5270.41
481.323,5263.87
481.818,5253.23
482.311,5238.04
482.805,5227.04
483.3,5220.88
483.793,5219.62
484.288,5222.65
484.781,5223.16
485.274,5221.33
485.77,5216.9
486.263,5211.48
486.758,5209.59
487.251,5205.37
487.743,5217.8
488.238,5239.02
488.731,5280.49
489.224,5293.51
489.719,5289.07
490.212,5285
490.705,5280
491.2,5275
491.692,5270
492.185,5265
492.68,5260
493.172,5255
493.665,5250
494.16,5245
494.652,5240
495.145,5241
495.637,5243
496.132,5240
496.624,5237
497.117,5235
497.611,5233
498.104,5230
498.596,5227
499.088,5225
499.581,5222.33
500.075,5218
500.567,5216.32
501.059,5216.17
501.552,5217.48
502.046,5218.92
502.538,5224.26
503.03,5231.74
503.522,5242.59
504.014,5232.11
504.506,5224.84
505,5233.82
505.492,5250.23
505.984,5264.39
506.476,5275.33
506.968,5284.37
507.46,5291.73
507.954,5297.74
508.446,5302.21
508.938,5305.44
509.429,5308.77
509.921,5312.61
510.413,5317.83
510.904,5325.05
511.396,5333.96
511.888,5343.81
512.379,5353.91
512.873,5362.74
513.365,5370.35
513.856,5375.94
514.348,5381.76
514.839,5404.1
515.331,5430.64
515.822,5460.29
516.313,5493.02
516.805,5521.67
517.296,5543.04
517.788,5549.72
518.279,5560.68
518.77,5572.16
519.261,5595.04
519.753,5603.22
520.244,5593.62
520.735,5584.42
521.226,5584.8
521.717,5594.55
522.208,5604.57
522.699,5618.27
523.19,5633.31
523.681,5649.14
524.172,5659.99
524.663,5658.53
525.154,5643.12
525.643,5626.05
526.134,5612.72
526.625,5595.09
527.116,5574.66
527.607,5552.35
528.097,5527.67
528.588,5501.63
529.079,5472.04
529.569,5458.06
530.058,5468.69
530.549,5478.35
531.039,5492.34
531.53,5490.44
532.021,5489.78
532.511,5488.16
533.002,5485.57
533.49,5481.48
533.98,5477.16
534.471,5472.8
534.961,5481.32
535.452,5499.53
535.94,5555.95
536.43,5593.9
536.921,5600
537.411,5675
537.901,5680
538.389,5686.6
538.88,5674.95
539.37,5639.75
539.86,5648.62
540.348,5724.23
540.838,5702.94
541.328,5682.99
541.818,5624.54
542.306,5586.25
542.796,5556.28
543.286,5534.99
543.774,5552.91
544.264,5571.46
544.754,5588.57
545.244,5605.23
545.731,5617.98
546.221,5625.83
546.711,5630.86
547.199,5632.95
547.688,5632.64
548.178,5629.87
548.666,5626.53
549.155,5635.97
549.643,5647.16
550.133,5661.91
550.622,5670.73
551.11,5674.82
551.599,5674.13
552.089,5669
552.576,5659.58
553.065,5646
553.553,5628.7
554.042,5608.44
554.53,5585.95
555.019,5562.61
555.508,5536.84
555.995,5511.94
556.485,5495.14
556.972,5486.72
557.461,5490.54
557.948,5492.11
558.437,5495.07
558.924,5500.77
559.414,5506.4
559.901,5519.13
560.39,5517.04
560.877,5473.43
561.366,5433.03
561.853,5408.52
562.341,5427
562.828,5460.3
563.317,5489.75
563.804,5487.03
564.293,5480.61
564.78,5476.96
565.268,5476.69
565.755,5477.34
566.244,5478.07
566.731,5479.04
567.217,5480.72
567.706,5482.4
568.193,5483.53
568.681,5481.63
569.168,5471.98
569.654,5473.82
570.143,5480.39
570.629,5485.6
571.118,5489.73
571.604,5494.3
572.09,5498.77
572.579,5504.46
573.065,5508.51
573.551,5515
574.04,5530
574.526,5545
575.012,5560
575.5,5575
575.987,5590
576.473,5600
576.961,5610
577.447,5620
577.933,5625
578.419,5630
578.907,5635
579.393,5640
579.879,5645
580.367,5650
580.853,5655
581.339,5660
581.825,5661.2
582.313,5664.28
582.799,5662.59
583.284,5656.77
583.77,5654.01
584.256,5654.28
584.744,5657.81
585.229,5665.35
585.715,5681.21
586.201,5772.16
586.686,5800
587.174,5800
587.659,5750
588.145,5707.21
588.63,5730.78
589.116,5743.59
589.601,5743.76
590.089,5726.06
590.574,5721.79
591.059,5697.23
591.545,5710.4
592.03,5718.53
592.515,5726.88
593.001,5734.29
593.486,5738.93
593.973,5735.48
594.458,5732.61
594.944,5730.42
595.429,5728.96
595.914,5727.4
596.399,5722.77
596.884,5720.71
597.369,5721.16
597.854,5724.23
598.339,5732.34
598.824,5743.6
599.309,5757.92
599.794,5773.37
600.279,5784.49
600.764,5790.3
601.248,5786.95
601.733,5782.02
602.218,5777.92
602.703,5774.56
603.187,5781.42
603.672,5797.5
604.157,5823.3
604.641,5853.24
605.126,5866.5
605.611,5867.05
606.095,5863.03
606.58,5854.51
607.064,5840.25
607.549,5819.81
608.033,5808.97
608.518,5804.42
609.002,5811.76
609.485,5824.38
609.969,5833.93
610.453,5842.45
610.776,5848.33
611.266,5847.46
611.757,5846.27
612.245,5844.75
612.735,5841.66
613.226,5838.8
613.714,5836.67
614.204,5836.7
614.692,5837.91
615.182,5840.34
615.672,5845.07
616.16,5850.72
616.651,5855.25
617.141,5859.58
617.629,5863.4
618.119,5866.49
618.607,5868.69
619.096,5869.81
619.586,5870.04
620.074,5865.29
620.564,5854.88
621.052,5854.6
621.542,5857.51
622.029,5871.52
622.519,5892.18
623.009,5908.19
623.497,5908.62
623.986,5907.61
624.474,5918.43
624.963,5931.74
625.451,5952.86
625.941,5972.09
626.428,5987.3
626.918,5998.4
627.405,6006.77
627.895,6009.93
628.382,6011.03
628.871,6011.47
629.359,6013.08
629.848,6020.26
630.335,6026.96
630.825,6034.93
631.312,6044.48
631.801,6055.28
632.288,6068.71
632.776,6073.84
633.265,6063.67
633.752,6060.67
634.241,6065.8
634.728,6070.08
635.217,6079.94
635.704,6091.89
636.191,6109.11
636.68,6128.97
637.167,6145.65
637.656,6153.63
638.143,6160.9
638.63,6173.09
639.119,6186.05
639.605,6199.38
640.092,6210.4
640.581,6219.4
641.068,6229.99
641.556,6242.7
642.043,6266.3
642.53,6293.18
643.018,6318.81
643.505,6342.92
643.992,6367.61
644.48,6391.87
644.967,6415.83
645.453,6441.29
645.94,6468.26
646.428,6497.08
646.914,6528.13
647.401,6559.13
647.889,6591.94
648.376,6626.96
648.862,6667.84
649.348,6740.85
649.836,6792.83
650.323,6845.22
650.809,6907.34
651.295,6974.57
651.783,7058.14
652.269,7162.94
652.755,7272.65
653.242,7392.27
653.728,7521.73
654.216,7662.21
654.702,7810.92
655.188,7969.2
655.674,8136.87
656.16,8316.4
656.647,8525.34
657.133,8771.73
657.619,9034.16
658.105,9339.28
658.591,9671.13
659.077,10020.5
659.564,10376.9
660.05,10703.9
660.536,10991.7
661.021,11203.2
661.507,11363.5
661.993,11469.6
662.478,11512.9
662.964,11482.3
663.451,11388.2
663.937,11221.1
664.422,10988.3
664.908,10713.3
665.393,10413
665.879,10064.6
666.364,9772.69
666.849,9532.26
667.335,9315.57
667.82,9157.93
668.305,8983.51
668.79,8822.15
669.276,8675.22
669.761,8556.84
670.246,8443.56
670.731,8368.64
671.216,8314.39
671.701,8282.32
672.186,8272.59
672.672,8295.39
673.157,8325.54
673.642,8380
674.126,8436.2
674.611,8498.76
675.096,8560.61
675.581,8643.31
676.066,8725.3
676.551,8843.29
677.036,9006.04
677.521,9200.3
678.005,9425.87
678.49,9680.7
678.975,9956.61
679.459,10249.9
679.944,10563.6
680.429,10896.8
680.913,11250.1
681.396,11622.5
681.88,12014.5
682.365,12425.2
682.849,12858.6
683.334,13246.9
683.818,13536.3
684.303,13723.7
684.787,13787.3
685.269,13766.2
685.754,13632.5
686.238,13404.7
686.722,13078.5
687.207,12679.6
687.691,12247.9
688.173,11790.7
688.657,11314
689.141,10845.6
689.626,10408
690.11,10007.8
690.592,9629.41
691.076,9291.26
691.56,8987.05
692.044,8713.44
692.528,8471.49
693.01,8256.89
693.494,8069.01
693.978,7894.77
694.461,7745.21
694.943,7618.49
695.427,7514.3
695.911,7427.52
696.395,7357.38
696.877,7292.98
697.36,7189.66
697.844,7110.5
698.326,7032.62
698.809,6958.55
699.293,6900.15
699.776,6852.96
700.258,6812.75
700.742,6771.67
701.225,6731.72
701.707,6693.5
702.19,6657.9
702.673,6623.12
703.155,6590.43
703.638,6559.94
704.12,6532.96
704.603,6569.44
705.086,6568.65
705.568,6554.48
706.051,6511.41
706.534,6444.39
707.015,6438.35
707.498,6459.21
707.98,6453.23
708.463,6470.91
708.946,6377.87
709.427,6365.87
709.91,6370.16
710.391,6378.81
710.874,6376.11
711.355,6373.23
711.838,6367.16
712.321,6358.85
712.802,6347.88
713.285,6333.92
713.765,6317.49
714.248,6300.66
714.729,6281.77
715.212,6274.79
715.693,6273.16
716.175,6291.64
716.656,6308.81
717.139,6318.74
717.619,6334.11
718.102,6333.94
718.582,6334.44
719.065,6326.39
719.546,6314.28
720.026,6316.7
720.509,6316.07
720.989,6321.3
721.471,6306.05
721.952,6281.07
722.434,6263.57
722.915,6240.88
723.397,6230.57
723.877,6220.46
724.357,6233.18
724.84,6254.96
725.32,6272.22
725.802,6284.43
726.282,6290.8
726.763,6290.75
727.245,6283.88
727.725,6267.78
728.205,6255.86
728.687,6243.26
729.167,6233.6
729.647,6231.3
730.129,6230.42
730.609,6229.81
731.089,6229.2
731.571,6228.64
732.051,6226.7
732.53,6217.53
733.012,6207.05
733.492,6208.59
733.972,6231.07
734.453,6254.35
734.933,6267.81
735.413,6269.5
735.893,6271.48
736.374,6270.27
736.854,6263.24
737.333,6252.41
737.813,6241.65
738.295,6231.67
738.774,6260.23
739.254,6299.46
739.733,6311.35
740.214,6319.59
740.694,6248.54
741.173,6206.54
741.653,6244.74
742.132,6286.84
742.613,6298.13
743.093,6267.56
743.572,6254.99
744.051,6250.4
744.53,6262.95
745.011,6284.71
745.491,6303.54
745.97,6319.78
746.449,6336.23
746.928,6348.69
747.407,6357.42
747.886,6365.32
748.367,6372.32
748.846,6378.59
749.325,6385.37
749.804,6395.31
750.283,6376.28
750.762,6349.32
751.241,6340.79
751.719,6357.82
752.198,6347.73
752.679,6339.71
753.158,6298.1
753.636,6271.54
754.115,6257.64
754.594,6255.68
755.073,6271.01
755.551,6287.93
756.03,6291.68
756.508,6292.14
756.987,6283.33
757.465,6270.22
757.944,6254.41
758.422,6239.09
758.901,6233.1
759.379,6227.05
759.858,6222.24
760.336,6219.22
760.814,6218.09
761.293,6220.19
761.771,6225.94
762.249,6236.7
762.727,6249.52
763.206,6269.07
763.684,6283.57
764.162,6280.23
764.64,6262.09
765.118,6195.01
765.594,6188.19
766.073,6181.28
766.551,6174.24
767.029,6173.73
767.507,6182.06
767.985,6198.36
768.463,6221.83
768.94,6258.82
769.418,6285.61
769.896,6284.9
770.372,6262.33
770.85,6238.6
771.328,6229.8
771.805,6230.25
772.283,6282.63
772.761,6304.79
773.239,6309.4
773.714,6293.29
774.192,6266.48
774.669,6249.18
775.147,6235.83
775.625,6228.17
776.1,6224.68
776.578,6226.74
777.055,6232.97
777.533,6241.8
778.01,6250.74
778.486,6251.45
778.963,6263.08
779.44,6280.8
779.918,6302.15
780.393,6321.4
780.87,6334.39
781.347,6339.8
781.825,6319.69
782.3,6313.57
782.777,6306.75
783.254,6298.1
783.729,6288.96
784.207,6280.18
784.684,6270.8
785.161,6261.5
785.636,6252.45
786.113,6247.61
786.59,6254.7
787.065,6271.56
787.542,6286.54
788.019,6290.81
788.493,6292.5
788.97,6292.41
789.447,6292.01
789.922,6287.18
790.399,6286.34
790.874,6303.44
791.35,6319.95
791.827,6327.89
792.302,6332.77
792.778,6335.06
793.255,6335.52
793.73,6334.76
794.206,6331.68
794.681,6326.93
795.157,6320.25
795.632,6312.09
796.108,6300.83
796.585,6288.13
797.059,6274.98
797.536,6276.32
798.01,6312.76
798.486,6345.03
798.961,6368.87
799.437,6379.35
799.911,6379.37
800.388,6377
800.862,6371.26
801.338,6363.22
801.812,6353.67
802.288,6348.49
802.763,6346.01
803.239,6345.64
803.713,6349.84
804.189,6356.43
804.663,6366.74
805.139,6380.05
805.613,6395.91
806.089,6413.85
806.563,6424.42
807.037,6429.76
807.512,6416.26
807.986,6382.26
808.462,6372.42
808.936,6376.41
809.412,6374.75
809.886,6374.25
810.359,6374.99
810.835,6376.41
811.309,6378.03
811.782,6380.41
812.258,6383.36
812.732,6384.85
813.207,6384.66
813.681,6382.96
814.154,6381.02
814.63,6378.83
815.103,6378.29
815.577,6375.81
816.052,6373.85
816.526,6371.82
816.999,6374.58
817.474,6395.14
817.948,6389.99
818.421,6383.17
818.894,6376.36
819.37,6386.43
819.843,6400.15
820.316,6411.69
820.791,6419.42
821.264,6423.27
821.738,6423.84
822.211,6422.06
822.686,6419.43
823.159,6415.61
823.632,6416.77
824.105,6424.3
824.578,6439.63
825.053,6449.4
825.526,6447.1
825.999,6441.24
826.472,6439.54
826.945,6441.89
827.419,6447.01
827.892,6453.93
828.365,6460.38
828.838,6466.23
829.31,6471.65
829.785,6477.72
830.258,6478.08
830.731,6473.5
831.203,6469.3
831.676,6468.5
832.148,6474.99
832.621,6480.52
833.094,6482.04
833.568,6483.93
834.041,6488.13
834.513,6493.44
834.986,6499.71
835.458,6506.65
835.93,6513.87
836.403,6520.59
836.875,6526.59
837.347,6522.18
837.82,6524.17
838.292,6538.43
838.764,6553.14
839.238,6569.53
839.711,6587.49
840.183,6606.94
840.655,6626.62
841.127,6645.49
841.599,6662.27
842.071,6676.94
842.543,6688.76
843.015,6697.46
843.487,6701.19
843.959,6701.21
844.431,6698.03
844.903,6707.47
845.375,6738.16
845.847,6788.94
846.319,6858.35
846.789,6943.71
847.261,7035.97
847.732,7123.4
848.204,7207.1
848.676,7289.61
849.148,7361.05
849.619,7417.65
850.091,7459.49
850.563,7488.16
851.034,7490.17
851.506,7474.66
851.977,7420.08
852.447,7351.35
852.918,7281.1
853.39,7207.16
853.861,7128.43
854.333,7044.42
854.804,6971.92
855.276,6929.47
855.745,6884.25
856.216,6848.35
856.688,6818.72
857.159,6795.47
857.63,6744.08
858.101,6708.31
858.571,6684.05
859.042,6668.46
859.513,6658.63
859.984,6647.24
860.455,6636.6
860.924,6626.1
861.395,6616.43
861.866,6607.14
862.337,6598.57
862.807,6590.39
863.277,6582.9
863.748,6575.7
864.219,6568.44
864.688,6561.1
865.159,6554.58
865.63,6549.42
866.101,6546.7
866.57,6545.99
867.04,6543.42
867.511,6534.73
867.98,6531.15
868.451,6532.04
868.921,6537.54
869.39,6549.96
869.861,6577.65
870.331,6588.91
870.8,6598.16
871.27,6602.59
871.741,6604.49
872.209,6602.09
872.68,6597.72
873.15,6594.47
873.619,6592.86
874.089,6596.21
874.558,6598.93
875.028,6597.95
875.498,6592.97
875.967,6581.5
876.437,6563.98
876.905,6549.85
877.375,6539.09
877.846,6532.33
878.314,6529.63
878.784,6530.26
879.252,6534.31
879.722,6541.82
880.19,6552.57
880.66,6566.76
881.128,6584.69
881.598,6601.13
882.066,6612.65
882.536,6612.43
883.004,6611.05
883.474,6608.23
883.942,6604.7
884.412,6599.9
884.88,6594.74
885.35,6589.93
885.818,6585.56
886.287,6591.92
886.755,6611.63
887.225,6627.88
887.693,6640.48
888.162,6646.39
888.63,6643.34
889.099,6627.63
889.567,6619.47
890.035,6600.9
890.504,6609.05
890.972,6623.09
891.441,6641.58
891.909,6662.98
892.376,6670.38
892.846,6657.07
893.313,6612.29
893.783,6552.65
894.25,6551.07
894.717,6567.71
895.187,6575.93
895.654,6584.72
896.121,6598.35
896.59,6611.86
897.058,6626.71
897.525,6640.78
897.994,6652.48
898.461,6660.18
898.928,6623.54
899.397,6613.84
899.864,6607.15
900.331,6602.24
900.799,6602.85
901.268,6605.53
901.734,6608.09
902.201,6610.35
902.668,6616.55
903.137,6621.77
903.604,6628.23
904.071,6633.91
904.538,6637.63
905.007,6638.31
905.474,6631.4
905.94,6623.96
906.407,6614.94
906.876,6602.38
907.342,6601.66
907.809,6614.93
908.276,6631.54
908.742,6635.65
909.211,6640.15
909.677,6641.69
910.144,6640.52
910.611,6636.02
911.077,6629.81
911.544,6622.83
912.012,6624.57
912.478,6650.35
912.945,6671.14
913.411,6673.74
913.878,6678.22
914.344,6681.09
914.81,6682.67
915.276,6679.73
915.743,6686.03
916.211,6706.16
916.677,6735.36
917.143,6738.71
917.609,6744.89
918.076,6727.48
918.542,6706.59
919.008,6702.01
919.474,6703.92
919.94,6713.03
920.406,6724.95
920.872,6736.56
921.338,6750.87
921.804,6765.71
922.27,6780.15
922.736,6793.27
923.202,6805.91
923.667,6816.51
924.133,6824.88
924.599,6830.76
925.065,6836.28
925.531,6842.34
925.996,6849.99
926.462,6862.45
926.928,6877.04
927.393,6893.69
927.859,6911.06
928.325,6928.95
928.79,6947.24
929.256,6963.08
929.721,6978.75
930.187,6993.33
930.65,7003.29
931.116,7000.8
931.581,6985.6
932.047,6978.62
932.512,6973.29
932.977,6969.25
933.443,6964.76
933.908,6962.56
934.373,6960.43
934.837,6958.66
935.302,6949.31
935.767,6925.44
936.232,6914.73
936.697,6913
937.163,6914.85
937.626,6916.05
938.091,6914.25
938.556,6909.28
939.021,6900.41
939.486,6883.6
939.949,6865.63
940.414,6852.98
940.879,6847.04
941.344,6844.71
941.809,6846.42
942.272,6848.63
942.737,6851.23
943.201,6852.11
943.666,6851.28
944.129,6846.71
944.594,6840.04
945.059,6828.32
945.521,6811.84
945.986,6796.21
946.451,6783.37
946.915,6774.74
947.378,6765.22
947.843,6759.11
948.307,6754.45
948.77,6752.4
949.234,6751.83
949.699,6753.85
950.161,6757.57
950.626,6764.9
951.09,6777.23
951.553,6790.83
952.017,6798.62
952.481,6795.56
952.944,6776.91
953.408,6749
953.87,6721.81
954.335,6707.56
954.799,6681.96
955.261,6649.27
955.725,6640.88
956.188,6646.16
956.652,6666.96
957.116,6700.72
957.578,6734.82
958.042,6748.97
958.504,6720.81
958.968,6708.78
959.43,6701.46
959.894,6698.17
960.356,6697.2
960.82,6698.02
961.282,6700.13
961.746,6702.22
962.208,6701.77
962.672,6686.89
963.133,6668.58
963.597,6652.14
964.059,6653.61
964.523,6658.48
964.984,6674.81
965.448,6686.91
965.91,6692.87
966.373,6697.71
966.835,6700.82
967.299,6698.9
967.76,6694.01
968.224,6674.84
968.685,6622.26
969.147,6591.73
969.61,6628.29
970.072,6620.32
970.535,6609.72
970.997,6592.14
971.458,6569.55
971.921,6561.73
972.383,6562.39
972.846,6564.25
973.307,6568.8
973.769,6577.93
974.232,6589.66
974.693,6602.54
975.154,6616.01
975.618,6629.26
976.079,6637.54
976.54,6629.5
977.003,6619.02
977.464,6609.39
977.925,6604.89
978.386,6604.17
978.849,6608.47
979.31,6614.61
979.771,6622.62
980.234,6630.57
980.695,6633.32
981.156,6631.36
981.617,6624.33
982.08,6616.73
982.541,6648.18
983.001,6650
983.462,6650
983.925,6645
984.386,6635.14
984.846,6636.93
985.307,6652.43
985.768,6663.99
986.23,6673.41
986.691,6678.29
987.152,6683.15
987.612,6687.21
988.073,6691.48
988.535,6694.52
988.996,6696.24
989.456,6696.64
989.917,6695.69
990.377,6693.1
990.838,6689.39
991.298,6684.81
991.76,6680.02
992.221,6675.04
992.681,6684.32
993.141,6720.32
993.602,6760.31
994.062,6795.78
994.522,6812.95
994.982,6823.06
995.442,6821.67
995.903,6813.33
996.363,6800.47
996.825,6785.23
997.285,6781.25
997.745,6785.81
998.205,6800.64
998.665,6833.04
999.125,6873.15
999.585,6912.05
1000.04,6943.31
1000.5,6975.4
1000.96,7009.08
1001.42,7043.52
1001.88,7078.73
1002.34,7116.63
1002.8,7158.89
1003.26,7205.32
1003.72,7256.76
1004.18,7313.22
1004.64,7372.74
1005.1,7438.2
1005.56,7510.16
1006.02,7589.28
1006.48,7690.81
1006.94,7800.05
1007.4,7921.84
1007.86,8053.53
1008.32,8197.46
1008.78,8343.67
1009.24,8462.35
1009.7,8545.47
1010.16,8605.05
1010.62,8619.32
1011.07,8606.76
1011.53,8570.2
1011.99,8517.12
1012.45,8460.39
1012.91,8401.57
1013.37,8328.97
1013.83,8250
1014.29,8167.32
1014.74,8085.13
1015.2,8005.61
1015.66,7934.93
1016.12,7864.51
1016.58,7822.86
1017.04,7795.4
1017.5,7775.76
1017.96,7753.63
1018.42,7735.14
1018.87,7719.75
1019.33,7707.63
1019.79,7693.01
1020.25,7684.06
1020.71,7703.91
1021.16,7745.66
1021.62,7778.9
1022.08,7808.3
1022.54,7840.4
1023,7877.32
1023.46,7919.97
1023.91,7968.37
1024.37,8025.26
1024.83,8091.1
1025.29,8165.72
1025.75,8250.36
1026.21,8341.71
1026.66,8435.14
1027.12,8531.09
1027.58,8629.66
1028.04,8731.22
1028.49,8832.18
1028.95,8919.34
1029.41,8997.79
1029.87,9065.71
1030.33,9118.3
1030.78,9150.71
1031.24,9162.62
1031.7,9155.48
1032.15,9129.46
1032.61,9077.61
1033.07,9008.86
1033.53,8930.35
1033.98,8847.93
1034.44,8768.97
1034.9,8682.94
1035.36,8601.33
1035.81,8534.14
1036.27,8475.23
1036.73,8417.54
1037.18,8346.27
1037.64,8261.59
1038.1,8175.75
1038.56,8089.09
1039.01,8001.63
1039.47,7910.47
1039.93,7819.13
1040.38,7731.07
1040.84,7650.61
1041.3,7571.85
1041.75,7483.12
1042.21,7378.32
1042.67,7248.29
1043.12,7196.83
1043.58,7195.86
1044.04,7151.69
1044.49,7084.74
1044.95,7024.17
1045.41,6974.53
1045.86,6934.9
1046.32,6905.45
1046.78,6887.99
1047.23,6874.8
1047.69,6864.19
1048.15,6850.96
1048.6,6835.54
1049.03,6813.76
1049.49,6788.86
1049.95,6763
1050.41,6737.41
1050.87,6712.12
1051.33,6688.25
1051.79,6670.95
1052.26,6658.56
1052.72,6651.73
1053.18,6651.14
1053.64,6668.9
1054.1,6686.44
1054.56,6701.87
1055.02,6700.88
1055.48,6687.77
1055.95,6663.8
1056.41,6634.59
1056.87,6613.21
1057.33,6603.94
1057.79,6612.3
1058.25,6656.13
1058.71,6600
1059.17,6601
1059.63,6603.94
1060.09,6569.27
1060.56,6556.92
1061.02,6538.76
1061.48,6529.25
1061.94,6539.17
1062.4,6549.79
1062.86,6552.32
1063.32,6552.1
1063.78,6545.28
1064.24,6538.01
1064.7,6525.96
1065.16,6515
1065.62,6505.84
1066.08,6498.02
1066.54,6492.07
1067,6486.38
1067.46,6482.58
1067.92,6483.05
1068.38,6484.25
1068.84,6485.18
1069.3,6487.25
1069.76,6476.78
1070.22,6456.57
1070.68,6437.83
1071.14,6420.63
1071.6,6410.25
1072.06,6401.73
1072.52,6396.93
1072.98,6394.49
1073.44,6394.25
1073.9,6395.33
1074.36,6398.12
1074.82,6399.72
1075.28,6401.39
1075.74,6402.14
1076.2,6402.26
1076.66,6400.63
1077.12,6405.48
1077.58,6411.07
1078.04,6417.6
1078.5,6423.57
1078.96,6424.1
1079.42,6413.6
1079.88,6401.61
1080.34,6389
1080.79,6376.69
1081.25,6365.65
1081.71,6361.44
1082.17,6357.98
1082.63,6357.38
1083.09,6357.99
1083.55,6359.47
1084.01,6360.96
1084.47,6362.68
1084.93,6362.89
1085.39,6362.49
1085.84,6361.72
1086.3,6364.05
1086.76,6368.72
1087.22,6370.87
1087.68,6355.06
1088.14,6334.15
1088.6,6320.95
1089.06,6324.49
1089.52,6344.15
1089.97,6365.65
1090.43,6382.66
1090.89,6391.82
1091.35,6395.2
1091.81,6395.42
1092.27,6395.12
1092.72,6394.96
1093.18,6402.74
1093.64,6412.54
1094.1,6431.72
1094.56,6430
1095.02,6335.51
1095.47,6313.04
1095.93,6312.09
1096.39,6330.12
1096.85,6307.91
1097.31,6317.37
1097.76,6320.43
1098.22,6321.73
1098.68,6321.84
1099.14,6320.77
1099.6,6317.66
1100.05,6311.08
1100.51,6301.91
1100.97,6298.51