Wave,Hornblende
99.0209,88.98666667
99.8869,153.32
100.755,266.5133333
101.621,455.5333333
102.487,634.2933333
103.354,832.5333333
104.22,1050.813333
105.088,1246.973333
105.953,1422.5
106.821,1509.606667
107.686,1636.513333
108.551,1759.84
109.418,1885.76
110.283,2003.673333
111.148,2091.82
112.015,2152.693333
112.88,2190.173333
113.747,2180.486667
114.612,2150.353333
115.476,2091.18
116.343,2034.046667
117.207,1973.873333
118.072,1932.54
118.938,1900.073333
119.802,1871.613333
120.666,1847
121.533,1823.486667
122.397,1776.98
123.26,1741.506667
124.126,1705.36
124.99,1697.8
125.854,1711.486667
126.717,1729.653333
127.583,1759.133333
128.446,1795
129.309,1818.566667
130.175,1825.306667
131.038,1823.626667
131.901,1823.626667
132.764,1831.506667
133.629,1864.48
134.492,1892.806667
135.354,1940.28
136.217,1980.366667
137.08,2010.72
137.944,2030.046667
138.807,2014.193333
139.669,1989.82
140.531,1978.673333
141.393,1992.026667
142.258,2050.66
143.12,2074.033333
143.982,2091.173333
144.844,2089.6
145.705,2068.426667
146.567,2041.393333
147.431,2010.373333
148.292,1974.56
149.154,1958.78
150.015,1975.353333
150.876,2016.606667
151.738,2062.033333
152.599,2111.446667
153.46,2164.12
154.323,2218.706667
155.184,2276.513333
156.045,2337.46
156.905,2401.56
157.766,2464.82
158.627,2529.04
159.487,2551.1
160.348,2534.56
161.208,2498.006667
162.068,2440.793333
162.928,2377.54
163.788,2318.326667
164.649,2276.1
165.508,2299.36
166.368,2301.786667
167.228,2320.006667
168.088,2359.08
168.947,2395.406667
169.807,2431.726667
170.667,2464.306667
171.526,2493.773333
172.385,2519.14
173.244,2540.206667
174.104,2557.193333
174.963,2569.8
175.822,2577.78
176.681,2580.166667
177.539,2577.96
178.398,2571.32
179.257,2560.873333
180.115,2546.513333
180.974,2527.913333
181.832,2507.533333
182.691,2486.9
183.549,2466.993333
184.407,2446.786667
185.263,2428.366667
186.121,2412.773333
186.979,2399.9
187.837,2391.586667
188.695,2387.56
189.553,2388.713333
190.41,2394.253333
191.268,2402.2
192.123,2410.013333
192.981,2408.786667
193.838,2433.006667
194.695,2475.046667
195.553,2546.713333
196.41,2567.82
197.265,2567.94
198.121,2554.686667
198.978,2548.773333
199.835,2551.133333
200.692,2562.113333
201.546,2571.533333
202.403,2595.786667
203.259,2619.233333
204.116,2653.28
204.972,2674.8
205.826,2676.026667
206.682,2680.033333
207.538,2686.913333
208.394,2700.84
209.248,2720.52
210.104,2744.16
210.96,2771.786667
211.815,2804.12
212.669,2840.96
213.524,2883.38
214.38,2907.226667
215.233,2925.66
216.088,2935.133333
216.944,2938.88
217.797,2954.273333
218.652,3021.913333
219.507,3093.986667
220.36,3181.173333
221.214,3270.9
222.069,3371.873333
222.922,3465.52
223.776,3553.946667
224.631,3621.533333
225.483,3665.36
226.337,3698.226667
227.192,3725.226667
228.044,3739.706667
228.898,3743.286667
229.75,3725.653333
230.604,3688.94
231.458,3641.646667
232.309,3577.88
233.163,3519.46
234.014,3470.806667
234.868,3417.313333
235.719,3359.966667
236.573,3301.073333
237.426,3220.42
238.277,3144.533333
239.13,3078.746667
239.981,3008.76
240.834,2941.193333
241.685,2906.633333
242.538,2896.52
243.389,2894.86
244.241,2897.493333
245.092,2886.12
245.945,2852.7
246.795,2812.686667
247.647,2768.846667
248.497,2757.266667
249.35,2747.54
250.2,2751.666667
251.052,2735.366667
251.902,2711.826667
252.752,2689.02
253.603,2669.326667
254.453,2651.913333
255.305,2636.246667
256.154,2623.393333
257.006,2612.726667
257.855,2604.64
258.704,2598.76
259.556,2595.053333
260.405,2592.56
261.256,2585.886667
262.105,2586
262.954,2604.6
263.805,2623.086667
264.653,2629.946667
265.502,2637.846667
266.353,2640.033333
267.201,2639.54
268.05,2635.773333
268.9,2629.066667
269.748,2618.273333
270.596,2608.253333
271.447,2638.573333
272.295,2666.026667
273.143,2672.573333
273.993,2675.346667
274.84,2671.286667
275.688,2675.926667
276.538,2666.273333
277.385,2676.02
278.233,2704.16
279.08,2740.353333
279.93,2766.073333
280.777,2787.373333
281.624,2805.28
282.471,2820.306667
283.32,2832.846667
284.167,2843.186667
285.014,2848.466667
285.861,2864.313333
286.708,2879.746667
287.556,2896.793333
288.403,2913.846667
289.249,2925.78
290.096,2926.32
290.942,2924.933333
291.79,2918.58
292.636,2909.146667
293.483,2893.966667
294.329,2899.186667
295.174,2923.353333
296.02,2945.886667
296.868,2965.846667
297.714,2984.173333
298.56,3001.133333
299.405,3016.433333
300.251,3029.946667
301.096,3042.133333
301.941,3041.08
302.786,3030.146667
303.632,3021.033333
304.479,3011.846667
305.324,3013.373333
306.169,3017.98
307.014,3026.226667
307.858,3038.606667
308.703,3053.366667
309.548,3076.593333
310.392,3069.166667
311.237,3078.513333
312.081,3041.8
312.925,3012.166667
313.77,2992.206667
314.614,2997.92
315.458,3040.493333
316.302,3000
317.146,3000
317.99,3000
318.833,2964.653333
319.677,3083.56
320.521,3011.986667
321.364,2990.933333
322.208,2972.113333
323.051,2968.5
323.894,2985.053333
324.738,2987.293333
325.581,2988.48
326.424,2991.673333
327.267,2996.053333
328.11,3000.78
328.953,3005.333333
329.795,3013.726667
330.636,3032.293333
331.479,3055.873333
332.321,3076.94
333.164,3094.806667
334.006,3112.053333
334.848,3128.806667
335.69,3144.06
336.533,3157.5
337.375,3169.226667
338.215,3177.2
339.057,3180.64
339.898,3172.9
340.74,3172.173333
341.582,3172.72
342.423,3214.906667
343.263,3228.46
344.104,3238.073333
344.946,3250.173333
345.787,3263.1
346.628,3276.64
347.467,3290.226667
348.308,3304.346667
349.149,3319.053333
349.99,3332.94
350.829,3346.613333
351.67,3358.56
352.511,3372.566667
353.351,3387.853333
354.19,3408.88
355.03,3444.046667
355.871,3461.186667
356.711,3483.453333
357.549,3509.846667
358.389,3539.706667
359.229,3571.886667
360.067,3607.746667
360.907,3647.446667
361.747,3690.653333
362.587,3738.253333
363.424,3788.04
364.264,3833.346667
365.104,3861.98
365.941,3872.966667
366.78,3862.026667
367.62,3839.38
368.457,3810.553333
369.296,3778.386667
370.133,3740.506667
370.972,3695.626667
371.811,3647.14
372.648,3595.866667
373.487,3560.866667
374.323,3551.313333
375.162,3537.32
376,3524.753333
376.837,3510.273333
377.675,3496.76
378.511,3482.653333
379.35,3468.54
380.186,3452.866667
381.024,3437.146667
381.862,3421.34
382.698,3406.673333
383.536,3396.066667
384.371,3387.1
385.209,3376.533333
386.045,3368.753333
386.882,3362.373333
387.718,3362.586667
388.555,3461.366667
389.39,3427.7
390.228,3412.28
391.063,3345.266667
391.9,3349.68
392.735,3343.28
393.572,3430.146667
394.406,3456.666667
395.241,3427.686667
396.078,3421.646667
396.913,3418.56
397.749,3436.88
398.584,3473.873333
399.42,3511.753333
400.254,3510.906667
401.088,3520.113333
401.925,3523.073333
402.759,3520.8
403.595,3512.606667
404.429,3498.586667
405.262,3477.986667
406.098,3472.213333
406.932,3478.533333
407.766,3473.286667
408.601,3467.333333
409.435,3459.013333
410.27,3441.94
411.103,3440.886667
411.937,3444.64
412.77,3449.22
413.605,3454.24
414.438,3460.72
415.271,3466.606667
416.106,3470.346667
416.938,3476.886667
417.771,3483.7
418.606,3490.553333
419.438,3498.2
420.271,3505.253333
421.103,3515.893333
421.938,3450
422.77,3438.46
423.602,3546.02
424.434,3481.293333
425.268,3520.373333
426.1,3564.94
426.932,3560.186667
427.764,3580.24
428.595,3574.773333
429.429,3560.18
430.261,3549.14
431.092,3539.22
431.924,3526.473333
432.755,3532.366667
433.588,3540.626667
434.419,3558.3
435.251,3551.66
436.082,3545.513333
436.913,3510.886667
437.743,3475.746667
438.574,3444.68
439.407,3416.473333
440.238,3391.76
441.068,3373.346667
441.899,3361.346667
442.729,3354.166667
443.56,3352.366667
444.39,3355.58
445.22,3364.473333
446.05,3377.426667
446.88,3385.273333
447.712,3388.333333
448.542,3376.52
449.372,3360.486667
450.202,3350.646667
451.031,3345.96
451.861,3344.013333
452.691,3350.286667
453.52,3357.08
454.349,3361.173333
455.179,3366.226667
456.008,3372.473333
456.837,3379.193333
457.666,3385.733333
458.495,3386.086667
459.324,3324.22
460.153,3392.54
460.982,3382.053333
461.81,3375.946667
462.639,3372.266667
463.468,3371.58
464.296,3372.226667
465.125,3376.646667
465.951,3399.406667
466.779,3420.606667
467.607,3438.686667
468.435,3454.926667
469.263,3468.34
470.091,3479.873333
470.919,3482.506667
471.747,3465.426667
472.575,3453.833333
473.402,3446.1
474.228,3441.573333
475.056,3440.373333
475.883,3442.133333
476.71,3445.246667
477.538,3450.373333
478.365,3455.566667
479.192,3458.553333
480.017,3461.26
480.844,3471.86
481.671,3486.1
482.498,3503.893333
483.324,3522.393333
484.149,3536.84
484.976,3542.766667
485.802,3544.46
486.629,3544.713333
487.455,3542.666667
488.279,3540.12
489.106,3537.306667
489.932,3534.293333
490.758,3530.72
491.582,3527.76
492.408,3524.486667
493.234,3523.853333
494.059,3538.586667
494.883,3555.393333
495.709,3572.033333
496.534,3592.22
497.358,3611.286667
498.183,3628.253333
499.009,3641.98
499.832,3650.733333
500.657,3650.393333
501.482,3648.64
502.305,3647.533333
503.13,3652.68
503.955,3663.54
504.778,3677.46
505.603,3694.426667
506.427,3711.78
507.25,3710.42
508.074,3712.68
508.899,3728.626667
509.721,3750.053333
510.545,3772.073333
511.368,3792.32
512.192,3809.006667
513.014,3823.78
513.838,3833.153333
514.662,3838.38
515.484,3843.38
516.307,3850.473333
517.129,3869.333333
517.953,3891.786667
518.774,3913.913333
519.598,3926.273333
520.419,3920.753333
521.242,3903.253333
522.064,3888.053333
522.887,3879.233333
523.708,3875.586667
524.531,3874.546667
525.352,3876.82
526.175,3881.193333
526.996,3888.553333
527.818,3896.973333
528.639,3859.173333
529.462,3822.46
530.282,3803.433333
531.104,3823.3
531.925,3862.873333
532.747,3903.813333
533.567,3967.873333
534.387,4014.586667
535.21,4019.913333
536.03,3991.486667
536.851,3957.153333
537.671,3951.713333
538.491,3937.506667
539.313,3933.466667
540.132,3932.506667
540.954,3941.826667
541.773,3962.753333
542.593,4007.486667
543.414,4000
544.233,4000
545.053,3981.493333
545.874,3900.973333
546.693,3856.32
547.512,3909.5
548.333,3939.213333
549.151,3953.48
549.97,3943.326667
550.791,3925.853333
551.609,3915.486667
552.428,3905.366667
553.246,3891.246667
554.067,3882.44
554.885,3892.406667
555.703,3915.433333
556.521,3941.246667
557.341,3960.393333
558.159,3977.36
558.977,3992.96
559.795,4005.486667
560.615,4015.433333
561.433,4019.786667
562.25,4031.746667
563.068,4119.186667
563.885,4066.666667
564.705,4066.666667
565.522,4025.82
566.339,4038.06
567.156,3955.613333
567.974,3954.693333
568.791,3929.566667
569.61,3919.033333
570.426,3917.033333
571.243,3921.866667
572.06,3929.96
572.877,3937.32
573.693,3941.6
574.51,3941.96
575.326,3935.586667
576.145,3929.713333
576.961,3925.953333
577.777,3922.753333
578.593,3918.733333
579.409,3915.48
580.225,3914.006667
581.041,3916.52
581.857,3926.36
582.673,3947.493333
583.489,3975.713333
584.304,4003.373333
585.12,4017.686667
585.935,4018.573333
586.751,4007.22
587.566,3995.78
588.381,3984.266667
589.197,3970.693333
590.012,3956.873333
590.827,3937.073333
591.642,3917.066667
592.457,3897.76
593.272,3883.8
594.086,3904.866667
594.901,3933.986667
595.716,3965.26
596.53,3990.573333
597.345,4004.7
598.159,4009.686667
598.974,3995.606667
599.788,3980.186667
600.602,3979.953333
601.416,3993.3
602.228,3999.56
603.042,4000.133333
603.856,3999.353333
604.67,3999.086667
605.484,3999.386667
606.297,4001.906667
607.111,4007.106667
607.924,4014.146667
608.736,4024.926667
609.549,4038.32
610.362,4054.246667
611.176,4073.233333
611.989,4095.046667
612.802,4119.206667
613.613,4145.146667
614.426,4171.6
615.239,4174.566667
616.052,4164.893333
616.864,4161.086667
617.675,4155.033333
618.488,4152.7
619.3,4156.846667
620.112,4165.42
620.923,4180.193333
621.735,4198.913333
622.547,4221.013333
623.359,4243.38
624.17,4255.76
624.982,4268.046667
625.794,4279.873333
626.603,4293.286667
627.415,4294.56
628.227,4270.786667
629.038,4254.353333
629.848,4221.28
630.66,4174.12
631.471,4242.286667
632.28,4270.28
633.092,4263.086667
633.903,4255.846667
634.712,4246.473333
635.523,4247.446667
636.332,4258.886667
637.143,4281.306667
637.954,4316.866667
638.762,4348.393333
639.573,4382.406667
640.384,4404.726667
641.192,4417.473333
642.003,4422.04
642.811,4406.293333
643.622,4391.466667
644.43,4376.7
645.24,4362.733333
646.05,4350.48
646.858,4359.073333
647.668,4387.2
648.476,4414.84
649.286,4442.593333
650.094,4465.646667
650.903,4480.2
651.711,4491.473333
652.521,4498.52
653.328,4503.506667
654.137,4505.646667
654.945,4506.953333
655.754,4509.38
656.561,4507.106667
657.37,4503.3
658.177,4495.946667
658.986,4489.8
659.793,4531.413333
660.6,4595.453333
661.409,4647.72
662.215,4702.966667
663.024,4763.826667
663.831,4829.2
664.639,4898.226667
665.445,4971.486667
666.252,5049.653333
667.06,5130.92
667.866,5217.68
668.672,5304.98
669.48,5402.08
670.286,5529.186667
671.094,5691.48
671.9,5883.226667
672.706,6101.24
673.513,6350.609333
674.319,6628.7268
675.124,6934.531333
675.932,7280.206
676.737,7601.7
677.543,7865.746667
678.348,8017.813333
679.155,8112.446667
679.96,8120.62
680.765,8059.1
681.572,7910.393333
682.377,7691.053333
683.182,7404.633333
683.986,7093.146
684.793,6813.626667
685.598,6543.326
686.402,6294.608
687.207,6070.732
688.013,5871.606667
688.817,5696.96
689.622,5547.726667
690.426,5422.633333
691.23,5321.546667
692.036,5243.266667
692.84,5170.573333
693.644,5052.033333
694.448,4963.446667
695.251,4928.08
696.055,4909.946667
696.861,4911.2
697.664,4926.92
698.467,4936.246667
699.271,4866.846667
700.074,4822.133333
700.877,4820.466667
701.681,4793.386667
702.484,4768.946667
703.289,4739.873333
704.092,4716.273333
704.895,4704.633333
705.697,4697.88
706.5,4709.7
707.303,4705.433333
708.105,4689.84
708.908,4689.68
709.71,4682.673333
710.513,4710.726667
711.315,4720.266667
712.117,4732.386667
712.919,4722.733333
713.721,4704.94
714.523,4740.233333
715.326,4784.38
716.127,4733.333333
716.929,4733.333333
717.731,4733.333333
718.533,4733.333333
719.334,4733.333333
720.136,4733.333333
720.937,4733.333333
721.739,4733.333333
722.54,4741.753333
723.341,4777.953333
724.142,4753.533333
724.943,4755.186667
725.744,4747.453333
726.543,4758.34
727.344,4764.206667
728.145,4765.84
728.946,4762.446667
729.747,4733.486667
730.547,4717.6
731.348,4706.486667
732.148,4689.386667
732.948,4684.42
733.747,4703.373333
734.547,4745.633333
735.347,4785.68
736.147,4822.126667
736.947,4851.733333
737.747,4841.84
738.545,4820.58
739.345,4782.6
740.145,4731.853333
740.945,4703.746667
741.744,4700.126667
742.542,4719.813333
743.341,4736.586667
744.141,4748.813333
744.94,4756.94
745.737,4728.48
746.536,4716.853333
747.335,4701.9
748.135,4692.506667
748.932,4686.653333
749.73,4683.686667
750.529,4668.82
751.326,4667.073333
752.125,4645.533333
752.923,4631.04
753.72,4624.16
754.518,4625
755.317,4638.853333
756.113,4654.033333
756.911,4672.866667
757.71,4685.886667
758.506,4686.433333
759.304,4677.42
760.102,4666.866667
760.898,4655.233333
761.696,4652.013333
762.493,4649.6
763.289,4650.593333
764.087,4655.293333
764.882,4663.193333
765.68,4675.146667
766.477,4689.28
767.273,4662.84
768.07,4653.166667
768.865,4633.486667
769.662,4634.126667
770.457,4632.946667
771.254,4654.113333
772.049,4675.453333
772.846,4706.106667
773.641,4730.586667
774.438,4733.873333
775.232,4725.033333
776.029,4724.073333
776.823,4707.626667
777.62,4704.986667
778.414,4693.106667
779.211,4706.333333
780.005,4726.773333
780.801,4720.706667
781.595,4681.653333
782.391,4690.733333
783.185,4712.2
783.981,4779.453333
784.775,4831.293333
785.568,4853.84
786.364,4854.046667
787.158,4793.506667
787.953,4763.626667
788.747,4793.213333
789.54,4800.793333
790.335,4814.013333
791.129,4816.013333
791.924,4820.566667
792.717,4815.126667
793.51,4799.353333
794.305,4790.333333
795.098,4797.2
795.891,4794.686667
796.686,4802.233333
797.478,4819.266667
798.271,4830.333333
799.065,4821.5
799.858,4823.666667
800.65,4819.093333
801.445,4823.853333
802.237,4849.953333
803.029,4879.166667
803.821,4900.226667
804.615,4921.226667
805.407,4937.093333
806.199,4926.7
806.991,4905.046667
807.785,4888.18
808.577,4875.5
809.368,4867.366667
810.16,4863.946667
810.951,4864.64
811.745,4869.766667
812.536,4879.3
813.328,4894.44
814.119,4908.06
814.91,4905.386667
815.703,4907.293333
816.494,4910.546667
817.285,4915.04
818.076,4919.826667
818.867,4925.613333
819.658,4928.82
820.448,4929.3
821.241,4927.606667
822.031,4929.34
822.822,4923.593333
823.612,4904.753333
824.403,4882.846667
825.193,4872.74
825.983,4867.046667
826.773,4863.133333
827.563,4863.82
828.353,4869.8
829.143,4878.706667
829.933,4898.106667
830.725,4852.693333
831.514,4802.293333
832.304,4839.513333
833.094,4871.32
833.883,4886.78
834.673,4881.226667
835.462,4882.9
836.251,4880.773333
837.04,4884.233333
837.83,4895.36
838.619,4910.9
839.408,4933.313333
840.195,4959.953333
840.984,4990.733333
841.772,5023.673333
842.561,5048.453333
843.35,5069.066667
844.138,5083.393333
844.927,5095.206667
845.715,5106.266667
846.504,5117.873333
847.292,5118.966667
848.08,5114.306667
848.868,5116.033333
849.655,5116.7
850.443,5120.96
851.231,5121.82
852.019,5114.22
852.806,5109.16
853.594,5112.006667
854.382,5120.406667
855.168,5112.62
855.955,5096.546667
856.743,5111.42
857.53,5130.6
858.317,5145.66
859.105,5153.153333
859.89,5152.08
860.677,5159.08
861.464,5168.046667
862.251,5177.82
863.036,5183.786667
863.823,5183.286667
864.61,5175.253333
865.397,5162.88
866.181,5147.373333
866.968,5132.613333
867.754,5132.086667
868.541,5143.74
869.325,5169.053333
870.112,5192.853333
870.898,5217.146667
871.682,5238.66
872.468,5258.606667
873.254,5276.673333
874.038,5292.36
874.824,5305.346667
875.61,5314.78
876.394,5321.033333
877.179,5327.166667
877.965,5335.793333
878.749,5343.753333
879.534,5351.566667
880.32,5360.32
881.103,5369.166667
881.888,5375.346667
882.672,5377.313333
883.457,5375.346667
884.242,5368.713333
885.025,5355.92
885.81,5343.766667
886.593,5342.48
887.378,5343.226667
888.16,5346.146667
888.945,5358.9
889.728,5370.14
890.512,5374.113333
891.297,5370.2
892.079,5365.48
892.863,5361.34
893.646,5356.613333
894.43,5351.733333
895.212,5354.673333
895.994,5370.12
896.778,5384.686667
897.56,5399.346667
898.086,5405.433333
898.875,5400.84
899.663,5391.193333
900.453,5376.266667
901.24,5355.973333
902.03,5329.5
902.817,5297.893333
903.606,5277.14
904.393,5267.513333
905.182,5281.893333
905.97,5299.68
906.759,5327.353333
907.545,5355.78
908.334,5369.706667
909.121,5370.6
909.908,5359.413333
910.696,5351.52
911.483,5346.54
912.272,5342.173333
913.058,5339.926667
913.844,5340.053333
914.633,5342.866667
915.419,5348.473333
916.207,5357.42
916.993,5369.14
917.779,5385.913333
918.567,5405.786667
919.353,5428.3
920.139,5445.746667
920.927,5443.493333
921.712,5415.62
922.498,5396.533333
923.285,5381.113333
924.071,5371.54
924.856,5374.3
925.644,5383.506667
926.429,5398.4
927.214,5416.793333
927.999,5434.286667
928.786,5449.146667
929.571,5410.66
930.356,5410.526667
931.143,5430.4
931.928,5480.48
932.713,5518.32
933.497,5531.2
934.282,5524.16
935.068,5498.173333
935.853,5487.146667
936.637,5478.513333
937.421,5468.346667
938.208,5458.74
938.992,5449.866667
939.776,5442.213333
940.56,5436.106667
941.344,5431.273333
942.13,5427.56
942.914,5424.833333
943.697,5422.373333
944.481,5420.7
945.265,5419.2
946.048,5417.486667
946.834,5415.486667
947.617,5412.633333
948.401,5409.046667
949.184,5403.793333
949.967,5399.58
950.75,5399.893333
951.533,5408.82
952.316,5430.7
953.099,5461.266667
953.884,5501.6
954.667,5489.846667
955.45,5434.94
956.232,5420.98
957.015,5413.94
957.797,5420.266667
958.58,5425.246667
959.362,5430.9
960.144,5438.646667
960.927,5448.64
961.709,5460.493333
962.491,5475.706667
963.273,5490.606667
964.055,5504.853333
964.837,5512.593333
965.619,5517.28
966.401,5516.586667
967.182,5502.346667
967.964,5490.833333
968.745,5493.313333
969.527,5499.553333
970.308,5511.906667
971.09,5524.126667
971.871,5533.373333
972.652,5541.753333
973.433,5551.486667
974.215,5559.78
974.996,5566.226667
975.776,5567.493333
976.557,5564.84
977.338,5558.133333
978.117,5549.506667
978.898,5522.826667
979.678,5504.046667
980.459,5514.486667
981.239,5511.14
982.02,5502.786667
982.8,5494.593333
983.58,5486.953333
984.359,5482.22
985.139,5479.6
985.919,5478.26
986.699,5478.173333
987.479,5479.693333
988.259,5482.253333
989.038,5485.773333
989.816,5491.1
990.596,5498.686667
991.375,5508.38
992.155,5519.913333
992.934,5529.546667
993.712,5534.746667
994.491,5529.5
995.27,5525.473333
996.049,5519.946667
996.827,5513.066667
997.606,5504.973333
998.385,5496.64
999.164,5487.793333
999.94,5477.973333
1000.72,5466.98
1001.5,5453.5
1002.28,5439.18
1003.05,5433.953333
1003.83,5454.453333
1004.61,5472.753333
1005.39,5491.113333
1006.16,5506.993333
1006.94,5513.686667
1007.72,5515.106667
1008.5,5505.506667
1009.28,5492.76
1010.05,5477.74
1010.83,5466.566667
1011.61,5466.48
1012.38,5468.646667
1013.16,5474.646667
1013.94,5485.16
1014.71,5499.62
1015.49,5520.1
1016.27,5539.993333
1017.04,5555.753333
1017.82,5566.84
1018.6,5573.08
1019.37,5561.806667
1020.15,5549.706667
1020.93,5533.106667
1021.7,5512.8
1022.48,5494.813333
1023.25,5485.286667
1024.03,5517.72
1024.81,5538.373333
1025.58,5564.2
1026.36,5569.54
1027.13,5575.78
1027.91,5569.14
1028.68,5555.793333
1029.46,5557.686667
1030.23,5574.88
1031.01,5601.393333
1031.79,5636.18
1032.56,5708.366667
1033.34,5766.18
1034.11,5926.506667
1034.88,6125.372667
1035.66,6236.864667
1036.43,5868.6
1037.21,5608.046667
1037.98,5688.6
1038.76,5636.693333
1039.53,5598.726667
1040.31,5593.146667
1041.08,5617.933333
1041.85,5625.053333
1042.63,5621.853333
1043.4,5617.16
1044.18,5615.813333
1044.95,5612.493333
1045.72,5610.913333
1046.5,5613.08
1047.27,5615.78
1048.04,5618.766667
1048.82,5621.573333
1049.59,5624.166667
1050.36,5626.36
1051.14,5626.826667
1051.91,5628.66
1052.68,5631.233333
1053.45,5635.7
1054.23,5642.906667
1055,5653.08
1055.77,5666.586667
1056.54,5682.993333
1057.32,5701.9
1058.09,5724.126667
1058.86,5744.106667
1059.63,5743.046667
1060.41,5733.693333
1061.18,5716.813333
1061.95,5704.06
1062.72,5711.5
1063.5,5718.046667
1064.27,5730.153333
1065.04,5743.373333
1065.81,5756.666667
1066.58,5770.446667
1067.35,5783.56
1068.12,5793.426667
1068.89,5802.893333
1069.67,5826.373333
1070.44,5849.32
1071.21,5836.066667
1071.98,5806.66
1072.75,5769.84
1073.52,5742.286667
1074.29,5706.926667
1075.06,5698.913333
1075.83,5708.513333
1076.6,5746.42
1077.37,5772.433333
1078.14,5790.406667
1078.91,5797.5
1079.68,5778.52
1080.46,5761.213333
1081.23,5745.073333
1082,5731.706667
1082.77,5735.573333
1083.53,5739.8
1084.3,5748.64
1085.07,5752.22
1085.84,5756.973333
1086.61,5750.22
1087.38,5738.953333
1088.15,5730.386667
1088.92,5723.966667
1089.69,5720.88
1090.46,5720.033333
1091.23,5722.846667
1092,5727.14
1092.77,5734.32
1093.54,5743.633333
1094.3,5753.366667
1095.07,5761.62
1095.84,5763.273333
1096.61,5761.206667
1097.38,5751.626667
1098.14,5736.34
1098.91,5715.713333
1099.68,5695.486667
1100.45,5695.9
1101.22,5696.486667