Wave,Quartz
100.156,1091.74
101.022,1078.67
101.889,1080.35
102.755,1083.88
103.623,1088.41
104.489,1092.51
105.356,1096.37
106.224,1099.7
107.089,1102.47
107.957,1104.63
108.822,1106.08
109.689,1106.59
110.554,1106.5
111.421,1105.9
112.286,1105.7
113.153,1113.37
114.018,1123.37
114.884,1133.18
115.749,1137.02
116.616,1143.44
117.48,1144.38
118.346,1150.09
119.211,1177.7
120.077,1213.71
120.941,1255.65
121.807,1310.46
122.671,1379.01
123.537,1495.85
124.401,1676.94
125.264,1839.93
126.13,1999.19
126.994,1938.89
127.859,1775.73
128.722,1626.77
129.586,1443.72
130.451,1356.31
131.314,1282.65
132.179,1238.44
133.042,1212.32
133.905,1198.77
134.77,1188.99
135.633,1180.08
136.498,1173.35
137.36,1168.69
138.223,1165.68
139.087,1164.01
139.949,1163.96
140.812,1165.29
141.676,1167.13
142.538,1168.1
143.4,1168.8
144.264,1167.44
145.126,1162.76
145.988,1158.29
146.849,1153.59
147.713,1149.03
148.574,1143.31
149.436,1138.47
150.299,1135.02
151.161,1131.63
152.022,1129.87
152.883,1128.51
153.746,1127.36
154.607,1126.51
155.468,1125.68
156.329,1124.32
157.189,1123.55
158.052,1123.01
158.913,1123.85
159.773,1125.11
160.634,1128.2
161.496,1130.86
162.356,1132.92
163.217,1131.1
164.077,1130.73
164.937,1130.16
165.797,1130.09
166.658,1130.93
167.518,1132.18
168.378,1133.68
169.238,1135.33
170.097,1137.16
170.956,1139.18
171.816,1141.17
172.677,1143.7
173.536,1146.31
174.396,1149.35
175.255,1153.11
176.114,1158.57
176.973,1168.09
177.831,1172.46
178.69,1175.24
179.549,1178.72
180.407,1183.1
181.268,1188.91
182.126,1195.83
182.985,1203.94
183.843,1213.24
184.701,1223.52
185.559,1234.77
186.417,1235.27
187.275,1239.35
188.133,1250.03
188.991,1267.08
189.848,1293.38
190.706,1316.29
191.564,1331.9
192.421,1350.54
193.279,1364.54
194.136,1384.74
194.993,1404.06
195.85,1432.92
196.707,1463.76
197.564,1493.24
198.421,1522.52
199.278,1552.84
200.135,1584.4
200.991,1612.72
201.848,1634.22
202.702,1647.72
203.559,1654.74
204.415,1656.87
205.272,1648.29
206.128,1633.11
206.984,1609.76
207.84,1588.79
208.696,1600.58
209.552,1600.82
210.408,1581.77
211.261,1558.27
212.117,1529.26
212.972,1497.18
213.828,1462.6
214.683,1430.01
215.539,1403.94
216.394,1382.45
217.247,1365.56
218.102,1352.1
218.957,1338.71
219.812,1324.94
220.667,1310.97
221.52,1297.26
222.374,1283.39
223.229,1269.95
224.083,1256.99
224.938,1244.73
225.79,1233.56
226.645,1224.01
227.499,1214.43
228.353,1205.76
229.205,1193.12
230.059,1189.87
230.913,1189.02
231.767,1189.06
232.618,1189.32
233.472,1189.57
234.326,1186.42
235.179,1179.87
236.031,1170.28
236.884,1162.65
237.737,1159.95
238.588,1161.69
239.441,1165.4
240.294,1167.67
241.145,1168.3
241.998,1167.6
242.851,1165.18
243.702,1161.58
244.554,1157.07
245.407,1152.33
246.257,1152.63
247.11,1152.81
247.962,1151.4
248.812,1148.73
249.665,1145.56
250.515,1142.85
251.367,1141
252.219,1139.08
253.068,1140.93
253.92,1146.19
254.77,1151.19
255.621,1156.87
256.473,1163.17
257.322,1170.31
258.174,1164.85
259.023,1183.33
259.874,1209.11
260.723,1239.22
261.575,1266.85
262.423,1295.86
263.274,1305.87
264.123,1281.71
264.974,1259.51
265.823,1229.68
266.673,1198.55
267.522,1173.24
268.372,1151.87
269.22,1140.95
270.071,1138.25
270.919,1134.24
271.769,1131.49
272.617,1128.39
273.467,1124.98
274.315,1121.73
275.165,1119.25
276.012,1117.52
276.86,1116.59
277.71,1116.75
278.557,1118.97
279.407,1120.25
280.254,1120.08
281.103,1117.24
281.95,1114.54
282.797,1112.29
283.646,1110.43
284.493,1109.2
285.34,1108.14
286.189,1107.19
287.036,1105.84
287.884,1105.07
288.731,1104.94
289.577,1105.07
290.426,1105.5
291.272,1106.16
292.118,1106.8
292.967,1107.13
293.813,1104.4
294.659,1101.92
295.507,1099.83
296.352,1098.1
297.198,1097.12
298.044,1099.61
298.892,1104.02
299.737,1106.74
300.582,1108.55
301.428,1109.67
302.275,1110.37
303.12,1110.38
303.966,1109.85
304.811,1108.64
305.658,1106.94
306.503,1104.91
307.347,1103.02
308.192,1102.65
309.039,1102.19
309.883,1102.51
310.728,1103.07
311.572,1104.19
312.417,1105.26
313.263,1106.05
314.107,1106.54
314.951,1106.5
315.795,1106.52
316.639,1106.71
317.483,1106.62
318.329,1106.32
319.173,1105.57
320.017,1104.57
320.86,1103.17
321.704,1101.5
322.547,1099.6
323.39,1097.65
324.234,1097.31
325.079,1098.67
325.922,1101.59
326.765,1103.49
327.608,1105.19
328.451,1106.33
329.294,1106.99
330.137,1107.1
330.979,1106.39
331.822,1105.48
332.664,1105.05
333.507,1105
334.349,1105.69
335.191,1106.54
336.034,1107.55
336.876,1108.66
337.718,1109.93
338.56,1111.23
339.402,1112.32
340.243,1112.99
341.085,1111.77
341.927,1110.58
342.768,1110.31
343.61,1110.32
344.451,1110.53
345.293,1110.9
346.134,1113.03
346.975,1118.75
347.816,1128.04
348.657,1141.32
349.498,1159.02
350.339,1181.03
351.18,1218.25
352.021,1255.92
352.861,1288.95
353.7,1305.99
354.54,1278.88
355.381,1230.28
356.221,1185.08
357.061,1161.72
357.902,1135.27
358.742,1126.15
359.582,1119.51
360.42,1115.68
361.26,1114.48
362.099,1115.4
362.939,1117.32
363.779,1117.89
364.618,1115.33
365.456,1113.28
366.295,1111.94
367.135,1110.16
367.974,1108.41
368.813,1106.74
369.65,1105.44
370.489,1104.59
371.328,1104.2
372.167,1105
373.006,1106.24
373.843,1108.31
374.681,1110.68
375.52,1108.75
376.358,1105.36
377.195,1102.43
378.033,1104.14
378.872,1105.98
379.708,1107.66
380.546,1109.41
381.384,1111.54
382.222,1113.49
383.058,1113.37
383.896,1110.19
384.733,1108.53
385.569,1108.97
386.407,1111.46
387.244,1117.48
388.079,1120.97
388.917,1138.76
389.754,1158.26
390.589,1182.05
391.426,1208.06
392.263,1214.36
393.098,1207.64
393.935,1177.17
394.77,1155.15
395.607,1139.02
396.444,1129.81
397.278,1139.1
398.115,1147.17
398.949,1159.42
399.785,1168.99
400.62,1183.3
401.456,1186.11
402.292,1178.16
403.126,1166.5
403.962,1149.73
404.796,1135.03
405.632,1124.21
406.466,1117.16
407.301,1115.77
408.135,1115.71
408.97,1115.75
409.804,1116.2
410.639,1116.42
411.473,1116.78
412.308,1117.08
413.141,1117.31
413.976,1117.53
414.809,1117.63
415.644,1117.69
416.477,1117.73
417.311,1117.92
418.144,1120.28
418.977,1120.94
419.811,1118.24
420.644,1111.18
421.478,1119.09
422.31,1120.78
423.145,1122.35
423.977,1124.35
424.809,1124.05
425.643,1125.2
426.475,1125.02
427.309,1122.72
428.14,1121.91
428.972,1122.5
429.806,1124.24
430.637,1126.38
431.469,1128.76
432.302,1131.03
433.134,1127.72
433.965,1128.87
434.798,1131.04
435.629,1133.35
436.46,1136.8
437.293,1140.53
438.124,1144.01
438.955,1146.59
439.785,1148.89
440.618,1151.2
441.449,1153.88
442.279,1156.67
443.112,1160.26
443.942,1163.19
444.772,1169.38
445.602,1180.03
446.434,1196.11
447.264,1210.55
448.094,1228.73
448.924,1241.94
449.754,1256.81
450.586,1273.56
451.415,1293.52
452.245,1317.9
453.075,1360.59
453.904,1407.9
454.735,1465.39
455.565,1532.22
456.394,1621.55
457.223,1760.97
458.052,1944.75
458.881,2180.21
459.712,2468.29
460.541,2789.05
461.369,3165.45
462.198,3496.49
463.027,3621.9
463.855,3597.03
464.684,3407.43
465.512,3023.73
466.34,2701.03
467.171,2388.46
467.999,2174.09
468.827,1976.04
469.655,1846.93
470.483,1747.62
471.311,1646.74
472.138,1565.99
472.966,1501.52
473.794,1451.62
474.621,1414.46
475.449,1385.69
476.276,1364.18
477.103,1348.11
477.931,1326.34
478.758,1311.47
479.585,1302.53
480.412,1295.92
481.239,1292.47
482.066,1278.62
482.893,1259.54
483.719,1244.84
484.546,1232.52
485.373,1223.1
486.199,1215.83
487.026,1211.17
487.852,1208.49
488.678,1207.54
489.504,1206.25
490.331,1201.59
491.155,1195.01
491.98,1187.53
492.806,1181.68
493.632,1176.94
494.458,1173.49
495.284,1171.14
496.109,1169.47
496.935,1168.35
497.76,1167.81
498.584,1166.52
499.409,1164.51
500.234,1159.55
501.059,1160.74
501.884,1161.92
502.709,1167.83
503.532,1175.46
504.357,1184.91
505.182,1195.88
506.007,1208.88
506.831,1222.31
507.654,1230.42
508.478,1231.61
509.303,1226.66
510.127,1214.69
510.951,1197.92
511.774,1183.89
512.598,1171.94
513.422,1162.42
514.246,1155.3
515.068,1151.38
515.891,1148.03
516.715,1146.83
517.537,1146.15
518.36,1145.67
519.184,1143.71
520.007,1142.73
520.829,1141.21
521.652,1139.58
522.475,1137.53
523.296,1134.92
524.119,1130.64
524.942,1136.04
525.763,1142.22
526.586,1138.88
527.409,1134.36
528.23,1130.4
529.052,1127.9
529.873,1126.29
530.695,1125.3
531.518,1125.17
532.338,1125.86
533.16,1127.6
533.98,1129.32
534.803,1129.3
535.625,1129.88
536.445,1130.51
537.266,1132.38
538.086,1134.14
538.908,1135.27
539.728,1135.6
540.549,1134.97
541.371,1133.45
542.19,1130.96
543.012,1127.47
543.831,1127.79
544.652,1128.59
545.471,1128.33
546.292,1126.62
547.111,1123.43
547.932,1118.46
548.751,1113.04
549.572,1112.54
550.391,1118.73
551.209,1118.97
552.03,1118.4
552.848,1118.67
553.669,1119.36
554.487,1119.8
555.307,1120.19
556.125,1120.53
556.945,1120.95
557.764,1121.38
558.581,1121.79
559.401,1122.08
560.219,1118.88
561.039,1119.36
561.857,1120.19
562.674,1121.66
563.494,1123.83
564.311,1124.35
565.129,1125.04
565.948,1126.04
566.765,1127.07
567.582,1126.67
568.401,1123.28
569.218,1117.45
570.035,1112.85
570.854,1110.21
571.671,1110.67
572.488,1110.21
573.306,1110.17
574.123,1110.89
574.939,1112.37
575.756,1114.57
576.574,1115.48
577.39,1116.27
578.207,1116.69
579.025,1115.8
579.841,1116.74
580.657,1117.49
581.473,1118.22
582.288,1119.02
583.106,1119.74
583.922,1120.46
584.737,1120.9
585.553,1121.41
586.368,1122.18
587.186,1122.94
588.001,1123.47
588.816,1123.52
589.632,1122.49
590.447,1120.65
591.264,1117.57
592.079,1115.49
592.894,1114.12
593.708,1113.97
594.523,1115.82
595.338,1117.6
596.152,1119.67
596.967,1121.74
597.783,1123.31
598.598,1124.49
599.412,1125.3
600.226,1125.66
601.04,1125.7
601.854,1125.22
602.668,1124.37
603.482,1123.2
604.296,1121.89
605.11,1121.41
605.924,1121.25
606.737,1122.3
607.551,1120.44
608.364,1118.73
609.178,1117.22
609.991,1114.49
610.804,1115
611.618,1116.86
612.431,1118.24
613.244,1119.07
614.057,1118.64
614.87,1118.33
615.682,1117.96
616.495,1117.55
617.308,1117.37
618.121,1117.22
618.933,1118.7
619.746,1119.64
620.558,1120.01
621.37,1119.67
622.183,1119.45
622.995,1119.38
623.807,1119.48
624.619,1119.36
625.429,1119.59
626.241,1120.61
627.053,1122.21
627.864,1123.89
628.676,1125.62
629.488,1125.24
630.299,1124.97
631.111,1124.47
631.92,1122.74
632.731,1121
633.542,1119.26
634.354,1118.56
635.165,1120.15
635.976,1120.04
636.785,1119.84
637.596,1119.78
638.406,1119.77
639.217,1119.95
640.026,1120.19
640.836,1120.97
641.647,1122.19
642.457,1123.68
643.268,1125.16
644.076,1125.6
644.886,1124.63
645.696,1121.17
646.504,1117.66
647.314,1115.56
648.124,1117.95
648.934,1119.06
649.742,1116.17
650.552,1114.44
651.361,1113.53
652.169,1113.37
652.978,1113.94
653.788,1115.21
654.595,1117.66
655.405,1118.04
656.214,1117.17
657.021,1118.28
657.83,1119.89
658.639,1122.3
659.446,1124.87
660.255,1127.38
661.064,1127.81
661.87,1126.79
662.679,1125.3
663.485,1123.18
664.294,1120.23
665.1,1116.55
665.909,1114.07
666.717,1112.22
667.523,1111.18
668.331,1111.01
669.137,1116.21
669.945,1118.91
670.751,1122.95
671.559,1123.71
672.365,1122.95
673.173,1120.8
673.978,1118.26
674.786,1116.93
675.591,1115.54
676.399,1114.48
677.204,1115.03
678.011,1115.79
678.816,1117.33
679.624,1119.26
680.429,1121.27
681.236,1123.19
682.041,1122.53
682.847,1122.4
683.652,1122.66
684.459,1123.29
685.263,1125.72
686.068,1128.41
686.875,1131.31
687.679,1132.98
688.485,1133.45
689.289,1134.22
690.094,1135.47
690.9,1137.33
691.704,1139.76
692.508,1143.06
693.314,1148.13
694.118,1154.46
694.923,1158.69
695.727,1158.74
696.531,1151.18
697.336,1144.5
698.14,1139.06
698.943,1135.72
699.746,1132.75
700.552,1131.06
701.355,1130.38
702.158,1130.67
702.963,1131.79
703.766,1133.35
704.569,1132.85
705.372,1129.93
706.177,1126.75
706.979,1123.6
707.782,1120.5
708.584,1118.99
709.389,1119.19
710.191,1120.57
710.994,1122.17
711.796,1123.35
712.6,1124.19
713.402,1124.67
714.204,1124.73
715.006,1124.29
715.808,1123.31
716.61,1121.66
717.414,1119.58
718.216,1118.18
719.017,1117.71
719.819,1119.78
720.62,1121.73
721.422,1125.06
722.223,1128.4
723.026,1131.2
723.827,1129.27
724.629,1125.75
725.43,1123.25
726.231,1121.39
727.031,1120.06
727.832,1118.76
728.633,1119.02
729.434,1120.04
730.234,1121.21
731.035,1122.26
731.836,1122.72
732.638,1122.45
733.438,1121.72
734.239,1120.91
735.039,1119.88
735.839,1118.88
736.639,1117.81
737.439,1117.04
738.239,1116.06
739.039,1115.33
739.839,1115.24
740.638,1115.8
741.438,1117.63
742.237,1119.71
743.035,1121.36
743.834,1124.24
744.634,1126.94
745.433,1129.17
746.232,1130.46
747.031,1130.62
747.83,1130.09
748.629,1128.68
749.428,1126.41
750.227,1123.28
751.026,1119.18
751.825,1114.45
752.621,1112.67
753.42,1116.2
754.218,1118.91
755.017,1120.95
755.815,1122.35
756.614,1123.92
757.412,1124.99
758.208,1125.64
759.006,1126.48
759.804,1127.48
760.602,1128.51
761.4,1129.12
762.196,1129.4
762.993,1129.31
763.791,1128.86
764.589,1128.08
765.386,1126.95
766.182,1125.5
766.979,1123.69
767.776,1121.9
768.574,1123.03
769.369,1128.57
770.166,1129.97
770.963,1130.58
771.76,1126.82
772.555,1126.9
773.352,1126.81
774.148,1126.59
774.943,1126.86
775.74,1126.91
776.536,1127.71
777.331,1128.87
778.127,1128.06
778.923,1126.75
779.718,1125
780.514,1123.92
781.31,1123.2
782.104,1122.78
782.9,1122.58
783.696,1122.53
784.49,1124.25
785.285,1127.09
786.079,1132.32
786.875,1136.8
787.67,1139.76
788.464,1141.99
789.259,1143.61
790.053,1143.99
790.848,1143.68
791.643,1142.33
792.436,1140.25
793.231,1137.46
794.024,1134.73
794.819,1134.91
795.612,1133.8
796.407,1138.99
797.2,1145.15
797.994,1150.24
798.787,1154.17
799.581,1154.7
800.374,1158.38
801.168,1163.68
801.96,1171.59
802.755,1178.39
803.547,1190.8
804.341,1206.99
805.133,1227.39
805.925,1245.94
806.719,1257.27
807.51,1257.09
808.304,1244.09
809.096,1230.4
809.89,1214.64
810.681,1197.95
811.473,1179.58
812.266,1168.55
813.057,1161.77
813.85,1155.81
814.642,1150.61
815.433,1146.17
816.226,1142.82
817.017,1140.13
817.808,1138.27
818.601,1137.22
819.391,1136.99
820.182,1137.58
820.975,1138.92
821.765,1140.14
822.556,1140.96
823.346,1139.75
824.138,1136.73
824.929,1133.07
825.719,1129.59
826.511,1126.57
827.301,1124.06
828.091,1121.96
828.881,1125.02
829.673,1126.44
830.463,1129.27
831.253,1129.43
832.042,1128.8
832.834,1125.88
833.623,1123.95
834.413,1123.2
835.202,1123.02
835.991,1123.65
836.781,1127.4
837.572,1130.73
838.361,1132.99
839.15,1132.36
839.939,1130.1
840.728,1126.1
841.517,1122.02
842.307,1119.43
843.096,1118.1
843.885,1118.16
844.673,1119.53
845.462,1122.2
846.25,1126
847.038,1129.81
847.827,1133.55
848.615,1135.86
849.403,1136.52
850.193,1136.07
850.981,1134.7
851.769,1132.8
852.557,1131.09
853.345,1130.03
854.132,1129.21
854.92,1128.59
855.708,1128.23
856.495,1128.1
857.283,1128.26
858.07,1128.63
858.857,1129.39
859.645,1129.85
860.432,1128.09
861.219,1124.51
862.006,1121.32
862.793,1118.63
863.58,1118.25
864.367,1117.59
865.153,1117.45
865.94,1117.52
866.725,1117.76
867.511,1118.14
868.298,1118.43
869.084,1118.83
869.87,1119.38
870.657,1120.12
871.443,1120.89
872.229,1119.09
873.015,1117.35
873.799,1116.82
874.585,1117.06
875.371,1117.8
876.157,1119.21
876.942,1120.68
877.728,1122.27
878.514,1122.31
879.297,1119.86
880.083,1112.84
880.868,1122.46
881.653,1122.02
882.439,1122.84
883.222,1123.77
884.007,1123.98
884.792,1124.42
885.577,1124.88
886.36,1125.11
887.145,1124.25
887.929,1120.84
888.714,1122.94
889.497,1124.22
890.281,1126.03
891.066,1127.85
891.85,1128.47
892.633,1128.67
893.417,1128.3
894.201,1127.36
894.983,1126.29
895.767,1125.23
896.551,1124.4
897.333,1123.62
898.117,1122.84
898.901,1122.12
899.683,1121.36
900.466,1120.42
901.25,1119.44
902.031,1118.81
902.815,1118.42
903.596,1118.21
904.38,1118.16
905.163,1117.92
905.944,1118.11
906.727,1118.88
907.508,1120.13
908.291,1121.82
909.074,1123.61
909.855,1124.16
910.638,1125.46
911.419,1126.49
912.201,1125.47
912.982,1123.4
913.764,1121.33
914.545,1121.01
915.327,1121.33
916.108,1122.99
916.89,1124.96
917.67,1126.19
918.452,1126.88
919.232,1126.98
920.014,1126.34
920.794,1124.85
921.576,1122.75
922.356,1121.7
923.137,1120.88
923.917,1122.27
924.697,1124.08
925.478,1125.43
926.257,1126.6
927.039,1128.49
927.818,1127.99
928.597,1124.79
929.378,1121.09
930.158,1117.96
930.939,1116.26
931.718,1116.57
932.496,1119.72
933.277,1118.88
934.056,1116.99
934.835,1115.46
935.615,1114.13
936.394,1113.22
937.172,1112.4
937.953,1111.79
938.731,1112.96
938.968,1113.38
939.755,1116.72
940.539,1120.12
941.323,1123.24
942.108,1126.59
942.892,1126.73
943.676,1125.98
944.462,1124.32
945.245,1121.5
946.029,1118.5
946.812,1116.58
947.598,1117.5
948.381,1117.9
949.164,1118.6
949.95,1119.49
950.733,1119.78
951.516,1119.48
952.299,1118.38
953.084,1116.83
953.867,1117.13
954.649,1117.79
955.432,1119.39
956.217,1120.96
956.999,1122.34
957.782,1123.65
958.564,1125.05
959.347,1126.63
960.131,1127.72
960.913,1127.63
961.695,1125.75
962.477,1123.28
963.26,1121.11
964.041,1118.57
964.825,1117.73
965.607,1118.61
966.389,1120.23
967.171,1123.14
967.952,1124.09
968.734,1123.43
969.515,1121.05
970.297,1118.11
971.08,1115.49
971.861,1112.69
972.643,1110.64
973.424,1108.61
974.205,1110.72
974.986,1115.28
975.767,1119.62
976.548,1122.47
977.329,1124.72
978.109,1126.6
978.89,1127.54
979.671,1127.63
980.451,1126.83
981.232,1125.05
982.014,1122.35
982.794,1119.14
983.575,1116.52
984.355,1114.1
985.135,1112.54
985.915,1111.58
986.695,1111.26
987.475,1111.84
988.255,1114.62
989.033,1117.25
989.812,1119.64
990.592,1121.86
991.372,1123.58
992.151,1124.53
992.93,1124.78
993.71,1124.24
994.489,1123.01
995.268,1120.78
996.048,1119.59
996.827,1117.15
997.606,1114.61
998.385,1113.71
999.164,1114.51
999.942,1117.21
1000.72,1119.25
1001.5,1120.62
1002.28,1121.59
1003.06,1122.25
1003.83,1122.39
1004.61,1122.29
1005.39,1122.01
1006.17,1121.59
1006.95,1121.28
1007.72,1120.94
1008.5,1120.49
1009.28,1120.09
1010.06,1119.72
1010.83,1119.47
1011.61,1119.59
1012.39,1120.8
1013.17,1122.6
1013.94,1124.29
1014.72,1125.74
1015.5,1126.51
1016.27,1126.37
1017.05,1125.56
1017.83,1124.92
1018.6,1124.21
1019.38,1123.39
1020.16,1124.87
1020.93,1121.09
1021.71,1117.77
1022.49,1115.88
1023.26,1115.08
1024.04,1116.88
1024.82,1119.75
1025.59,1122.93
1026.37,1124.67
1027.14,1125.22
1027.92,1124.62
1028.69,1121.37
1029.47,1117.92
1030.25,1116.49
1031.02,1116.19
1031.8,1117.57
1032.57,1119.88
1033.35,1122.82
1034.12,1126.51
1034.9,1125.91
1035.67,1121.92
1036.45,1118.4
1037.22,1115.22
1038,1113.02
1038.77,1113.71
1039.55,1115.29
1040.32,1117.28
1041.09,1119.87
1041.87,1122.01
1042.64,1122.06
1043.42,1121.86
1044.19,1121.3
1044.97,1120.32
1045.74,1118.9
1046.51,1116.93
1047.29,1115.46
1048.06,1114.38
1048.84,1113.99
1049.61,1114.99
1050.38,1115.44
1051.15,1115.47
1051.93,1115.61
1052.7,1115.87
1053.48,1116.19
1054.25,1116.6
1055.02,1117.41
1055.79,1117.72
1056.57,1118.01
1057.34,1118.07
1058.11,1118.42
1058.89,1118.94
1059.66,1119.5
1060.43,1120.16
1061.2,1120.85
1061.97,1121.59
1062.75,1122.34
1063.52,1122.99
1064.29,1123.53
1065.06,1124
1065.83,1124.46
1066.61,1124.85
1067.38,1125.11
1068.15,1125.12
1068.92,1124.22
1069.69,1122.84
1070.46,1122.54
1071.24,1125.26
1072.01,1131.28
1072.78,1134.47
1073.55,1129.55
1074.32,1114.95
1075.09,1114.95
1075.86,1119.96
1076.63,1125.12
1077.4,1128.9
1078.17,1131.96
1078.94,1134.64
1079.71,1136.16
1080.49,1135.36
1081.26,1133.2
1082.03,1128.64
1082.8,1128.05
1083.57,1128.72
1084.34,1128.16
1085.11,1127.26
1085.88,1126.07
1086.65,1125
1087.42,1124.31
1088.19,1123.94
1088.95,1124.3
1089.72,1124.63
1090.49,1124.99
1091.26,1125.39
1092.03,1125.24
1092.8,1125.1
1093.57,1125.35
1094.34,1125.47
1095.11,1125.32
1095.88,1124.82
1096.65,1123.52
1097.41,1122.35
1098.18,1123.76
1098.95,1128.64
1099.72,1128.92
1100.49,1129.29
1101.26,1129.24
1102.03,1128.77