raman_shift_cm-1,intensity
60.707031,5.07785
62.675781,1.269789
64.644531,1.270116
66.613281,-8.8931
68.580078,2.541539
70.548828,10.168768
72.515625,2.542845
74.480469,7.630495
76.447266,2.544151
78.412109,6.362011
80.376953,5.090915
82.341797,2.54611
84.304688,7.640289
86.267578,2.547415
88.230469,12.740341
90.193359,14.017964
92.154297,44.614033
94.117188,61.200615
96.078125,93.099747
98.037109,128.842178
99.998047,149.290985
101.957031,154.434402
103.916016,157.02713
105.873047,158.344208
107.832031,186.485123
109.789063,171.201263
111.746094,187.858246
113.701172,171.288605
115.658203,194.347046
117.613281,182.886246
119.566406,188.049835
121.521484,200.893494
123.474609,193.265213
125.427734,222.759628
127.380859,227.938507
129.333984,217.749435
131.285156,252.397324
133.236328,257.587585
135.1875,255.089294
137.138672,265.41153
139.087891,262.913879
141.037109,252.717941
142.986328,270.746246
144.933594,245.145248
146.882813,256.761688
148.830078,259.39502
150.775391,267.16748
152.722656,264.665558
154.667969,255.736786
156.613281,266.084991
158.558594,291.867493
160.503906,261.075256
162.447266,249.563568
164.390625,301.096039
166.333984,280.579163
168.275391,292.236481
170.216797,300.03653
172.158203,271.775452
174.099609,305.3414
176.041016,297.686279
177.980469,284.871246
179.919922,284.943024
181.859375,279.856171
183.796875,288.956573
185.734375,282.577759
187.671875,282.648895
189.609375,296.920563
191.546875,298.28653
193.482422,288.028656
195.417969,279.057526
197.353516,288.173431
199.287109,285.660675
201.222656,284.439484
203.15625,279.337982
205.087891,257.417603
207.021484,258.776062
208.953125,249.781525
210.884766,266.673035
212.816406,247.317047
214.746094,247.379013
216.677734,237.07695
218.607422,257.869537
220.537109,239.787964
222.464844,265.777466
224.392578,294.373535
226.320313,258.127655
228.248047,255.59729
230.175781,246.576752
232.101563,276.494568
234.027344,271.369934
235.953125,251.956497
237.876953,252.019363
239.802734,257.279816
241.726563,249.54567
243.650391,267.808472
245.572266,250.970459
247.496094,277.046783
249.417969,252.39653
251.339844,251.158035
253.259766,264.237152
255.181641,257.792999
257.101563,281.298676
259.021484,274.855469
260.939453,273.620819
262.859375,260.656036
264.777344,262.024384
266.695313,302.51123
268.611328,273.892792
270.529297,280.483643
272.445313,270.114044
274.361328,283.233276
276.275391,309.414429
278.191406,293.820709
280.105469,303.036865
282.019531,318.790161
283.933594,296.652802
285.845703,296.726257
287.757813,330.794373
289.669922,315.182495
291.582031,333.574341
293.494141,328.423004
295.404297,355.988586
297.314453,332.512665
299.224609,328.666534
301.132813,323.508698
303.041016,335.379242
304.949219,356.428406
306.857422,348.652008
308.765625,331.694427
310.671875,338.333069
312.578125,337.104767
314.484375,337.187866
316.390625,322.835205
318.294922,338.666656
320.199219,338.750031
322.103516,308.62735
324.007813,313.957825
325.910156,303.523407
327.8125,321.997925
329.714844,301.043488
331.617188,310.32196
333.517578,324.865906
335.417969,297.318756
337.318359,306.602997
339.21875,314.575562
341.119141,309.386597
343.017578,317.363678
344.916016,297.683746
346.814453,304.344269
348.710938,284.651398
350.607422,293.948242
352.503906,294.020233
354.400391,296.729858
356.296875,302.078979
358.191406,291.597351
360.085938,286.389648
361.980469,289.099884
363.875,307.656372
365.767578,302.448639
367.660156,307.806793
369.552734,323.738586
371.445313,292.096741
373.335938,313.320496
375.228516,288.272339
377.119141,287.02002
379.007813,308.257965
380.898438,292.453339
382.787109,292.524628
384.675781,283.328186
386.564453,317.828674
388.451172,313.932281
390.339844,282.210388
392.226563,296.856903
394.113281,311.510498
395.998047,282.416534
397.884766,290.442566
399.769531,311.737915
401.654297,313.140564
403.539063,299.944794
405.421875,333.205475
407.304688,292.123566
409.1875,308.132385
411.070313,301.564789
412.951172,301.638
414.833984,305.698547
416.714844,301.784363
418.595703,312.495728
420.474609,329.862671
422.353516,323.290558
424.234375,328.691833
426.111328,323.447235
427.990234,322.194183
429.867188,296.969818
431.746094,301.037781
433.623047,301.110626
435.498047,331.8349
437.375,291.925354
439.25,343.995239
441.125,316.071991
443.0,308.144623
444.873047,318.893311
446.748047,332.316376
448.621094,344.41095
450.494141,336.482574
452.365234,340.570496
454.238281,341.988556
456.109375,356.769409
457.980469,335.470825
459.849609,358.27832
461.720703,350.341553
463.589844,329.025909
465.458984,345.159058
467.328125,353.271057
469.195313,380.125519
471.064453,386.91095
472.931641,395.038727
474.798828,376.381653
476.664063,401.927551
478.53125,418.105164
480.396484,383.355164
482.261719,359.31424
484.126953,400.973022
485.990234,402.410675
487.853516,390.432068
489.716797,387.841766
491.580078,362.43045
493.443359,361.174744
495.304688,377.377106
497.166016,385.527405
499.027344,396.368805
500.888672,392.431946
502.748047,405.968658
504.607422,438.336029
506.466797,461.304474
508.326172,474.867249
510.183594,511.310883
512.042969,496.628571
513.900391,549.249146
515.757813,486.093994
517.613281,482.169678
519.470703,471.507629
521.326172,464.882874
523.181641,462.298309
525.035156,458.364319
526.890625,416.671753
528.744141,437.002838
530.597656,427.663452
532.451172,449.356171
534.302734,427.867523
536.15625,434.719879
538.007813,444.276215
539.859375,428.173615
541.708984,449.89209
543.560547,420.269592
545.410156,386.577911
547.259766,432.637726
549.109375,407.046722
550.957031,422.022614
552.804688,418.064148
554.654297,395.157806
556.5,402.019806
558.347656,408.88501
560.193359,391.377014
562.041016,391.470001
563.886719,376.65921
565.730469,413.339386
567.576172,370.060486
569.419922,390.486145
571.263672,394.647369
573.107422,349.976563
574.951172,385.336914
576.792969,384.071136
578.634766,366.515198
580.476563,369.317627
582.318359,372.121368
584.158203,381.718536
585.998047,361.427704
587.839844,376.463074
589.677734,373.833435
591.517578,358.965027
593.355469,372.65036
595.193359,389.062836
597.03125,387.794189
598.869141,378.358856
600.707031,394.78421
602.542969,378.53775
604.378906,356.835693
606.214844,390.977264
608.048828,380.168701
609.884766,370.717926
611.71875,408.976593
613.552734,395.437347
615.384766,384.619476
617.21875,416.08728
619.050781,395.717255
620.882813,439.486206
622.714844,443.685364
624.546875,442.424438
626.376953,458.91864
628.207031,463.125183
630.037109,431.805389
631.867188,467.443695
633.695313,486.693359
635.525391,496.379974
637.353516,499.232269
639.181641,543.128296
641.007813,559.67688
642.835938,554.333557
644.662109,616.070984
646.488281,654.558105
648.3125,677.996582
650.138672,686.375916
651.962891,737.239441
653.787109,745.636475
655.611328,759.521301
657.435547,811.808899
659.257813,805.141235
661.080078,857.463928
662.902344,819.241638
664.724609,886.69043
666.546875,889.644104
668.367188,891.22583
670.1875,907.917236
672.007813,888.895691
673.828125,850.626404
675.646484,828.833313
677.464844,826.27771
679.283203,756.337891
681.101563,751.012939
682.919922,744.309631
684.736328,705.952209
686.552734,697.858582
688.369141,648.458069
690.185547,637.592896
692.0,618.458069
693.816406,577.270569
695.630859,559.490662
697.445313,567.891541
699.257813,523.905762
701.072266,501.963715
702.884766,504.839539
704.697266,485.641998
706.509766,444.355682
708.320313,459.6427
710.132813,439.040405
711.943359,412.904663
713.753906,417.144684
715.5625,396.517944
717.373047,406.283722
719.181641,416.054016
720.990234,385.734558
722.798828,391.355865
724.605469,355.483643
726.414063,352.799286
728.220703,352.881378
730.027344,348.810944
731.833984,314.279724
733.638672,337.894623
735.443359,357.365082
737.25,347.749908
739.052734,307.643097
740.857422,293.853546
742.662109,321.650238
744.464844,324.498413
746.267578,316.251343
748.070313,287.189545
749.871094,284.480774
751.673828,319.247589
753.474609,292.942871
755.275391,291.622131
757.074219,284.744751
758.875,279.253448
760.673828,279.318176
762.472656,268.263153
764.271484,286.399017
766.070313,266.996826
767.867188,255.931198
769.666016,269.902954
771.462891,268.573853
773.259766,270.027893
775.054688,260.344818
776.851563,246.47963
778.646484,270.215302
780.441406,285.602783
782.234375,287.062317
784.029297,246.707626
785.822266,262.100281
787.615234,267.738708
789.408203,266.405731
791.201172,253.911209
792.994141,260.947021
794.785156,262.402985
796.576172,258.275299
798.367188,249.956451
800.15625,244.4272
801.947266,248.674713
803.736328,247.334671
805.525391,278.14093
807.314453,240.458618
809.101563,236.319016
810.890625,244.765411
812.677734,235.028915
814.464844,235.083038
816.251953,260.330414
818.037109,251.990646
819.824219,266.051331
821.609375,224.094788
823.394531,243.75914
825.177734,264.83374
826.962891,231.257233
828.746094,224.300995
830.529297,235.570175
832.3125,225.806625
834.095703,242.692673
835.876953,232.926239
837.658203,238.593704
839.439453,231.62941
841.220703,231.682587
843.001953,240.162521
844.78125,228.97937
846.560547,244.488052
848.339844,238.922424
850.119141,248.817459
851.896484,250.280579
853.675781,251.744339
855.453125,239.141602
857.230469,219.497879
859.005859,243.473282
860.783203,259.01355
862.558594,250.624847
864.333984,253.498886
866.109375,252.14827
867.884766,229.66243
869.658203,232.533569
871.433594,241.044479
873.207031,250.969177
874.980469,241.154739
876.751953,236.978134
878.525391,225.745056
880.296875,228.61911
882.068359,234.317551
883.839844,232.959213
885.609375,233.012436
887.380859,241.540756
889.150391,252.898651
890.919922,238.824738
892.689453,230.398331
894.457031,243.175186
896.224609,247.473068
897.994141,222.069336
899.761719,237.682526
901.527344,251.887726
903.294922,227.882965
905.060547,270.407257
906.826172,242.147522
908.591797,236.53714
910.357422,239.424454
912.121094,250.815262
913.886719,250.872375
915.650391,233.917328
917.414063,245.31459
919.175781,251.043732
920.939453,236.914368
922.701172,251.157974
924.462891,229.92569
926.224609,249.852615
927.986328,239.969833
929.746094,228.662292
931.505859,251.443619
933.265625,262.868011
935.025391,227.396973
936.785156,233.134842
938.542969,244.56279
940.300781,247.462723
942.058594,256.054047
943.816406,246.152237
945.574219,239.092255
947.330078,266.192841
949.085938,250.591263
950.841797,256.344635
952.597656,262.100616
954.353516,262.160034
956.107422,272.19519
957.861328,258.002594
959.615234,276.595825
961.369141,262.397736
963.123047,293.837921
964.875,269.650208
966.626953,261.148987
968.378906,301.174377
970.130859,249.845718
971.882813,279.890533
973.632813,245.673782
975.382813,277.159851
977.132813,267.219666
978.882813,281.573151
980.630859,248.755341
982.380859,264.541046
984.128906,260.309998
985.876953,271.813599
987.623047,260.427643
989.371094,260.48645
991.117188,247.661179
992.863281,270.62735
994.609375,257.798523
996.355469,252.126541
998.101563,249.317719
999.845703,278.037659
1001.589844,293.868927
1003.333984,272.427765
1005.078125,278.2258
1006.820313,286.895386
1008.5625,278.351257
1010.306641,258.322266
1012.046875,272.734924
1013.789063,269.924835
1015.53125,269.985626
1017.271484,270.046448
1019.011719,268.670502
1020.751953,275.91629
1022.492188,270.228851
1024.230469,284.666779
1025.96875,267.474426
1027.708984,261.781158
1029.445313,279.104218
1031.183594,274.849945
1032.921875,253.321823
1034.658203,272.094238
1036.394531,269.275452
1038.130859,279.41806
1039.867188,275.158966
1041.601563,266.575073
1043.337891,275.282593
1045.072266,269.578003
1046.806641,269.63855
1048.539063,272.583557
1050.273438,266.874451
1052.005859,288.577667
1053.738281,266.994232
1055.470703,264.167053
1057.203125,270.00174
1058.933594,303.278473
1060.666016,260.011261
1062.396484,280.29718
1064.126953,290.476074
1065.855469,286.204712
1067.585938,294.943634
1069.314453,290.671326
1071.042969,266.14679
1072.771484,280.674103
1074.5,259.030487
1076.228516,275.010101
1077.955078,279.414856
1079.681641,278.029327
1081.408203,263.607574
1083.134766,281.051147
1084.859375,275.317841
1086.585938,281.176849
1088.310547,271.091888
1090.035156,294.352661
1091.757813,290.067444
1093.482422,294.484222
1095.205078,291.648041
1096.927734,281.554016
1098.650391,270.003815
1100.373047,268.612152
1102.095703,293.360901
1103.816406,289.068542
1105.537109,277.509613
1107.257813,292.104065
1108.978516,281.994171
1110.699219,290.780487
1112.417969,282.119965
1114.136719,298.182922
1115.855469,276.42627
1117.574219,302.681458
1119.292969,295.471283
1121.009766,262.052612
1122.726563,292.690613
1124.443359,272.364838
1126.160156,304.475555
1127.876953,300.171906
1129.591797,298.78125
1131.306641,279.896423
1133.021484,288.707428
1134.736328,269.81189
1136.451172,275.70697
1138.164063,304.950134
1139.878906,300.639679
1141.591797,308.005219
1143.304688,275.952271
1145.015625,277.473969
1146.728516,283.37851
1148.439453,289.285614
1150.150391,282.04306
1151.861328,255.795319
1153.572266,283.630341
1155.28125,277.843964
1156.990234,283.756287
1158.701172,275.041351
1160.410156,288.272156
1162.117188,291.263397
1163.826172,284.008209
1165.533203,300.178314
1167.240234,278.275757
1168.947266,301.776367
1170.654297,269.607574
1172.361328,298.979004
1174.066406,299.045258
1175.771484,297.645264
1177.476563,263.980377
1179.181641,303.644653
1180.884766,281.703796
1182.589844,284.701233
1184.292969,284.764252
1185.996094,258.399994
1187.699219,268.736725
1189.402344,283.484497
1191.103516,292.362152
1192.804688,285.079407
1194.505859,293.961273
1196.207031,280.795074
1197.908203,294.091248
1199.607422,269.152954
1201.308594,279.510193
1203.007813,278.100525
1204.707031,284.048981
1206.404297,290.000031
1208.103516,281.229614
1209.800781,293.073578
1211.498047,271.042419
1213.195313,312.356934
1214.892578,324.215515
1216.589844,294.806396
1218.285156,303.71756
1219.980469,294.936462
1221.675781,296.476501
1223.371094,303.918518
1225.064453,289.228943
1226.759766,307.004486
1228.453125,311.501068
1230.146484,283.513672
1231.839844,293.914825
1233.533203,314.66153
1235.224609,285.17865
1236.916016,291.153168
1238.607422,282.347687
1240.298828,303.110046
1241.990234,294.303284
1243.679688,294.368011
1245.371094,306.269287
1247.060547,297.457306
1248.75,287.161224
1250.439453,307.951904
1252.126953,300.615295
1253.814453,316.974426
1255.503906,281.487732
1257.191406,293.404297
1258.876953,283.093597
1260.564453,295.015717
1262.25,311.391479
1263.9375,312.942993
1265.623047,295.210083
1267.308594,298.242462
1268.992188,317.601471
1270.677734,287.982239
1272.361328,310.316986
1274.044922,294.048981
1275.728516,311.938538
1277.412109,319.435669
1279.09375,292.756378
1280.775391,294.306946
1282.458984,321.132477
1284.140625,309.306427
1285.820313,307.88681
1287.501953,331.757477
1289.181641,303.557617
1290.863281,308.089142
1292.542969,324.532074
1294.220703,302.268005
1295.900391,306.802155
1297.578125,320.276215
1299.257813,302.466461
1300.935547,323.396942
1302.613281,307.070709
1304.289063,332.484161
1305.966797,313.170135
1307.642578,319.205048
1309.318359,334.194183
1310.994141,326.805878
1312.669922,347.773529
1314.345703,306.047852
1316.019531,306.114685
1317.693359,334.559326
1319.367188,316.705627
1321.041016,331.716949
1322.714844,319.832977
1324.386719,324.38739
1326.058594,342.400543
1327.730469,311.069214
1329.402344,321.608002
1331.074219,300.731628
1332.744141,345.692322
1334.416016,314.334229
1336.085938,330.87146
1337.755859,321.958649
1339.425781,322.028809
1341.09375,310.113861
1342.763672,323.667542
1344.431641,337.227112
1346.099609,334.302307
1347.767578,332.875641
1349.433594,328.448792
1351.101563,322.519867
1352.767578,337.594238
1354.433594,316.657227
1356.099609,340.743256
1357.765625,325.803345
1359.429688,310.856934
1361.095703,319.936829
1362.759766,326.015869
1364.423828,353.135376
1366.087891,335.17572
1367.75,357.798889
1369.414063,330.810272
1371.076172,339.906189
1372.738281,327.945282
1374.400391,325.007141
1376.0625,332.602631
1377.722656,311.600372
1379.382813,335.75824
1381.044922,325.289307
1382.703125,331.38501
1384.363281,342.003235
1386.023438,330.02179
1387.681641,307.484192
1389.339844,309.058441
1390.998047,327.220551
1392.65625,318.241913
1394.314453,330.379486
1395.970703,334.977753
1397.628906,329.013367
1399.285156,347.199341
1400.941406,311.03714
1402.597656,323.186188
1404.251953,330.808838
1405.90625,349.010834
1407.5625,349.086304
1409.216797,352.184845
1410.871094,346.213593
1412.523438,350.824982
1414.177734,323.675751
1415.830078,338.873993
1417.482422,325.328796
1419.134766,340.533936
1420.787109,346.66272
1422.4375,364.907257
1424.089844,342.269073
1425.740234,359.005646
1427.390625,321.20517
1429.041016,316.728149
1430.689453,333.470001
1432.339844,347.186829
1433.988281,353.327423
1435.636719,356.437103
1437.285156,383.821411
1438.933594,350.521179
1440.580078,359.703156
1442.228516,327.901367
1443.875,344.674286
1445.521484,318.930359
1447.167969,376.722687
1448.8125,357.052002
1450.458984,334.333405
1452.103516,346.565582
1453.748047,322.314545
1455.392578,361.921539
1457.037109,372.646454
1458.679688,348.385284
1460.324219,353.025177
1461.966797,339.403198
1463.609375,334.909241
1465.251953,336.503876
1466.892578,354.851807
1468.535156,365.591125
1470.175781,348.909821
1471.816406,350.508698
1473.457031,379.545258
1475.097656,329.314789
1476.736328,346.159729
1478.376953,335.55722
1480.015625,332.578064
1481.654297,346.382629
1483.292969,375.455536
1484.929688,329.738983
1486.568359,338.9711
1488.205078,342.098206
1489.841797,346.754211
1491.478516,340.71701
1493.115234,362.184906
1494.751953,333.220367
1496.386719,359.282379
1498.021484,353.242554
1499.65625,365.554321
1501.291016,353.39386
1502.925781,354.999664
1504.558594,348.953644
1506.193359,365.867401
1507.826172,369.007965
1509.458984,350.709137
1511.091797,333.934235
1512.722656,376.905426
1514.355469,364.726288
1515.986328,360.205872
1517.617188,337.286072
1519.248047,375.694305
1520.878906,366.571899
1522.507813,351.309174
1524.136719,377.469482
1525.767578,351.459229
1527.396484,377.630676
1529.025391,354.680084
1530.652344,348.612793
1532.28125,362.51178
1533.908203,348.761536
1535.535156,345.762482
1537.162109,362.743744
1538.789063,315.162384
1540.414063,352.13446
1542.041016,364.513763
1543.666016,346.131104
1545.291016,370.823853
1546.916016,353.973633
1548.541016,349.431
1550.164063,358.743408
1551.787109,352.65976
1553.412109,357.355804
1555.035156,372.838379
1556.65625,362.130829
1558.279297,356.042603
1559.902344,353.035034
1561.523438,343.858307
1563.144531,357.812042
1564.765625,353.260223
1566.386719,354.878235
1568.005859,350.323792
1569.626953,375.095886
1571.246094,341.209015
1572.865234,362.901123
1574.484375,355.255219
1576.101563,363.055176
1577.720703,367.767975
1579.337891,353.935852
1580.957031,350.919128
1582.574219,372.640717
1584.189453,369.626617
1585.806641,355.783051
1587.421875,351.216827
1589.039063,366.766632
1590.654297,352.913544
1592.269531,356.084686
1593.884766,393.324646
1595.498047,365.528625
1597.113281,356.310944
1598.726563,384.277466
1600.339844,364.210968
1601.953125,342.585754
1603.566406,330.254303
1605.177734,352.035614
1606.789063,370.723785
1608.402344,384.765442
1610.013672,364.67334
1611.625,364.750397
1613.234375,364.827484
1614.845703,378.879608
1616.455078,340.131805
1618.064453,366.612122
1619.673828,377.565918
1621.283203,374.537415
1622.892578,357.517792
1624.5,385.578766
1626.107422,332.787354
1627.714844,356.18869
1629.322266,359.375275
1630.929688,361.007111
1632.537109,398.436646
1634.142578,342.478638
1635.748047,350.33606
1637.353516,356.639374
1638.958984,367.618408
1640.564453,367.695831
1642.169922,342.839447
1643.773438,363.174591
1645.376953,338.306732
1646.980469,358.649414
1648.583984,360.284515
1650.1875,354.1203
1651.789063,338.591461
1653.392578,380.800385
1654.994141,363.709595
1656.595703,377.83786
1658.197266,371.670685
1659.796875,338.947388
1661.398438,367.139923
1662.998047,360.966522
1664.597656,379.797729
1666.197266,389.257141
1667.796875,373.702728
1669.396484,373.781128
1670.994141,383.245148
1672.591797,364.550385
1674.189453,367.756653
1675.787109,388.182007
1677.384766,361.648529
1678.982422,366.422028
1680.578125,364.932556
1682.173828,372.841797
1683.769531,366.652313
1685.365234,393.371796
1686.960938,387.18396
1688.556641,362.178986
1690.150391,385.777802
1691.744141,392.132629
1693.337891,378.09494
1694.931641,368.758881
1696.525391,367.266449
1698.117188,350.074951
1699.710938,416.095276
1701.302734,367.496735
1702.894531,383.281769
1704.486328,373.934875
1706.078125,383.441864
1707.667969,370.947418
1709.257813,363.164124
1710.849609,382.109497
1712.439453,374.325256
1714.027344,398.000183
1715.617188,366.614136
1717.207031,366.690582
1718.794922,371.489319
1720.382813,363.69455
1721.970703,398.415131
1723.558594,376.446838
1725.146484,378.100647
1726.732422,392.361115
1728.318359,378.258087
1729.904297,379.913208
1731.490234,391.029388
1733.076172,383.225433
1734.662109,370.686035
1736.246094,380.229401
1737.832031,358.215851
1739.416016,369.338898
1741.0,396.25354
1742.583984,404.230988
1744.166016,382.203979
1745.75,379.123993
1747.332031,399.742859
1748.914063,376.120728
1750.496094,407.812134
1752.078125,411.058746
1753.658203,419.050629
1755.240234,396.994415
1756.820313,408.150574
1758.400391,400.323639
1759.980469,379.832336
1761.560547,379.911041
1763.140625,376.823181
1764.71875,389.57016
1766.296875,354.804016
1767.875,416.664154
1769.453125,380.304535
1771.03125,397.817444
1772.609375,397.89975
1774.185547,385.297363
1775.761719,388.548859
1777.339844,421.940247
1778.914063,390.296082
1780.490234,425.288452
1782.066406,401.567932
1783.640625,390.538025
1785.216797,382.67926
1786.791016,416.110626
1788.365234,389.191406
1789.9375,368.616486
1791.511719,392.530396
1793.083984,375.126648
1794.658203,379.973541
1796.230469,391.183105
1797.802734,365.815674
1799.375,384.981018
1800.945313,428.021606
1802.517578,405.828979
1804.087891,377.259888
1805.658203,377.337555
1807.228516,415.634491
1808.798828,399.792023
1810.367188,434.923035
1811.9375,384.022003
1813.505859,396.851196
1815.074219,388.96225
1816.642578,385.853333
1818.210938,398.690704
1819.779297,411.533325
1821.345703,408.427032
1822.912109,419.681091
1824.478516,394.230072
1826.044922,384.732605
1827.611328,381.618073
1829.177734,412.040436
1830.742188,384.969421
1832.308594,412.209412
1833.873047,423.480194
1835.4375,391.59967
1837.001953,412.378418
