raman_shift_cm-1,intensity
60.707031,0.0
62.675781,3.809368
64.644531,5.080464
66.613281,-1.270443
68.580078,-2.541539
70.548828,2.542192
72.515625,3.814268
74.480469,-1.271749
76.447266,-6.360379
78.412109,-3.817207
80.376953,3.818186
82.341797,5.09222
84.304688,-2.546763
86.267578,0.0
88.230469,0.0
90.193359,3.823081
92.154297,14.021553
94.117188,5.100051
96.078125,28.057459
98.037109,36.994289
99.998047,40.831722
101.957031,57.43428
103.916016,47.235806
105.873047,43.416962
107.832031,51.091816
109.789063,52.382473
111.746094,54.951733
113.701172,43.461288
115.658203,53.701157
117.613281,51.156994
119.566406,55.007774
121.521484,57.580936
123.474609,65.275009
125.427734,60.170704
127.380859,57.624905
129.333984,62.763073
131.285156,71.747459
133.236328,61.513451
135.1875,65.374641
137.138672,58.980339
139.087891,66.690353
141.037109,71.8386
142.986328,57.742092
144.933594,68.024597
146.882813,68.041847
148.830078,50.081215
150.775391,50.093903
152.722656,61.669643
154.667969,80.961899
156.613281,65.557167
158.558594,55.287674
160.503906,63.018166
162.447266,65.606918
164.390625,60.476559
166.333984,70.788315
168.275391,61.794498
170.216797,59.234676
172.158203,70.841942
174.099609,56.687855
176.041016,68.300316
177.980469,69.606544
179.919922,55.441406
181.859375,58.034695
183.796875,65.789215
185.734375,52.902687
187.671875,65.822342
189.609375,65.838905
191.546875,74.894455
193.482422,61.9972
195.417969,63.304714
197.353516,73.658684
199.287109,67.214272
201.222656,60.766617
203.15625,64.661568
205.087891,51.742233
207.021484,59.518497
208.953125,71.181267
210.884766,62.137405
212.816406,66.037537
214.746094,69.939613
216.677734,50.524597
218.607422,66.087166
220.537109,68.696007
222.464844,53.155491
224.392578,70.027184
226.320313,66.15332
228.248047,60.980064
230.175781,75.270798
232.101563,73.991501
234.027344,63.622612
235.953125,70.132217
237.876953,58.458099
239.802734,51.975719
241.726563,70.184723
243.650391,57.201805
245.572266,63.717888
247.496094,57.23032
249.417969,59.8466
251.339844,59.8615
253.259766,55.971416
255.181641,71.609161
257.101563,62.510815
259.021484,62.52636
260.939453,71.662598
262.859375,59.950886
264.777344,63.876591
266.695313,70.412094
268.611328,67.821075
270.529297,61.315033
272.445313,53.500851
274.361328,69.176796
276.275391,57.444031
278.191406,69.211098
280.105469,64.003479
282.019531,77.084503
283.933594,69.26255
285.845703,81.044174
287.757813,61.45192
289.669922,54.92807
291.582031,74.563675
293.494141,61.497532
295.404297,70.674202
297.314453,52.364201
299.224609,61.543137
301.132813,68.107094
303.041016,78.604507
304.949219,70.76152
306.857422,78.643311
308.765625,74.729576
310.671875,65.56842
312.578125,66.896278
314.484375,80.032913
316.390625,68.241592
318.294922,82.69767
320.199219,77.466095
322.103516,66.978699
324.007813,77.504227
325.910156,65.697708
327.8125,67.028145
329.714844,70.988426
331.617188,72.320793
333.517578,63.131836
335.417969,81.565315
337.318359,61.846958
339.21875,71.075645
341.119141,67.143478
343.017578,68.476807
344.916016,63.224865
346.814453,69.827904
348.710938,71.162849
350.607422,83.043671
352.503906,75.15316
354.400391,73.85276
356.296875,52.764889
358.191406,62.01392
360.085938,75.226768
361.980469,64.684448
363.875,62.059437
365.767578,59.433136
367.660156,70.016136
369.552734,64.747711
371.445313,74.015465
373.335938,76.677589
375.228516,63.472809
377.119141,54.229588
379.007813,60.857796
380.898438,68.812546
382.787109,56.916557
384.675781,66.198181
386.564453,68.862885
388.451172,75.502701
390.339844,76.846024
392.226563,68.913208
394.113281,67.604408
395.998047,67.620857
397.884766,67.637306
399.769531,50.408684
401.654297,67.670204
403.539063,70.341034
405.421875,65.04808
407.304688,74.358719
409.1875,59.767056
411.070313,62.438526
412.951172,70.426491
414.833984,67.785332
416.714844,79.766792
418.595703,75.796837
420.474609,49.213383
422.353516,61.199036
424.234375,59.883129
426.111328,70.546104
427.990234,61.243523
429.867188,65.253464
431.746094,61.273178
433.623047,67.949745
435.498047,78.627541
437.375,66.649628
439.25,74.665634
441.125,77.350952
443.0,72.033806
444.873047,61.376957
446.748047,69.399399
448.621094,76.09079
450.494141,73.43866
452.365234,69.449669
454.238281,76.145889
456.109375,73.491821
457.980469,85.538376
459.849609,70.853546
461.720703,66.859077
463.589844,76.237709
465.458984,70.90477
467.328125,72.259987
469.195313,70.938919
471.064453,76.311157
472.931641,70.973061
474.798828,57.595768
476.664063,83.065033
478.53125,84.425079
480.396484,69.700943
482.261719,72.399139
484.126953,77.780716
485.990234,71.092552
487.853516,68.426239
489.716797,80.520782
491.580078,67.116753
493.443359,71.16082
495.304688,57.7481
497.166016,77.911461
499.027344,84.648254
500.888672,75.260925
502.748047,88.721626
504.607422,65.884865
506.466797,73.970108
508.326172,80.713982
510.183594,72.659966
512.042969,68.639725
513.900391,68.656143
515.757813,90.216888
517.613281,82.157402
519.470703,91.607193
521.326172,74.111763
523.181641,70.086037
525.035156,79.539696
526.890625,90.346306
528.744141,84.972771
530.597656,90.389435
532.451172,79.615662
534.302734,95.831528
536.15625,90.454132
538.007813,87.774933
539.859375,90.497269
541.708984,91.869858
543.560547,94.594444
545.410156,110.837021
547.259766,101.399467
549.109375,97.366661
550.957031,104.153015
552.804688,112.295547
554.654297,92.023056
556.5,101.520149
558.347656,85.297203
560.193359,96.151443
562.041016,97.528862
563.886719,101.616699
565.730469,85.378296
567.576172,107.087097
569.419922,100.333244
571.263672,99.000885
573.107422,92.241882
574.951172,92.263763
576.792969,80.071373
578.634766,86.87767
580.476563,82.824913
582.318359,104.574257
584.158203,92.373169
585.998047,81.525047
587.839844,96.494148
589.677734,87.001236
591.517578,85.662109
593.355469,63.921776
595.193359,92.504448
597.03125,83.001564
598.869141,87.104195
600.707031,84.402138
602.542969,88.507027
604.378906,77.632195
606.214844,96.722595
608.048828,92.657608
609.884766,70.872543
611.71875,89.974854
613.552734,92.723244
615.384766,88.653419
617.21875,92.766998
619.050781,105.069756
620.882813,102.364799
622.714844,92.832634
624.546875,92.854507
626.376953,98.339706
628.207031,92.89827
630.037109,97.019562
631.867188,99.775993
633.695313,101.166595
635.525391,108.027596
637.353516,120.362854
639.181641,124.495407
641.007813,109.472252
642.835938,113.604164
644.662109,124.583244
646.488281,128.720627
648.3125,146.556839
650.138672,145.221252
651.962891,164.440033
653.787109,154.884048
655.611328,176.856049
657.435547,171.412354
659.257813,181.053909
661.080078,204.419403
662.902344,212.700928
664.724609,223.731491
666.546875,251.242081
668.367188,237.568665
670.1875,269.216003
672.007813,283.017792
673.828125,267.967926
675.646484,273.528748
677.464844,287.341156
679.283203,269.531342
681.101563,294.353058
682.919922,265.53006
684.736328,268.344391
686.552734,257.395569
688.369141,257.45575
690.185547,228.597015
692.0,209.366653
693.816406,228.703842
695.630859,205.330322
697.445313,191.594482
699.257813,186.12442
701.072266,147.555267
702.884766,144.831009
704.697266,155.902115
706.509766,133.858704
708.320313,113.185287
710.132813,140.82428
711.943359,118.761871
713.753906,122.933372
715.5625,117.435631
717.373047,105.025726
719.181641,111.96138
720.990234,99.544403
722.798828,100.950455
724.605469,85.758698
726.414063,89.92923
728.220703,89.95015
730.027344,76.129372
731.833984,80.300545
733.638672,88.628098
735.443359,72.027069
737.25,81.742012
739.052734,78.989441
740.857422,67.918976
742.662109,66.548325
744.464844,84.591469
746.267578,61.03096
748.070313,48.55862
749.871094,56.896152
751.673828,62.461483
753.474609,62.475971
755.275391,59.713104
757.074219,65.282944
758.875,59.740788
760.673828,69.482132
762.472656,55.598583
764.271484,68.124039
766.070313,65.358597
767.867188,52.855354
769.666016,55.650097
771.462891,61.229271
773.259766,40.364994
775.054688,51.512077
776.851563,65.449394
778.646484,59.893082
780.441406,55.727371
782.234375,62.707787
784.029297,48.783993
785.822266,54.371864
787.615234,50.201008
789.408203,46.028217
791.201172,48.829079
792.994141,46.049473
794.785156,51.643143
796.576172,44.674644
798.367188,57.252594
800.15625,57.2658
801.947266,34.926224
803.736328,44.715874
805.525391,51.714645
807.314453,51.726563
809.101563,48.941807
810.890625,41.959785
812.677734,44.76741
814.464844,53.173542
816.251953,44.788029
818.037109,41.998444
819.824219,37.807297
821.609375,43.418365
823.394531,33.621952
825.177734,40.635868
826.962891,37.842091
828.746094,42.056435
830.529297,35.055084
832.3125,43.478294
834.095703,29.459805
835.876953,40.691933
837.658203,44.911755
839.439453,35.095364
841.220703,39.315834
843.001953,39.324856
844.78125,35.119537
846.560547,47.773525
848.339844,30.919373
850.119141,39.360954
851.896484,40.776051
853.675781,36.566219
855.453125,30.947737
857.230469,43.618168
859.005859,40.813442
860.783203,45.045837
862.558594,30.976105
864.333984,49.291451
866.109375,45.076786
867.884766,45.087101
869.658203,42.278831
871.433594,40.878887
873.207031,45.118057
874.980469,45.128372
876.751953,32.443436
878.525391,45.14901
880.296875,36.691956
882.068359,49.404305
883.839844,32.473103
885.609375,42.365898
887.380859,39.550533
889.150391,38.146725
890.919922,43.808086
892.689453,36.750652
894.457031,33.931423
896.224609,26.868504
897.994141,38.190269
899.761719,39.613754
901.527344,45.283188
903.294922,38.2164
905.060547,42.472343
906.826172,39.649887
908.591797,25.495022
910.357422,43.918095
912.121094,42.511063
913.886719,42.520741
915.650391,32.606659
917.414063,39.704098
919.175781,41.131458
920.939453,43.978115
922.701172,28.379433
924.462891,39.740242
926.224609,32.651192
927.986328,34.078556
929.746094,41.187618
931.505859,35.514637
933.265625,35.522705
935.025391,51.164318
936.785156,41.225063
938.542969,34.125042
940.300781,34.13279
942.058594,35.563061
943.816406,36.993977
945.574219,31.3097
947.330078,41.281242
949.085938,46.985863
950.841797,37.027557
952.597656,37.035957
954.353516,32.770004
956.107422,34.202538
957.861328,41.337433
959.615234,45.624054
961.369141,29.947569
963.123047,38.512737
964.875,48.508503
966.626953,38.530182
968.378906,38.538902
970.130859,42.830696
971.882813,41.412373
973.632813,41.421741
975.382813,35.716476
977.132813,38.58252
978.882813,37.161938
980.630859,31.451826
982.380859,32.888885
984.128906,48.629341
985.876953,40.05674
987.623047,31.480265
989.371094,41.506084
991.117188,32.926052
992.863281,31.501596
994.609375,35.805347
996.355469,40.111042
998.101563,32.955791
999.845703,38.695961
1001.589844,37.271183
1003.333984,31.544268
1005.078125,34.419689
1006.820313,32.99297
1008.5625,40.174408
1010.306641,35.87809
1012.046875,35.886177
1013.789063,43.073112
1015.53125,34.466251
1017.271484,50.274605
1019.011719,37.355255
1020.751953,38.800732
1022.492188,30.185139
1024.230469,46.006752
1025.96875,40.264965
1027.708984,37.397308
1029.445313,40.283081
1031.183594,35.975124
1032.921875,48.937172
1034.658203,41.749912
1036.394531,30.239489
1038.130859,30.246284
1039.867188,30.253078
1041.601563,41.787445
1043.337891,43.238102
1045.072266,41.806217
1046.806641,41.815601
1048.539063,34.613785
1050.273438,41.834373
1052.005859,43.286652
1053.738281,46.182785
1055.470703,33.201324
1057.203125,36.096489
1058.933594,33.216213
1060.666016,28.890141
1062.396484,44.789753
1064.126953,28.903091
1065.855469,40.473396
1067.585938,41.928265
1069.314453,39.045403
1071.042969,39.054146
1072.771484,33.275795
1074.5,47.754223
1076.228516,37.632957
1077.955078,23.163927
1079.681641,37.649803
1081.408203,36.209831
1083.134766,31.871778
1084.859375,33.327946
1086.585938,36.234131
1088.310547,31.893162
1090.035156,44.950409
1091.757813,31.907419
1093.482422,37.717194
1095.205078,24.66675
1096.927734,39.185352
1098.650391,31.935936
1100.373047,29.03915
1102.095703,31.950197
1103.816406,36.315144
1105.537109,29.058598
1107.257813,31.97159
1108.978516,42.15377
1110.699219,27.624146
1112.417969,40.718346
1114.136719,50.909279
1115.855469,34.917004
1117.574219,27.648788
1119.292969,34.932568
1121.009766,27.66111
1122.726563,36.404305
1124.443359,37.868908
1126.160156,30.593237
1127.876953,40.800064
1129.591797,40.809147
1131.306641,42.276024
1133.021484,30.620483
1134.736328,42.294838
1136.451172,30.634109
1138.164063,33.559105
1139.878906,43.782478
1141.591797,40.87273
1143.304688,32.121429
1145.015625,55.494797
1146.728516,36.517849
1148.439453,30.681807
1150.150391,33.611347
1151.861328,36.542187
1153.572266,40.936337
1155.28125,32.171406
1156.990234,33.641209
1158.701172,42.42659
1160.410156,43.899315
1162.117188,40.981785
1163.826172,39.526917
1165.533203,39.535683
1167.240234,46.867493
1168.947266,41.01815
1170.654297,42.4925
1172.361328,33.708416
1174.066406,41.045425
1175.771484,39.588287
1177.476563,29.331154
1179.181641,32.271416
1180.884766,48.417839
1182.589844,46.961025
1184.292969,39.632137
1185.996094,33.768181
1187.699219,39.649681
1189.402344,42.596115
1191.103516,22.037348
1192.804688,41.145481
1194.505859,35.275352
1196.207031,45.57407
1197.908203,44.113689
1199.607422,38.240314
1201.308594,39.719868
1203.007813,30.900057
1204.707031,42.680931
1206.404297,47.106602
1208.103516,45.6446
1209.800781,38.291019
1211.498047,35.353359
1213.195313,42.728069
1214.892578,50.106033
1216.589844,29.480639
1218.285156,50.128143
1219.980469,36.867058
1221.675781,35.400181
1223.371094,44.259979
1225.064453,44.269737
1226.759766,42.803509
1228.453125,45.76556
1230.146484,29.532673
1231.839844,23.631342
1233.533203,45.795811
1235.224609,35.462627
1236.916016,47.293915
1238.607422,33.999985
1240.298828,48.793324
1241.990234,45.846237
1243.679688,41.418617
1245.371094,45.866413
1247.060547,41.43684
1248.75,41.445953
1250.439453,39.974525
1252.126953,34.05986
1253.814453,35.548534
1255.503906,31.111803
1257.191406,40.009678
1258.876953,44.464966
1260.564453,31.132311
1262.25,32.621964
1263.9375,34.11227
1265.623047,37.086693
1267.308594,45.997593
1268.992188,32.650616
1270.677734,31.173336
1272.361328,63.845119
1274.044922,46.037971
1275.728516,37.13554
1277.412109,40.115177
1279.09375,49.040409
1280.775391,43.10556
1282.458984,50.54863
1284.140625,47.585606
1285.820313,49.083408
1287.501953,44.631054
1289.181641,41.664772
1290.863281,46.138954
1292.542969,29.773584
1294.220703,43.181145
1295.900391,41.701263
1297.578125,37.241421
1299.257813,41.719513
1300.935547,50.67049
1302.613281,44.719032
1304.289063,37.27401
1305.966797,29.825727
1307.642578,50.714817
1309.318359,59.677532
1310.994141,55.213779
1312.669922,34.329578
1314.345703,37.322906
1316.019531,49.276997
1317.693359,58.249168
1319.367188,44.816833
1321.041016,47.815056
1322.714844,46.330944
1324.386719,52.320545
1326.058594,44.855965
1327.730469,40.379173
1329.402344,37.396278
1331.074219,46.381496
1332.744141,38.909092
1334.416016,41.911232
1336.085938,47.908989
1337.755859,37.437054
1339.425781,41.938633
1341.09375,40.449635
1342.763672,49.449211
1344.431641,53.956337
1346.099609,46.472519
1347.767578,43.483753
1349.433594,28.495556
1351.101563,43.502682
1352.767578,37.510471
1354.433594,46.523102
1356.099609,48.03429
1357.765625,40.537746
1359.429688,49.556904
1361.095703,57.07793
1362.759766,54.085579
1364.423828,46.583813
1366.087891,54.109085
1367.75,36.080559
1369.414063,40.599445
1371.076172,45.120289
1372.738281,46.634422
1374.400391,48.149204
1376.0625,57.18959
1377.722656,46.664791
1379.382813,52.697483
1381.044922,43.6731
1382.703125,37.657391
1384.363281,31.639065
1386.023438,45.208466
1387.681641,43.710987
1389.339844,45.228062
1390.998047,40.714077
1392.65625,39.214642
1394.314453,34.697388
1395.970703,40.74054
1397.628906,40.749359
1399.285156,31.700808
1400.941406,45.296673
1402.597656,40.775826
1404.251953,60.421703
1405.90625,45.32608
1407.5625,39.2911
1409.216797,51.391781
1410.871094,46.867344
1412.523438,37.804417
1414.177734,37.812588
1415.830078,43.872082
1417.482422,51.447346
1419.134766,45.404522
1420.787109,46.928143
1422.4375,57.537243
1424.089844,39.376087
1425.740234,49.988129
1427.390625,42.423325
1429.041016,39.401588
1430.689453,37.894318
1432.339844,31.838093
1433.988281,39.427094
1435.636719,40.952351
1437.285156,53.097824
1438.933594,45.522232
1440.580078,53.12072
1442.228516,44.023792
1443.875,48.588448
1445.521484,45.561481
1447.167969,56.204594
1448.8125,39.503624
1450.458984,41.03183
1452.103516,28.880465
1453.748047,39.52914
1455.392578,39.537647
1457.037109,44.109173
1458.679688,50.203991
1460.324219,50.21479
1461.966797,47.181614
1463.609375,51.758701
1465.251953,27.407555
1466.892578,50.25798
1468.535156,39.605705
1470.175781,41.13784
1471.816406,39.622723
1473.457031,38.106956
1475.097656,47.262772
1476.736328,35.073452
1478.376953,38.1315
1480.015625,48.818798
1481.654297,35.096039
1483.292969,42.734779
1484.929688,44.270512
1486.568359,45.806904
1488.205078,41.235054
1489.841797,53.464302
1491.478516,48.892124
1493.115234,25.979507
1494.751953,44.32748
1496.386719,32.106083
1498.021484,24.467018
1499.65625,44.355965
1501.291016,35.186401
1502.925781,42.844788
1504.558594,35.201462
1506.193359,41.332298
1507.826172,33.685375
1509.458984,53.60183
1511.091797,49.017868
1512.722656,36.771263
1514.355469,44.441441
1515.986328,50.582104
1517.617188,38.327965
1519.248047,36.802708
1520.878906,44.479435
1522.507813,55.227646
1524.136719,38.360722
1525.767578,35.299397
1527.396484,36.842014
1529.025391,44.526936
1530.652344,32.250523
1532.28125,44.54594
1533.908203,43.019047
1535.535156,36.881332
1537.162109,41.500343
1538.789063,47.658699
1540.414063,32.291809
1542.041016,52.293114
1543.666016,38.459011
1545.291016,41.544579
1546.916016,27.702286
1548.541016,49.258995
1550.164063,46.19014
1551.787109,41.579971
1553.412109,50.830784
1555.035156,47.760288
1556.65625,50.852413
1558.279297,41.615368
1559.902344,33.916031
1561.523438,43.175034
1563.144531,32.388157
1564.765625,40.108147
1566.386719,33.944874
1568.005859,43.211746
1569.626953,46.308132
1571.246094,44.774036
1572.865234,44.783543
1574.484375,44.793049
1576.101563,35.533062
1577.720703,43.266819
1579.337891,41.730427
1580.957031,52.560574
1582.574219,40.201904
1584.189453,37.117317
1585.806641,27.843891
1587.421875,44.86911
1589.039063,37.140926
1590.654297,38.696659
1592.269531,40.253052
1593.884766,43.358624
1595.498047,35.623554
1597.113281,41.827808
1598.726563,46.48518
1600.339844,40.295681
1601.953125,35.653721
1603.566406,32.560284
1605.177734,29.465534
1606.789063,37.227493
1608.402344,44.992733
1610.013672,43.450439
1611.625,38.803234
1613.234375,46.573719
1614.845703,51.241917
1616.455078,41.934059
1618.064453,41.942913
1619.673828,37.290462
1621.283203,40.406528
1622.892578,34.197353
1624.5,45.087841
1626.107422,40.43211
1627.714844,38.885227
1629.322266,45.116375
1630.929688,40.457691
1632.537109,37.353436
1634.142578,35.804585
1635.748047,42.040325
1637.353516,37.377052
1638.958984,29.596397
1640.564453,35.834763
1642.169922,40.517391
1643.773438,40.525921
1645.376953,31.180344
1646.980469,26.508869
1648.583984,32.753139
1650.1875,39.000034
1651.789063,35.887573
1653.392578,37.455776
1654.994141,42.146606
1656.595703,45.278091
1658.197266,37.479397
1659.796875,43.735146
1661.398438,40.619736
1662.998047,34.377762
1664.597656,34.384979
1666.197266,39.082043
1667.796875,39.090244
1669.396484,35.97057
1670.994141,32.849583
1672.591797,46.937817
1674.189453,42.252892
1675.787109,34.435501
1677.384766,45.401764
1678.982422,37.581745
1680.578125,43.854557
1682.173828,39.164055
1683.769531,34.471588
1685.365234,39.180458
1686.960938,45.458847
1688.556641,36.061111
1690.150391,42.341469
1691.744141,39.213264
1693.337891,42.359184
1694.931641,43.937225
1696.525391,34.529324
1698.117188,42.385754
1699.710938,34.543758
1701.302734,32.980476
1702.894531,39.270672
1704.486328,40.850029
1706.078125,51.85894
1707.667969,39.295277
1709.257813,33.014919
1710.849609,40.884144
1712.439453,36.17429
1714.027344,34.608711
1715.617188,36.189377
1717.207031,37.770702
1718.794922,40.926788
1720.382813,42.509754
1721.970703,50.392426
1723.558594,37.802193
1725.146484,42.536324
1726.732422,40.969433
1728.318359,44.130112
1729.904297,42.562893
1731.490234,40.995018
1733.076172,45.734722
1734.662109,36.279911
1736.246094,42.598316
1737.832031,33.138912
1739.416016,42.616028
1741.0,37.888786
1742.583984,48.949848
1744.166016,47.380661
1745.75,53.709232
1747.332031,33.180237
1748.914063,37.928143
1750.496094,37.936012
1752.078125,45.848858
1753.658203,45.858368
1755.240234,39.541275
1756.820313,37.967495
1758.400391,47.469208
1759.980469,28.487427
1761.560547,49.071846
1763.140625,52.248592
1764.71875,52.259411
1766.296875,42.766552
1767.875,45.943954
1769.453125,36.44585
1771.03125,34.868462
1772.609375,39.631451
1774.185547,39.639645
1775.761719,47.577412
1777.339844,50.759731
1778.914063,44.423943
1780.490234,52.367607
1782.066406,46.029526
1783.640625,44.451481
1785.216797,42.87278
1786.791016,46.058048
1788.365234,49.244625
1789.9375,42.89933
1791.511719,50.854141
1793.083984,52.454151
1794.658203,42.92588
1796.230469,39.754379
1797.802734,33.400562
1799.375,34.998276
1800.945313,52.508228
1802.517578,49.336071
1804.087891,41.387161
1805.658203,31.842831
1807.228516,44.589138
1808.798828,52.562298
1810.367188,44.607491
1811.9375,50.990475
1813.505859,47.813396
1815.074219,28.693937
1816.642578,43.049751
1818.210938,46.248123
1819.779297,39.877262
1821.345703,41.480869
1822.912109,39.893642
1824.478516,33.517536
1826.044922,46.295624
1827.611328,38.32148
1829.177734,46.314621
1830.742188,36.739819
1832.308594,46.333618
1833.873047,43.147038
1835.4375,38.360783
1837.001953,30.368954
