raman_shift_cm-1,wavelength_nm,intensity
-323.608033,246.616000,0.000000
-312.759145,246.682000,0.000000
-301.916061,246.748000,0.000000
-291.078776,246.814000,0.000000
-280.083216,246.881000,0.000000
-269.257603,246.947000,0.039163
-258.437774,247.013000,-0.033666
-247.623726,247.079000,0.398468
-236.815454,247.145000,2.078195
-226.012953,247.211000,-0.090553
-215.216219,247.277000,0.318005
-204.425246,247.343000,-0.233255
-193.640031,247.409000,0.130311
-182.860568,247.475000,0.026692
-172.086854,247.541000,-0.603089
-161.318883,247.607000,0.095785
-150.556651,247.673000,-0.080347
-139.800153,247.739000,-0.889209
-129.049385,247.805000,-0.290022
-118.467103,247.870000,-0.631866
-107.727694,247.936000,0.633998
-96.994001,248.002000,0.151860
-86.266020,248.068000,-0.679519
-75.543746,248.134000,-0.365727
-64.827174,248.200000,0.373440
-54.278543,248.265000,-0.247730
-43.573277,248.331000,0.846143
-32.873698,248.397000,-0.034956
-22.179805,248.463000,-0.067382
-11.653491,248.528000,-0.507423
-0.970866,248.594000,-0.672290
9.706087,248.660000,0.200708
20.377375,248.726000,0.064137
30.881442,248.791000,-0.929931
41.541497,248.857000,-0.105710
52.195898,248.923000,-0.139412
62.683348,248.988000,-0.208851
73.326542,249.054000,-0.136346
83.802964,249.119000,-0.446277
94.434970,249.185000,-0.798414
104.900381,249.250000,-1.164537
115.521215,249.316000,1.066346
125.975632,249.381000,0.228525
136.585313,249.447000,1.348623
147.028754,249.512000,-1.594941
157.627298,249.578000,0.023479
168.059780,249.643000,0.345805
178.647205,249.709000,-0.581948
189.068746,249.774000,0.584226
199.645070,249.840000,0.157986
210.055686,249.905000,-0.601026
220.620926,249.971000,-2.398282
231.020635,250.036000,-2.722182
241.414938,250.101000,1.195987
251.963627,250.167000,-1.376373
262.347049,250.232000,-0.625090
272.725077,250.297000,0.367780
283.097717,250.362000,2.426483
293.624427,250.428000,0.999404
303.986219,250.493000,-4.359396
314.342635,250.558000,-1.851610
324.693679,250.623000,2.071380
335.198478,250.689000,-3.325944
345.538708,250.754000,3.268505
355.873579,250.819000,-4.613681
366.203095,250.884000,1.001282
376.527259,250.949000,0.453434
386.846077,251.014000,-5.032198
397.318179,251.080000,1.035584
407.626234,251.145000,2.402510
417.928954,251.210000,0.293752
428.226343,251.275000,0.964741
438.518407,251.340000,-2.179457
448.805149,251.405000,1.487894
459.086573,251.470000,1.033660
469.362683,251.535000,1.057256
479.633483,251.600000,-2.450323
489.898978,251.665000,-1.271150
500.159172,251.730000,-3.256253
510.414069,251.795000,0.867644
520.663672,251.860000,-1.082931
530.907986,251.925000,1.014813
541.147015,251.990000,0.009141
551.223361,252.054000,-5.218059
561.451914,252.119000,2.925179
571.675194,252.184000,2.444275
581.893205,252.249000,3.131647
592.105952,252.314000,2.785641
602.313438,252.379000,4.132627
612.358750,252.443000,0.788366
622.555807,252.508000,-1.800543
632.747617,252.573000,-2.471227
642.934182,252.638000,-2.040801
652.958910,252.702000,0.226404
663.135079,252.767000,-3.581448
673.306016,252.832000,2.745010
683.315368,252.896000,-0.830248
693.475932,252.961000,2.688150
703.631276,253.026000,-1.663115
713.625287,253.090000,0.829723
723.770283,253.155000,1.316940
733.910070,253.220000,0.683985
743.888776,253.284000,1.432458
754.018238,253.349000,2.288715
763.986786,253.413000,-0.272149
774.105940,253.478000,1.681464
784.064345,253.542000,0.917853
794.173206,253.607000,1.699112
804.121484,253.671000,1.634179
814.220067,253.736000,3.583633
824.158233,253.800000,0.186211
834.246555,253.865000,1.405470
844.174625,253.929000,-1.144100
854.252700,253.994000,0.083650
864.170690,254.058000,-1.047799
874.083683,254.122000,0.937867
884.146458,254.187000,-1.988355
894.049394,254.251000,2.450906
903.947346,254.315000,-4.489883
913.994855,254.380000,2.280936
923.882772,254.444000,-1.328694
933.765716,254.508000,-0.564674
943.797994,254.573000,1.156067
953.670926,254.637000,0.053265
963.538895,254.701000,2.096407
973.401907,254.765000,-4.943962
983.259965,254.829000,-1.589818
993.266988,254.894000,2.567019
1003.115071,254.958000,1.769819
1012.958212,255.022000,-3.660982
1022.796413,255.086000,1.105025
1032.629679,255.150000,-1.285558
1042.458013,255.214000,-1.302869
1052.281419,255.278000,0.001458
1062.253275,255.343000,-4.726967
1072.066759,255.407000,-1.009245
1081.875326,255.471000,-5.999178
1091.678980,255.535000,-3.554515
1101.477725,255.599000,-2.425157
1111.271563,255.663000,-2.914323
1121.060500,255.727000,0.069995
1130.844538,255.791000,1.408042
1140.623681,255.855000,2.739617
1150.397933,255.919000,-3.149667
1160.014689,255.982000,-0.428166
1169.779246,256.046000,1.384427
1179.538923,256.110000,-1.778390
1189.293724,256.174000,0.697300
1199.043651,256.238000,0.049117
1208.788709,256.302000,-4.305667
1218.528902,256.366000,4.915663
1228.112156,256.429000,5.057245
1237.842704,256.493000,1.743584
1247.568398,256.557000,-2.379831
1257.289241,256.621000,-2.385908
1267.005236,256.685000,1.399126
1276.564688,256.748000,1.280121
1286.271074,256.812000,3.183013
1295.972624,256.876000,6.557187
1305.517867,256.939000,-4.415441
1315.209831,257.003000,-1.042306
1324.896968,257.067000,1.515116
1334.428034,257.130000,1.473596
1344.105605,257.194000,-4.534090
1353.778362,257.258000,-3.388384
1363.295282,257.321000,3.684631
1372.958494,257.385000,-1.181741
1382.466026,257.448000,-0.035100
1392.119708,257.512000,3.827919
1401.617865,257.575000,0.243463
1411.262031,257.639000,-2.360621
1420.750828,257.702000,-1.413865
1430.385491,257.766000,-3.469230
1439.864942,257.829000,-1.114844
1449.490117,257.893000,-1.330891
1458.960235,257.956000,2.239509
1468.575936,258.020000,0.777015
1478.036734,258.083000,-3.453364
1487.492915,258.146000,-3.040527
1497.094468,258.210000,2.392960
1506.541350,258.273000,4.393750
1516.133465,258.337000,-1.536113
1525.571062,258.400000,-1.422426
1535.004058,258.463000,-0.797378
1544.432457,258.526000,1.299904
1554.005809,258.590000,-3.558704
1563.424950,258.653000,5.427968
1572.839503,258.716000,0.775295
1582.249473,258.779000,-3.685954
1591.804117,258.843000,1.949277
1601.204857,258.906000,6.356873
1610.601022,258.969000,-2.504049
1619.992617,259.032000,1.336480
1629.379645,259.095000,1.130681
1638.911000,259.159000,-0.604592
1648.288831,259.222000,0.531475
1657.662104,259.285000,-2.364957
1667.030824,259.348000,-1.358371
1676.394994,259.411000,1.493888
1685.754616,259.474000,3.806919
1695.109694,259.537000,0.943109
1704.460232,259.600000,-0.645453
1713.806232,259.663000,-2.341562
1723.147698,259.726000,-1.313552
1732.484634,259.789000,-1.913865
1741.817042,259.852000,4.151919
1751.144926,259.915000,-3.531313
1760.468289,259.978000,4.985538
1769.787135,260.041000,-2.706641
1779.101467,260.104000,-2.156370
1788.411287,260.167000,-0.414275
1797.568932,260.229000,1.944676
1806.869812,260.292000,-0.320656
1816.166190,260.355000,-2.704726
1825.458071,260.418000,0.201853
1834.745457,260.481000,-0.948204
1844.028352,260.544000,0.003914
1853.159517,260.606000,-4.529878
1862.433510,260.669000,0.474258
1871.703021,260.732000,0.679762
1880.968054,260.795000,-0.598141
1890.081653,260.857000,0.638970
1899.337809,260.920000,-0.494810
1908.589497,260.983000,-3.248952
1917.689973,261.045000,3.023103
1926.932803,261.108000,-1.195608
1936.171175,261.171000,0.563448
1945.258555,261.233000,1.497257
1954.488088,261.296000,-4.829444
1963.566777,261.358000,1.609290
1972.787485,261.421000,-1.303491
1982.003751,261.484000,4.792018
1991.069391,261.546000,2.623302
2000.276850,261.609000,-1.477056
2009.333830,261.671000,3.258175
2018.532495,261.734000,-2.464856
2027.580827,261.796000,5.506417
2036.770712,261.859000,3.275775
2045.810408,261.921000,-4.206449
2054.845827,261.983000,-0.511667
2064.022598,262.046000,0.599871
2073.049399,262.108000,3.305475
2082.217420,262.171000,5.548451
2091.235617,262.233000,-0.337936
2100.249550,262.295000,1.310196
2109.404505,262.358000,1.598925
2118.409852,262.420000,0.348035
2127.410945,262.482000,-1.474738
2136.552862,262.545000,2.940275
2145.545387,262.607000,1.908067
2154.533666,262.669000,1.160330
2163.517703,262.731000,2.433218
2172.642302,262.794000,-2.470588
2181.617796,262.856000,2.727876
2190.589057,262.918000,-3.850239
2199.556087,262.980000,1.040056
2208.518891,263.042000,3.238339
2217.621929,263.105000,0.536575
2226.576219,263.167000,0.861421
2235.526291,263.229000,0.821472
2244.472147,263.291000,0.613569
2253.413792,263.353000,-2.768038
2262.351228,263.415000,1.612024
2271.284457,263.477000,-0.471095
2280.213483,263.539000,-1.775592
2289.138308,263.601000,2.015400
2298.058937,263.663000,-0.349665
2306.975371,263.725000,-1.617490
2315.887613,263.787000,-4.262728
2324.795667,263.849000,1.886572
2333.699536,263.911000,-0.611406
2342.599222,263.973000,-0.196568
2351.494729,264.035000,-5.144740
2360.386059,264.097000,0.312013
2369.273215,264.159000,-1.396096
2378.156200,264.221000,-1.562654
2386.891844,264.282000,2.264882
2395.766564,264.344000,1.636120
2404.637121,264.406000,2.665016
2413.503520,264.468000,1.020711
2422.365762,264.530000,1.759910
2431.081012,264.591000,3.135458
2439.935018,264.653000,-0.822816
2448.784876,264.715000,0.880400
2457.630590,264.777000,5.127932
2466.329589,264.838000,1.156736
2475.167089,264.900000,-3.020271
2484.000453,264.962000,-4.497531
2492.687310,265.023000,2.307028
2501.512478,265.085000,-0.130764
2510.333519,265.147000,2.318495
2519.008259,265.208000,-1.179096
2527.821120,265.270000,-2.327660
2536.487819,265.331000,-0.073166
2545.292512,265.393000,-1.793123
2554.093093,265.455000,-2.913091
2562.747717,265.516000,0.589960
2571.540147,265.578000,2.138473
2580.186758,265.639000,3.684212
2588.971048,265.701000,1.755010
2597.609655,265.762000,-0.078806
2606.385817,265.824000,-0.345460
2615.016433,265.885000,1.583923
2623.643091,265.946000,-0.841281
2632.407114,266.008000,1.257193
2641.025796,266.069000,1.577563
2649.781719,266.131000,-1.992410
2658.392437,266.192000,-0.007532
2666.999210,266.253000,0.593772
2675.743037,266.315000,1.117545
2684.341862,266.376000,-2.683951
2692.936750,266.437000,-3.081114
2701.668505,266.499000,1.072211
2710.255462,266.560000,1.762951
2718.838489,266.621000,2.442748
2727.417590,266.682000,-3.606949
2736.133311,266.744000,1.053049
2744.704503,266.805000,0.098409
2753.271776,266.866000,-5.036306
2761.835134,266.927000,1.256832
2770.394579,266.988000,-1.442076
2778.950113,267.049000,-0.320419
2787.641898,267.111000,-1.905563
2796.189555,267.172000,-1.659735
2804.733311,267.233000,-1.030781
2813.273167,267.294000,1.351833
2821.809126,267.355000,2.828743
2830.341190,267.416000,1.011306
2838.869363,267.477000,-1.460112
2847.393647,267.538000,1.063666
2855.914045,267.599000,-0.706386
2864.430559,267.660000,0.109148
2872.943193,267.721000,1.034850
2881.451948,267.782000,-0.221350
2889.956827,267.843000,-2.243453
2898.457833,267.904000,4.469208
2906.954969,267.965000,0.138210
2915.448237,268.026000,1.295451
2923.937640,268.087000,-3.673715
2932.284105,268.147000,0.676111
2940.765849,268.208000,0.447015
2949.243736,268.269000,-0.922092
2957.717768,268.330000,0.307981
2966.187948,268.391000,-2.863879
2974.515518,268.451000,0.836265
2982.978065,268.512000,0.270500
2991.436768,268.573000,-2.216556
2999.891630,268.634000,9.156312
3008.204142,268.694000,3.578187
3016.651392,268.755000,-4.939381
3025.094807,268.816000,2.565875
3033.396069,268.876000,-4.016288
3041.831888,268.937000,-1.984508
3050.263881,268.998000,0.307955
3058.553914,269.058000,-1.894829
3066.978326,269.119000,3.946671
3075.398919,269.180000,2.435264
3083.677747,269.240000,1.790336
3092.090774,269.301000,1.480364
3100.362165,269.361000,0.692904
3108.767637,269.422000,-4.101997
3117.031601,269.482000,4.873481
3125.429526,269.543000,-2.107366
3133.686074,269.603000,-1.166204
3142.076464,269.664000,0.303205
3150.325604,269.724000,-1.705961
3158.708468,269.785000,-2.413062
3166.950211,269.845000,6.258635
3175.325561,269.906000,-4.147462
3183.559917,269.966000,-1.956365
3191.790613,270.026000,0.697585
3200.154739,270.087000,-0.054608
3208.378064,270.147000,-2.649833
3216.597736,270.207000,-0.399313
3224.950662,270.268000,-0.538518
3233.162976,270.328000,-0.980818
3241.371647,270.388000,1.316351
3249.576675,270.448000,1.339586
3257.914722,270.509000,-0.882950
3266.112412,270.569000,4.362503
3274.306467,270.629000,0.814340
3282.496889,270.689000,-3.488995
3290.820098,270.750000,-3.573810
3299.003202,270.810000,3.373971
3307.182681,270.870000,2.013508
3315.358537,270.930000,0.446768
3323.530773,270.990000,3.133455
3331.699391,271.050000,1.818782
3339.864393,271.110000,2.711157
3348.025782,271.170000,0.440679
3356.319492,271.231000,0.545640
3364.473602,271.291000,-1.888711
3372.624105,271.351000,1.791704
3380.771005,271.411000,1.842054
3388.914304,271.471000,-0.211339
3397.054004,271.531000,2.262189
3405.190107,271.591000,0.975831
3413.322616,271.651000,-2.527637
3421.316081,271.710000,1.090880
3429.441469,271.770000,0.669066
3437.563270,271.830000,-3.124374
3445.681487,271.890000,-3.654479
3453.796121,271.950000,2.426140
3461.907176,272.010000,-2.057846
3470.014653,272.070000,-4.081322
3478.118555,272.130000,3.507700
3486.083907,272.189000,-0.012773
3494.180726,272.249000,0.382857
3502.273976,272.309000,-4.162508
3510.363660,272.369000,-1.507895
3518.315042,272.428000,-0.658506
3526.397661,272.488000,1.523927
3534.476722,272.548000,0.504921
3542.552226,272.608000,2.126803
3550.489673,272.667000,-4.215192
3558.558131,272.727000,-3.773984
3566.623039,272.787000,0.155497
3574.550074,272.846000,-0.432801
3582.607950,272.906000,-2.366102
3590.528073,272.965000,2.251948
3598.578926,273.025000,0.910569
3606.626241,273.085000,-0.501286
3614.535986,273.144000,0.750245
3622.576291,273.204000,0.943721
3630.479148,273.263000,3.708258
3638.512453,273.323000,0.355873
3646.408431,273.382000,0.674561
3654.434744,273.442000,1.543120
3662.323852,273.501000,-1.181238
3670.343183,273.561000,3.252174
3678.225429,273.620000,0.945711
3686.237787,273.680000,0.774469
3694.113181,273.739000,1.214376
3701.985180,273.798000,1.015634
3709.987125,273.858000,-2.390800
3717.852286,273.917000,-2.867172
3725.714059,273.976000,1.752579
3733.705610,274.036000,-3.384050
3741.560558,274.095000,-2.974488
3749.412124,274.154000,0.274640
3757.393303,274.214000,0.939465
3765.238057,274.273000,3.823542
3773.079437,274.332000,-0.572475
3780.917444,274.391000,2.517647
3788.884843,274.451000,0.336910
3796.716056,274.510000,-0.831688
3804.543903,274.569000,0.580844
3812.368387,274.628000,-4.330220
3820.189510,274.687000,3.459350
3828.007273,274.746000,-1.266255
3835.821680,274.805000,1.914114
3843.765093,274.865000,-0.698571
3851.572736,274.924000,-3.340349
3859.377028,274.983000,-1.867206
3867.177971,275.042000,1.609231
3874.975569,275.101000,-2.312853
3882.769823,275.160000,-2.565070
3890.560735,275.219000,-3.278684
3898.348307,275.278000,0.567755
3906.132542,275.337000,-0.146093
3913.913442,275.396000,2.845926
3921.691008,275.455000,-0.582829
3929.465243,275.514000,0.025242
3937.236150,275.573000,-1.661903
3944.872103,275.631000,-3.140142
3952.636414,275.690000,0.622962
3960.397403,275.749000,-2.241620
3968.155071,275.808000,0.231552
3975.909421,275.867000,-6.634767
3983.660455,275.926000,-2.108563
3991.408175,275.985000,2.899508
3999.021349,276.043000,1.153417
4006.762504,276.102000,5.596773
4014.500350,276.161000,0.586231
4022.234891,276.220000,3.932300
4029.835118,276.278000,3.062215
4037.563110,276.337000,2.152698
4045.287803,276.396000,-0.869708
4052.878355,276.454000,1.031846
4060.596512,276.513000,-2.203410
4068.311375,276.572000,-1.425086
4075.892271,276.630000,-1.972769
4083.600610,276.689000,0.299506
4091.305663,276.748000,1.687607
4098.876921,276.806000,1.206405
4106.575462,276.865000,1.537907
4114.140322,276.923000,1.148093
4121.832361,276.982000,5.044787
4129.390832,277.040000,-3.360301
4137.076375,277.099000,2.315318
4144.628466,277.157000,0.268304
4152.307522,277.216000,0.192194
4159.853240,277.274000,-1.488742
4167.525818,277.333000,3.032059
4175.065171,277.391000,0.249282
4182.731279,277.450000,-3.391040
4190.264275,277.508000,1.963825
4197.794123,277.566000,0.562107
4205.450568,277.625000,-0.376245
4212.974072,277.683000,-0.976692
4220.494433,277.741000,2.370680
4228.011654,277.799000,-3.064298
4235.396210,277.856000,-3.177281
4242.907211,277.914000,1.072272
4250.415077,277.972000,0.258500
4257.790445,278.029000,-2.699046
4265.292102,278.087000,1.459814
4272.790631,278.145000,0.005427
4280.156828,278.202000,3.694707
4287.649159,278.260000,-0.580479
4295.138368,278.318000,1.888976
4302.495411,278.375000,1.044896
4309.978434,278.433000,0.720228
4317.329402,278.490000,-0.985525
4324.806246,278.548000,0.467121
4332.151147,278.605000,2.206778
4339.621821,278.663000,-1.870417
4346.960661,278.720000,3.301781
4354.425172,278.778000,-3.374458
4361.757959,278.835000,-1.376958
4369.216314,278.893000,0.221395
4376.543056,278.950000,-1.554582
4383.995264,279.008000,-2.920091
4391.315968,279.065000,3.590546
4398.762036,279.123000,4.579546
4406.076709,279.180000,5.369566
4413.516644,279.238000,1.318573
4420.825295,279.295000,3.557873
4428.130962,279.352000,1.466437
4435.561740,279.410000,-3.478110
4442.861395,279.467000,0.432009
4450.158074,279.524000,-1.268875
4457.579711,279.582000,-4.551904
4464.870389,279.639000,6.562590
4472.158095,279.696000,0.853842
4479.570607,279.754000,2.236688
4486.852324,279.811000,2.109421
4494.131074,279.868000,7.371096
4501.534479,279.926000,-3.960208
4508.807251,279.983000,6.519799
4516.077062,280.040000,-1.164821
4523.343914,280.097000,-0.112921
4530.735220,280.155000,4.693073
4537.996108,280.212000,-0.871920
4545.254043,280.269000,0.400179
4552.509026,280.326000,3.094126
4559.888262,280.384000,-2.094524
4567.137295,280.441000,4.233388
4574.383383,280.498000,4.026272
4581.626526,280.555000,-0.127736
4588.866727,280.612000,-0.156833
4596.103987,280.669000,-0.056288
4603.338308,280.726000,2.785974
4610.696532,280.784000,-2.024013
4617.924929,280.841000,6.353883
4625.150392,280.898000,-0.739146
4632.372923,280.955000,-0.774637
4639.592525,281.012000,1.615084
4646.809198,281.069000,2.925233
4654.022945,281.126000,2.998587
4661.233767,281.183000,-0.799220
4668.441666,281.240000,-5.959603
4675.646644,281.297000,-2.016073
4682.848703,281.354000,0.330970
4690.047844,281.411000,1.636255
4697.244070,281.468000,-2.003677
4704.437381,281.525000,7.673149
4711.627780,281.582000,0.478878
4718.815269,281.639000,3.950454
4725.999849,281.696000,2.561406
4733.181522,281.753000,-13.411132
4740.360290,281.810000,-9.710708
4747.536154,281.867000,-10.008177
4754.583300,281.923000,-11.154921
4761.753414,281.980000,-10.648194
4768.920629,282.037000,-7.195251
4776.084949,282.094000,-4.880127
4783.246373,282.151000,-6.799289
4790.404904,282.208000,-6.796849
4797.435032,282.264000,-5.228816
4804.587834,282.321000,-8.527086
4811.737748,282.378000,-7.473420
4818.884776,282.435000,-5.753794
4826.028920,282.492000,-4.073787
4833.044920,282.548000,-3.902532
4840.183352,282.605000,0.774701
4847.318904,282.662000,-0.282348
4854.451579,282.719000,-2.450677
4861.456319,282.775000,-2.632001
4868.583295,282.832000,0.628632
4875.707399,282.889000,4.354173
4882.703723,282.945000,-3.698282
4889.822139,283.002000,-2.341062
4896.937687,283.059000,0.192653
4903.925611,283.115000,-3.706304
4911.035481,283.172000,5.363062
4918.142490,283.229000,1.213769
4925.122029,283.285000,-3.425538
4932.223369,283.342000,0.401317
4939.197342,283.398000,0.111274
4946.293021,283.455000,3.030746
4953.385847,283.512000,1.506574
4960.351460,283.568000,3.330184
4967.438635,283.625000,-3.117086
4974.398699,283.681000,-4.782073
4981.480229,283.738000,-0.140238
4988.434752,283.794000,-0.208752
4995.510644,283.851000,-0.431742
5002.459631,283.907000,-3.061399
5009.529893,283.964000,0.760140
5016.473351,284.020000,1.569483
5023.537988,284.077000,6.433427
5030.475924,284.133000,4.070864
5037.534943,284.190000,-2.190806
5044.467363,284.246000,-1.819910
5051.397052,284.302000,-2.758946
5058.447683,284.359000,-3.517842
5065.371866,284.415000,0.799461
5072.416896,284.472000,0.963345
5079.335580,284.528000,0.469897
5086.251541,284.584000,1.899872
5093.288207,284.641000,-0.117570
5100.198678,284.697000,-0.993551
5107.106432,284.753000,-1.489478
5114.134748,284.810000,2.371515
5121.037022,284.866000,2.242219
5127.936582,284.922000,-0.673904
5134.833431,284.978000,-4.625406
5141.850655,285.035000,2.367492
5148.742037,285.091000,3.994171
5155.630712,285.147000,2.506369
5162.516682,285.203000,0.433387
5169.522840,285.260000,3.220556
5176.403356,285.316000,2.209660
5183.281172,285.372000,-2.218292
5190.156289,285.428000,2.063587
5197.028709,285.484000,4.274961
5204.021082,285.541000,2.205100
5210.888064,285.597000,2.732063
5217.752353,285.653000,0.794536
5224.613952,285.709000,-1.141915
5231.472862,285.765000,-1.036789
5238.329083,285.821000,5.537639
5245.182619,285.877000,-3.160267
5252.033470,285.933000,-2.101834
5258.881638,285.989000,-2.739243
5265.727125,286.045000,0.176859
5272.569932,286.101000,3.302870
5279.532182,286.158000,-4.085634
5286.369586,286.214000,1.213302
5293.204315,286.270000,0.933337
5300.036371,286.326000,-2.123316
5306.865755,286.382000,2.979291
5313.692468,286.438000,-1.091827
5320.516513,286.494000,1.302988
5327.216104,286.549000,-0.742685
5334.034863,286.605000,-0.646488
5340.850958,286.661000,-0.957932
5347.664391,286.717000,2.596227
5354.475163,286.773000,2.061024
5361.283275,286.829000,1.482655
5368.088729,286.885000,2.143738
5374.891528,286.941000,4.721410
5381.691671,286.997000,1.493671
5388.489161,287.053000,0.203592
5395.162686,287.108000,-0.236191
5401.954922,287.164000,1.650239
5408.744509,287.220000,-0.516191
5415.531448,287.276000,1.059148
5422.315743,287.332000,1.393517
5428.976316,287.387000,-0.100275
5435.755371,287.443000,2.764313
5442.531785,287.499000,7.002020
5449.305560,287.555000,3.307749
5456.076697,287.611000,2.392776
5462.724355,287.666000,6.918882
5469.490268,287.722000,2.777735
5476.253548,287.778000,1.127238
5482.893494,287.833000,2.760968
5489.651559,287.889000,4.048769
5496.406995,287.945000,3.276184
5503.039242,288.000000,2.122134
5509.789473,288.056000,-0.794336
5516.537079,288.112000,4.012696
5523.161640,288.167000,-3.992110
5529.904050,288.223000,1.388540
5536.643840,288.279000,5.379640
5543.260729,288.334000,4.376174
5549.995332,288.390000,3.791702
5556.607128,288.445000,1.387552
5563.336549,288.501000,4.439657
5569.943259,288.556000,-0.497763
5576.667504,288.612000,-0.441168
5583.269134,288.667000,-4.165322
5589.988209,288.723000,5.365583
5596.584764,288.778000,1.397420
5603.298676,288.834000,4.238912
5609.890162,288.889000,5.464599
5616.598916,288.945000,-0.786863
5623.185340,289.000000,2.889571
5629.888941,289.056000,1.642328
5636.470308,289.111000,1.737481
5643.168763,289.167000,0.910144
5649.745079,289.222000,2.792657
5656.438394,289.278000,3.310225
5663.009664,289.333000,0.459590
5669.578437,289.388000,3.445498
5676.264076,289.444000,-0.015633
5682.827812,289.499000,2.320906
5689.389054,289.554000,5.524356
5696.067030,289.610000,-1.867666
5702.623244,289.665000,5.762164
5709.176969,289.720000,4.171594
5715.847296,289.776000,7.865012
5722.396001,289.831000,1.768194
5728.942221,289.886000,0.811434
5735.485958,289.941000,4.421823
5742.146122,289.997000,-0.941666
5748.684850,290.052000,2.477991
5755.221100,290.107000,2.370700
5761.754871,290.162000,4.545350
5768.404894,290.218000,1.012767
5774.933669,290.273000,-0.215293
5781.459971,290.328000,0.698008
5787.983800,290.383000,-1.084329
5794.505158,290.438000,0.397906
5801.142550,290.494000,-1.118026
5807.658926,290.549000,-0.338541
5814.172835,290.604000,7.246708
5820.684279,290.659000,-4.182520
5827.193260,290.714000,2.442039
5833.699778,290.769000,2.784732
5840.203835,290.824000,0.474478
5846.705432,290.879000,-0.722766
5853.204572,290.934000,0.579998
5859.701254,290.989000,1.718672
5866.195481,291.044000,-0.163816
5872.687254,291.099000,2.432268
5879.176574,291.154000,-0.750357
5885.663444,291.209000,0.742394
5892.147863,291.264000,2.707972
5898.629834,291.319000,-5.084564
5905.109357,291.374000,-1.842426
5911.586435,291.429000,3.990461
5918.061069,291.484000,2.132117
5924.533260,291.539000,2.363976
5931.003009,291.594000,1.117673
5937.470318,291.649000,3.310246
5943.935188,291.704000,0.110491
5950.397621,291.759000,1.511444
5956.857618,291.814000,1.779466
5963.315180,291.869000,1.984184
5969.770309,291.924000,1.075793
5976.105706,291.978000,8.015988
5982.556017,292.033000,4.223737
5989.003898,292.088000,0.704364
5995.449352,292.143000,1.187919
6001.892379,292.198000,7.489495
6008.215901,292.252000,-1.863433
6014.654123,292.307000,-2.997602
6021.089923,292.362000,5.017072
6027.523303,292.417000,3.734438
6033.954262,292.472000,-0.354871
6040.265942,292.526000,2.383332
6046.692111,292.581000,0.000903
6053.115864,292.636000,3.935367
6059.420472,292.690000,-0.623414
6065.839442,292.745000,6.354647
6072.256000,292.800000,4.571878
6078.553548,292.854000,2.810816
6084.965331,292.909000,1.671232
6091.374707,292.964000,1.705434
6097.665207,293.018000,0.619606
6104.069816,293.073000,5.130076
6110.472021,293.128000,-0.526057
6116.755485,293.182000,4.726279
6123.152931,293.237000,1.859610
6129.431725,293.291000,-0.774456
6135.824417,293.346000,3.076921
6142.098547,293.400000,5.940033
6148.486490,293.455000,3.248421
6154.872040,293.510000,4.700808
6161.139160,293.564000,0.552353
6167.519969,293.619000,-0.257718
6173.782438,293.673000,1.062173
6180.158512,293.728000,4.899249
6186.416334,293.782000,2.072579
6192.787678,293.837000,0.561489
6199.040859,293.891000,4.833680
6205.291742,293.945000,0.973366
6211.656022,294.000000,1.109526
6217.902272,294.054000,3.150944
6224.261835,294.109000,2.165336
6230.503456,294.163000,7.691161
6236.742786,294.217000,2.783739
6243.095305,294.272000,-2.010999
6249.330014,294.326000,3.849605
6255.677829,294.381000,5.346469
6261.907923,294.435000,3.804532
6268.135731,294.489000,3.742748
6274.476522,294.544000,2.913202
6280.699722,294.598000,6.364901
6286.920642,294.652000,5.039889
6293.139281,294.706000,5.429757
6299.470739,294.761000,3.160727
6305.684781,294.815000,5.602507
6311.896546,294.869000,11.129324
6318.106037,294.923000,12.433042
6324.428182,294.978000,11.707981
6330.633085,295.032000,13.149484
6336.835717,295.086000,3.307947
6343.036080,295.140000,2.559902
6349.234174,295.194000,-5.175561
6355.544717,295.249000,-1.004112
6361.738236,295.303000,-2.858546
6367.929490,295.357000,-3.363346
6374.118480,295.411000,1.734969
6380.305209,295.465000,3.300658
6386.489676,295.519000,0.059359
6392.671884,295.573000,3.581191
6398.851833,295.627000,1.858583
6405.143905,295.682000,8.220365
6411.319300,295.736000,1.716706
6417.492439,295.790000,5.339990
6423.663325,295.844000,10.167459
6429.831958,295.898000,5.770186
6435.998340,295.952000,4.597658
6442.162473,296.006000,0.437498
6448.324357,296.060000,7.465363
6454.483993,296.114000,5.704734
6460.641384,296.168000,0.940326
6466.796529,296.222000,3.204291
6472.949431,296.276000,2.452283
6479.100090,296.330000,0.755475
6485.248508,296.384000,6.100960
6491.280888,296.437000,2.733566
6497.424869,296.491000,0.288620
6503.566612,296.545000,4.276226
6509.706118,296.599000,4.525611
6515.843390,296.653000,2.841620
6521.978427,296.707000,7.709628
6528.111232,296.761000,2.225737
6534.241805,296.815000,4.331147
6540.256681,296.868000,1.480052
6546.382836,296.922000,3.280492
6552.506763,296.976000,2.131747
6558.628464,297.030000,2.956688
6564.747939,297.084000,5.527007
6570.751928,297.137000,3.724100
6576.866997,297.191000,3.319003
6582.979845,297.245000,2.314054
6589.090471,297.299000,6.066774
6595.085780,297.352000,5.112791
6601.192010,297.406000,5.655617
6607.296023,297.460000,3.507025
6613.397821,297.514000,3.297417
6619.384468,297.567000,5.922489
6625.481879,297.621000,6.071110
6631.577077,297.675000,0.583226
6637.557251,297.728000,2.597869
6643.648069,297.782000,7.012442
6649.623947,297.835000,4.291270
6655.710390,297.889000,2.151050
6661.794627,297.943000,4.966443
6667.764048,297.996000,1.452870
6673.843917,298.050000,3.452150
6679.809053,298.103000,2.396267
6685.884559,298.157000,5.273986
6691.957864,298.211000,1.302597
6697.916562,298.264000,3.669398
6703.985510,298.318000,2.225047
6709.939935,298.371000,0.841601
6716.004532,298.425000,2.586794
6721.954688,298.478000,1.323154
6728.014938,298.532000,2.859589
6733.960830,298.585000,-0.352421
6739.904611,298.638000,2.743956
6745.958369,298.692000,0.981598
6751.897893,298.745000,6.483404
6757.947317,298.799000,3.177692
6763.882588,298.852000,-3.344676
6769.927680,298.906000,2.450236
6775.858703,298.959000,5.801212
6781.787624,299.012000,3.679720
6787.826249,299.066000,1.825561
6793.750928,299.119000,5.464181
6799.673508,299.172000,1.932200
6805.705677,299.226000,3.211599
6811.624022,299.279000,1.682279
6817.540272,299.332000,6.856790
6823.565994,299.386000,7.342076
6829.478016,299.439000,0.036174
6835.387945,299.492000,2.946823
6841.407231,299.546000,3.349502
6847.312940,299.599000,2.117472
6853.216559,299.652000,6.853415
6859.118090,299.705000,5.920627
6865.017534,299.758000,3.754674
6871.026143,299.812000,3.788780
6876.921378,299.865000,4.800792
6882.814529,299.918000,5.395288
6888.705597,299.971000,3.564086
6894.594584,300.024000,4.432233
6900.592545,300.078000,2.672991
6906.477333,300.131000,4.322309
6912.360044,300.184000,2.118543
6918.240677,300.237000,5.257042
6924.119235,300.290000,-1.276915
6929.995718,300.343000,8.316271
6935.870127,300.396000,3.431517
6941.742464,300.449000,4.716953
6947.612730,300.502000,8.218323
6953.480925,300.555000,8.411035
6959.347051,300.608000,3.026604
6965.211108,300.661000,4.320077
6971.073099,300.714000,3.113962
6976.933024,300.767000,5.355846
6982.790884,300.820000,3.384924
6988.646680,300.873000,-1.661974
6994.500413,300.926000,1.743612
7000.352085,300.979000,1.503125
7006.201696,301.032000,0.280235
7012.049248,301.085000,0.713356
7017.894742,301.138000,0.379620
7023.738178,301.191000,3.662662
7029.579559,301.244000,1.158308
7035.418884,301.297000,5.060888
7041.256155,301.350000,3.370708
7047.091373,301.403000,4.439837
7052.924539,301.456000,7.824698
7058.645653,301.508000,0.720049
7064.474758,301.561000,3.074842
7070.301814,301.614000,3.534566
7076.126822,301.667000,0.903941
7081.949784,301.720000,6.797158
7087.660892,301.772000,4.327731
7093.479803,301.825000,-0.704487
7099.296670,301.878000,3.367142
7105.111496,301.931000,2.005596
7110.814624,301.983000,5.994433
7116.625408,302.036000,5.782122
7122.434152,302.089000,5.011488
7128.240858,302.142000,4.642506
7133.936024,302.194000,4.916770
7139.738696,302.247000,3.301800
7145.539334,302.300000,3.825708
7151.228549,302.352000,8.851993
7157.025159,302.405000,7.412944
7162.819737,302.458000,5.962893
7168.503010,302.510000,4.536694
7174.293567,302.563000,5.523552
7180.082095,302.616000,1.589296
7185.759436,302.668000,1.394406
7191.543949,302.721000,3.176532
7197.217352,302.773000,3.371123
7202.997854,302.826000,2.243846
7208.667324,302.878000,3.724537
7214.443819,302.931000,6.886539
7220.109360,302.983000,5.630771
7225.881853,303.036000,8.665267
7231.543468,303.088000,5.337792
7237.311962,303.141000,4.303980
7242.969657,303.193000,4.932078
7248.734156,303.246000,3.273697
7254.387934,303.298000,2.667148
7260.148443,303.351000,5.098955
7265.798308,303.403000,4.551868
7271.554831,303.456000,3.749446
7277.200787,303.508000,2.179817
7282.953328,303.561000,3.102910
7288.595379,303.613000,4.510954
7294.235498,303.665000,3.516005
7299.982093,303.718000,5.235718
7305.618313,303.770000,2.471692
7311.252604,303.822000,8.928075
7316.993262,303.875000,4.697498
7322.623660,303.927000,7.033972
7328.252131,303.979000,3.892622
7333.986862,304.032000,3.123754
7339.611446,304.084000,5.614236
7345.234108,304.136000,7.626319
7350.962920,304.189000,1.305328
7356.581700,304.241000,2.021105
7362.198561,304.293000,3.433474
7367.813502,304.345000,4.448901
7373.426525,304.397000,3.479630
7379.145517,304.450000,7.678582
7384.754669,304.502000,3.229750
7390.361906,304.554000,7.093816
7395.967228,304.606000,6.505994
7401.570637,304.658000,-0.667607
7407.279836,304.711000,3.131986
7412.879384,304.763000,6.181418
7418.477021,304.815000,6.982472
7424.072749,304.867000,6.782884
7429.666569,304.919000,4.570436
7435.258480,304.971000,5.063281
7440.848486,305.023000,6.070341
7446.436585,305.075000,5.133814
7452.022780,305.127000,5.853725
7457.607071,305.179000,6.896611
7463.296795,305.232000,3.770607
7468.877245,305.284000,4.491961
7474.455794,305.336000,2.127288
7480.032444,305.388000,4.428607
7485.607195,305.440000,6.481950
7491.180048,305.492000,2.847688
7496.751004,305.544000,6.799200
7502.212985,305.595000,6.528576
7507.780187,305.647000,10.912927
7513.345495,305.699000,6.458402
7518.908909,305.751000,6.214404
7524.470432,305.803000,12.017086
7530.030064,305.855000,7.179772
7535.587805,305.907000,7.907216
7541.143658,305.959000,6.017254
7546.697622,306.011000,4.244835
7552.249699,306.063000,6.005640
7557.693173,306.114000,3.771535
7563.241514,306.166000,9.116438
7568.787971,306.218000,6.589471
7574.332545,306.270000,9.664054
7579.875237,306.322000,7.127417
7585.416047,306.374000,6.892365
7590.848476,306.425000,6.803783
7596.385562,306.477000,7.846527
7601.920769,306.529000,7.525461
7607.454098,306.581000,6.701132
7612.879195,306.632000,3.317858
7618.408808,306.684000,10.703473
7623.936546,306.736000,7.658876
7629.462411,306.788000,4.529846
7634.880189,306.839000,9.119292
7640.402345,306.891000,3.447507
7645.922629,306.943000,3.216684
7651.334938,306.994000,2.142720
7656.851519,307.046000,1.442799
7662.260197,307.097000,0.015951
7667.773079,307.149000,0.246829
7673.284094,307.201000,3.281468
7678.687317,307.252000,7.513531
7684.194638,307.304000,2.769066
7689.700096,307.356000,4.181327
7695.097870,307.407000,3.474021
7700.599639,307.459000,7.151334
7705.993798,307.510000,-0.118011
7711.491883,307.562000,5.470268
7716.882430,307.613000,5.913985
7722.376833,307.665000,3.874495
7727.763772,307.716000,6.153140
7733.254498,307.768000,1.484624
7738.637831,307.819000,5.228652
7744.124884,307.871000,5.650546
7749.504617,307.922000,6.949650
7754.988000,307.974000,1.810236
7760.364134,308.025000,6.704971
7765.738489,308.076000,3.572025
7771.216392,308.128000,3.315369
7776.587155,308.179000,6.382759
7782.061397,308.231000,2.620388
7787.428571,308.282000,2.488418
7792.793970,308.333000,9.576074
7798.262745,308.385000,7.129638
7803.624561,308.436000,4.498266
7808.984603,308.487000,-0.781659
7814.447920,308.539000,4.504613
7819.804385,308.590000,4.086412
7825.159080,308.641000,5.582266
7830.616947,308.693000,8.540917
7835.968069,308.744000,3.892836
7841.317424,308.795000,8.911486
7846.665012,308.846000,3.381335
7852.115636,308.898000,4.566264
7857.459659,308.949000,1.729127
7862.801917,309.000000,7.162340
7868.142413,309.051000,4.757022
7873.481146,309.102000,8.013895
7878.922746,309.154000,6.225535
7884.257923,309.205000,3.552441
7889.591340,309.256000,5.615001
7894.922998,309.307000,3.966272
7900.252898,309.358000,4.005335
7905.581041,309.409000,1.249377
7910.907428,309.460000,8.227117
7916.336447,309.512000,6.313649
7921.659290,309.563000,5.790164
7926.980379,309.614000,5.988788
7932.299715,309.665000,9.161633
7937.617300,309.716000,4.353322
7942.933134,309.767000,2.321080
7948.247217,309.818000,5.088762
7953.559551,309.869000,4.647187
7958.870137,309.920000,3.649066
7964.178976,309.971000,7.054177
7969.486068,310.022000,3.067390
7974.791414,310.073000,13.726817
7980.095015,310.124000,1.939030
7985.396872,310.175000,1.817617
7990.696985,310.226000,4.791950
7995.995357,310.277000,5.622761
8001.291987,310.328000,11.799495
8006.586876,310.379000,8.640276
8011.880026,310.430000,7.330158
8017.067700,310.480000,6.398092
8022.357406,310.531000,3.979049
8027.645376,310.582000,1.729262
8032.931609,310.633000,2.944642
8038.216106,310.684000,5.926721
8043.498869,310.735000,5.362351
8048.779898,310.786000,5.306781
8053.955695,310.836000,3.770861
8059.233293,310.887000,7.577212
8064.509160,310.938000,8.720862
8069.783296,310.989000,3.004962
8074.952339,311.039000,8.876715
8080.223051,311.090000,5.411890
8085.492035,311.141000,5.332377
8090.759292,311.192000,2.209853
8095.921594,311.242000,5.461603
8101.185433,311.293000,4.566039
8106.447548,311.344000,6.894252
8111.604811,311.394000,8.989037
8116.863513,311.445000,2.727251
8122.120493,311.496000,1.896529
8127.272724,311.546000,5.535704
8132.526297,311.597000,9.645003
8137.778150,311.648000,11.550492
8142.925357,311.698000,6.230976
8148.173807,311.749000,8.662242
8153.420541,311.800000,7.330519
8158.562731,311.850000,9.211355
8163.806066,311.901000,7.380774
8168.944927,311.951000,6.179083
8174.184869,312.002000,1.630597
8179.320403,312.052000,10.392681
8184.556953,312.103000,7.654343
8189.689165,312.153000,9.831171
8194.922327,312.204000,2.236282
8200.051219,312.254000,4.837019
8205.280996,312.305000,9.225362
8210.406572,312.355000,6.943105
8215.632968,312.406000,6.424416
8220.755230,312.456000,10.030080
8225.978248,312.507000,9.830540
8231.097200,312.557000,0.558250
8236.316843,312.608000,6.881282
8241.432488,312.658000,12.760579
8246.546497,312.708000,8.705320
8251.761101,312.759000,4.658236
8256.871808,312.809000,5.368155
8261.980881,312.859000,2.603173
8267.190453,312.910000,8.516917
8272.296229,312.960000,2.728370
8277.400373,313.010000,3.076444
8282.604921,313.061000,11.358167
8287.705773,313.111000,9.311609
8292.804996,313.161000,2.418119
8298.004526,313.212000,6.767968
8303.100462,313.262000,2.744965
8308.194770,313.312000,7.690955
8313.287453,313.362000,3.645322
8318.480316,313.413000,6.418410
8323.569717,313.463000,7.359221
8328.657496,313.513000,4.923422
8333.743651,313.563000,-0.083920
8338.828185,313.613000,9.968049
8344.012739,313.664000,5.179407
8349.094000,313.714000,9.200574
8354.173640,313.764000,6.328214
8359.251662,313.814000,2.002426
8364.328066,313.864000,6.620127
8369.402853,313.914000,9.292511
8374.476024,313.964000,6.100396
8379.547579,314.014000,13.664700
8384.718901,314.065000,4.202597
8389.787195,314.115000,8.059451
8394.853876,314.165000,3.532772
8399.918944,314.215000,1.838326
8404.982400,314.265000,2.906728
8410.044246,314.315000,7.410651
8415.104481,314.365000,8.232167
8420.163107,314.415000,5.395898
8425.220124,314.465000,3.852664
8430.275533,314.515000,9.740498
8435.329336,314.565000,7.703728
8440.381532,314.615000,6.226338
8445.432122,314.665000,2.615445
8450.481107,314.715000,7.337765
8455.528489,314.765000,9.615937
8460.473367,314.814000,6.787210
8465.517575,314.864000,8.468991
8470.560181,314.914000,5.162951
8475.601186,314.964000,2.054112
8480.640590,315.014000,4.699381
8485.678395,315.064000,9.227962
8490.714602,315.114000,0.717735
8495.749210,315.164000,6.288723
8500.681577,315.213000,5.653982
8505.713024,315.263000,1.368438
8510.742875,315.313000,7.140327
8515.771131,315.363000,2.433352
8520.797793,315.413000,9.485040
8525.722375,315.462000,7.487004
8530.745883,315.512000,8.902954
8535.767799,315.562000,10.308904
8540.788124,315.612000,7.034886
8545.706499,315.661000,5.776959
8550.723675,315.711000,12.685640
8555.739262,315.761000,5.117461
8560.652997,315.810000,5.087998
8565.665441,315.860000,8.417307
8570.676298,315.910000,0.975461
8575.585399,315.959000,3.592526
8580.593116,316.009000,1.578173
8585.599249,316.059000,11.974662
8590.503723,316.108000,3.803467
8595.506721,316.158000,3.033330
8600.508137,316.208000,7.258042
8605.407991,316.257000,5.267291
8610.406276,316.307000,5.864428
8615.303063,316.356000,10.135609
8620.298221,316.406000,7.044437
8625.191944,316.455000,7.835834
8630.183977,316.505000,4.100999
8635.074640,316.554000,11.725150
8640.063551,316.604000,4.638557
8644.951156,316.653000,-1.678435
8649.936949,316.703000,3.631905
8654.821499,316.752000,0.628723
8659.804175,316.802000,6.405961
8664.685673,316.851000,8.008238
8669.665237,316.901000,5.041374
8674.543685,316.950000,9.710275
8679.520139,317.000000,8.928841
8684.395541,317.049000,8.450397
8689.269436,317.098000,5.748625
8694.241247,317.148000,7.962150
8699.112100,317.197000,7.858356
8703.981448,317.246000,9.591610
8708.948621,317.296000,9.739850
8713.814931,317.345000,5.722002
8718.779005,317.395000,10.672045
8723.642281,317.444000,7.784603
8728.504055,317.493000,7.354854
8733.364329,317.542000,6.909759
8738.322247,317.592000,8.219046
8743.179491,317.641000,8.900655
8748.035237,317.690000,6.775662
8752.889486,317.739000,2.727261
8757.841258,317.789000,9.348709
8762.692483,317.838000,3.219574
8767.542212,317.887000,8.196721
8772.390446,317.936000,9.143055
8777.336084,317.986000,6.776488
8782.181300,318.035000,5.991870
8787.025024,318.084000,11.850654
8791.867255,318.133000,8.810613
8796.707995,318.182000,6.555999
8801.547244,318.231000,6.725059
8806.385003,318.280000,5.949439
8811.319957,318.330000,12.873903
8816.154708,318.379000,9.164120
8820.987971,318.428000,6.097186
8825.819746,318.477000,6.123447
8830.650035,318.526000,6.672088
8835.478838,318.575000,9.029160
8840.306156,318.624000,7.764201
8845.131990,318.673000,8.382277
8849.956339,318.722000,10.379023
8854.779206,318.771000,8.277281
8859.600590,318.820000,6.956044
8864.420492,318.869000,8.165650
8869.238913,318.918000,3.088677
8874.055854,318.967000,3.140284
8878.871314,319.016000,9.770871
8883.685296,319.065000,3.653157
8888.497800,319.114000,3.884211
8893.308826,319.163000,3.827973
8898.118374,319.212000,5.558160
8902.926447,319.261000,5.112248
8907.634964,319.309000,3.393240
8912.440116,319.358000,1.259813
8917.243794,319.407000,8.833501
8922.045998,319.456000,9.789790
8926.846729,319.505000,7.263461
8931.645988,319.554000,4.821900
8936.443775,319.603000,7.891245
8941.142222,319.651000,5.657400
8945.937098,319.700000,12.958204
8950.730504,319.749000,7.391582
8955.522441,319.798000,7.923597
8960.215161,319.846000,9.125712
8965.004192,319.895000,7.448508
8969.791757,319.944000,5.712981
8974.577855,319.993000,10.712362
8979.264858,320.041000,7.927285
8984.048055,320.090000,4.242856
8988.829789,320.139000,4.662924
8993.512517,320.187000,6.447005
8998.291355,320.236000,8.339556
9003.068730,320.285000,11.450958
9007.747190,320.333000,6.380248
9012.521672,320.382000,7.539327
9017.294694,320.431000,13.038302
9021.968893,320.479000,7.702505
9026.739026,320.528000,7.344327
9031.410396,320.576000,6.081764
9036.177644,320.625000,6.068430
9040.943434,320.674000,3.892286
9045.610552,320.722000,13.509850
9050.373460,320.771000,5.958815
9055.037756,320.819000,8.909815
9059.797784,320.868000,3.011207
9064.459261,320.916000,7.868052
9069.216413,320.965000,7.843975
9073.875072,321.013000,5.200915
9078.629350,321.062000,5.033755
9083.285194,321.110000,7.839204
9088.036601,321.159000,10.177954
9092.689634,321.207000,9.868025
9097.438171,321.256000,5.717716
9102.088394,321.304000,10.005893
9106.737229,321.352000,7.313417
9111.481482,321.401000,7.399633
9116.127511,321.449000,5.936833
9120.868902,321.498000,5.533509
9125.512128,321.546000,8.047422
9130.153968,321.594000,11.306695
9134.891085,321.643000,9.051828
9139.530126,321.691000,12.490944
9144.167783,321.739000,5.717634
9148.900630,321.788000,9.614204
9153.535492,321.836000,5.285893
9158.168971,321.884000,3.091421
9162.801069,321.932000,6.849512
9167.528244,321.981000,6.216167
9172.157551,322.029000,-1.711635
9176.785479,322.077000,8.282205
9181.412027,322.125000,10.663986
9186.133540,322.174000,7.355640
9190.757302,322.222000,2.659513
9195.379688,322.270000,4.006927
9200.000697,322.318000,4.856801
9204.620330,322.366000,10.206914
9209.334786,322.415000,11.500565
9213.951640,322.463000,5.528515
9218.567119,322.511000,7.163410
9223.181225,322.559000,2.846229
9227.793957,322.607000,15.072566
9232.405318,322.655000,7.122457
9237.015306,322.703000,8.847812
9241.623923,322.751000,9.469546
9246.231170,322.799000,3.595820
9250.932988,322.848000,7.922150
9255.537466,322.896000,7.741802
9260.140576,322.944000,2.826274
9264.742318,322.992000,6.316710
9269.342693,323.040000,7.722857
9273.941700,323.088000,4.297313
9278.539341,323.136000,7.341685
9283.135616,323.184000,9.205502
9287.730527,323.232000,4.823836
9292.324072,323.280000,6.170990
9296.916254,323.328000,8.726213
9301.411445,323.375000,2.436059
9306.000929,323.423000,3.911380
9310.589052,323.471000,8.482792
9315.175812,323.519000,6.613575
9319.761212,323.567000,7.149701
9324.345252,323.615000,5.476263
9328.927932,323.663000,7.535823
9333.509253,323.711000,0.448221
9338.089216,323.759000,10.158991
9342.572447,323.806000,9.598465
9347.149722,323.854000,8.247230
9351.725642,323.902000,6.227387
9356.300205,323.950000,7.038121
9360.873412,323.998000,7.655235
9365.350032,324.045000,5.916350
9369.920559,324.093000,7.251917
9374.489732,324.141000,8.867566
9379.057552,324.189000,10.960371
9383.528899,324.236000,8.787198
9388.094043,324.284000,4.396869
9392.657836,324.332000,7.222351
9397.125241,324.379000,6.121664
9401.686361,324.427000,5.355661
9406.246132,324.475000,8.885118
9410.804554,324.523000,3.579151
9415.266702,324.570000,11.658787
9419.822456,324.618000,10.410230
9424.281993,324.665000,15.286790
9428.835082,324.713000,9.949100
9433.386824,324.761000,8.210030
9437.842435,324.808000,4.579477
9442.391516,324.856000,5.458031
9446.844521,324.903000,9.794951
9451.390942,324.951000,7.952327
9455.936020,324.999000,10.554560
9460.385108,325.046000,9.736372
9464.927530,325.094000,10.117747
9469.374018,325.141000,8.795522
9473.913786,325.189000,11.132812
9478.357677,325.236000,8.660419
9482.894794,325.284000,6.628888
9487.336090,325.331000,6.856485
9491.870557,325.379000,6.339634
9496.309260,325.426000,6.727928
9500.746681,325.473000,10.998859
9505.277193,325.521000,9.277937
9509.712024,325.568000,10.136533
9514.239893,325.616000,9.830208
9518.672137,325.663000,8.216922
9523.103102,325.710000,8.322678
9527.627024,325.758000,7.709577
9532.055405,325.805000,9.511438
9536.576689,325.853000,7.262367
9541.002489,325.900000,8.183017
9545.427013,325.947000,0.835657
9549.850260,325.994000,7.049718
9554.366303,326.042000,7.053282
9558.786974,326.089000,6.833498
9563.206371,326.136000,1.659815
9567.718482,326.184000,11.227330
9572.135305,326.231000,12.078263
9576.550855,326.278000,5.743322
9580.965134,326.325000,8.716142
9585.472021,326.373000,9.230223
9589.883730,326.420000,11.555950
9594.294169,326.467000,9.902887
9598.703338,326.514000,12.217960
9603.111238,326.561000,9.731137
9607.611614,326.609000,7.069603
9612.016950,326.656000,12.309548
9616.421019,326.703000,8.036404
9620.823821,326.750000,7.276554
9625.225356,326.797000,15.396238
9629.625626,326.844000,2.162031
9634.024630,326.891000,8.489450
9638.422369,326.938000,5.239583
9642.818845,326.985000,3.914314
9647.214056,327.032000,9.270242
9651.701479,327.080000,10.582069
9656.094138,327.127000,5.035853
9660.485535,327.174000,8.299981
9664.875670,327.221000,15.862113
9669.264544,327.268000,12.016507
9673.652158,327.315000,4.054761
9678.038512,327.362000,11.541986
9682.423607,327.409000,5.061362
9686.807443,327.456000,2.197127
9691.190021,327.503000,9.562393
9695.478134,327.549000,8.967953
9699.858224,327.596000,6.441933
9704.237057,327.643000,1.647183
9708.614633,327.690000,9.654549
9712.990955,327.737000,10.946224
9717.366021,327.784000,6.957345
9721.739833,327.831000,7.357726
9726.112390,327.878000,7.362299
9730.483695,327.925000,6.188305
9734.760780,327.971000,9.870040
9739.129606,328.018000,13.863692
9743.497180,328.065000,8.748110
9747.863503,328.112000,7.117171
9752.228575,328.159000,9.916149
9756.499562,328.205000,9.141465
9760.862161,328.252000,8.131350
9765.223511,328.299000,11.234990
9769.583612,328.346000,7.535312
9773.849737,328.392000,4.356925
9778.207369,328.439000,8.139471
9782.563754,328.486000,8.722201
9786.918893,328.533000,9.941291
9791.180163,328.579000,10.491691
9795.532837,328.626000,5.734256
9799.884266,328.673000,9.495028
9804.141906,328.719000,11.022109
9808.490874,328.766000,3.737546
9812.838598,328.813000,8.139263
9817.092614,328.859000,8.794215
9821.437879,328.906000,6.001468
9825.689490,328.952000,7.520125
9830.032299,328.999000,6.037412
9834.373868,329.046000,7.806738
9838.621862,329.092000,9.726201
9842.960977,329.139000,10.190002
9847.206571,329.185000,8.149285
9851.543235,329.232000,7.768449
9855.786431,329.278000,7.581023
9860.120646,329.325000,6.626242
9864.361446,329.371000,5.437022
9868.693214,329.418000,7.810272
9872.931619,329.464000,3.929031
9877.260942,329.511000,5.277958
9881.496956,329.557000,2.729440
9885.823836,329.604000,5.403174
9890.057460,329.650000,4.325689
9894.289903,329.696000,9.690341
9898.613135,329.743000,8.842546
9902.843191,329.789000,4.082934
9907.163985,329.836000,9.615925
9911.391656,329.882000,8.913772
9915.618148,329.928000,11.197745
9919.935303,329.975000,4.635525
9924.159413,330.021000,8.696579
9928.382346,330.067000,8.430104
9932.695866,330.114000,10.378999
9936.916419,330.160000,8.425528
9941.135797,330.206000,8.934174
9945.445687,330.253000,5.982103
9949.662689,330.299000,4.093191
9953.878516,330.345000,6.582192
9958.093170,330.391000,7.723613
9962.398234,330.438000,10.520470
9966.610516,330.484000,5.010299
9970.821625,330.530000,13.162744
9975.031562,330.576000,7.251087
9979.240328,330.622000,7.738570
9983.539380,330.669000,14.120704
9987.745778,330.715000,9.361383
9991.951007,330.761000,12.794982
9996.155067,330.807000,2.182292
10000.357957,330.853000,6.842090
10004.559679,330.899000,11.886965
10008.760233,330.945000,7.790357
10013.050897,330.992000,12.097064
10017.249091,331.038000,16.561612
10021.446118,331.084000,8.822617
10025.641979,331.130000,9.333866
10029.836675,331.176000,9.533071
10034.030205,331.222000,8.432249
10038.222571,331.268000,8.922196
10042.413773,331.314000,15.335947
10046.603811,331.360000,6.828842
10050.792686,331.406000,6.460482
10054.980398,331.452000,8.089187
10059.166948,331.498000,6.463789
10063.352336,331.544000,7.008422
10067.536563,331.590000,9.358525
10071.719629,331.636000,8.090836
10075.901535,331.682000,13.144713
10080.082281,331.728000,7.292591
10084.261868,331.774000,12.218348
10088.440296,331.820000,10.446178
10092.526768,331.865000,8.025088
10096.702905,331.911000,9.038796
10100.877884,331.957000,9.139536
10105.051707,332.003000,9.911654
10109.224373,332.049000,8.767012
10113.395884,332.095000,4.650496
10117.475591,332.140000,18.230817
10121.644816,332.186000,3.852853
10125.812886,332.232000,7.190375
10129.979802,332.278000,7.855719
10134.145565,332.324000,8.243142
10138.219652,332.369000,6.227687
10142.383134,332.415000,9.306246
10146.545464,332.461000,4.209740
10150.706643,332.507000,5.764815
10154.776247,332.552000,6.420474
10158.935148,332.598000,8.788530
10163.092900,332.644000,6.184605
10167.159152,332.689000,5.426206
10171.314630,332.735000,7.436492
10175.468958,332.781000,7.522847
10179.531864,332.826000,14.004785
10183.683921,332.872000,6.813816
10187.834831,332.918000,8.204603
10191.894393,332.963000,6.783382
10196.043035,333.009000,6.871927
10200.190530,333.055000,10.188748
10204.246754,333.100000,9.113961
10208.391984,333.146000,12.015237
10212.445992,333.191000,10.491622
10216.588958,333.237000,6.102995
10220.640753,333.282000,6.033238
10224.781457,333.328000,10.115729
10228.831039,333.373000,14.100275
10232.969483,333.419000,5.637785
10237.016856,333.464000,12.035845
10241.153042,333.510000,5.082766
10245.198206,333.555000,12.117542
10249.332135,333.601000,8.879437
10253.375094,333.646000,10.934362
10257.506768,333.692000,15.282068
10261.547522,333.737000,8.266571
10265.587186,333.782000,9.499518
10269.715494,333.828000,13.886794
10273.752956,333.873000,6.629413
10277.879015,333.919000,7.598893
10281.914277,333.964000,8.289817
10285.948452,334.009000,8.480518
10290.071151,334.055000,7.324873
10294.103128,334.100000,10.228492
10298.134020,334.145000,10.950816
10302.253364,334.191000,8.485164
10306.282060,334.236000,9.877816
10310.309672,334.281000,2.757147
10314.425666,334.327000,7.691400
10318.451085,334.372000,7.445285
10322.475422,334.417000,14.551194
10326.498675,334.462000,4.622584
10330.610215,334.508000,5.085941
10334.631280,334.553000,11.087397
10338.651263,334.598000,5.504167
10342.670165,334.643000,7.083184
10346.687987,334.688000,10.231273
10350.704728,334.733000,8.783326
10354.809614,334.779000,10.464863
10358.824172,334.824000,4.726283
10362.837651,334.869000,12.335509
10366.850051,334.914000,7.680549
10370.861373,334.959000,7.428638
10374.871618,335.004000,9.786836
10378.880786,335.049000,8.306612
10382.888876,335.094000,5.782745
10386.984923,335.140000,5.774925
10390.990838,335.185000,8.294933
10394.995677,335.230000,6.227498
10398.999440,335.275000,4.460320
10403.002130,335.320000,11.797458
10407.003745,335.365000,8.922493
10411.004286,335.410000,10.517604
10415.003755,335.455000,6.391185
10419.002150,335.500000,6.419272
10422.999473,335.545000,9.569711
10426.995723,335.590000,6.063935
10430.990902,335.635000,8.409008
10434.985010,335.680000,13.239168
10438.889325,335.724000,7.426460
10442.881316,335.769000,12.698992
10446.872237,335.814000,7.667125
10450.862088,335.859000,8.473955
10454.850871,335.904000,6.411810
10458.838585,335.949000,6.459715
10462.825230,335.994000,16.473136
10466.810808,336.039000,8.199607
10470.706786,336.083000,9.526489
10474.690253,336.128000,12.230691
10478.672654,336.173000,10.404188
10482.653989,336.218000,8.642278
10486.634259,336.263000,9.548880
10490.525048,336.307000,3.619321
10494.503211,336.352000,10.794072
10498.480310,336.397000,8.989460
10502.456345,336.442000,11.409981
10506.342995,336.486000,9.612185
10510.316927,336.531000,9.568900
10514.289797,336.576000,8.859508
10518.261604,336.621000,4.532964
10522.144122,336.665000,6.178600
10526.113830,336.710000,6.650039
10530.082477,336.755000,8.022648
10533.961906,336.799000,5.772144
10537.928455,336.844000,5.616096
10541.893946,336.889000,6.410326
10545.770289,336.933000,4.615571
10549.733685,336.978000,8.076125
10553.607982,337.022000,11.090316
10557.569284,337.067000,14.430424
10561.529529,337.112000,10.058927
10565.400747,337.156000,5.374815
10569.358902,337.201000,6.277029
10573.228076,337.245000,6.879994
10577.184142,337.290000,9.008029
10581.051275,337.334000,1.136804
10585.005254,337.379000,9.699708
10588.870347,337.423000,8.483096
10592.822240,337.468000,6.758088
10596.685295,337.512000,6.817421
10600.635105,337.557000,6.486265
10604.496123,337.601000,5.139634
10608.443850,337.646000,2.892426
10612.302834,337.690000,7.649942
10616.160811,337.734000,11.516134
10620.105430,337.779000,4.804101
10623.961375,337.823000,2.582352
10627.903916,337.868000,5.278268
10631.757830,337.912000,3.649071
10635.610740,337.956000,7.714804
10639.550179,338.001000,1.554849
10643.401061,338.045000,4.876052
10647.250940,338.089000,5.523311
10651.187281,338.134000,0.701316
10655.035134,338.178000,6.306809
10658.881986,338.222000,6.490596
10662.815231,338.267000,3.649098
10666.660059,338.311000,11.557201
10670.503887,338.355000,8.696097
10674.346716,338.399000,2.330651
10678.275848,338.444000,1.665894
10682.116656,338.488000,3.156052
10685.956465,338.532000,1.174640
10689.795276,338.576000,3.816613
10693.633090,338.620000,4.909692
10697.557096,338.665000,3.280118
10701.392893,338.709000,-1.555944
10705.227693,338.753000,2.573704
10709.061498,338.797000,5.443467
10712.894307,338.841000,1.891744
10716.726120,338.885000,-0.992682
10720.556939,338.929000,-5.390427
10724.386763,338.973000,1.497780
10728.302601,339.018000,-2.076938
10732.130414,339.062000,3.877700
10735.957235,339.106000,0.809387
10739.783062,339.150000,1.195421
10743.607897,339.194000,-4.423985
10747.431740,339.238000,1.662907
10751.254591,339.282000,5.485925
10755.076450,339.326000,1.847941
10758.897319,339.370000,0.524802
10762.717197,339.414000,3.725880
10766.536084,339.458000,6.267149
10770.353982,339.502000,0.775157
10774.170890,339.546000,4.816006
10777.986809,339.590000,-0.382182
10781.801740,339.634000,0.809929
10785.615682,339.678000,6.171449
10789.341989,339.721000,0.428039
10793.153978,339.765000,6.210884
10796.964980,339.809000,3.887451
10800.774995,339.853000,1.452574
10804.584024,339.897000,7.034195
10808.392066,339.941000,2.486981
10812.199123,339.985000,3.451965
10816.005195,340.029000,4.536312
10819.723813,340.072000,-0.021397
10823.527938,340.116000,2.192302
10827.331078,340.160000,0.036440
10831.133235,340.204000,4.518999
10834.848029,340.247000,4.541667
10838.648242,340.291000,2.534565
10842.447472,340.335000,2.063703
10846.245720,340.379000,1.200092
10849.956695,340.422000,1.124597
10853.753002,340.466000,1.847792
10857.548328,340.510000,2.557619
10861.342673,340.554000,1.540286
10865.049836,340.597000,5.079497
10868.842243,340.641000,3.778579
10872.633670,340.685000,1.817106
10876.337983,340.728000,4.956434
10880.127474,340.772000,4.767475
10883.829896,340.815000,4.859174
10887.617453,340.859000,-1.008944
10891.404033,340.903000,4.717674
10895.103609,340.946000,3.346590
10898.888257,340.990000,3.174633
10902.585946,341.033000,3.820639
10906.368663,341.077000,1.795527
10910.150404,341.121000,2.791883
10913.845254,341.164000,2.142562
10917.625066,341.208000,1.953586
10921.318033,341.251000,-0.233691
10925.095918,341.295000,5.487603
10928.787002,341.338000,-1.045090
10932.562962,341.382000,4.065877
10936.252165,341.425000,-1.532302
10939.940439,341.468000,1.570275
10943.713524,341.512000,4.102715
10947.399919,341.555000,3.223994
10951.171083,341.599000,2.074356
10954.855601,341.642000,2.361575
10958.624845,341.686000,4.256372
10962.307486,341.729000,5.638797
10965.989201,341.772000,0.102198
10969.755578,341.816000,1.586331
10973.435419,341.859000,4.154365
10977.114334,341.902000,6.634323
10980.877848,341.946000,0.177118
10984.554892,341.989000,4.144644
10988.231011,342.032000,3.446989
10991.991665,342.076000,5.120992
10995.665914,342.119000,8.148035
10999.339240,342.162000,0.873352
11003.011643,342.205000,-0.408093
11006.768496,342.249000,4.657366
11010.439032,342.292000,2.738955
11014.108646,342.335000,-5.034080
11017.777338,342.378000,0.562198
11021.530396,342.422000,1.117809
11025.197224,342.465000,2.530719
11028.863132,342.508000,-0.506473
11032.528119,342.551000,0.784748
11036.192187,342.594000,5.163203
11039.855335,342.637000,1.352383
11043.602720,342.681000,1.834238
11047.264009,342.724000,0.359755
11050.924378,342.767000,-0.998309
11054.583829,342.810000,0.868863
11058.242363,342.853000,3.417650
11061.899979,342.896000,0.146011
11065.556677,342.939000,-4.277079
11069.212459,342.982000,3.197179
11072.867324,343.025000,0.551935
11076.521273,343.068000,-0.004854
11080.174306,343.111000,-0.281640
11083.826423,343.154000,2.605867
11087.477626,343.197000,0.826505
11091.127913,343.240000,3.292966
11094.777286,343.283000,1.495075
11098.425745,343.326000,6.825160
11102.073291,343.369000,2.794969
11105.719922,343.412000,1.430867
11109.365641,343.455000,-2.317937
11113.010447,343.498000,4.746229
11116.654340,343.541000,3.493745
11120.297322,343.584000,4.372938
11123.939391,343.627000,2.390681
11127.580549,343.670000,3.734714
11131.220797,343.713000,-0.418681
11134.775508,343.755000,0.654924
11138.413955,343.798000,0.380307
11142.051492,343.841000,1.357928
11145.688120,343.884000,0.602597
11149.323838,343.927000,0.087211
11152.958647,343.970000,-2.702445
11156.508049,344.012000,1.876365
11160.141062,344.055000,5.022951
11163.773167,344.098000,-0.464363
11167.404365,344.141000,1.575974
11170.950240,344.183000,2.727569
11174.579645,344.226000,2.035323
11178.208143,344.269000,1.185273
11181.751382,344.311000,1.472444
11185.378088,344.354000,-2.954405
11189.003889,344.397000,-2.258274
11192.628785,344.440000,-2.529050
11196.168507,344.482000,-0.446285
11199.791614,344.525000,-1.487962
11203.413817,344.568000,-2.455495
11206.950910,344.610000,0.866760
11210.571327,344.653000,3.584436
11214.106675,344.695000,-0.998948
11217.725306,344.738000,1.247175
11221.343035,344.781000,0.058975
11224.875759,344.823000,5.600690
11228.491704,344.866000,1.205026
11232.022687,344.908000,0.415486
11235.636851,344.951000,0.361441
11239.166094,344.993000,-1.274823
11242.778477,345.036000,-1.869777
11246.305982,345.078000,4.222949
11249.916585,345.121000,-3.574688
11253.442353,345.163000,-2.753465
11257.051178,345.206000,3.556684
11260.575210,345.248000,6.510373
11264.182259,345.291000,0.292235
11267.704555,345.333000,1.467129
11271.309829,345.376000,-0.562042
11274.830392,345.418000,2.155284
11278.350100,345.460000,5.540094
11281.952723,345.503000,-3.756748
11285.470699,345.545000,1.977126
11288.987820,345.587000,3.645835
11292.587796,345.630000,2.355154
11296.103187,345.672000,-4.954211
11299.701393,345.715000,0.979803
11303.215056,345.757000,0.212476
11306.727865,345.799000,2.723738
11310.239821,345.841000,1.449275
11313.834512,345.884000,-0.161640
11317.344742,345.926000,-1.577076
11320.854120,345.968000,-2.065186
11324.446172,346.011000,1.850403
11327.953826,346.053000,-2.113606
11331.460629,346.095000,1.888568
11334.966581,346.137000,-1.586231
11338.471682,346.179000,-1.128879
11342.059357,346.222000,3.746424
11345.562737,346.264000,1.353135
11349.065268,346.306000,-0.720642
11352.566949,346.348000,-4.113316
11356.067781,346.390000,2.604001
11359.567764,346.432000,-2.279607
11363.150201,346.475000,0.723522
11366.648467,346.517000,-1.276909
11370.145885,346.559000,-0.146426
11373.642456,346.601000,2.300950
11377.138179,346.643000,-1.934895
11380.633055,346.685000,0.857078
11384.127085,346.727000,0.424556
11387.620268,346.769000,-2.146214
11391.112605,346.811000,1.475168
11394.604096,346.853000,3.330758
11398.094742,346.895000,-2.764606
11401.584543,346.937000,-1.958514
11405.073499,346.979000,0.640160
11408.561610,347.021000,-3.610882
11412.048877,347.063000,1.518062
11415.535301,347.105000,4.932211
11419.020880,347.147000,-3.459648
11422.505617,347.189000,-5.197916
11425.989510,347.231000,-0.978769
11429.472560,347.273000,-2.839449
11432.954769,347.315000,3.904037
11436.436135,347.357000,0.547596
11439.916659,347.399000,2.595207
11443.313502,347.440000,-1.106501
11446.792364,347.482000,0.137159
11450.270384,347.524000,-2.394244
11453.747565,347.566000,-1.910190
11457.223905,347.608000,1.701899
11460.699405,347.650000,-1.667736
11464.091345,347.691000,4.946030
11467.565186,347.733000,-1.299835
11471.038188,347.775000,0.677592
11474.510351,347.817000,-2.970156
11477.981676,347.859000,-0.404799
11481.369541,347.900000,-1.958652
11484.839210,347.942000,1.843133
11488.308041,347.984000,3.577451
11491.693473,348.025000,3.806293
11495.160650,348.067000,3.535579
11498.626991,348.109000,5.274482
11502.092494,348.151000,3.952660
11505.474680,348.192000,3.369060
11508.938532,348.234000,-0.234698
11512.401549,348.276000,-0.640735
11515.781307,348.317000,2.659498
11519.242673,348.359000,1.224415
11522.620821,348.400000,0.337971
11526.080539,348.442000,2.030079
11529.539422,348.484000,-4.131117
11532.915148,348.525000,-0.416606
11536.372384,348.567000,-5.602533
11539.746502,348.608000,-1.430960
11543.202092,348.650000,4.531576
11546.574604,348.691000,1.623498
11550.028550,348.733000,1.530167
11553.399456,348.774000,-0.137671
11556.851758,348.816000,-2.594771
11560.221061,348.857000,1.027619
11563.671720,348.899000,2.294714
11567.039420,348.940000,-3.055844
11570.488439,348.982000,0.448798
11573.854537,349.023000,0.901479
11577.301915,349.065000,1.117659
11580.666413,349.106000,2.819439
11584.030120,349.147000,-0.723644
11587.475051,349.189000,-2.881919
11590.837159,349.230000,2.486380
11594.280452,349.272000,1.816633
11597.640963,349.313000,-1.898481
11601.000686,349.354000,0.388843
11604.441535,349.396000,-0.469025
11607.799661,349.437000,-2.437310
11611.157000,349.478000,-0.298739
11614.595408,349.520000,-0.659508
11617.951152,349.561000,0.245854
11621.306109,349.602000,1.511366
11624.660280,349.643000,2.040834
11628.095443,349.685000,-1.839804
11631.448022,349.726000,-2.750404
11634.799814,349.767000,-0.379920
11638.150821,349.808000,4.337336
11641.582745,349.850000,-0.594126
11644.932162,349.891000,-3.952779
11648.280794,349.932000,4.823939
11651.628641,349.973000,4.313421
11654.975704,350.014000,-2.144082
11658.403590,350.056000,-3.283999
11661.749066,350.097000,-1.966285
11665.093759,350.138000,-3.833568
11668.437668,350.179000,-1.050306
11671.780795,350.220000,0.325240
11675.123139,350.261000,3.236769
11678.464700,350.302000,0.272640
11681.805480,350.343000,3.648600
11685.145477,350.384000,-1.346177
11688.484693,350.425000,-2.371086
11691.904543,350.467000,0.892133
11695.242178,350.508000,0.867867
11698.579032,350.549000,-3.874872
11701.915105,350.590000,-0.499052
11705.250398,350.631000,-2.773406
11708.584912,350.672000,-3.925452
11711.918645,350.713000,-2.598231
11715.251600,350.754000,-5.482920
11718.502512,350.794000,2.173108
11721.833927,350.835000,-0.190360
11725.164564,350.876000,3.761505
11728.494422,350.917000,-1.512637
11731.823503,350.958000,0.307954
11735.151806,350.999000,2.550181
11738.479331,351.040000,-0.982796
11741.806079,351.081000,-3.160021
11745.132050,351.122000,1.185244
11748.457245,351.163000,1.712647
11751.700589,351.203000,1.828181
11755.024250,351.244000,-0.526541
11758.347135,351.285000,2.035932
11761.669245,351.326000,-1.394746
11764.990579,351.367000,-0.859934
11768.230159,351.407000,2.116011
11771.549962,351.448000,0.037011
11774.868991,351.489000,-1.334747
11778.187246,351.530000,-0.427400
11781.423822,351.570000,3.421942
11784.740548,351.611000,3.600973
11788.056500,351.652000,4.573086
11791.371680,351.693000,0.296331
11794.605256,351.733000,0.977296
11797.918909,351.774000,-2.015792
11801.231790,351.815000,-4.972770
11804.463124,351.855000,0.686437
11807.774479,351.896000,-3.357915
11811.085063,351.937000,4.963556
11814.314158,351.977000,1.117291
11817.623218,352.018000,-2.401661
11820.850827,352.058000,-4.515675
11824.158365,352.099000,-2.568169
11827.465133,352.140000,-2.338406
11830.690506,352.180000,0.834877
11833.995753,352.221000,0.996336
11837.219643,352.261000,0.323652
11840.523370,352.302000,0.888846
11843.745778,352.342000,1.302889
11847.047986,352.383000,1.854410
11850.268913,352.423000,-1.751187
11853.569603,352.464000,-0.608517
11856.789050,352.504000,2.090961
11860.088224,352.545000,1.856382
11863.306191,352.585000,2.663453
11866.603850,352.626000,-1.963660
11869.820339,352.666000,-0.018693
11873.116483,352.707000,-1.437863
11876.331495,352.747000,-1.307457
11879.545777,352.787000,-1.597684
11882.839661,352.828000,-1.855626
11886.052468,352.868000,-2.549222
11889.264547,352.908000,0.282418
11892.556173,352.949000,1.820190
11895.766777,352.989000,1.242678
11899.056892,353.030000,-2.225473
11902.266024,353.070000,-0.198918
11905.474429,353.110000,2.093056
11908.682107,353.150000,-4.658596
11911.969223,353.191000,0.554350
11915.175430,353.231000,-0.481237
11918.380911,353.271000,0.456929
11921.665775,353.312000,4.077120
11924.869787,353.352000,-1.361404
11928.073073,353.392000,2.431742
11931.275634,353.432000,1.334885
11934.477470,353.472000,-1.809893
11937.758600,353.513000,0.778639
11940.958969,353.553000,1.045802
11944.158614,353.593000,-4.795298
11947.357536,353.633000,-0.033519
11950.555733,353.673000,4.248717
11953.753208,353.713000,-1.575387
11957.029868,353.754000,-3.020585
11960.225879,353.794000,-2.681546
11963.421166,353.834000,2.134319
11966.615732,353.874000,3.663224
11969.809575,353.914000,-0.345853
11973.002696,353.954000,-2.639019
11976.195096,353.994000,1.631816
11979.386774,354.034000,-2.826852
11982.577731,354.074000,0.236348
11985.767968,354.114000,-2.283545
11988.957483,354.154000,-0.996957
11992.146279,354.194000,-0.472565
11995.334354,354.234000,-0.473677
11998.521709,354.274000,-4.438002
12001.708345,354.314000,-3.731671
12004.894261,354.354000,-1.453230
12008.079458,354.394000,3.777258
12011.263936,354.434000,3.401286
12014.447695,354.474000,1.812905
12017.630736,354.514000,-0.288819
12020.813059,354.554000,-3.813463
12023.994663,354.594000,1.179056
12027.175550,354.634000,-0.247833
12030.276224,354.673000,-7.482102
12033.455694,354.713000,0.733124
12036.634448,354.753000,0.158308
12039.812484,354.793000,2.829524
12042.989804,354.833000,0.147547
12046.166408,354.873000,0.752522
12049.262907,354.912000,1.842246
12052.438097,354.952000,-0.691480
12055.612571,354.992000,1.795255
12058.786330,355.032000,0.162429
12061.880056,355.071000,-0.634041
12065.052403,355.111000,0.897784
12068.224035,355.151000,-1.358636
12071.394953,355.191000,6.149958
12074.485910,355.230000,-2.096503
12077.655418,355.270000,-3.495164
12080.824212,355.310000,-0.512077
12083.913100,355.349000,0.070867
12087.080485,355.389000,1.706502
12090.247158,355.429000,-4.251742
12093.333977,355.468000,1.004587
12096.499242,355.508000,1.324708
12099.663795,355.548000,1.207897
12102.748549,355.587000,0.902144
12105.911696,355.627000,-0.661159
12108.995079,355.666000,0.157186
12112.156822,355.706000,-0.639214
12115.317853,355.746000,-0.261579
12118.399174,355.785000,2.502073
12121.558801,355.825000,-3.065076
12124.638754,355.864000,1.379265
12127.796979,355.904000,-2.896317
12130.875565,355.943000,1.237245
12134.032389,355.983000,2.239993
12137.109608,356.022000,-1.840199
12140.265031,356.062000,-0.081008
12143.340885,356.101000,-0.580606
12146.494908,356.141000,0.267036
12149.569398,356.180000,0.065154
12152.643215,356.219000,1.230066
12155.795149,356.259000,1.094789
12158.867603,356.298000,-1.840774
12162.018139,356.338000,-0.938404
12165.089231,356.377000,-1.083530
12168.159651,356.416000,1.969384
12171.308101,356.456000,1.915545
12174.377160,356.495000,1.428464
12177.445548,356.534000,1.246649
12180.591915,356.574000,1.948557
12183.658943,356.613000,0.588183
12186.725300,356.652000,0.815345
12189.869585,356.692000,0.197361
12192.934585,356.731000,2.326304
12195.998914,356.770000,-0.870886
12199.062573,356.809000,0.757769
12202.204093,356.849000,0.003736
12205.266396,356.888000,-4.245554
12208.328030,356.927000,0.229572
12211.388995,356.966000,1.029723
12214.527751,357.006000,-2.017804
12217.587361,357.045000,-1.219480
12220.646304,357.084000,-0.790495
12223.704578,357.123000,-1.915822
12226.762184,357.162000,-1.853134
12229.819122,357.201000,-1.554291
12232.953750,357.241000,-2.071818
12236.009337,357.280000,-0.394216
12239.064257,357.319000,0.545409
12242.118510,357.358000,-1.968157
12245.172096,357.397000,1.928167
12248.225016,357.436000,-0.473981
