raman_shift_cm-1,wavelength_nm,intensity
-311.444523,246.690000,0.000000
-300.766377,246.755000,0.000000
-290.093855,246.820000,0.000000
-279.262891,246.886000,0.000000
-268.601691,246.951000,0.001000
-257.946101,247.016000,-0.014000
-247.296118,247.081000,0.261000
-236.651737,247.146000,-0.450000
-226.012953,247.211000,0.234000
-215.216219,247.277000,-0.148000
-204.588703,247.342000,-0.392000
-193.966771,247.407000,-0.749000
-183.350419,247.472000,0.053000
-172.739643,247.537000,-0.043000
-162.134437,247.602000,0.489000
-151.534799,247.667000,0.219000
-140.940722,247.732000,-0.343000
-130.352203,247.797000,0.621000
-119.769238,247.862000,0.920000
-109.191822,247.927000,0.124000
-98.619951,247.992000,0.887000
-88.053621,248.057000,-0.385500
-77.655258,248.121000,0.003500
-67.099910,248.186000,0.214500
-56.550089,248.251000,-0.258500
-46.005792,248.316000,0.067500
-35.467013,248.381000,-0.203000
-24.933749,248.446000,0.460000
-14.405995,248.511000,0.481000
-4.045586,248.575000,-0.507500
6.471245,248.640000,0.351000
16.982580,248.705000,0.867000
27.488421,248.770000,0.178000
37.827271,248.834000,0.017000
48.322224,248.899000,-0.156500
58.811696,248.964000,-0.239000
69.134442,249.028000,0.596000
79.613052,249.093000,0.959000
90.086194,249.158000,-0.510000
100.392873,249.222000,-0.155000
110.855177,249.287000,0.647500
121.312027,249.352000,0.133500
131.602677,249.416000,-0.380500
142.048715,249.481000,-0.179000
152.328727,249.545000,-0.117000
162.763968,249.610000,-0.305000
173.033359,249.674000,-0.763000
183.457821,249.739000,-0.165000
193.716607,249.803000,0.221500
204.130307,249.868000,0.127500
214.378504,249.932000,0.554000
224.781458,249.997000,-0.863500
235.019083,250.061000,1.607000
245.411309,250.126000,-1.481500
255.638378,250.190000,-1.653000
265.860216,250.254000,-2.268500
276.236420,250.319000,-6.036500
286.447727,250.383000,1.925500
296.813243,250.448000,2.617000
307.014035,250.512000,-0.316000
317.209616,250.576000,-5.285000
327.399990,250.640000,0.689000
337.744263,250.705000,-0.166000
347.924154,250.769000,-3.077000
358.098850,250.833000,-1.285500
368.268355,250.897000,-3.024500
378.591450,250.962000,-0.029500
388.750505,251.026000,-0.687500
398.904381,251.090000,1.224500
409.053082,251.154000,1.074000
419.196612,251.218000,-3.660000
429.334975,251.282000,-10.735500
439.626466,251.347000,-5.445500
449.754426,251.411000,1.516000
459.877231,251.475000,-1.590500
469.994885,251.539000,0.027000
480.107392,251.603000,0.401500
490.214756,251.667000,0.098500
500.316980,251.731000,3.754500
510.414069,251.795000,-1.345000
520.506026,251.859000,-14.314500
530.592855,251.923000,-31.733000
540.674561,251.987000,-10.781500
550.751147,252.051000,-3.967000
560.822617,252.115000,-0.221500
570.888975,252.179000,3.818000
580.950225,252.243000,-0.770000
590.849282,252.306000,2.701000
600.900407,252.370000,2.528500
610.946435,252.434000,0.833500
620.987371,252.498000,2.460500
631.023218,252.562000,2.345000
641.053980,252.626000,0.171000
650.923048,252.689000,1.776000
660.943731,252.753000,-17.029000
670.959341,252.817000,1.547000
680.969880,252.881000,16.481000
690.819058,252.944000,0.085500
700.819549,253.008000,1.409000
710.814983,253.072000,2.993000
720.805362,253.136000,0.744500
730.634708,253.199000,0.775500
740.615069,253.263000,-0.619000
750.434561,253.326000,0.420500
760.404919,253.390000,-1.430000
770.370241,253.454000,0.894000
780.174941,253.517000,2.117500
790.130283,253.581000,0.477500
799.925166,253.644000,-0.343000
809.870542,253.708000,-0.840500
819.655623,253.771000,-11.128000
829.591048,253.835000,-0.183000
839.366341,253.898000,1.052000
849.291831,253.962000,-0.329500
859.057350,254.025000,-5.143000
868.972920,254.089000,-0.468000
878.728681,254.152000,-1.402000
888.634344,254.216000,-2.578000
898.380361,254.279000,-1.441500
908.121550,254.342000,0.332000
918.012421,254.406000,0.190000
927.743888,254.469000,1.898500
937.470538,254.532000,-0.618500
947.346650,254.596000,-1.622500
957.063600,254.659000,1.541000
966.775743,254.722000,0.047500
976.637128,254.786000,-1.727500
986.339593,254.849000,2.698500
996.037261,254.912000,-2.603500
1005.730138,254.975000,0.307500
1015.571966,255.039000,0.250000
1025.255192,255.102000,0.635000
1034.933637,255.165000,1.873000
1044.607304,255.228000,2.712000
1054.276196,255.291000,3.247000
1063.940318,255.354000,-1.663500
1073.599672,255.417000,0.850000
1083.407471,255.481000,30.702000
1093.057225,255.544000,4.141000
1102.702223,255.607000,-0.235500
1112.342467,255.670000,2.292000
1121.977961,255.733000,-1.064000
1131.608710,255.796000,-4.207500
1141.234715,255.859000,-0.363500
1150.855981,255.922000,0.340500
1160.472512,255.985000,0.229000
1170.084310,256.048000,1.024500
1179.691379,256.111000,-0.392000
1189.293724,256.174000,-1.202000
1198.739040,256.236000,-1.454500
1208.332019,256.299000,1.774000
1217.920283,256.362000,4.253500
1227.503835,256.425000,-4.625000
1237.082680,256.488000,-4.026500
1246.656820,256.551000,-2.565500
1256.226260,256.614000,-2.626500
1265.639217,256.676000,-3.521000
1275.199339,256.739000,10.372500
1284.754770,256.802000,8.271500
1294.305515,256.865000,0.481000
1303.700087,256.927000,-2.372000
1313.241541,256.990000,-0.554000
1322.778319,257.053000,-0.019000
1332.310423,257.116000,-3.466500
1341.686664,257.178000,-0.521000
1351.209505,257.241000,0.636000
1360.727683,257.304000,1.769000
1370.090229,257.366000,-1.774000
1379.599165,257.429000,0.210500
1388.952622,257.491000,-4.675000
1398.452329,257.554000,-10.416000
1407.796710,257.616000,-4.166500
1417.287202,257.679000,-0.826500
1426.773053,257.742000,9.279000
1436.103810,257.804000,-1.217000
1445.580466,257.867000,0.129500
1454.902179,257.929000,0.153500
1464.369654,257.992000,2.698000
1473.682337,258.054000,0.375500
1482.990547,258.116000,2.216000
1492.444310,258.179000,-2.778500
1501.743510,258.241000,-2.458500
1511.188124,258.304000,0.116500
1520.478327,258.366000,-0.910500
1529.764072,258.428000,2.580500
1539.195025,258.491000,-0.002500
1548.471792,258.553000,-0.294000
1557.744112,258.615000,-0.003500
1567.161432,258.678000,-2.320500
1576.424794,258.740000,-0.344500
1585.683718,258.802000,0.511000
1594.938206,258.864000,0.744000
1604.337420,258.927000,2.582500
1613.582976,258.989000,3.608000
1622.824106,259.051000,-0.155500
1632.060814,259.113000,1.306500
1641.293103,259.175000,3.464000
1650.669776,259.238000,2.199000
1659.893165,259.300000,1.750000
1669.112144,259.362000,-1.642500
1678.326716,259.424000,-0.597000
1687.536886,259.486000,1.552500
1696.742655,259.548000,0.030000
1705.944027,259.610000,0.248000
1715.141005,259.672000,4.200500
1724.333592,259.734000,4.585500
1733.521792,259.796000,2.745500
1742.705607,259.858000,0.874000
1751.885041,259.920000,-0.359000
1761.060096,259.982000,1.802500
1770.230777,260.044000,4.544500
1779.397086,260.106000,-0.513000
1788.559026,260.168000,0.296500
1797.716600,260.230000,-0.125000
1806.869812,260.292000,-1.083500
1816.018664,260.354000,0.582500
1825.163160,260.416000,-0.526000
1834.155916,260.477000,-1.328000
1843.291778,260.539000,3.620000
1852.423294,260.601000,1.346500
1861.550466,260.663000,2.514000
1870.673297,260.725000,4.936500
1879.644752,260.786000,2.868500
1888.758980,260.848000,8.042500
1897.868877,260.910000,-0.662000
1906.974445,260.972000,-0.077500
1915.928928,261.033000,1.393000
1925.025918,261.095000,-0.438000
1934.118588,261.157000,-4.468500
1943.060391,261.218000,-1.416000
1952.144502,261.280000,-0.907000
1961.224302,261.342000,-4.015000
1970.153451,261.403000,0.446500
1979.224710,261.465000,0.308000
1988.145460,261.526000,0.857000
1997.208190,261.588000,-1.174500
2006.120554,261.649000,-1.475000
2015.174766,261.711000,-0.464500
2024.078756,261.772000,-1.194500
2033.124461,261.834000,3.921000
2042.020089,261.895000,-1.603500
2051.057301,261.957000,0.085500
2059.944578,262.018000,-0.906000
2068.973308,262.080000,-0.467500
2077.852245,262.141000,0.072500
2086.872506,262.203000,-3.053000
2095.743116,262.264000,-0.037000
2104.609601,262.325000,1.473500
2113.617214,262.387000,-1.794000
2122.475388,262.448000,1.289000
2131.329447,262.509000,1.307000
2140.324438,262.571000,0.673500
2149.170203,262.632000,0.016500
2158.011861,262.693000,2.929500
2166.994257,262.755000,-0.063500
2175.827640,262.816000,0.871000
2184.656923,262.877000,1.554500
2193.482109,262.938000,20.690500
2202.303202,262.999000,40.214000
2211.264711,263.061000,40.934500
2220.077557,263.122000,0.260000
2228.886318,263.183000,0.273000
2237.690997,263.244000,-0.896500
2246.491597,263.305000,0.782500
2255.288119,263.366000,-0.200000
2264.080568,263.427000,-0.860500
2272.868945,263.488000,-7.634000
2281.653255,263.549000,-7.175500
2290.577403,263.611000,-4.449000
2299.353518,263.672000,3.516000
2308.125573,263.733000,1.128500
2316.893571,263.794000,-0.733500
2325.657515,263.855000,-0.526500
2334.273836,263.915000,-0.206500
2343.029746,263.976000,0.182000
2351.781611,264.037000,5.973000
2360.529433,264.098000,0.399500
2369.273215,264.159000,3.446500
2378.012959,264.220000,0.964500
2386.748669,264.281000,-0.794000
2395.480347,264.342000,3.996000
2404.207997,264.403000,2.795000
2412.788642,264.463000,-1.201500
2421.508308,264.524000,-3.687000
2430.223953,264.585000,-0.323500
2438.935580,264.646000,0.001000
2447.643192,264.707000,-0.108000
2456.204142,264.767000,0.474000
2464.903798,264.828000,-0.254000
2473.599447,264.889000,3.098000
2482.148639,264.949000,2.755500
2490.836348,265.010000,0.495000
2499.520059,265.071000,-0.851000
2508.057516,265.131000,1.814500
2516.733303,265.192000,-1.445500
2525.405101,265.253000,0.568000
2533.930847,265.313000,-0.122000
2542.594737,265.374000,1.130500
2551.112712,265.434000,-1.444500
2559.768705,265.495000,-0.045500
2568.278918,265.555000,-0.149000
2576.927027,265.616000,-0.088500
2585.571164,265.677000,0.015500
2594.069722,265.737000,-12.561000
2602.564444,265.797000,0.768500
2611.196813,265.858000,-1.616500
2619.683805,265.918000,-0.836000
2628.308321,265.979000,-5.248000
2636.787594,266.039000,-8.556000
2645.404268,266.100000,-0.584000
2653.875831,266.160000,-3.905000
2662.343577,266.220000,14.636500
2670.948539,266.281000,11.525500
2679.408591,266.341000,17.548000
2687.864833,266.401000,11.448000
2696.458108,266.462000,5.862500
2704.906672,266.522000,8.690000
2713.351433,266.582000,2.014500
2721.792393,266.642000,-4.013000
2730.370143,266.703000,-0.672500
2738.803447,266.763000,0.175000
2747.232958,266.823000,-2.208500
2755.658679,266.883000,-1.694000
2764.220946,266.944000,-1.180500
2772.639032,267.004000,-0.804500
2781.053334,267.064000,-5.973000
2789.463857,267.124000,1.645500
2797.870602,267.184000,0.064000
2806.273573,267.244000,-1.061500
2814.672771,267.304000,1.896000
2823.068200,267.364000,2.321000
2831.459861,267.424000,9.964500
2839.847757,267.484000,0.689500
2848.231891,267.544000,-2.353500
2856.612266,267.604000,-1.082500
2864.988884,267.664000,2.012500
2873.361747,267.724000,4.560500
2881.730857,267.784000,1.719000
2890.096219,267.844000,2.934000
2898.457833,267.904000,7.201500
2906.815703,267.964000,14.776500
2915.169831,268.024000,5.527000
2923.520219,268.084000,1.019000
2931.866870,268.144000,-0.736500
2940.209787,268.204000,8.826000
2948.410016,268.263000,19.254000
2956.745534,268.323000,-1.398500
2965.077324,268.383000,-0.879000
2973.405390,268.443000,3.844000
2981.729735,268.503000,1.212500
2989.911713,268.562000,9.016000
2998.228682,268.622000,0.929000
3006.541937,268.682000,2.072000
3014.851480,268.742000,-4.106000
3023.018913,268.801000,-0.108000
3031.321101,268.861000,-0.069000
3039.619584,268.921000,0.001500
3047.776149,268.980000,-1.710500
3056.067292,269.040000,0.725500
3064.216644,269.099000,3.054000
3072.500457,269.159000,1.149500
3080.780577,269.219000,-0.346500
3088.919097,269.278000,2.415500
3097.191901,269.338000,-0.282500
3105.323232,269.397000,3.920500
3113.588730,269.457000,4.290000
3121.712881,269.516000,1.621000
3129.971082,269.576000,0.832500
3138.088063,269.635000,-0.882000
3146.338978,269.695000,1.817000
3154.448798,269.754000,1.774000
3162.692435,269.814000,-1.420500
3170.795104,269.873000,-0.616000
3178.894231,269.932000,-2.220500
3187.127001,269.992000,-3.822500
3195.218991,270.051000,-1.761000
3203.307445,270.110000,0.375000
3211.529370,270.170000,11.622000
3219.610701,270.229000,2.754500
3227.688505,270.288000,-0.728000
3235.899605,270.348000,-0.515500
3243.970299,270.407000,-0.830500
3252.037473,270.466000,0.982500
3260.101128,270.525000,6.786000
3268.297848,270.585000,3.932500
3276.354413,270.644000,5.451500
3284.407466,270.703000,-2.700000
3292.457009,270.762000,3.884000
3300.503044,270.821000,1.746500
3308.545575,270.880000,14.459500
3316.720828,270.940000,2.654500
3324.756296,270.999000,-1.189500
3332.788267,271.058000,0.536000
3340.816741,271.117000,4.464500
3348.841722,271.176000,5.937500
3356.863212,271.235000,2.072500
3364.881213,271.294000,0.853000
3372.895727,271.353000,3.435000
3380.906756,271.412000,4.454500
3388.914304,271.471000,1.058000
3396.918371,271.530000,0.906000
3404.918961,271.589000,1.005000
3412.916076,271.648000,3.893500
3420.909718,271.707000,6.527000
3428.899888,271.766000,6.066500
3436.886591,271.825000,2.999000
3444.734546,271.883000,2.455500
3452.714377,271.942000,4.243000
3460.690746,272.001000,0.085500
3468.663655,272.060000,6.785000
3476.633107,272.119000,2.260000
3484.599104,272.178000,4.047000
3492.426718,272.236000,4.199000
3500.385870,272.295000,2.771000
3508.341573,272.354000,2.073000
3516.293830,272.413000,5.608000
3524.107947,272.471000,2.201500
3532.053377,272.530000,0.895500
3539.995368,272.589000,0.669000
3547.799398,272.647000,0.591500
3555.734574,272.706000,-0.710500
3563.666318,272.765000,-4.749000
3571.460282,272.823000,5.121500
3579.385225,272.882000,1.919000
3587.306741,272.941000,-0.216500
3595.090658,272.999000,-0.399000
3603.005387,273.058000,0.966500
3610.782635,273.116000,-0.795000
3618.690585,273.175000,1.047500
3626.461173,273.233000,-0.817500
3634.362353,273.292000,-0.618000
3642.126290,273.350000,-0.486500
3650.020708,273.409000,-0.860000
3657.778002,273.467000,0.028000
3665.665667,273.526000,0.984500
3673.416327,273.584000,0.608500
3681.163701,273.642000,1.500000
3689.041282,273.701000,2.539000
3696.782035,273.759000,2.830500
3704.652885,273.818000,-0.664500
3712.387025,273.876000,-0.227500
3720.117889,273.934000,6.439000
3727.845481,273.992000,13.367500
3735.702951,274.051000,5.434000
3743.423947,274.109000,-1.300000
3751.141676,274.167000,-0.998500
3758.989119,274.226000,-2.230500
3766.700265,274.284000,1.044000
3774.408150,274.342000,-1.594000
3782.112776,274.400000,1.144500
3789.814146,274.458000,2.270500
3797.644960,274.517000,-1.593000
3805.339767,274.575000,2.593000
3813.031324,274.633000,-1.431500
3820.719634,274.691000,-0.236500
3828.404697,274.749000,-1.956000
3836.086516,274.807000,-0.716000
3843.765093,274.865000,-0.688000
3851.440431,274.923000,-0.101000
3859.112530,274.981000,-1.833500
3866.781394,275.039000,-12.414500
3874.447024,275.097000,-5.803000
3882.109423,275.155000,1.184500
3889.768591,275.213000,1.558500
3897.424533,275.271000,-0.863000
3905.077248,275.329000,-0.261500
3912.726740,275.387000,1.241500
3920.373011,275.445000,1.319500
3928.016062,275.503000,2.436000
3935.655896,275.561000,13.952000
3943.292514,275.619000,0.558000
3950.925919,275.677000,-3.122500
3958.424585,275.734000,-1.492500
3966.051625,275.792000,1.687500
3973.675457,275.850000,1.419000
3981.296084,275.908000,8.807000
3988.913508,275.966000,19.932500
3996.396478,276.023000,6.587500
4004.007557,276.081000,1.204500
4011.615438,276.139000,2.920000
4019.220124,276.197000,0.650500
4026.690584,276.254000,-0.987500
4034.288940,276.312000,-0.792500
4041.884108,276.370000,3.061000
4049.345219,276.427000,0.023000
4056.934068,276.485000,-1.587500
4064.519735,276.543000,-1.928000
4071.971515,276.600000,-0.146500
4079.550876,276.658000,-4.861500
4086.996462,276.715000,7.910500
4094.569525,276.773000,-47.474000
4102.008927,276.830000,-21.048500
4109.575700,276.888000,-1.686500
4117.008923,276.945000,1.592000
4124.569414,277.003000,0.078000
4131.996467,277.060000,1.479500
4139.550684,277.118000,9.415000
4146.971575,277.175000,5.739000
4154.519525,277.233000,-18.649000
4161.934262,277.290000,-3.787500
4169.475953,277.348000,-2.135500
4228.011654,277.799000,1.218500
4235.396210,277.856000,0.739000
4242.907211,277.914000,0.022500
4250.415077,277.972000,4.508500
4257.790445,278.029000,2.274500
4265.292102,278.087000,0.511500
4272.790631,278.145000,5.338000
4280.156828,278.202000,4.756000
4287.649159,278.260000,0.342000
4295.138368,278.318000,-11.202000
4302.495411,278.375000,-0.961500
4309.978434,278.433000,-0.408000
4317.329402,278.490000,-3.758500
4324.806246,278.548000,2.788500
4332.151147,278.605000,5.270000
4339.621821,278.663000,-3.988500
4346.960661,278.720000,5.274000
4354.425172,278.778000,11.255000
4361.757959,278.835000,11.131000
4369.216314,278.893000,2.101500
4376.543056,278.950000,3.172000
4383.995264,279.008000,4.048500
4391.315968,279.065000,1.492500
4398.762036,279.123000,2.917000
4406.076709,279.180000,-0.680500
4413.516644,279.238000,-2.349500
4420.825295,279.295000,0.989500
4428.130962,279.352000,0.139000
4435.561740,279.410000,0.672000
4442.861395,279.467000,4.461500
4450.158074,279.524000,0.509000
4457.579711,279.582000,0.046500
4464.870389,279.639000,-0.692000
4472.158095,279.696000,1.578500
4479.570607,279.754000,-0.051500
4486.852324,279.811000,0.555500
4494.131074,279.868000,1.864000
4501.534479,279.926000,0.700500
4508.807251,279.983000,2.159500
4516.077062,280.040000,5.330000
4523.343914,280.097000,0.080500
4530.735220,280.155000,2.859500
4537.996108,280.212000,1.865000
4545.254043,280.269000,-0.271000
4552.509026,280.326000,-1.319000
4559.888262,280.384000,-0.228000
4567.137295,280.441000,-2.528000
4574.383383,280.498000,0.773000
4581.626526,280.555000,0.553500
4588.866727,280.612000,0.835000
4596.103987,280.669000,-0.622500
4603.338308,280.726000,1.217500
4610.696532,280.784000,-1.094000
4617.924929,280.841000,0.947000
4625.150392,280.898000,-1.883500
4632.372923,280.955000,-1.450000
4639.592525,281.012000,0.456500
4646.809198,281.069000,2.203500
4654.022945,281.126000,1.633000
4661.233767,281.183000,2.944500
4668.441666,281.240000,-0.031000
4675.646644,281.297000,-3.701000
4682.848703,281.354000,-1.491500
4690.047844,281.411000,0.576500
4697.244070,281.468000,0.514000
4704.437381,281.525000,0.683000
4711.627780,281.582000,1.919000
4718.815269,281.639000,-1.914500
4725.999849,281.696000,0.403500
4733.181522,281.753000,22.282500
4740.360290,281.810000,8.192000
4747.536154,281.867000,0.433000
4754.583300,281.923000,1.193000
4761.753414,281.980000,1.108500
4768.920629,282.037000,5.643500
4776.084949,282.094000,0.670500
4783.246373,282.151000,0.586500
4790.404904,282.208000,-0.568000
4797.435032,282.264000,-0.141500
4804.587834,282.321000,2.058500
4811.737748,282.378000,5.094500
4818.884776,282.435000,-16.418000
4826.028920,282.492000,1.375000
4833.044920,282.548000,-1.389000
4840.183352,282.605000,-13.675500
4847.318904,282.662000,3.331500
4854.451579,282.719000,22.400500
4861.456319,282.775000,3.296500
4868.583295,282.832000,1.108000
4875.707399,282.889000,-0.932000
4882.703723,282.945000,-0.967000
4889.822139,283.002000,-0.001000
4896.937687,283.059000,2.274000
4903.925611,283.115000,1.016000
4911.035481,283.172000,3.058000
4918.142490,283.229000,4.244000
4925.122029,283.285000,0.903500
4932.223369,283.342000,1.714500
4939.197342,283.398000,-2.859500
4946.293021,283.455000,-0.876500
4953.385847,283.512000,1.782500
4960.351460,283.568000,-0.585500
4967.438635,283.625000,0.897000
4974.398699,283.681000,0.257500
4981.480229,283.738000,-0.238500
4988.434752,283.794000,0.630000
4995.510644,283.851000,-2.274000
5002.459631,283.907000,-2.152500
5009.529893,283.964000,-2.854500
5016.473351,284.020000,2.219500
5023.537988,284.077000,1.976000
5030.475924,284.133000,3.099500
5037.534943,284.190000,2.835000
5044.467363,284.246000,2.029000
5051.397052,284.302000,-5.818500
5058.447683,284.359000,0.218000
5065.371866,284.415000,-4.230000
5072.416896,284.472000,-6.151500
5079.335580,284.528000,0.648500
5086.251541,284.584000,1.076500
5093.288207,284.641000,1.592500
5100.198678,284.697000,2.753000
5107.106432,284.753000,-3.570000
5114.134748,284.810000,1.788500
5121.037022,284.866000,3.111000
5127.936582,284.922000,-0.092000
5134.833431,284.978000,3.008500
5141.850655,285.035000,3.516500
5148.742037,285.091000,4.486000
5155.630712,285.147000,1.286000
5162.516682,285.203000,1.951500
5169.522840,285.260000,2.190000
5176.403356,285.316000,3.217500
5183.281172,285.372000,-0.524000
5190.156289,285.428000,-0.194000
5197.028709,285.484000,4.028000
5204.021082,285.541000,3.981000
5210.888064,285.597000,-1.186000
5217.752353,285.653000,-0.812000
5224.613952,285.709000,2.972500
5231.472862,285.765000,2.128000
5238.329083,285.821000,1.710500
5245.182619,285.877000,-0.524000
5252.033470,285.933000,3.240500
5258.881638,285.989000,2.862000
5265.727125,286.045000,2.407000
5272.569932,286.101000,3.633500
5279.532182,286.158000,-0.194500
5286.369586,286.214000,7.542000
5293.204315,286.270000,8.278000
5300.036371,286.326000,1.653500
5306.865755,286.382000,0.837000
5313.692468,286.438000,3.357500
5320.516513,286.494000,3.496500
5327.216104,286.549000,1.863000
5334.034863,286.605000,5.945000
5340.850958,286.661000,9.427000
5347.664391,286.717000,4.135000
5354.475163,286.773000,5.327000
5361.283275,286.829000,3.386500
5368.088729,286.885000,5.007000
5374.891528,286.941000,1.557500
5381.691671,286.997000,4.419500
5388.489161,287.053000,3.628500
5395.162686,287.108000,4.212500
5401.954922,287.164000,3.528000
5408.744509,287.220000,4.298000
5415.531448,287.276000,-1.744000
5422.315743,287.332000,-1.909500
5428.976316,287.387000,2.177500
5435.755371,287.443000,-1.595500
5442.531785,287.499000,1.272000
5449.305560,287.555000,-0.870500
5456.076697,287.611000,2.351000
5462.724355,287.666000,5.020500
5469.490268,287.722000,5.532000
5476.253548,287.778000,7.073000
5482.893494,287.833000,4.297500
5489.651559,287.889000,2.365500
5496.406995,287.945000,0.254000
5503.039242,288.000000,2.090000
5509.789473,288.056000,3.375500
5516.537079,288.112000,0.513000
5523.161640,288.167000,0.333500
5529.904050,288.223000,4.933000
5536.643840,288.279000,5.987500
5543.260729,288.334000,5.664500
5549.995332,288.390000,8.856500
5556.607128,288.445000,4.280000
5563.336549,288.501000,6.000500
5569.943259,288.556000,8.728500
5576.667504,288.612000,4.839000
5583.269134,288.667000,5.039500
5589.988209,288.723000,0.753000
5596.584764,288.778000,-5.415000
5603.298676,288.834000,2.250000
5609.890162,288.889000,-11.081500
5616.598916,288.945000,-18.386500
5623.185340,289.000000,-2.253500
5629.888941,289.056000,3.667500
5636.470308,289.111000,4.111000
5643.168763,289.167000,4.250000
5649.745079,289.222000,3.442000
5656.438394,289.278000,3.927000
5663.009664,289.333000,-1.656000
5669.578437,289.388000,-28.348000
5676.264076,289.444000,0.833000
5682.827812,289.499000,4.875000
5689.389054,289.554000,2.892000
5696.067030,289.610000,4.069500
5702.623244,289.665000,4.557500
5709.176969,289.720000,4.668500
5715.847296,289.776000,4.937000
5722.396001,289.831000,-9.538500
5728.942221,289.886000,2.500500
5735.485958,289.941000,2.367000
5742.146122,289.997000,3.357000
5748.684850,290.052000,3.213000
5755.221100,290.107000,1.701500
5761.754871,290.162000,0.573500
5768.404894,290.218000,-1.089000
5774.933669,290.273000,-1.015000
5781.459971,290.328000,-9.529000
5787.983800,290.383000,-5.263000
5794.505158,290.438000,6.654000
5801.142550,290.494000,8.007500
5807.658926,290.549000,8.422500
5814.172835,290.604000,4.183000
5820.684279,290.659000,6.235000
5827.193260,290.714000,6.741000
5833.699778,290.769000,7.745500
5840.203835,290.824000,16.653000
5846.705432,290.879000,8.153500
5853.204572,290.934000,7.458500
5859.701254,290.989000,5.302000
5866.195481,291.044000,4.912000
5872.687254,291.099000,3.619500
5879.176574,291.154000,3.014500
5885.663444,291.209000,4.476000
5892.147863,291.264000,3.919500
5898.629834,291.319000,0.773000
5905.109357,291.374000,2.080500
5911.586435,291.429000,3.301500
5918.061069,291.484000,6.871000
5924.533260,291.539000,3.202500
5931.003009,291.594000,4.071000
5937.470318,291.649000,2.060000
5943.935188,291.704000,-1.146000
5950.397621,291.759000,4.892500
5956.857618,291.814000,6.600000
5963.315180,291.869000,5.607000
5969.770309,291.924000,11.483000
5976.105706,291.978000,10.724000
5982.556017,292.033000,5.723500
5989.003898,292.088000,5.340500
5995.449352,292.143000,6.462500
6001.892379,292.198000,5.335000
6008.215901,292.252000,5.682500
6014.654123,292.307000,1.342500
6021.089923,292.362000,-5.430500
6027.523303,292.417000,5.500500
6033.954262,292.472000,13.911000
6040.265942,292.526000,10.140500
6046.692111,292.581000,4.684500
6053.115864,292.636000,4.210500
6059.420472,292.690000,5.521500
6065.839442,292.745000,5.981000
6072.256000,292.800000,4.782500
6078.553548,292.854000,5.631000
6084.965331,292.909000,4.942000
6091.374707,292.964000,5.733000
6097.665207,293.018000,6.384000
6104.069816,293.073000,6.154500
6110.472021,293.128000,4.641000
6116.755485,293.182000,5.453000
6123.152931,293.237000,4.887500
6129.431725,293.291000,2.011000
6135.824417,293.346000,-16.723500
6142.098547,293.400000,-0.185000
6148.486490,293.455000,-8.740500
6154.872040,293.510000,2.997000
6161.139160,293.564000,6.236500
6167.519969,293.619000,6.502000
6173.782438,293.673000,4.702500
6180.158512,293.728000,3.121500
6186.416334,293.782000,5.730000
6192.787678,293.837000,4.841000
6199.040859,293.891000,5.388000
6205.291742,293.945000,3.859500
6211.656022,294.000000,6.726000
6217.902272,294.054000,5.279500
6224.261835,294.109000,2.657500
6230.503456,294.163000,2.079500
6236.742786,294.217000,3.197500
6243.095305,294.272000,2.915500
6249.330014,294.326000,5.360000
6255.677829,294.381000,8.481500
6261.907923,294.435000,1.551500
6268.135731,294.489000,4.734000
6274.476522,294.544000,5.861500
6280.699722,294.598000,-12.771000
6286.920642,294.652000,-39.575500
6293.139281,294.706000,3.226000
6299.470739,294.761000,7.505000
6305.684781,294.815000,5.698000
6311.896546,294.869000,7.530500
6318.106037,294.923000,-0.564000
6324.428182,294.978000,5.536000
6330.633085,295.032000,11.854000
6336.835717,295.086000,7.810500
6343.036080,295.140000,7.887500
6349.234174,295.194000,8.984500
6355.544717,295.249000,8.282500
6361.738236,295.303000,6.010500
6367.929490,295.357000,7.117000
6374.118480,295.411000,6.801000
6380.305209,295.465000,5.102500
6386.489676,295.519000,3.562000
6392.671884,295.573000,5.355500
6398.851833,295.627000,3.847000
6405.143905,295.682000,11.156000
6411.319300,295.736000,14.564000
6417.492439,295.790000,9.890500
6423.663325,295.844000,5.558500
6429.831958,295.898000,6.115000
6435.998340,295.952000,6.054500
6442.162473,296.006000,5.689000
6448.324357,296.060000,2.989000
6454.483993,296.114000,4.332500
6460.641384,296.168000,-0.501000
6466.796529,296.222000,-2.947000
6472.949431,296.276000,-2.532500
6479.100090,296.330000,-11.255500
6485.248508,296.384000,5.709000
6491.280888,296.437000,8.278500
6497.424869,296.491000,7.844000
6503.566612,296.545000,4.895000
6509.706118,296.599000,1.687000
6515.843390,296.653000,-2.075500
6521.978427,296.707000,3.441500
6528.111232,296.761000,3.011500
6534.241805,296.815000,5.450000
6540.256681,296.868000,6.565000
6546.382836,296.922000,1.874000
6552.506763,296.976000,2.194500
6558.628464,297.030000,2.502500
6564.747939,297.084000,3.678500
6570.751928,297.137000,3.634500
6576.866997,297.191000,1.704500
6582.979845,297.245000,3.310500
6589.090471,297.299000,5.778500
6595.085780,297.352000,4.996000
6601.192010,297.406000,3.121000
6607.296023,297.460000,5.736000
6613.397821,297.514000,4.691500
6619.384468,297.567000,5.228500
6625.481879,297.621000,3.809500
6631.577077,297.675000,5.206000
6637.557251,297.728000,10.687500
6643.648069,297.782000,10.376500
6649.623947,297.835000,5.816500
6655.710390,297.889000,4.766000
6661.794627,297.943000,5.935000
6667.764048,297.996000,4.689000
6673.843917,298.050000,-5.886000
6679.809053,298.103000,-28.490500
6685.884559,298.157000,6.375000
6691.957864,298.211000,6.944500
6697.916562,298.264000,7.479000
6703.985510,298.318000,8.214500
6709.939935,298.371000,6.878000
6716.004532,298.425000,3.625000
6721.954688,298.478000,6.634000
6728.014938,298.532000,7.270000
6733.960830,298.585000,7.616000
6739.904611,298.638000,6.724000
6745.958369,298.692000,13.839000
6751.897893,298.745000,6.346500
6757.947317,298.799000,1.939500
6763.882588,298.852000,2.458000
6769.927680,298.906000,9.507000
6775.858703,298.959000,7.981500
6781.787624,299.012000,3.940500
6787.826249,299.066000,3.292000
6793.750928,299.119000,1.878500
6799.673508,299.172000,3.341000
6805.705677,299.226000,3.166500
6811.624022,299.279000,4.806000
6817.540272,299.332000,6.150000
6823.565994,299.386000,6.759000
6829.478016,299.439000,6.338000
6835.387945,299.492000,0.426500
6841.407231,299.546000,7.403500
6847.312940,299.599000,4.367500
6853.216559,299.652000,5.851000
6859.118090,299.705000,3.677500
6865.017534,299.758000,4.894000
6871.026143,299.812000,6.283000
6876.921378,299.865000,3.755000
6882.814529,299.918000,3.069000
6888.705597,299.971000,5.440500
6894.594584,300.024000,4.791000
6900.592545,300.078000,5.390500
6906.477333,300.131000,6.545500
6912.360044,300.184000,7.387000
6918.240677,300.237000,7.676000
6924.119235,300.290000,5.425500
6929.995718,300.343000,6.385000
6935.870127,300.396000,5.346500
6941.742464,300.449000,5.257000
6947.612730,300.502000,1.155000
6953.480925,300.555000,5.270000
6959.347051,300.608000,7.271500
6965.211108,300.661000,4.636000
6971.073099,300.714000,6.753000
6976.933024,300.767000,6.816000
6982.790884,300.820000,8.401000
6988.646680,300.873000,6.457500
6994.500413,300.926000,6.138500
7000.352085,300.979000,7.461000
7006.201696,301.032000,6.215000
7012.049248,301.085000,7.412500
7017.894742,301.138000,5.863500
7023.738178,301.191000,5.729500
7029.579559,301.244000,14.878500
7035.418884,301.297000,10.588000
7041.256155,301.350000,19.770000
7047.091373,301.403000,41.336500
7052.924539,301.456000,55.423000
7058.645653,301.508000,4.058000
7064.474758,301.561000,4.862500
7070.301814,301.614000,4.639000
7076.126822,301.667000,9.329000
7081.949784,301.720000,4.573500
7087.660892,301.772000,6.743000
7093.479803,301.825000,4.663500
7099.296670,301.878000,6.676000
7105.111496,301.931000,6.446500
7110.814624,301.983000,5.302000
7116.625408,302.036000,10.768000
7122.434152,302.089000,10.336500
7128.240858,302.142000,8.705500
7133.936024,302.194000,5.821000
7139.738696,302.247000,6.061000
7145.539334,302.300000,12.532000
7151.228549,302.352000,7.178000
7157.025159,302.405000,8.477500
7162.819737,302.458000,3.727000
7168.503010,302.510000,4.478500
7174.293567,302.563000,4.579500
7180.082095,302.616000,6.757000
7185.759436,302.668000,8.531500
7191.543949,302.721000,7.978000
7197.217352,302.773000,-4.507000
7202.997854,302.826000,3.091500
7208.667324,302.878000,5.358000
7214.443819,302.931000,3.347000
7220.109360,302.983000,16.468000
7225.881853,303.036000,5.247000
7231.543468,303.088000,5.970000
7237.311962,303.141000,17.810000
7242.969657,303.193000,25.226500
7248.734156,303.246000,17.267000
7254.387934,303.298000,20.548000
7260.148443,303.351000,7.903500
7265.798308,303.403000,6.678500
7271.554831,303.456000,7.715500
7277.200787,303.508000,7.518000
7282.953328,303.561000,7.639000
7288.595379,303.613000,9.624500
7294.235498,303.665000,8.247500
7299.982093,303.718000,13.204500
7305.618313,303.770000,6.700500
7311.252604,303.822000,7.192000
7316.993262,303.875000,3.258500
7322.623660,303.927000,7.716500
7328.252131,303.979000,6.128000
7333.986862,304.032000,5.057000
7339.611446,304.084000,7.687000
7345.234108,304.136000,9.027000
7350.962920,304.189000,12.101000
7356.581700,304.241000,9.498500
7362.198561,304.293000,8.969000
7367.813502,304.345000,3.824000
7373.426525,304.397000,5.972500
7379.145517,304.450000,14.259500
7384.754669,304.502000,18.717500
7390.361906,304.554000,7.947500
7395.967228,304.606000,6.758000
7401.570637,304.658000,6.937500
7407.279836,304.711000,7.836500
7412.879384,304.763000,9.125000
7418.477021,304.815000,8.183000
7424.072749,304.867000,6.355500
7429.666569,304.919000,8.864000
7435.258480,304.971000,8.758500
7440.848486,305.023000,3.924500
7446.436585,305.075000,8.574000
7452.022780,305.127000,7.183000
7457.607071,305.179000,5.922000
7463.296795,305.232000,4.996000
7468.877245,305.284000,9.583500
7474.455794,305.336000,5.314000
7480.032444,305.388000,6.895500
7485.607195,305.440000,7.022000
7491.180048,305.492000,7.936500
7496.751004,305.544000,5.931500
7502.212985,305.595000,5.915500
7507.780187,305.647000,8.842500
7513.345495,305.699000,8.652000
7518.908909,305.751000,8.747000
7524.470432,305.803000,8.984000
7530.030064,305.855000,11.643500
7535.587805,305.907000,5.305000
7541.143658,305.959000,4.827500
7546.697622,306.011000,28.707000
7552.249699,306.063000,10.177500
7557.693173,306.114000,9.056500
7563.241514,306.166000,7.882500
7568.787971,306.218000,7.520000
7574.332545,306.270000,6.446500
7579.875237,306.322000,6.306000
7585.416047,306.374000,5.292500
7590.848476,306.425000,8.877000
7596.385562,306.477000,-11.962500
7601.920769,306.529000,-8.361000
7607.454098,306.581000,6.203000
7612.879195,306.632000,4.237500
7618.408808,306.684000,-1.252500
7623.936546,306.736000,5.856500
7629.462411,306.788000,-4.715000
7634.880189,306.839000,-37.673500
7640.402345,306.891000,1.436000
7645.922629,306.943000,8.707000
7651.334938,306.994000,10.699500
7656.851519,307.046000,19.062500
7662.260197,307.097000,9.419000
7667.773079,307.149000,5.572000
7673.284094,307.201000,4.152500
7678.687317,307.252000,0.153500
7684.194638,307.304000,-8.739000
7689.700096,307.356000,4.962000
7695.097870,307.407000,5.126500
7700.599639,307.459000,7.710000
7705.993798,307.510000,11.377000
7711.491883,307.562000,8.779000
7716.882430,307.613000,6.915500
7722.376833,307.665000,10.310000
7727.763772,307.716000,8.132000
7733.254498,307.768000,9.925000
7738.637831,307.819000,4.180500
7744.124884,307.871000,9.521500
7749.504617,307.922000,10.286000
7754.988000,307.974000,13.037500
7760.364134,308.025000,29.826000
7765.738489,308.076000,9.605500
7771.216392,308.128000,7.319500
7776.587155,308.179000,8.448000
7782.061397,308.231000,4.887500
7787.428571,308.282000,7.010000
7792.793970,308.333000,10.596000
7798.262745,308.385000,4.843500
7803.624561,308.436000,5.490500
7808.984603,308.487000,6.275500
7814.447920,308.539000,5.591500
7819.804385,308.590000,3.931500
7825.159080,308.641000,-17.327000
7830.616947,308.693000,4.720500
7835.968069,308.744000,6.803000
7841.317424,308.795000,7.118000
7846.665012,308.846000,6.090500
7852.115636,308.898000,11.147000
7857.459659,308.949000,7.781500
7862.801917,309.000000,8.159500
7868.142413,309.051000,8.277000
7873.481146,309.102000,3.528500
7878.922746,309.154000,2.017500
7884.257923,309.205000,5.450500
7889.591340,309.256000,4.294000
7894.922998,309.307000,7.215000
7900.252898,309.358000,5.890500
7905.581041,309.409000,7.078000
7910.907428,309.460000,7.873000
7916.336447,309.512000,8.976000
7921.659290,309.563000,8.927500
7926.980379,309.614000,9.438000
7932.299715,309.665000,12.307000
7937.617300,309.716000,7.591000
7942.933134,309.767000,7.930000
7948.247217,309.818000,8.291000
7953.559551,309.869000,6.611500
7958.870137,309.920000,10.014500
7964.178976,309.971000,12.643000
7969.486068,310.022000,9.764000
7974.791414,310.073000,7.018500
7980.095015,310.124000,8.357500
7985.396872,310.175000,6.905000
7990.696985,310.226000,5.686500
7995.995357,310.277000,3.793000
8001.291987,310.328000,6.714500
8006.586876,310.379000,6.640000
8011.880026,310.430000,6.973000
8017.067700,310.480000,7.051000
8022.357406,310.531000,8.905000
8027.645376,310.582000,8.137500
8032.931609,310.633000,7.765500
8038.216106,310.684000,8.988000
8043.498869,310.735000,8.946500
8048.779898,310.786000,8.534000
8053.955695,310.836000,8.476500
8059.233293,310.887000,13.466000
8064.509160,310.938000,22.876500
8069.783296,310.989000,10.113000
8074.952339,311.039000,8.731500
8080.223051,311.090000,9.045500
8085.492035,311.141000,12.027000
8090.759292,311.192000,5.988500
8095.921594,311.242000,6.229000
8101.185433,311.293000,5.169000
8106.447548,311.344000,-2.054500
8111.604811,311.394000,4.874000
8116.863513,311.445000,8.097500
8122.120493,311.496000,6.508000
8127.272724,311.546000,4.913500
8132.526297,311.597000,12.872000
8137.778150,311.648000,12.192000
8142.925357,311.698000,8.735500
8148.173807,311.749000,12.532000
8153.420541,311.800000,18.606500
8158.562731,311.850000,3.848000
8163.806066,311.901000,9.408500
8168.944927,311.951000,8.008500
8174.184869,312.002000,9.339500
8179.320403,312.052000,12.716500
8184.556953,312.103000,9.986000
8189.689165,312.153000,8.626000
8194.922327,312.204000,9.591500
8200.051219,312.254000,8.150500
8205.280996,312.305000,5.422000
8210.406572,312.355000,7.527000
8215.632968,312.406000,6.189500
8220.755230,312.456000,15.779500
8225.978248,312.507000,8.207000
8231.097200,312.557000,9.119500
8236.316843,312.608000,8.335000
8241.432488,312.658000,8.895000
8246.546497,312.708000,10.862000
8251.761101,312.759000,5.820000
8256.871808,312.809000,9.808000
8261.980881,312.859000,10.941000
8267.190453,312.910000,18.565500
8272.296229,312.960000,7.809500
8277.400373,313.010000,7.623500
8282.604921,313.061000,9.957000
8287.705773,313.111000,6.142000
8292.804996,313.161000,5.299000
8298.004526,313.212000,8.033000
8303.100462,313.262000,9.009000
8308.194770,313.312000,14.066000
8313.287453,313.362000,10.612000
8318.480316,313.413000,8.983000
8323.569717,313.463000,7.176000
8328.657496,313.513000,8.163000
8333.743651,313.563000,7.686000
8338.828185,313.613000,10.005500
8344.012739,313.664000,10.202000
8349.094000,313.714000,7.008500
8354.173640,313.764000,12.015000
8359.251662,313.814000,7.664500
8364.328066,313.864000,12.996000
8369.402853,313.914000,9.641500
8374.476024,313.964000,8.275000
8379.547579,314.014000,6.266000
8384.718901,314.065000,6.535000
8389.787195,314.115000,9.797000
8394.853876,314.165000,5.896000
8399.918944,314.215000,17.128000
8404.982400,314.265000,8.788500
8410.044246,314.315000,9.599500
8415.104481,314.365000,6.005500
8420.163107,314.415000,6.747500
8425.220124,314.465000,9.488000
8430.275533,314.515000,9.952000
8435.329336,314.565000,9.146500
8440.381532,314.615000,6.464500
8445.432122,314.665000,8.989500
8450.481107,314.715000,11.098500
8455.528489,314.765000,12.372000
8460.473367,314.814000,9.574000
8465.517575,314.864000,9.163000
8470.560181,314.914000,8.571000
8475.601186,314.964000,6.819500
8480.640590,315.014000,6.293000
8485.678395,315.064000,3.157500
8490.714602,315.114000,11.510000
8495.749210,315.164000,11.751000
8500.681577,315.213000,9.616500
8505.713024,315.263000,9.835500
8510.742875,315.313000,9.641000
8515.771131,315.363000,10.008500
8520.797793,315.413000,10.406500
8525.722375,315.462000,4.833000
8530.745883,315.512000,-5.886000
8535.767799,315.562000,9.150000
8540.788124,315.612000,10.338500
8545.706499,315.661000,8.969500
8550.723675,315.711000,8.204500
8555.739262,315.761000,10.948000
8560.652997,315.810000,10.250000
8565.665441,315.860000,9.633500
8570.676298,315.910000,7.363500
8575.585399,315.959000,9.885000
8580.593116,316.009000,9.791500
8585.599249,316.059000,8.680000
8590.503723,316.108000,9.016000
8595.506721,316.158000,10.875000
8600.508137,316.208000,11.876000
8605.407991,316.257000,9.058500
8610.406276,316.307000,10.300000
8615.303063,316.356000,11.557000
8620.298221,316.406000,-4.019000
8625.191944,316.455000,8.194000
8630.183977,316.505000,8.381000
8635.074640,316.554000,7.525500
8640.063551,316.604000,7.516000
8644.951156,316.653000,12.157500
8649.936949,316.703000,5.801500
8654.821499,316.752000,8.612000
8659.804175,316.802000,9.325500
8664.685673,316.851000,12.172000
8669.665237,316.901000,10.946500
8674.543685,316.950000,6.454000
8679.520139,317.000000,9.814500
8684.395541,317.049000,9.150500
8689.269436,317.098000,10.506500
8694.241247,317.148000,8.478500
8699.112100,317.197000,17.506000
8703.981448,317.246000,12.544000
8708.948621,317.296000,12.472000
8713.814931,317.345000,11.691500
8718.779005,317.395000,10.186000
8723.642281,317.444000,3.015500
8728.504055,317.493000,9.169000
8733.364329,317.542000,10.155000
8738.322247,317.592000,10.535500
8743.179491,317.641000,8.262000
8748.035237,317.690000,9.173500
8752.889486,317.739000,8.258000
8757.841258,317.789000,10.541500
8762.692483,317.838000,10.241500
8767.542212,317.887000,22.710000
8772.390446,317.936000,8.552000
8777.336084,317.986000,10.672500
8782.181300,318.035000,7.400500
8787.025024,318.084000,11.100500
8791.867255,318.133000,14.529500
8796.707995,318.182000,12.732000
8801.547244,318.231000,7.537000
8806.385003,318.280000,11.073000
8811.319957,318.330000,-5.449500
8816.154708,318.379000,7.399000
8820.987971,318.428000,9.128000
8825.819746,318.477000,10.349000
8830.650035,318.526000,12.099500
8835.478838,318.575000,11.212000
8840.306156,318.624000,12.231500
8845.131990,318.673000,13.398500
8849.956339,318.722000,10.984500
8854.779206,318.771000,10.153500
8859.600590,318.820000,13.055000
8864.420492,318.869000,12.143500
8869.238913,318.918000,7.322000
8874.055854,318.967000,10.360000
8878.871314,319.016000,9.556000
8883.685296,319.065000,14.268500
8888.497800,319.114000,10.992500
8893.308826,319.163000,23.876000
8898.118374,319.212000,4.852500
8902.926447,319.261000,11.252500
8907.634964,319.309000,12.746500
8912.440116,319.358000,11.498000
8917.243794,319.407000,10.762000
8922.045998,319.456000,10.647000
8926.846729,319.505000,10.571000
8931.645988,319.554000,12.956500
8936.443775,319.603000,7.981500
8941.142222,319.651000,11.088500
8945.937098,319.700000,13.822500
8950.730504,319.749000,12.697500
8955.522441,319.798000,12.319000
8960.215161,319.846000,13.292500
8965.004192,319.895000,14.533000
8969.791757,319.944000,12.980500
8974.577855,319.993000,8.456000
8979.264858,320.041000,10.990500
8984.048055,320.090000,11.164500
8988.829789,320.139000,12.867500
8993.512517,320.187000,14.115000
8998.291355,320.236000,14.312500
9003.068730,320.285000,13.476000
9007.747190,320.333000,13.351000
9012.521672,320.382000,12.193500
9017.294694,320.431000,12.204500
9021.968893,320.479000,13.115000
9026.739026,320.528000,6.203500
9031.410396,320.576000,14.761500
9036.177644,320.625000,17.582500
9040.943434,320.674000,16.808000
9045.610552,320.722000,13.280000
9050.373460,320.771000,14.976500
9055.037756,320.819000,15.787000
9059.797784,320.868000,13.256500
9064.459261,320.916000,15.274500
9069.216413,320.965000,14.648500
9073.875072,321.013000,13.921000
9078.629350,321.062000,14.957500
9083.285194,321.110000,13.713000
9088.036601,321.159000,12.710000
9092.689634,321.207000,12.396500
9097.438171,321.256000,7.347500
9102.088394,321.304000,13.045500
9106.737229,321.352000,36.295500
9111.481482,321.401000,29.870500
9116.127511,321.449000,15.150500
9120.868902,321.498000,13.520000
9125.512128,321.546000,15.040000
9130.153968,321.594000,10.521000
9134.891085,321.643000,13.802000
9139.530126,321.691000,13.004500
9144.167783,321.739000,25.831500
9148.900630,321.788000,18.504000
9153.535492,321.836000,20.324500
9158.168971,321.884000,14.058500
9162.801069,321.932000,15.664500
9167.528244,321.981000,19.262500
9172.157551,322.029000,16.189000
9176.785479,322.077000,19.941500
9181.412027,322.125000,18.324500
9186.133540,322.174000,17.425500
9190.757302,322.222000,19.278000
9195.379688,322.270000,17.997000
9200.000697,322.318000,14.151500
9204.620330,322.366000,11.325000
9209.334786,322.415000,8.529000
9213.951640,322.463000,19.234000
9218.567119,322.511000,16.034500
9223.181225,322.559000,14.325000
9227.793957,322.607000,7.001500
9232.405318,322.655000,10.022500
9237.015306,322.703000,18.391500
9241.623923,322.751000,16.699500
9246.231170,322.799000,14.788000
9250.932988,322.848000,14.222500
9255.537466,322.896000,15.234000
9260.140576,322.944000,15.090000
9264.742318,322.992000,18.185500
9269.342693,323.040000,16.644500
9273.941700,323.088000,24.881500
9278.539341,323.136000,13.867500
9283.135616,323.184000,13.627000
9287.730527,323.232000,14.538000
9292.324072,323.280000,14.805500
9296.916254,323.328000,10.705500
9301.411445,323.375000,14.572500
9306.000929,323.423000,12.503000
9310.589052,323.471000,16.290000
9315.175812,323.519000,16.662000
9319.761212,323.567000,15.928000
9324.345252,323.615000,14.288000
9328.927932,323.663000,14.386000
9333.509253,323.711000,14.262500
9338.089216,323.759000,14.911000
9342.572447,323.806000,19.152000
9347.149722,323.854000,16.694500
9351.725642,323.902000,14.920000
9356.300205,323.950000,13.824000
9360.873412,323.998000,18.367000
9365.350032,324.045000,17.443000
9369.920559,324.093000,19.921500
9374.489732,324.141000,16.687500
9379.057552,324.189000,12.451000
9383.528899,324.236000,12.452500
9388.094043,324.284000,10.332500
9392.657836,324.332000,12.237000
9397.125241,324.379000,12.998000
9401.686361,324.427000,16.247500
9406.246132,324.475000,12.181500
9410.804554,324.523000,15.517500
9415.266702,324.570000,11.561000
9419.822456,324.618000,-12.949000
9424.281993,324.665000,11.970500
9428.835082,324.713000,12.755500
9433.386824,324.761000,15.190000
9437.842435,324.808000,16.649000
9442.391516,324.856000,15.251500
9446.844521,324.903000,14.968500
9451.390942,324.951000,13.257000
9455.936020,324.999000,16.414500
9460.385108,325.046000,16.973000
9464.927530,325.094000,19.738500
9469.374018,325.141000,32.174500
9473.913786,325.189000,-6.981500
9478.357677,325.236000,3.416000
9482.894794,325.284000,14.812500
9487.336090,325.331000,16.601500
9491.870557,325.379000,17.394500
9496.309260,325.426000,18.311500
9500.746681,325.473000,26.990000
9505.277193,325.521000,18.555500
9509.712024,325.568000,17.878000
9514.239893,325.616000,13.913000
9518.672137,325.663000,16.957000
9523.103102,325.710000,17.283000
9527.627024,325.758000,4.154000
9532.055405,325.805000,6.747500
9536.576689,325.853000,17.081500
9541.002489,325.900000,17.033000
9545.427013,325.947000,15.802000
9549.850260,325.994000,18.505500
9554.366303,326.042000,17.591000
9558.786974,326.089000,18.007500
9563.206371,326.136000,18.485500
9567.718482,326.184000,13.108000
9572.135305,326.231000,15.574500
9576.550855,326.278000,16.204000
9580.965134,326.325000,17.559500
9585.472021,326.373000,16.346500
9589.883730,326.420000,15.059000
9594.294169,326.467000,16.471500
9598.703338,326.514000,12.899500
9603.111238,326.561000,16.483000
9607.611614,326.609000,15.880500
9612.016950,326.656000,15.821500
9616.421019,326.703000,17.784500
9620.823821,326.750000,18.151500
9625.225356,326.797000,16.757000
9629.625626,326.844000,16.957000
9634.024630,326.891000,17.025000
9638.422369,326.938000,18.281500
9642.818845,326.985000,14.602500
9647.214056,327.032000,8.189500
9651.701479,327.080000,13.257500
9656.094138,327.127000,19.710500
9660.485535,327.174000,19.292000
9664.875670,327.221000,22.765500
9669.264544,327.268000,18.598000
9673.652158,327.315000,17.454500
9678.038512,327.362000,19.259500
9682.423607,327.409000,17.098000
9686.807443,327.456000,25.594000
9691.190021,327.503000,19.347500
9695.478134,327.549000,20.599500
9699.858224,327.596000,22.356500
9704.237057,327.643000,16.253000
9708.614633,327.690000,18.585000
9712.990955,327.737000,19.102000
9717.366021,327.784000,20.965500
9721.739833,327.831000,19.853000
9726.112390,327.878000,14.914500
9730.483695,327.925000,21.321000
9734.760780,327.971000,22.034000
9739.129606,328.018000,20.428000
9743.497180,328.065000,32.333500
9747.863503,328.112000,23.244000
9752.228575,328.159000,21.924500
9756.499562,328.205000,18.313000
9760.862161,328.252000,16.253000
9765.223511,328.299000,18.702500
9769.583612,328.346000,17.068000
9773.849737,328.392000,18.008500
9778.207369,328.439000,20.383000
9782.563754,328.486000,21.309000
9786.918893,328.533000,20.163500
9791.180163,328.579000,24.366500
9795.532837,328.626000,26.176000
9799.884266,328.673000,22.065000
9804.141906,328.719000,11.052500
9808.490874,328.766000,18.474500
9812.838598,328.813000,20.127500
9817.092614,328.859000,23.760000
9821.437879,328.906000,20.180500
9825.689490,328.952000,14.456000
9830.032299,328.999000,16.034000
9834.373868,329.046000,16.538500
9838.621862,329.092000,19.620500
9842.960977,329.139000,19.256000
9847.206571,329.185000,16.199000
9851.543235,329.232000,10.773500
9855.786431,329.278000,20.905000
9860.120646,329.325000,20.152500
9864.361446,329.371000,20.782500
9868.693214,329.418000,20.519000
9872.931619,329.464000,32.724500
9877.260942,329.511000,23.061500
9881.496956,329.557000,20.995500
9885.823836,329.604000,24.031500
9890.057460,329.650000,24.209000
9894.289903,329.696000,23.759000
9898.613135,329.743000,24.782500
9902.843191,329.789000,22.871500
9907.163985,329.836000,24.552000
9911.391656,329.882000,20.227500
9915.618148,329.928000,21.398500
9919.935303,329.975000,21.544000
9924.159413,330.021000,19.429000
9928.382346,330.067000,20.324500
9932.695866,330.114000,18.931000
9936.916419,330.160000,21.499000
9941.135797,330.206000,19.986500
9945.445687,330.253000,19.387500
9949.662689,330.299000,21.510000
9953.878516,330.345000,21.259500
9958.093170,330.391000,22.852000
9962.398234,330.438000,30.202000
9966.610516,330.484000,21.515000
9970.821625,330.530000,21.107000
9975.031562,330.576000,24.539500
9979.240328,330.622000,22.697000
9983.539380,330.669000,19.763000
9987.745778,330.715000,20.210500
9991.951007,330.761000,22.905500
9996.155067,330.807000,20.304000
10000.357957,330.853000,19.113500
10004.559679,330.899000,18.792500
10008.760233,330.945000,20.577000
10013.050897,330.992000,24.042500
10017.249091,331.038000,23.249500
10021.446118,331.084000,22.559500
10025.641979,331.130000,21.980500
10029.836675,331.176000,20.483500
10034.030205,331.222000,23.308000
10038.222571,331.268000,23.149500
10042.413773,331.314000,20.969000
10046.603811,331.360000,18.639500
10050.792686,331.406000,16.862000
10054.980398,331.452000,20.480000
10059.166948,331.498000,21.339500
10063.352336,331.544000,19.628000
10067.536563,331.590000,21.815000
10071.719629,331.636000,21.906000
10075.901535,331.682000,20.029500
10080.082281,331.728000,19.453000
10084.261868,331.774000,21.990000
10088.440296,331.820000,21.078000
10092.526768,331.865000,21.110500
10096.702905,331.911000,25.579000
10100.877884,331.957000,21.686000
10105.051707,332.003000,22.615000
10109.224373,332.049000,15.677500
10113.395884,332.095000,12.633500
10117.475591,332.140000,22.506500
10121.644816,332.186000,21.743500
10125.812886,332.232000,22.568500
10129.979802,332.278000,21.450500
10134.145565,332.324000,22.498500
10138.219652,332.369000,27.538500
10142.383134,332.415000,27.080000
10146.545464,332.461000,52.559500
10150.706643,332.507000,32.832000
10154.776247,332.552000,22.654500
10158.935148,332.598000,21.979000
10163.092900,332.644000,22.115500
10167.159152,332.689000,25.683000
10171.314630,332.735000,23.134500
10175.468958,332.781000,21.764000
10179.531864,332.826000,21.328000
10183.683921,332.872000,22.831000
10187.834831,332.918000,22.830000
10191.894393,332.963000,22.630000
10196.043035,333.009000,22.950500
10200.190530,333.055000,22.052000
10204.246754,333.100000,20.621500
10208.391984,333.146000,17.930500
10212.445992,333.191000,22.642500
10216.588958,333.237000,21.438500
10220.640753,333.282000,21.711500
10224.781457,333.328000,23.774000
10228.831039,333.373000,23.091000
10232.969483,333.419000,24.582500
10237.016856,333.464000,22.062500
10241.153042,333.510000,20.736000
10245.198206,333.555000,23.252000
10249.332135,333.601000,36.874000
10253.375094,333.646000,29.172000
10257.506768,333.692000,29.035500
10261.547522,333.737000,24.297500
10265.587186,333.782000,26.632000
10269.715494,333.828000,24.170500
10273.752956,333.873000,22.109000
10277.879015,333.919000,17.234000
10281.914277,333.964000,23.316500
10285.948452,334.009000,22.897500
10290.071151,334.055000,22.792000
10294.103128,334.100000,21.871500
10298.134020,334.145000,21.284000
10302.253364,334.191000,21.833000
10306.282060,334.236000,23.175000
10310.309672,334.281000,23.589500
10314.425666,334.327000,27.620500
10318.451085,334.372000,23.390500
10322.475422,334.417000,29.382000
10326.498675,334.462000,35.810000
10330.610215,334.508000,43.356500
10334.631280,334.553000,39.463500
10338.651263,334.598000,25.261500
10342.670165,334.643000,20.666500
10346.687987,334.688000,24.412500
10350.704728,334.733000,24.854000
10354.809614,334.779000,23.767000
10358.824172,334.824000,22.896000
10362.837651,334.869000,23.648500
10366.850051,334.914000,23.382000
10370.861373,334.959000,24.077000
10374.871618,335.004000,21.262500
10378.880786,335.049000,21.278000
10382.888876,335.094000,22.398000
10386.984923,335.140000,14.437500
10390.990838,335.185000,19.254000
10394.995677,335.230000,16.057000
10398.999440,335.275000,14.913000
10403.002130,335.320000,22.572500
10407.003745,335.365000,22.812000
10411.004286,335.410000,22.243000
10415.003755,335.455000,23.215500
10419.002150,335.500000,27.058500
10422.999473,335.545000,23.254500
10426.995723,335.590000,24.291000
10430.990902,335.635000,20.707500
10434.985010,335.680000,19.664500
10438.889325,335.724000,21.506000
10442.881316,335.769000,22.329500
10446.872237,335.814000,22.980000
10450.862088,335.859000,20.316500
10454.850871,335.904000,23.299000
10458.838585,335.949000,24.595000
10462.825230,335.994000,26.027000
10466.810808,336.039000,20.240000
10470.706786,336.083000,21.054000
10474.690253,336.128000,24.551000
10478.672654,336.173000,21.860000
10482.653989,336.218000,23.922500
10486.634259,336.263000,22.210000
10490.525048,336.307000,22.226500
10494.503211,336.352000,17.763000
10498.480310,336.397000,22.031500
10502.456345,336.442000,22.676500
10506.342995,336.486000,23.584000
10510.316927,336.531000,24.363500
10514.289797,336.576000,22.409500
10518.261604,336.621000,22.586500
10522.144122,336.665000,19.541500
10526.113830,336.710000,31.347500
10530.082477,336.755000,29.336000
10533.961906,336.799000,30.300500
10537.928455,336.844000,27.556000
10541.893946,336.889000,21.884000
10545.770289,336.933000,19.265500
10549.733685,336.978000,22.888000
10553.607982,337.022000,22.719500
10557.569284,337.067000,21.019500
10561.529529,337.112000,23.529500
10565.400747,337.156000,21.265000
10569.358902,337.201000,23.241000
10573.228076,337.245000,22.669500
10577.184142,337.290000,20.696000
10581.051275,337.334000,23.625000
10585.005254,337.379000,24.684500
10588.870347,337.423000,23.078000
10592.822240,337.468000,20.729500
10596.685295,337.512000,14.570500
10600.635105,337.557000,18.469500
10604.496123,337.601000,20.001500
10608.443850,337.646000,17.022500
10612.302834,337.690000,15.349500
10616.160811,337.734000,17.334000
10620.105430,337.779000,21.314000
10623.961375,337.823000,11.453000
10627.903916,337.868000,11.289500
10631.757830,337.912000,11.921500
10635.610740,337.956000,11.174000
10639.550179,338.001000,7.233000
10643.401061,338.045000,5.423000
10647.250940,338.089000,3.655000
10651.187281,338.134000,8.982500
10655.035134,338.178000,7.325500
10658.881986,338.222000,6.560000
10662.815231,338.267000,4.759000
10666.660059,338.311000,8.558000
10670.503887,338.355000,51.145500
10674.346716,338.399000,14.818500
10678.275848,338.444000,3.696000
10682.116656,338.488000,-0.735500
10685.956465,338.532000,-0.465000
10689.795276,338.576000,4.963500
10693.633090,338.620000,5.885000
10697.557096,338.665000,7.199000
10701.392893,338.709000,1.539000
10705.227693,338.753000,-0.376000
10709.061498,338.797000,2.113500
10712.894307,338.841000,-2.459000
10716.726120,338.885000,0.775500
10720.556939,338.929000,5.974500
10724.386763,338.973000,2.248500
10728.302601,339.018000,3.512500
10732.130414,339.062000,0.865000
10735.957235,339.106000,2.829500
10739.783062,339.150000,-1.630500
10743.607897,339.194000,-6.916500
10747.431740,339.238000,-7.841000
10751.254591,339.282000,1.828000
10755.076450,339.326000,2.298500
10758.897319,339.370000,11.708000
10762.717197,339.414000,3.177500
10766.536084,339.458000,4.270000
10770.353982,339.502000,2.727500
10774.170890,339.546000,2.023000
10777.986809,339.590000,0.469000
10781.801740,339.634000,1.129000
10785.615682,339.678000,0.304000
10789.341989,339.721000,-2.785500
10793.153978,339.765000,2.375000
10796.964980,339.809000,2.044000
10800.774995,339.853000,1.500000
10804.584024,339.897000,3.288500
10808.392066,339.941000,-3.081000
10812.199123,339.985000,6.084000
10816.005195,340.029000,8.180000
10819.723813,340.072000,1.743000
10823.527938,340.116000,2.986500
10827.331078,340.160000,-0.237000
10831.133235,340.204000,1.922000
10834.848029,340.247000,-8.778000
10838.648242,340.291000,1.834000
10842.447472,340.335000,1.183500
10846.245720,340.379000,2.616500
10849.956695,340.422000,0.343500
10853.753002,340.466000,-13.361000
10857.548328,340.510000,-0.691500
10861.342673,340.554000,2.160000
10865.049836,340.597000,3.605000
10868.842243,340.641000,4.005500
10872.633670,340.685000,2.067500
10876.337983,340.728000,-0.069500
10880.127474,340.772000,2.670500
10883.829896,340.815000,1.157000
10887.617453,340.859000,7.681500
10891.404033,340.903000,4.148000
10895.103609,340.946000,2.053500
10898.888257,340.990000,1.072000
10902.585946,341.033000,1.318500
10906.368663,341.077000,2.491500
10910.150404,341.121000,5.366000
10913.845254,341.164000,-0.981500
10917.625066,341.208000,0.019500
10921.318033,341.251000,1.791000
10925.095918,341.295000,1.337000
10928.787002,341.338000,9.677500
10932.562962,341.382000,22.892500
10936.252165,341.425000,7.035500
10939.940439,341.468000,0.295500
10943.713524,341.512000,3.018500
10947.399919,341.555000,2.010000
10951.171083,341.599000,5.327500
10954.855601,341.642000,2.712000
10958.624845,341.686000,-1.054000
10962.307486,341.729000,2.560000
10965.989201,341.772000,3.206000
10969.755578,341.816000,0.508500
10973.435419,341.859000,-0.046500
10977.114334,341.902000,0.542500
10980.877848,341.946000,0.929500
10984.554892,341.989000,-2.261000
10988.231011,342.032000,-2.344000
10991.991665,342.076000,1.666000
10995.665914,342.119000,-1.442000
10999.339240,342.162000,-0.703500
11003.011643,342.205000,2.327000
11006.768496,342.249000,0.384500
11010.439032,342.292000,1.792500
11014.108646,342.335000,0.240500
11017.777338,342.378000,2.108000
11021.530396,342.422000,1.625000
11025.197224,342.465000,1.141000
11028.863132,342.508000,0.634000
11032.528119,342.551000,3.493000
11036.192187,342.594000,2.584500
11039.855335,342.637000,0.209000
11043.602720,342.681000,2.551000
11047.264009,342.724000,1.664500
11050.924378,342.767000,2.810000
11054.583829,342.810000,0.055500
11058.242363,342.853000,0.381500
11061.899979,342.896000,1.489000
11065.556677,342.939000,0.210500
11069.212459,342.982000,0.798000
11072.867324,343.025000,1.398000
11076.521273,343.068000,2.845500
11080.174306,343.111000,-1.843500
11083.826423,343.154000,1.405500
11087.477626,343.197000,3.157500
11091.127913,343.240000,7.135500
11094.777286,343.283000,0.716500
11098.425745,343.326000,0.273000
11102.073291,343.369000,-2.749000
11105.719922,343.412000,-4.650500
11109.365641,343.455000,0.995000
11113.010447,343.498000,2.154000
11116.654340,343.541000,0.496500
11120.297322,343.584000,0.892000
11123.939391,343.627000,4.133500
11127.580549,343.670000,9.406500
11131.220797,343.713000,2.238500
11134.775508,343.755000,1.659000
11138.413955,343.798000,8.406000
11142.051492,343.841000,6.672000
11145.688120,343.884000,5.879000
11149.323838,343.927000,9.033000
11152.958647,343.970000,4.717000
11156.508049,344.012000,-0.608500
11160.141062,344.055000,-4.593500
11163.773167,344.098000,2.841000
11167.404365,344.141000,0.153500
11170.950240,344.183000,2.986000
11174.579645,344.226000,2.119000
11178.208143,344.269000,-4.890500
11181.751382,344.311000,-2.778500
11185.378088,344.354000,2.293500
11189.003889,344.397000,5.236000
11192.628785,344.440000,3.850000
11196.168507,344.482000,18.823000
11199.791614,344.525000,43.048000
11203.413817,344.568000,45.277000
11206.950910,344.610000,11.087500
11210.571327,344.653000,-1.241000
11214.106675,344.695000,1.054000
11217.725306,344.738000,2.077500
11221.343035,344.781000,0.145000
11224.875759,344.823000,2.485500
11228.491704,344.866000,0.084500
11232.022687,344.908000,-1.063500
11235.636851,344.951000,1.153000
11239.166094,344.993000,3.640000
11242.778477,345.036000,1.892500
11246.305982,345.078000,8.174500
11249.916585,345.121000,9.174500
11253.442353,345.163000,22.241000
11257.051178,345.206000,1.891000
11260.575210,345.248000,7.342500
11264.182259,345.291000,0.561500
11267.704555,345.333000,-1.063000
11271.309829,345.376000,1.176000
11274.830392,345.418000,-0.940500
11278.350100,345.460000,1.286000
11281.952723,345.503000,0.751500
11285.470699,345.545000,-3.759500
11288.987820,345.587000,-0.425500
11292.587796,345.630000,-1.311000
11296.103187,345.672000,2.239000
11299.701393,345.715000,-0.726500
11303.215056,345.757000,0.819000
11306.727865,345.799000,4.472000
11310.239821,345.841000,4.733000
11313.834512,345.884000,0.249000
11317.344742,345.926000,-1.064000
11320.854120,345.968000,-0.985500
11324.446172,346.011000,-1.418500
11327.953826,346.053000,-8.388000
11331.460629,346.095000,-5.872000
11334.966581,346.137000,-0.669000
11338.471682,346.179000,-2.283000
11342.059357,346.222000,0.983000
11345.562737,346.264000,-1.081000
11349.065268,346.306000,-2.127500
11352.566949,346.348000,-3.221000
11356.067781,346.390000,-1.660000
11359.567764,346.432000,1.254500
11363.150201,346.475000,1.129500
11366.648467,346.517000,1.521000
11370.145885,346.559000,0.862000
11373.642456,346.601000,1.280000
11377.138179,346.643000,-5.290000
11380.633055,346.685000,-5.958500
11384.127085,346.727000,-1.903500
11387.620268,346.769000,-2.337500
11391.112605,346.811000,-1.403500
11394.604096,346.853000,0.893000
11398.094742,346.895000,6.068500
11401.584543,346.937000,1.038500
11405.073499,346.979000,0.853000
11408.561610,347.021000,-1.025000
11412.048877,347.063000,-0.268500
11415.535301,347.105000,-3.417000
11419.020880,347.147000,0.000000
11422.505617,347.189000,1.129500
11425.989510,347.231000,2.369500
11429.472560,347.273000,10.990000
11432.954769,347.315000,0.790500
11436.436135,347.357000,12.686500
11439.916659,347.399000,8.949000
11443.313502,347.440000,-2.795500
11446.792364,347.482000,-2.313500
11450.270384,347.524000,2.669000
11453.747565,347.566000,0.380500
11457.223905,347.608000,3.310000
11460.699405,347.650000,-0.445500
11464.091345,347.691000,0.615500
11467.565186,347.733000,2.376000
11471.038188,347.775000,4.409000
11474.510351,347.817000,6.815000
11477.981676,347.859000,3.957000
11481.369541,347.900000,1.340500
11484.839210,347.942000,5.110500
11488.308041,347.984000,5.001000
11491.693473,348.025000,1.762000
11495.160650,348.067000,23.393500
11498.626991,348.109000,47.452000
11502.092494,348.151000,22.435000
11505.474680,348.192000,28.849500
11508.938532,348.234000,35.669000
11512.401549,348.276000,32.263000
11515.781307,348.317000,24.761500
11519.242673,348.359000,-1.371000
11522.620821,348.400000,0.480000
11526.080539,348.442000,3.612000
11529.539422,348.484000,1.153500
11532.915148,348.525000,-23.207500
11536.372384,348.567000,-3.961500
11539.746502,348.608000,2.938000
11543.202092,348.650000,2.349000
11546.574604,348.691000,3.971000
11550.028550,348.733000,2.941500
11553.399456,348.774000,1.211500
11556.851758,348.816000,-0.037000
11560.221061,348.857000,-0.739000
11563.671720,348.899000,2.472000
11567.039420,348.940000,-3.534000
11570.488439,348.982000,4.103500
11573.854537,349.023000,-0.779000
11577.301915,349.065000,-7.587000
11580.666413,349.106000,-8.080500
11584.030120,349.147000,-9.842000
11587.475051,349.189000,-12.440500
11590.837159,349.230000,-12.566000
11594.280452,349.272000,-5.947500
11597.640963,349.313000,-1.762500
11601.000686,349.354000,-3.873000
11604.441535,349.396000,-0.780000
11607.799661,349.437000,5.847500
11611.157000,349.478000,-0.673500
11614.595408,349.520000,0.477000
11617.951152,349.561000,-0.435000
11621.306109,349.602000,2.883500
11624.660280,349.643000,1.952500
11628.095443,349.685000,0.782500
11631.448022,349.726000,-1.001000
11634.799814,349.767000,0.423500
11638.150821,349.808000,1.257000
11641.582745,349.850000,1.775000
11644.932162,349.891000,-0.358500
11648.280794,349.932000,-1.559000
11651.628641,349.973000,-4.340000
11654.975704,350.014000,-17.703000
11658.403590,350.056000,-2.964500
11661.749066,350.097000,-1.151000
11665.093759,350.138000,-0.892000
11668.437668,350.179000,2.015500
11671.780795,350.220000,1.241000
11675.123139,350.261000,2.849500
11678.464700,350.302000,17.743500
11681.805480,350.343000,46.549000
11685.145477,350.384000,4.368000
11688.484693,350.425000,0.218500
11691.904543,350.467000,-3.357000
11695.242178,350.508000,-1.141500
11698.579032,350.549000,-1.687500
11701.915105,350.590000,-1.277500
11705.250398,350.631000,0.133500
11708.584912,350.672000,4.712000
11711.918645,350.713000,0.939500
11715.251600,350.754000,1.154000
11718.502512,350.794000,-0.501500
11721.833927,350.835000,2.015500
11725.164564,350.876000,-0.703000
11728.494422,350.917000,-6.511500
11731.823503,350.958000,-2.239000
11735.151806,350.999000,2.994500
11738.479331,351.040000,0.471000
11741.806079,351.081000,-0.303500
11745.132050,351.122000,1.174000
11748.457245,351.163000,2.072500
11751.700589,351.203000,4.295000
11755.024250,351.244000,1.694500
11758.347135,351.285000,0.055500
11761.669245,351.326000,7.453000
11764.990579,351.367000,-1.305500
11768.230159,351.407000,10.694000
11771.549962,351.448000,-0.820000
11774.868991,351.489000,-2.049000
11778.187246,351.530000,0.127000
11781.423822,351.570000,-2.391500
11784.740548,351.611000,0.993500
11788.056500,351.652000,-0.814500
11791.371680,351.693000,-2.328000
11794.605256,351.733000,-1.795500
11797.918909,351.774000,-0.297000
11801.231790,351.815000,-3.399000
11804.463124,351.855000,-0.050000
11807.774479,351.896000,-1.809500
11811.085063,351.937000,-2.137000
11814.314158,351.977000,1.174500
11817.623218,352.018000,1.131000
11820.850827,352.058000,4.303000
11824.158365,352.099000,-0.741500
11827.465133,352.140000,-0.410000
11830.690506,352.180000,2.201500
11833.995753,352.221000,0.778500
11837.219643,352.261000,0.122000
11840.523370,352.302000,-0.570500
11843.745778,352.342000,-2.155500
11847.047986,352.383000,0.106000
11850.268913,352.423000,0.714500
11853.569603,352.464000,0.910500
11856.789050,352.504000,-0.281000
11860.088224,352.545000,-0.362500
11863.306191,352.585000,-0.671500
11866.603850,352.626000,0.168500
11869.820339,352.666000,-0.792500
11873.116483,352.707000,1.126500
11876.331495,352.747000,1.306500
11879.545777,352.787000,-1.626500
11882.839661,352.828000,-3.731500
11886.052468,352.868000,-6.575500
11889.264547,352.908000,-2.321000
11892.556173,352.949000,-0.878500
11895.766777,352.989000,-5.141000
11899.056892,353.030000,-3.665500
11902.266024,353.070000,-1.635000
11905.474429,353.110000,0.595500
11908.682107,353.150000,-3.291500
11911.969223,353.191000,0.499000
11915.175430,353.231000,-1.912000
11918.380911,353.271000,8.002000
11921.665775,353.312000,35.089500
11924.869787,353.352000,22.832500
11928.073073,353.392000,10.418000
11931.275634,353.432000,12.556500
11934.477470,353.472000,1.950500
11937.758600,353.513000,-0.954500
11940.958969,353.553000,2.495500
11944.158614,353.593000,1.874500
11947.357536,353.633000,0.328500
11950.555733,353.673000,-2.672000
11953.753208,353.713000,-0.176500
11957.029868,353.754000,2.379500
11960.225879,353.794000,1.847000
11963.421166,353.834000,3.661500
11966.615732,353.874000,-1.037000
11969.809575,353.914000,0.352000
11973.002696,353.954000,-7.484500
11976.195096,353.994000,-0.061000
11979.386774,354.034000,-3.454000
11982.577731,354.074000,-0.986000
11985.767968,354.114000,-0.974500
11988.957483,354.154000,1.423000
11992.146279,354.194000,4.552500
11995.334354,354.234000,7.740500
11998.521709,354.274000,3.023500
12001.708345,354.314000,-2.631000
12004.894261,354.354000,-2.365000
12008.079458,354.394000,-0.043500
12011.263936,354.434000,-1.629000
12014.447695,354.474000,-0.154500
12017.630736,354.514000,-0.552000
12020.813059,354.554000,2.241500
12023.994663,354.594000,5.694000
12027.175550,354.634000,3.216000
12030.276224,354.673000,1.153500
12033.455694,354.713000,-0.171500
12036.634448,354.753000,2.866500
12039.812484,354.793000,0.939000
12042.989804,354.833000,0.069000
12046.166408,354.873000,0.281500
12049.262907,354.912000,-0.624000
12052.438097,354.952000,-1.751000
12055.612571,354.992000,1.396000
12058.786330,355.032000,-0.852500
12061.880056,355.071000,8.784000
12065.052403,355.111000,0.997000
12068.224035,355.151000,-0.155500
12071.394953,355.191000,2.902000
12074.485910,355.230000,-1.729000
12077.655418,355.270000,-5.647000
12080.824212,355.310000,-1.102000
12083.913100,355.349000,-0.946000
12087.080485,355.389000,-0.583500
12090.247158,355.429000,1.313000
12093.333977,355.468000,2.115000
12096.499242,355.508000,3.311000
12099.663795,355.548000,0.544500
12102.748549,355.587000,0.696000
12105.911696,355.627000,0.318000
12108.995079,355.666000,0.371500
12112.156822,355.706000,-0.709500
12115.317853,355.746000,0.637500
12118.399174,355.785000,0.787500
12121.558801,355.825000,-0.758500
12124.638754,355.864000,0.267500
12127.796979,355.904000,-0.136000
12130.875565,355.943000,-0.156000
12134.032389,355.983000,-0.412000
12137.109608,356.022000,-0.558500
12140.265031,356.062000,-1.110500
12143.340885,356.101000,1.497000
12146.494908,356.141000,-1.008500
12149.569398,356.180000,0.132000
12152.643215,356.219000,0.925000
12155.795149,356.259000,-0.260000
12158.867603,356.298000,-0.174500
12162.018139,356.338000,-0.998000
12165.089231,356.377000,0.473000
12168.159651,356.416000,1.181500
12171.308101,356.456000,-0.697500
12174.377160,356.495000,0.893500
12177.445548,356.534000,0.298000
12180.591915,356.574000,-0.469000
12183.658943,356.613000,-0.671000
12186.725300,356.652000,-0.615500
12189.869585,356.692000,0.182000
12192.934585,356.731000,-0.456000
12195.998914,356.770000,-1.014500
12199.062573,356.809000,-0.019000
12202.204093,356.849000,-0.097000
12205.266396,356.888000,0.064000
12208.328030,356.927000,-1.211500
12211.388995,356.966000,0.061000
12214.527751,357.006000,-0.147000
12217.587361,357.045000,-0.680000
12220.646304,357.084000,-0.241000
12223.704578,357.123000,0.656500
12226.762184,357.162000,0.481500
12229.819122,357.201000,-0.549500
12232.953750,357.241000,-0.581500
12236.009337,357.280000,-0.742000
12239.064257,357.319000,1.178000
12242.118510,357.358000,0.008500
12245.172096,357.397000,0.433500
12248.225016,357.436000,-0.700500
