raman_shift_cm-1,wavelength_nm,intensity
-311.444523,246.690000,0.000000
-300.766377,246.755000,0.000000
-290.093855,246.820000,0.000000
-279.262891,246.886000,0.000000
-268.601691,246.951000,-0.059402
-257.946101,247.016000,-0.103504
-247.296118,247.081000,0.828999
-236.651737,247.146000,-0.599519
-226.012953,247.211000,-0.313359
-215.216219,247.277000,-0.069725
-204.588703,247.342000,-1.502039
-193.966771,247.407000,-0.562610
-183.350419,247.472000,1.919441
-172.739643,247.537000,-2.513087
-162.134437,247.602000,-0.220481
-151.534799,247.667000,-0.424681
-140.940722,247.732000,-1.650649
-130.352203,247.797000,1.859039
-119.769238,247.862000,0.428424
-109.191822,247.927000,1.703329
-98.619951,247.992000,1.523506
-88.053621,248.057000,1.395623
-77.655258,248.121000,0.958998
-67.099910,248.186000,1.803836
-56.550089,248.251000,-2.194378
-46.005792,248.316000,4.441857
-35.467013,248.381000,-0.409198
-24.933749,248.446000,1.159158
-14.405995,248.511000,-0.053772
-4.045586,248.575000,-0.559278
6.471245,248.640000,0.904051
16.982580,248.705000,0.742253
27.488421,248.770000,0.939348
37.827271,248.834000,0.561029
48.322224,248.899000,1.445839
58.811696,248.964000,1.692399
69.134442,249.028000,0.925522
79.613052,249.093000,0.620191
90.086194,249.158000,-2.750206
100.392873,249.222000,-2.799745
110.855177,249.287000,0.666129
121.312027,249.352000,-0.299816
131.602677,249.416000,-1.136654
142.048715,249.481000,0.451702
152.328727,249.545000,1.148479
162.763968,249.610000,-0.032669
173.033359,249.674000,0.788109
183.457821,249.739000,-0.230978
193.716607,249.803000,-2.242111
204.130307,249.868000,-0.862319
214.378504,249.932000,2.033988
224.781458,249.997000,1.649852
235.019083,250.061000,6.227454
245.411309,250.126000,-1.157069
255.638378,250.190000,2.927208
265.860216,250.254000,0.787086
276.236420,250.319000,3.644745
286.447727,250.383000,-1.702441
296.813243,250.448000,-0.448015
307.014035,250.512000,-0.775276
317.209616,250.576000,1.941632
327.399990,250.640000,1.925564
337.744263,250.705000,1.760295
347.924154,250.769000,2.404192
358.098850,250.833000,-4.190532
368.268355,250.897000,1.867742
378.591450,250.962000,1.011031
388.750505,251.026000,-2.491634
398.904381,251.090000,-0.299076
409.053082,251.154000,-3.177769
419.196612,251.218000,1.828839
429.334975,251.282000,3.539431
439.626466,251.347000,-1.228163
449.754426,251.411000,-1.658966
459.877231,251.475000,3.058769
469.994885,251.539000,-4.407711
480.107392,251.603000,-1.020468
490.214756,251.667000,1.075200
500.316980,251.731000,3.527252
510.414069,251.795000,5.017011
520.506026,251.859000,-5.087411
530.592855,251.923000,-3.025775
540.674561,251.987000,-2.405826
550.751147,252.051000,-4.927691
560.822617,252.115000,-6.418929
570.888975,252.179000,2.299924
580.950225,252.243000,-1.655299
590.849282,252.306000,1.569150
600.900407,252.370000,2.149791
610.946435,252.434000,1.038712
620.987371,252.498000,0.415184
631.023218,252.562000,-1.435661
641.053980,252.626000,5.408301
650.923048,252.689000,1.120012
660.943731,252.753000,-0.288954
670.959341,252.817000,0.944731
680.969880,252.881000,-4.027198
690.819058,252.944000,-1.793777
700.819549,253.008000,-0.148645
710.814983,253.072000,-1.559556
720.805362,253.136000,-3.649437
730.634708,253.199000,3.687487
740.615069,253.263000,-2.352769
750.434561,253.326000,1.149557
760.404919,253.390000,-6.104244
770.370241,253.454000,-2.047171
780.174941,253.517000,0.506182
790.130283,253.581000,-4.536814
799.925166,253.644000,1.431734
809.870542,253.708000,-2.398737
819.655623,253.771000,4.148180
829.591048,253.835000,-4.293528
839.366341,253.898000,-0.151755
849.291831,253.962000,-1.327150
859.057350,254.025000,-1.032780
868.972920,254.089000,-2.020862
878.728681,254.152000,-4.623113
888.634344,254.216000,-4.061409
898.380361,254.279000,2.975353
908.121550,254.342000,0.686457
918.012421,254.406000,-4.004284
927.743888,254.469000,3.065627
937.470538,254.532000,-1.196531
947.346650,254.596000,-1.555860
957.063600,254.659000,0.238062
966.775743,254.722000,-2.100408
976.637128,254.786000,-5.027743
986.339593,254.849000,2.449796
996.037261,254.912000,-1.107444
1005.730138,254.975000,-1.395629
1015.571966,255.039000,1.412216
1025.255192,255.102000,-5.886879
1034.933637,255.165000,-2.059070
1044.607304,255.228000,-0.881394
1054.276196,255.291000,-7.187849
1063.940318,255.354000,-3.093319
1073.599672,255.417000,-1.183874
1083.407471,255.481000,-0.774968
1093.057225,255.544000,-0.793978
1102.702223,255.607000,0.821129
1112.342467,255.670000,1.170419
1121.977961,255.733000,-0.313746
1131.608710,255.796000,-0.397274
1141.234715,255.859000,-1.595762
1150.855981,255.922000,3.775836
1160.472512,255.985000,-7.010022
1170.084310,256.048000,-3.484053
1179.691379,256.111000,-2.947895
1189.293724,256.174000,-3.812439
1198.739040,256.236000,1.739318
1208.332019,256.299000,-5.235969
1217.920283,256.362000,-0.572970
1227.503835,256.425000,1.464559
1237.082680,256.488000,-0.371772
1246.656820,256.551000,-1.769397
1256.226260,256.614000,-4.608837
1265.639217,256.676000,4.172558
1275.199339,256.739000,2.930351
1284.754770,256.802000,-1.592230
1294.305515,256.865000,3.132796
1303.700087,256.927000,-3.613498
1313.241541,256.990000,-3.953801
1322.778319,257.053000,-5.812305
1332.310423,257.116000,-4.279225
1341.686664,257.178000,-6.374692
1351.209505,257.241000,-1.654083
1360.727683,257.304000,3.659878
1370.090229,257.366000,-3.588495
1379.599165,257.429000,-0.225335
1388.952622,257.491000,-1.143942
1398.452329,257.554000,-3.921934
1407.796710,257.616000,-1.211359
1417.287202,257.679000,1.139501
1426.773053,257.742000,-0.212370
1436.103810,257.804000,-1.824934
1445.580466,257.867000,2.136353
1454.902179,257.929000,-5.292877
1464.369654,257.992000,0.061495
1473.682337,258.054000,2.700175
1482.990547,258.116000,-3.162856
1492.444310,258.179000,-3.871565
1501.743510,258.241000,-1.342746
1511.188124,258.304000,-4.607412
1520.478327,258.366000,0.298029
1529.764072,258.428000,4.454114
1539.195025,258.491000,-3.115481
1548.471792,258.553000,-3.571593
1557.744112,258.615000,1.842805
1567.161432,258.678000,4.099246
1576.424794,258.740000,4.178475
1585.683718,258.802000,0.443459
1594.938206,258.864000,-1.677275
1604.337420,258.927000,-1.886053
1613.582976,258.989000,-5.184147
1622.824106,259.051000,-3.833272
1632.060814,259.113000,1.129717
1641.293103,259.175000,-2.520314
1650.669776,259.238000,2.620691
1659.893165,259.300000,-8.298871
1669.112144,259.362000,-3.428980
1678.326716,259.424000,1.412684
1687.536886,259.486000,2.805836
1696.742655,259.548000,-0.176321
1705.944027,259.610000,4.308505
1715.141005,259.672000,-2.383161
1724.333592,259.734000,3.864442
1733.521792,259.796000,-6.391938
1742.705607,259.858000,6.397229
1751.885041,259.920000,-2.818152
1761.060096,259.982000,-2.638439
1770.230777,260.044000,-1.243882
1779.397086,260.106000,4.072260
1788.559026,260.168000,2.654578
1797.716600,260.230000,5.262170
1806.869812,260.292000,1.433825
1816.018664,260.354000,-1.038070
1825.163160,260.416000,-0.695336
1834.155916,260.477000,-3.180115
1843.291778,260.539000,0.252971
1852.423294,260.601000,0.905688
1861.550466,260.663000,2.321775
1870.673297,260.725000,-3.902409
1879.644752,260.786000,-0.506964
1888.758980,260.848000,-3.650046
1897.868877,260.910000,-2.078225
1906.974445,260.972000,-3.215904
1915.928928,261.033000,1.131209
1925.025918,261.095000,-5.793652
1934.118588,261.157000,-0.923457
1943.060391,261.218000,-2.369002
1952.144502,261.280000,-2.501056
1961.224302,261.342000,-2.819517
1970.153451,261.403000,1.233203
1979.224710,261.465000,-1.146513
1988.145460,261.526000,-2.869776
1997.208190,261.588000,-1.904532
2006.120554,261.649000,-2.036996
2015.174766,261.711000,-1.052181
2024.078756,261.772000,-1.428288
2033.124461,261.834000,-4.182083
2042.020089,261.895000,-4.489348
2051.057301,261.957000,3.831662
2059.944578,262.018000,-2.634019
2068.973308,262.080000,6.560023
2077.852245,262.141000,6.874598
2086.872506,262.203000,-0.682678
2095.743116,262.264000,-0.849887
2104.609601,262.325000,0.021179
2113.617214,262.387000,-2.122285
2122.475388,262.448000,-5.100970
2131.329447,262.509000,-9.373215
2140.324438,262.571000,-2.030953
2149.170203,262.632000,-0.862873
2158.011861,262.693000,-1.283499
2166.994257,262.755000,4.144412
2175.827640,262.816000,5.180276
2184.656923,262.877000,-0.777441
2193.482109,262.938000,0.843381
2202.303202,262.999000,1.413164
2211.264711,263.061000,-7.057772
2220.077557,263.122000,4.158674
2228.886318,263.183000,3.574965
2237.690997,263.244000,-0.416570
2246.491597,263.305000,0.412066
2255.288119,263.366000,-0.320542
2264.080568,263.427000,-3.156336
2272.868945,263.488000,-0.436364
2281.653255,263.549000,0.864796
2290.577403,263.611000,1.176761
2299.353518,263.672000,0.320745
2308.125573,263.733000,2.088053
2316.893571,263.794000,-7.571549
2325.657515,263.855000,1.022363
2334.273836,263.915000,-6.620988
2343.029746,263.976000,1.882871
2351.781611,264.037000,2.657177
2360.529433,264.098000,1.221856
2369.273215,264.159000,1.351596
2378.012959,264.220000,-0.635372
2386.748669,264.281000,5.378971
2395.480347,264.342000,-1.016061
2404.207997,264.403000,-1.120807
2412.788642,264.463000,-3.330893
2421.508308,264.524000,2.589483
2430.223953,264.585000,-3.059792
2438.935580,264.646000,-1.455027
2447.643192,264.707000,-0.100093
2456.204142,264.767000,1.376380
2464.903798,264.828000,1.939792
2473.599447,264.889000,-2.055966
2482.148639,264.949000,1.760546
2490.836348,265.010000,1.357140
2499.520059,265.071000,0.220924
2508.057516,265.131000,3.328258
2516.733303,265.192000,-2.169390
2525.405101,265.253000,-2.815255
2533.930847,265.313000,3.212253
2542.594737,265.374000,-5.013908
2551.112712,265.434000,1.925415
2559.768705,265.495000,1.022003
2568.278918,265.555000,-1.053503
2576.927027,265.616000,-2.968236
2585.571164,265.677000,-3.994438
2594.069722,265.737000,-4.430442
2602.564444,265.797000,-2.072133
2611.196813,265.858000,0.260457
2619.683805,265.918000,0.659629
2628.308321,265.979000,-0.845491
2636.787594,266.039000,2.497409
2645.404268,266.100000,-2.113280
2653.875831,266.160000,1.084320
2662.343577,266.220000,2.379427
2670.948539,266.281000,0.575754
2679.408591,266.341000,2.651155
2687.864833,266.401000,-1.609235
2696.458108,266.462000,-1.327367
2704.906672,266.522000,-7.683721
2713.351433,266.582000,-3.230780
2721.792393,266.642000,-5.428184
2730.370143,266.703000,-4.322496
2738.803447,266.763000,-5.274842
2747.232958,266.823000,-3.844233
2755.658679,266.883000,2.003186
2764.220946,266.944000,-1.626166
2772.639032,267.004000,-3.211199
2781.053334,267.064000,-1.111530
2789.463857,267.124000,1.774390
2797.870602,267.184000,5.514291
2806.273573,267.244000,-2.886466
2814.672771,267.304000,2.255223
2823.068200,267.364000,-3.330309
2831.459861,267.424000,0.087647
2839.847757,267.484000,-0.473514
2848.231891,267.544000,-1.677221
2856.612266,267.604000,-3.576260
2864.988884,267.664000,0.467962
2873.361747,267.724000,-3.434127
2881.730857,267.784000,1.815059
2890.096219,267.844000,0.394127
2898.457833,267.904000,0.942377
2906.815703,267.964000,0.181141
2915.169831,268.024000,-5.394204
2923.520219,268.084000,-6.230474
2931.866870,268.144000,-1.694571
2940.209787,268.204000,1.636440
2948.410016,268.263000,-1.935671
2956.745534,268.323000,-1.478176
2965.077324,268.383000,-3.481196
2973.405390,268.443000,-0.925840
2981.729735,268.503000,-3.904123
2989.911713,268.562000,1.354040
2998.228682,268.622000,-4.916685
3006.541937,268.682000,-2.591428
3014.851480,268.742000,-1.239020
3023.018913,268.801000,-0.939115
3031.321101,268.861000,-5.775124
3039.619584,268.921000,-6.063579
3047.776149,268.980000,1.749198
3056.067292,269.040000,0.687215
3064.216644,269.099000,-2.777495
3072.500457,269.159000,-3.692961
3080.780577,269.219000,-2.212237
3088.919097,269.278000,0.759356
3097.191901,269.338000,3.204157
3105.323232,269.397000,0.268412
3113.588730,269.457000,2.093186
3121.712881,269.516000,-1.314826
3129.971082,269.576000,-0.453590
3138.088063,269.635000,-0.096762
3146.338978,269.695000,2.661559
3154.448798,269.754000,-3.012340
3162.692435,269.814000,-5.113253
3170.795104,269.873000,-6.599752
3178.894231,269.932000,-1.652117
3187.127001,269.992000,1.142696
3195.218991,270.051000,-1.668096
3203.307445,270.110000,-4.083350
3211.529370,270.170000,-1.683144
3219.610701,270.229000,-1.350298
3227.688505,270.288000,0.290975
3235.899605,270.348000,-3.093906
3243.970299,270.407000,-1.801962
3252.037473,270.466000,-0.355168
3260.101128,270.525000,1.198447
3268.297848,270.585000,-2.998444
3276.354413,270.644000,-1.901380
3284.407466,270.703000,-3.750574
3292.457009,270.762000,3.709689
3300.503044,270.821000,-11.734207
3308.545575,270.880000,3.084356
3316.720828,270.940000,4.947435
3324.756296,270.999000,-4.830238
3332.788267,271.058000,-0.086639
3340.816741,271.117000,-4.919426
3348.841722,271.176000,-3.576893
3356.863212,271.235000,1.052400
3364.881213,271.294000,2.340985
3372.895727,271.353000,-1.824997
3380.906756,271.412000,-1.437394
3388.914304,271.471000,-4.734646
3396.918371,271.530000,0.724944
3404.918961,271.589000,-0.846775
3412.916076,271.648000,-5.822312
3420.909718,271.707000,1.699033
3428.899888,271.766000,-2.721295
3436.886591,271.825000,2.679357
3444.734546,271.883000,1.192768
3452.714377,271.942000,0.561449
3460.690746,272.001000,-1.726485
3468.663655,272.060000,-5.094133
3476.633107,272.119000,0.121372
3484.599104,272.178000,2.970810
3492.426718,272.236000,2.726390
3500.385870,272.295000,-4.374529
3508.341573,272.354000,-1.619100
3516.293830,272.413000,-1.822219
3524.107947,272.471000,1.364472
3532.053377,272.530000,6.211943
3539.995368,272.589000,7.137551
3547.799398,272.647000,1.360758
3555.734574,272.706000,-0.100463
3563.666318,272.765000,-3.012340
3571.460282,272.823000,-4.354761
3579.385225,272.882000,-2.387134
3587.306741,272.941000,1.438907
3595.090658,272.999000,-0.175296
3603.005387,273.058000,-2.126879
3610.782635,273.116000,0.267905
3618.690585,273.175000,1.407864
3626.461173,273.233000,-4.220317
3634.362353,273.292000,-5.455185
3642.126290,273.350000,-3.508819
3650.020708,273.409000,-3.371359
3657.778002,273.467000,2.442815
3665.665667,273.526000,1.451451
3673.416327,273.584000,-0.637423
3681.163701,273.642000,-2.539958
3689.041282,273.701000,4.071586
3696.782035,273.759000,-2.355386
3704.652885,273.818000,0.468590
3712.387025,273.876000,2.002628
3720.117889,273.934000,-2.109448
3727.845481,273.992000,-2.586248
3735.702951,274.051000,3.353251
3743.423947,274.109000,2.231644
3751.141676,274.167000,0.298147
3758.989119,274.226000,0.471287
3766.700265,274.284000,0.676209
3774.408150,274.342000,2.787768
3782.112776,274.400000,-1.846078
3789.814146,274.458000,-0.830880
3797.644960,274.517000,-2.592737
3805.339767,274.575000,-0.205950
3813.031324,274.633000,-0.945531
3820.719634,274.691000,-2.894148
3828.404697,274.749000,-0.242341
3836.086516,274.807000,-1.928233
3843.765093,274.865000,-4.210068
3851.440431,274.923000,2.614938
3859.112530,274.981000,0.766664
3866.781394,275.039000,1.837259
3874.447024,275.097000,2.864906
3882.109423,275.155000,-2.970907
3889.768591,275.213000,-7.174745
3897.424533,275.271000,-3.364713
3905.077248,275.329000,0.338069
3912.726740,275.387000,-8.188567
3920.373011,275.445000,-5.984449
3928.016062,275.503000,-1.717872
3935.655896,275.561000,1.829124
3943.292514,275.619000,5.053736
3950.925919,275.677000,5.624427
3958.424585,275.734000,0.834883
3966.051625,275.792000,-3.494921
3973.675457,275.850000,-1.909059
3981.296084,275.908000,4.825298
3988.913508,275.966000,0.082900
3996.396478,276.023000,-1.938694
4004.007557,276.081000,2.691666
4011.615438,276.139000,-2.360890
4019.220124,276.197000,-1.269944
4026.690584,276.254000,-4.254948
4034.288940,276.312000,-3.809452
4041.884108,276.370000,3.624388
4049.345219,276.427000,1.223624
4056.934068,276.485000,2.961293
4064.519735,276.543000,-4.912150
4071.971515,276.600000,-2.239524
4079.550876,276.658000,-2.112265
4086.996462,276.715000,2.550152
4094.569525,276.773000,4.217873
4102.008927,276.830000,1.129923
4109.575700,276.888000,-1.728231
4117.008923,276.945000,1.155181
4124.569414,277.003000,1.464586
4131.996467,277.060000,-1.928706
4139.550684,277.118000,0.680912
4146.971575,277.175000,3.984030
4154.519525,277.233000,-0.940524
4161.934262,277.290000,-2.019389
4169.475953,277.348000,-2.097379
4228.011654,277.799000,6.164914
4235.396210,277.856000,-0.782942
4242.907211,277.914000,-1.639113
4250.415077,277.972000,-2.651016
4257.790445,278.029000,3.849285
4265.292102,278.087000,5.373798
4272.790631,278.145000,0.377136
4280.156828,278.202000,1.866254
4287.649159,278.260000,5.233185
4295.138368,278.318000,-0.483767
4302.495411,278.375000,1.447222
4309.978434,278.433000,-1.293612
4317.329402,278.490000,-2.252954
4324.806246,278.548000,0.417176
4332.151147,278.605000,-2.574132
4339.621821,278.663000,0.296517
4346.960661,278.720000,1.329031
4354.425172,278.778000,-1.535926
4361.757959,278.835000,-7.721472
4369.216314,278.893000,6.974645
4376.543056,278.950000,-3.724100
4383.995264,279.008000,-3.709185
4391.315968,279.065000,4.519279
4398.762036,279.123000,1.184909
4406.076709,279.180000,4.854825
4413.516644,279.238000,-3.716821
4420.825295,279.295000,-1.649785
4428.130962,279.352000,-5.331830
4435.561740,279.410000,-0.597450
4442.861395,279.467000,-1.208042
4450.158074,279.524000,3.023154
4457.579711,279.582000,3.321515
4464.870389,279.639000,1.698644
4472.158095,279.696000,-2.780042
4479.570607,279.754000,-4.231139
4486.852324,279.811000,1.760900
4494.131074,279.868000,-2.204128
4501.534479,279.926000,1.900729
4508.807251,279.983000,-2.239161
4516.077062,280.040000,3.652364
4523.343914,280.097000,1.918843
4530.735220,280.155000,1.440555
4537.996108,280.212000,-1.201941
4545.254043,280.269000,-4.060772
4552.509026,280.326000,1.471766
4559.888262,280.384000,-1.633699
4567.137295,280.441000,-3.663204
4574.383383,280.498000,3.351070
4581.626526,280.555000,-3.324778
4588.866727,280.612000,1.502487
4596.103987,280.669000,2.099284
4603.338308,280.726000,-0.333903
4610.696532,280.784000,-2.976688
4617.924929,280.841000,2.800221
4625.150392,280.898000,-3.975235
4632.372923,280.955000,1.090809
4639.592525,281.012000,-1.178325
4646.809198,281.069000,2.849675
4654.022945,281.126000,-3.454499
4661.233767,281.183000,-0.275989
4668.441666,281.240000,-2.075198
4675.646644,281.297000,-3.342971
4682.848703,281.354000,-5.870155
4690.047844,281.411000,3.349225
4697.244070,281.468000,1.030584
4704.437381,281.525000,-5.169134
4711.627780,281.582000,0.844204
4718.815269,281.639000,-0.702100
4725.999849,281.696000,3.196740
4733.181522,281.753000,-1.304940
4740.360290,281.810000,-1.577051
4747.536154,281.867000,0.314725
4754.583300,281.923000,-1.783275
4761.753414,281.980000,-2.363090
4768.920629,282.037000,0.790573
4776.084949,282.094000,-3.833196
4783.246373,282.151000,2.142389
4790.404904,282.208000,-6.228048
4797.435032,282.264000,2.111205
4804.587834,282.321000,-4.246835
4811.737748,282.378000,3.566600
4818.884776,282.435000,-2.000544
4826.028920,282.492000,-0.143458
4833.044920,282.548000,0.445540
4840.183352,282.605000,1.147442
4847.318904,282.662000,-0.312323
4854.451579,282.719000,-3.166695
4861.456319,282.775000,0.168079
4868.583295,282.832000,-2.104050
4875.707399,282.889000,-3.673038
4882.703723,282.945000,-5.658895
4889.822139,283.002000,3.452838
4896.937687,283.059000,-1.125799
4903.925611,283.115000,-2.220899
4911.035481,283.172000,-3.880657
4918.142490,283.229000,0.897458
4925.122029,283.285000,-0.357077
4932.223369,283.342000,1.371383
4939.197342,283.398000,-4.447971
4946.293021,283.455000,-4.047677
4953.385847,283.512000,2.073363
4960.351460,283.568000,-0.867356
4967.438635,283.625000,2.548477
4974.398699,283.681000,-3.117168
4981.480229,283.738000,0.769966
4988.434752,283.794000,0.044277
4995.510644,283.851000,-5.330465
5002.459631,283.907000,0.623546
5009.529893,283.964000,5.197012
5016.473351,284.020000,-4.091563
5023.537988,284.077000,6.590423
5030.475924,284.133000,0.218757
5037.534943,284.190000,-5.669508
5044.467363,284.246000,-5.442985
5051.397052,284.302000,2.277455
5058.447683,284.359000,-2.534981
5065.371866,284.415000,-3.159403
5072.416896,284.472000,0.334767
5079.335580,284.528000,-0.548050
5086.251541,284.584000,3.579646
5093.288207,284.641000,4.629374
5100.198678,284.697000,-0.372425
5107.106432,284.753000,3.697532
5114.134748,284.810000,2.992965
5121.037022,284.866000,1.643452
5127.936582,284.922000,-1.547144
5134.833431,284.978000,-1.307728
5141.850655,285.035000,2.805571
5148.742037,285.091000,3.714134
5155.630712,285.147000,1.067857
5162.516682,285.203000,-0.669355
5169.522840,285.260000,-1.149969
5176.403356,285.316000,2.936838
5183.281172,285.372000,-5.070480
5190.156289,285.428000,-2.900588
5197.028709,285.484000,-2.622181
5204.021082,285.541000,-0.264778
5210.888064,285.597000,-0.445910
5217.752353,285.653000,-0.628054
5224.613952,285.709000,-0.012289
5231.472862,285.765000,3.531360
5238.329083,285.821000,-2.327201
5245.182619,285.877000,0.094684
5252.033470,285.933000,0.586411
5258.881638,285.989000,-4.827024
5265.727125,286.045000,-0.031226
5272.569932,286.101000,4.470930
5279.532182,286.158000,-0.462713
5286.369586,286.214000,-0.646011
5293.204315,286.270000,-4.159242
5300.036371,286.326000,-3.723976
5306.865755,286.382000,-2.168565
5313.692468,286.438000,0.837563
5320.516513,286.494000,1.615977
5327.216104,286.549000,1.261661
5334.034863,286.605000,-2.877826
5340.850958,286.661000,-0.731786
5347.664391,286.717000,8.115049
5354.475163,286.773000,3.262688
5361.283275,286.829000,-1.635465
5368.088729,286.885000,-1.433623
5374.891528,286.941000,-1.591086
5381.691671,286.997000,1.261881
5388.489161,287.053000,0.603025
5395.162686,287.108000,-2.528663
5401.954922,287.164000,-3.357079
5408.744509,287.220000,-1.008690
5415.531448,287.276000,1.839272
5422.315743,287.332000,0.914640
5428.976316,287.387000,-0.446732
5435.755371,287.443000,0.853044
5442.531785,287.499000,2.907201
5449.305560,287.555000,4.046089
5456.076697,287.611000,-2.095118
5462.724355,287.666000,-1.017158
5469.490268,287.722000,0.510076
5476.253548,287.778000,0.516846
5482.893494,287.833000,0.364495
5489.651559,287.889000,-2.352011
5496.406995,287.945000,-6.981218
5503.039242,288.000000,-1.832002
5509.789473,288.056000,-1.073800
5516.537079,288.112000,0.552826
5523.161640,288.167000,-2.142231
5529.904050,288.223000,3.988507
5536.643840,288.279000,0.864518
5543.260729,288.334000,4.849118
5549.995332,288.390000,-1.265742
5556.607128,288.445000,-0.457171
5563.336549,288.501000,0.525504
5569.943259,288.556000,-0.470134
5576.667504,288.612000,-0.512329
5583.269134,288.667000,4.459591
5589.988209,288.723000,-2.881390
5596.584764,288.778000,-4.279473
5603.298676,288.834000,3.567742
5609.890162,288.889000,-6.332680
5616.598916,288.945000,-0.979432
5623.185340,289.000000,1.839803
5629.888941,289.056000,-4.278397
5636.470308,289.111000,-4.643728
5643.168763,289.167000,-4.970269
5649.745079,289.222000,-1.080752
5656.438394,289.278000,-0.575531
5663.009664,289.333000,-2.155221
5669.578437,289.388000,-0.278948
5676.264076,289.444000,-0.421159
5682.827812,289.499000,-0.502020
5689.389054,289.554000,0.570317
5696.067030,289.610000,2.957681
5702.623244,289.665000,1.438128
5709.176969,289.720000,2.117992
5715.847296,289.776000,-2.513285
5722.396001,289.831000,4.474273
5728.942221,289.886000,1.313356
5735.485958,289.941000,-4.526904
5742.146122,289.997000,3.646125
5748.684850,290.052000,1.041152
5755.221100,290.107000,1.755361
5761.754871,290.162000,-0.435316
5768.404894,290.218000,0.972028
5774.933669,290.273000,-1.761313
5781.459971,290.328000,1.039814
5787.983800,290.383000,4.041542
5794.505158,290.438000,-6.703776
5801.142550,290.494000,-1.653092
5807.658926,290.549000,3.708390
5814.172835,290.604000,-1.870469
5820.684279,290.659000,-3.932309
5827.193260,290.714000,3.649333
5833.699778,290.769000,-2.116734
5840.203835,290.824000,-1.791746
5846.705432,290.879000,4.891826
5853.204572,290.934000,5.040860
5859.701254,290.989000,4.068904
5866.195481,291.044000,-3.140062
5872.687254,291.099000,-1.175080
5879.176574,291.154000,0.778090
5885.663444,291.209000,2.134550
5892.147863,291.264000,1.778971
5898.629834,291.319000,-6.152876
5905.109357,291.374000,0.219746
5911.586435,291.429000,1.936998
5918.061069,291.484000,-2.564323
5924.533260,291.539000,1.314725
5931.003009,291.594000,-3.813397
5937.470318,291.649000,1.374437
5943.935188,291.704000,0.913150
5950.397621,291.759000,-2.272857
5956.857618,291.814000,-3.551405
5963.315180,291.869000,6.879040
5969.770309,291.924000,1.688086
5976.105706,291.978000,3.626421
5982.556017,292.033000,2.098203
5989.003898,292.088000,4.052981
5995.449352,292.143000,5.317775
6001.892379,292.198000,0.811697
6008.215901,292.252000,4.033851
6014.654123,292.307000,2.331535
6021.089923,292.362000,-0.911780
6027.523303,292.417000,-0.460903
6033.954262,292.472000,-4.544972
6040.265942,292.526000,0.619388
6046.692111,292.581000,2.431471
6053.115864,292.636000,-0.351059
6059.420472,292.690000,0.431088
6065.839442,292.745000,0.015630
6072.256000,292.800000,-1.358059
6078.553548,292.854000,2.309917
6084.965331,292.909000,0.382163
6091.374707,292.964000,1.015940
6097.665207,293.018000,-1.544833
6104.069816,293.073000,2.514112
6110.472021,293.128000,0.679537
6116.755485,293.182000,3.194857
6123.152931,293.237000,1.760770
6129.431725,293.291000,-3.651398
6135.824417,293.346000,0.811059
6142.098547,293.400000,-3.333675
6148.486490,293.455000,2.629947
6154.872040,293.510000,0.019248
6161.139160,293.564000,-1.588954
6167.519969,293.619000,1.846465
6173.782438,293.673000,1.865710
6180.158512,293.728000,-6.414559
6186.416334,293.782000,3.186100
6192.787678,293.837000,-1.188627
6199.040859,293.891000,-0.797367
6205.291742,293.945000,2.232725
6211.656022,294.000000,-2.371309
6217.902272,294.054000,-0.733382
6224.261835,294.109000,2.699263
6230.503456,294.163000,-2.857661
6236.742786,294.217000,-3.093160
6243.095305,294.272000,-2.125623
6249.330014,294.326000,-0.677960
6255.677829,294.381000,3.201758
6261.907923,294.435000,-3.069452
6268.135731,294.489000,-0.003272
6274.476522,294.544000,-2.037704
6280.699722,294.598000,0.315264
6286.920642,294.652000,0.888671
6293.139281,294.706000,-4.959054
6299.470739,294.761000,0.103705
6305.684781,294.815000,-1.766950
6311.896546,294.869000,0.922318
6318.106037,294.923000,-0.014001
6324.428182,294.978000,-2.964394
6330.633085,295.032000,-1.713614
6336.835717,295.086000,-4.349234
6343.036080,295.140000,-10.337895
6349.234174,295.194000,3.462982
6355.544717,295.249000,-1.866193
6361.738236,295.303000,1.048326
6367.929490,295.357000,-1.894949
6374.118480,295.411000,1.547326
6380.305209,295.465000,-4.925119
6386.489676,295.519000,0.582611
6392.671884,295.573000,-2.410850
6398.851833,295.627000,0.992062
6405.143905,295.682000,-3.501992
6411.319300,295.736000,4.331901
6417.492439,295.790000,5.420391
6423.663325,295.844000,1.378891
6429.831958,295.898000,5.346423
6435.998340,295.952000,4.231964
6442.162473,296.006000,-0.003344
6448.324357,296.060000,-0.268006
6454.483993,296.114000,2.457880
6460.641384,296.168000,0.410996
6466.796529,296.222000,-0.528396
6472.949431,296.276000,5.310326
6479.100090,296.330000,-2.017222
6485.248508,296.384000,-1.552566
6491.280888,296.437000,-1.961205
6497.424869,296.491000,-1.036899
6503.566612,296.545000,-5.113383
6509.706118,296.599000,-0.389107
6515.843390,296.653000,0.298098
6521.978427,296.707000,1.404062
6528.111232,296.761000,0.739839
6534.241805,296.815000,2.744843
6540.256681,296.868000,2.517639
6546.382836,296.922000,-2.914767
6552.506763,296.976000,2.728076
6558.628464,297.030000,0.440802
6564.747939,297.084000,6.822521
6570.751928,297.137000,2.854535
6576.866997,297.191000,4.383968
6582.979845,297.245000,4.640650
6589.090471,297.299000,2.763601
6595.085780,297.352000,2.736193
6601.192010,297.406000,2.467042
6607.296023,297.460000,1.542757
6613.397821,297.514000,3.001861
6619.384468,297.567000,3.690669
6625.481879,297.621000,0.329428
6631.577077,297.675000,2.004776
6637.557251,297.728000,-0.204673
6643.648069,297.782000,-1.606282
6649.623947,297.835000,4.279936
6655.710390,297.889000,4.805647
6661.794627,297.943000,1.817063
6667.764048,297.996000,8.716881
6673.843917,298.050000,6.980415
6679.809053,298.103000,-0.351780
6685.884559,298.157000,-1.746340
6691.957864,298.211000,-4.054655
6697.916562,298.264000,-1.475738
6703.985510,298.318000,-3.179364
6709.939935,298.371000,-1.816799
6716.004532,298.425000,4.128042
6721.954688,298.478000,-0.282570
6728.014938,298.532000,-1.689880
6733.960830,298.585000,-0.674597
6739.904611,298.638000,6.902800
6745.958369,298.692000,-3.716133
6751.897893,298.745000,0.977495
6757.947317,298.799000,1.098929
6763.882588,298.852000,-0.468094
6769.927680,298.906000,2.154881
6775.858703,298.959000,-1.094535
6781.787624,299.012000,-0.164154
6787.826249,299.066000,-3.852741
6793.750928,299.119000,-3.772160
6799.673508,299.172000,4.101709
6805.705677,299.226000,1.094690
6811.624022,299.279000,0.988998
6817.540272,299.332000,-4.483825
6823.565994,299.386000,4.583233
6829.478016,299.439000,0.885952
6835.387945,299.492000,-0.885361
6841.407231,299.546000,-0.590859
6847.312940,299.599000,1.422992
6853.216559,299.652000,5.386604
6859.118090,299.705000,0.488966
6865.017534,299.758000,4.812630
6871.026143,299.812000,1.995220
6876.921378,299.865000,-3.190517
6882.814529,299.918000,-1.939316
6888.705597,299.971000,-3.700957
6894.594584,300.024000,-0.243329
6900.592545,300.078000,0.979765
6906.477333,300.131000,1.700210
6912.360044,300.184000,4.029356
6918.240677,300.237000,-3.235359
6924.119235,300.290000,5.834748
6929.995718,300.343000,0.825421
6935.870127,300.396000,2.095440
6941.742464,300.449000,1.258465
6947.612730,300.502000,-1.658880
6953.480925,300.555000,-0.964972
6959.347051,300.608000,5.083199
6965.211108,300.661000,0.646237
6971.073099,300.714000,-2.260226
6976.933024,300.767000,-1.210073
6982.790884,300.820000,-4.309556
6988.646680,300.873000,-2.054292
6994.500413,300.926000,-6.878636
7000.352085,300.979000,-1.367828
7006.201696,301.032000,1.736455
7012.049248,301.085000,1.764003
7017.894742,301.138000,-0.168410
7023.738178,301.191000,-0.985471
7029.579559,301.244000,-3.486962
7035.418884,301.297000,4.062640
7041.256155,301.350000,3.787231
7047.091373,301.403000,-0.305103
7052.924539,301.456000,3.509646
7058.645653,301.508000,-2.829212
7064.474758,301.561000,1.215971
7070.301814,301.614000,-3.527291
7076.126822,301.667000,-1.625016
7081.949784,301.720000,-2.353286
7087.660892,301.772000,-1.391520
7093.479803,301.825000,1.631135
7099.296670,301.878000,0.299394
7105.111496,301.931000,-2.721792
7110.814624,301.983000,5.300832
7116.625408,302.036000,6.448539
7122.434152,302.089000,-5.340118
7128.240858,302.142000,0.128159
7133.936024,302.194000,0.238832
7139.738696,302.247000,-4.526184
7145.539334,302.300000,-3.135133
7151.228549,302.352000,-0.601299
7157.025159,302.405000,-2.354295
7162.819737,302.458000,-0.415748
7168.503010,302.510000,1.050930
7174.293567,302.563000,-0.265769
7180.082095,302.616000,1.851276
7185.759436,302.668000,-0.720203
7191.543949,302.721000,-1.651761
7197.217352,302.773000,-6.997025
7202.997854,302.826000,-2.321502
7208.667324,302.878000,0.855171
7214.443819,302.931000,-3.477324
7220.109360,302.983000,-6.516637
7225.881853,303.036000,-3.612204
7231.543468,303.088000,1.223819
7237.311962,303.141000,-0.810252
7242.969657,303.193000,-3.146114
7248.734156,303.246000,-3.701153
7254.387934,303.298000,-2.026773
7260.148443,303.351000,-2.105419
7265.798308,303.403000,5.629689
7271.554831,303.456000,-5.081258
7277.200787,303.508000,1.995830
7282.953328,303.561000,-2.003871
7288.595379,303.613000,1.292992
7294.235498,303.665000,-1.332208
7299.982093,303.718000,4.151684
7305.618313,303.770000,0.747213
7311.252604,303.822000,3.789370
7316.993262,303.875000,-2.776971
7322.623660,303.927000,-0.494623
7328.252131,303.979000,1.697677
7333.986862,304.032000,-5.887654
7339.611446,304.084000,-10.665649
7345.234108,304.136000,-13.253056
7350.962920,304.189000,-5.977127
7356.581700,304.241000,-3.108461
7362.198561,304.293000,-3.865501
7367.813502,304.345000,-5.031002
7373.426525,304.397000,-3.009479
7379.145517,304.450000,-5.125529
7384.754669,304.502000,-3.856770
7390.361906,304.554000,-7.528310
7395.967228,304.606000,-3.454864
7401.570637,304.658000,-8.449566
7407.279836,304.711000,-6.396863
7412.879384,304.763000,-7.124323
7418.477021,304.815000,-7.610224
7424.072749,304.867000,0.744734
7429.666569,304.919000,-7.290817
7435.258480,304.971000,-4.953475
7440.848486,305.023000,-5.638896
7446.436585,305.075000,-5.871509
7452.022780,305.127000,-6.159086
7457.607071,305.179000,-4.708182
7463.296795,305.232000,-4.722975
7468.877245,305.284000,-1.614433
7474.455794,305.336000,-2.824438
7480.032444,305.388000,-6.850231
7485.607195,305.440000,-9.485485
7491.180048,305.492000,-2.278269
7496.751004,305.544000,-9.106785
7502.212985,305.595000,-4.509428
7507.780187,305.647000,-7.077197
7513.345495,305.699000,-3.761646
7518.908909,305.751000,-5.120618
7524.470432,305.803000,-12.445227
7530.030064,305.855000,-10.031738
7535.587805,305.907000,-14.641438
7541.143658,305.959000,-2.664700
7546.697622,306.011000,-13.231098
7552.249699,306.063000,-6.104307
7557.693173,306.114000,-3.913752
7563.241514,306.166000,3.725418
7568.787971,306.218000,-3.157786
7574.332545,306.270000,-4.452309
7579.875237,306.322000,-3.965600
7585.416047,306.374000,-1.034416
7590.848476,306.425000,2.046660
7596.385562,306.477000,-2.408296
7601.920769,306.529000,-3.212392
7607.454098,306.581000,-3.723508
7612.879195,306.632000,0.092821
7618.408808,306.684000,2.902827
7623.936546,306.736000,2.235581
7629.462411,306.788000,3.619248
7634.880189,306.839000,5.003508
7640.402345,306.891000,-6.529956
7645.922629,306.943000,-1.384275
7651.334938,306.994000,1.307383
7656.851519,307.046000,0.565385
7662.260197,307.097000,4.567390
7667.773079,307.149000,-4.834517
7673.284094,307.201000,-5.342004
7678.687317,307.252000,0.209128
7684.194638,307.304000,-4.265536
7689.700096,307.356000,-2.738768
7695.097870,307.407000,-0.967833
7700.599639,307.459000,-2.976733
7705.993798,307.510000,-1.487933
7711.491883,307.562000,5.762988
7716.882430,307.613000,-1.166271
7722.376833,307.665000,0.395404
7727.763772,307.716000,1.984225
7733.254498,307.768000,0.491568
7738.637831,307.819000,-0.598015
7744.124884,307.871000,-2.336921
7749.504617,307.922000,3.902663
7754.988000,307.974000,-5.158129
7760.364134,308.025000,-1.690060
7765.738489,308.076000,-0.760496
7771.216392,308.128000,-0.370519
7776.587155,308.179000,-2.767116
7782.061397,308.231000,-0.628100
7787.428571,308.282000,-0.586891
7792.793970,308.333000,-4.220221
7798.262745,308.385000,-0.274849
7803.624561,308.436000,1.122803
7808.984603,308.487000,2.779449
7814.447920,308.539000,-0.472304
7819.804385,308.590000,-2.206220
7825.159080,308.641000,0.764525
7830.616947,308.693000,2.773455
7835.968069,308.744000,0.734313
7841.317424,308.795000,2.379518
7846.665012,308.846000,0.933987
7852.115636,308.898000,-4.004277
7857.459659,308.949000,0.920312
7862.801917,309.000000,1.401161
7868.142413,309.051000,4.370528
7873.481146,309.102000,0.717025
7878.922746,309.154000,-0.540098
7884.257923,309.205000,-0.617375
7889.591340,309.256000,1.769306
7894.922998,309.307000,2.170047
7900.252898,309.358000,-3.620828
7905.581041,309.409000,-0.994972
7910.907428,309.460000,-1.330374
7916.336447,309.512000,-4.193993
7921.659290,309.563000,0.775140
7926.980379,309.614000,-3.945734
7932.299715,309.665000,-0.830881
7937.617300,309.716000,-5.019889
7942.933134,309.767000,-1.145201
7948.247217,309.818000,-2.797298
7953.559551,309.869000,0.006065
7958.870137,309.920000,-5.063004
7964.178976,309.971000,-1.368990
7969.486068,310.022000,-1.504336
7974.791414,310.073000,1.714033
7980.095015,310.124000,3.776539
7985.396872,310.175000,3.447968
7990.696985,310.226000,5.017932
7995.995357,310.277000,0.159471
8001.291987,310.328000,-3.867450
8006.586876,310.379000,-1.469227
8011.880026,310.430000,-2.881123
8017.067700,310.480000,-1.820684
8022.357406,310.531000,2.996994
8027.645376,310.582000,2.949873
8032.931609,310.633000,-1.781360
8038.216106,310.684000,-2.442190
8043.498869,310.735000,2.379645
8048.779898,310.786000,-1.573654
8053.955695,310.836000,3.143433
8059.233293,310.887000,6.735704
8064.509160,310.938000,-2.525338
8069.783296,310.989000,-4.077154
8074.952339,311.039000,3.189728
8080.223051,311.090000,-2.946088
8085.492035,311.141000,4.922017
8090.759292,311.192000,0.266160
8095.921594,311.242000,-0.822955
8101.185433,311.293000,-0.809329
8106.447548,311.344000,-3.913826
8111.604811,311.394000,4.662291
8116.863513,311.445000,-2.552981
8122.120493,311.496000,3.214278
8127.272724,311.546000,-1.546666
8132.526297,311.597000,0.591532
8137.778150,311.648000,7.592877
8142.925357,311.698000,-0.858225
8148.173807,311.749000,2.024415
8153.420541,311.800000,-3.383238
8158.562731,311.850000,1.156669
8163.806066,311.901000,-1.919416
8168.944927,311.951000,-2.410129
8174.184869,312.002000,3.474277
8179.320403,312.052000,-3.022988
8184.556953,312.103000,-3.068201
8189.689165,312.153000,-0.492674
8194.922327,312.204000,2.556471
8200.051219,312.254000,3.418798
8205.280996,312.305000,1.886004
8210.406572,312.355000,1.205246
8215.632968,312.406000,10.000542
8220.755230,312.456000,1.113711
8225.978248,312.507000,-0.105775
8231.097200,312.557000,-10.139969
8236.316843,312.608000,-2.116073
8241.432488,312.658000,-1.089152
8246.546497,312.708000,-0.904811
8251.761101,312.759000,-2.989481
8256.871808,312.809000,2.874694
8261.980881,312.859000,-3.218639
8267.190453,312.910000,-5.177044
8272.296229,312.960000,-2.554838
8277.400373,313.010000,4.860720
8282.604921,313.061000,4.845419
8287.705773,313.111000,1.799407
8292.804996,313.161000,1.323553
8298.004526,313.212000,3.278221
8303.100462,313.262000,-3.609529
8308.194770,313.312000,2.101792
8313.287453,313.362000,2.474144
8318.480316,313.413000,-4.166052
8323.569717,313.463000,3.659019
8328.657496,313.513000,3.969481
8333.743651,313.563000,-1.520070
8338.828185,313.613000,-3.094639
8344.012739,313.664000,5.986271
8349.094000,313.714000,-4.059505
8354.173640,313.764000,0.549159
8359.251662,313.814000,3.500603
8364.328066,313.864000,-3.883536
8369.402853,313.914000,-0.142710
8374.476024,313.964000,0.474021
8379.547579,314.014000,5.853671
8384.718901,314.065000,-1.217069
8389.787195,314.115000,0.082215
8394.853876,314.165000,-1.919443
8399.918944,314.215000,-0.364069
8404.982400,314.265000,0.794529
8410.044246,314.315000,-0.624354
8415.104481,314.365000,0.233184
8420.163107,314.415000,-5.080265
8425.220124,314.465000,1.434883
8430.275533,314.515000,-3.053856
8435.329336,314.565000,4.332755
8440.381532,314.615000,-0.497965
8445.432122,314.665000,-2.604029
8450.481107,314.715000,0.244790
8455.528489,314.765000,-0.817876
8460.473367,314.814000,-2.522093
8465.517575,314.864000,-1.034311
8470.560181,314.914000,0.868122
8475.601186,314.964000,-4.619422
8480.640590,315.014000,1.878218
8485.678395,315.064000,0.094176
8490.714602,315.114000,5.255825
8495.749210,315.164000,-0.421656
8500.681577,315.213000,-3.077887
8505.713024,315.263000,-1.579611
8510.742875,315.313000,0.781867
8515.771131,315.363000,2.130765
8520.797793,315.413000,2.092870
8525.722375,315.462000,3.877992
8530.745883,315.512000,2.044203
8535.767799,315.562000,0.068840
8540.788124,315.612000,-0.833509
8545.706499,315.661000,-0.071028
8550.723675,315.711000,-4.213149
8555.739262,315.761000,2.095528
8560.652997,315.810000,-3.913701
8565.665441,315.860000,-0.963738
8570.676298,315.910000,-0.507211
8575.585399,315.959000,-8.066383
8580.593116,316.009000,1.838067
8585.599249,316.059000,-2.658477
8590.503723,316.108000,-1.767540
8595.506721,316.158000,-2.732984
8600.508137,316.208000,-1.061675
8605.407991,316.257000,1.667456
8610.406276,316.307000,0.724630
8615.303063,316.356000,0.204733
8620.298221,316.406000,-1.450959
8625.191944,316.455000,2.330995
8630.183977,316.505000,1.936052
8635.074640,316.554000,1.017773
8640.063551,316.604000,2.900463
8644.951156,316.653000,-0.501427
8649.936949,316.703000,1.588558
8654.821499,316.752000,-2.931671
8659.804175,316.802000,-0.842696
8664.685673,316.851000,4.350502
8669.665237,316.901000,-2.601241
8674.543685,316.950000,-2.999576
8679.520139,317.000000,0.921090
8684.395541,317.049000,-3.219171
8689.269436,317.098000,-2.767810
8694.241247,317.148000,1.264614
8699.112100,317.197000,-1.312560
8703.981448,317.246000,-2.581080
8708.948621,317.296000,4.637684
8713.814931,317.345000,-1.101662
8718.779005,317.395000,-5.236987
8723.642281,317.444000,-1.739802
8728.504055,317.493000,1.491974
8733.364329,317.542000,-1.160087
8738.322247,317.592000,-0.138090
8743.179491,317.641000,-5.675860
8748.035237,317.690000,-3.800131
8752.889486,317.739000,-0.694265
8757.841258,317.789000,0.527561
8762.692483,317.838000,-0.239448
8767.542212,317.887000,2.667949
8772.390446,317.936000,1.760234
8777.336084,317.986000,-1.293119
8782.181300,318.035000,-1.239190
8787.025024,318.084000,2.270072
8791.867255,318.133000,4.016507
8796.707995,318.182000,2.872755
8801.547244,318.231000,-2.191745
8806.385003,318.280000,-1.464324
8811.319957,318.330000,0.726367
8816.154708,318.379000,3.553441
8820.987971,318.428000,2.926262
8825.819746,318.477000,5.515025
8830.650035,318.526000,6.256089
8835.478838,318.575000,0.709930
8840.306156,318.624000,0.359997
8845.131990,318.673000,0.929310
8849.956339,318.722000,6.719205
8854.779206,318.771000,-0.501385
8859.600590,318.820000,1.828097
8864.420492,318.869000,4.657336
8869.238913,318.918000,2.995921
8874.055854,318.967000,-2.742853
8878.871314,319.016000,1.013579
8883.685296,319.065000,-2.858860
8888.497800,319.114000,5.285442
8893.308826,319.163000,1.415566
8898.118374,319.212000,-0.531527
8902.926447,319.261000,-4.597891
8907.634964,319.309000,-4.445952
8912.440116,319.358000,-2.026672
8917.243794,319.407000,-1.930969
8922.045998,319.456000,0.963114
8926.846729,319.505000,-2.665076
8931.645988,319.554000,0.352753
8936.443775,319.603000,-6.043221
8941.142222,319.651000,3.256653
8945.937098,319.700000,-2.788846
8950.730504,319.749000,5.199539
8955.522441,319.798000,0.972677
8960.215161,319.846000,8.477860
8965.004192,319.895000,-0.844624
8969.791757,319.944000,3.588519
8974.577855,319.993000,-3.107287
8979.264858,320.041000,3.915433
8984.048055,320.090000,-2.606549
8988.829789,320.139000,-0.555988
8993.512517,320.187000,-2.606046
8998.291355,320.236000,-2.721796
9003.068730,320.285000,-3.009735
9007.747190,320.333000,5.833199
9012.521672,320.382000,0.478187
9017.294694,320.431000,-4.311031
9021.968893,320.479000,1.748758
9026.739026,320.528000,0.092905
9031.410396,320.576000,-0.720314
9036.177644,320.625000,-1.595620
9040.943434,320.674000,-0.344628
9045.610552,320.722000,2.741230
9050.373460,320.771000,1.164683
9055.037756,320.819000,6.466260
9059.797784,320.868000,1.091847
9064.459261,320.916000,-5.330697
9069.216413,320.965000,1.694792
9073.875072,321.013000,-0.769882
9078.629350,321.062000,-0.070585
9083.285194,321.110000,3.119093
9088.036601,321.159000,1.636204
9092.689634,321.207000,4.478153
9097.438171,321.256000,0.010813
9102.088394,321.304000,-0.574949
9106.737229,321.352000,-2.542836
9111.481482,321.401000,-0.864996
9116.127511,321.449000,0.043113
9120.868902,321.498000,-3.280647
9125.512128,321.546000,-2.018072
9130.153968,321.594000,2.389802
9134.891085,321.643000,1.252393
9139.530126,321.691000,0.584274
9144.167783,321.739000,1.842440
9148.900630,321.788000,-2.962835
9153.535492,321.836000,1.661895
9158.168971,321.884000,1.500984
9162.801069,321.932000,0.521446
9167.528244,321.981000,-3.083953
9172.157551,322.029000,-2.722120
9176.785479,322.077000,-3.663891
9181.412027,322.125000,5.910469
9186.133540,322.174000,1.681522
9190.757302,322.222000,-9.031130
9195.379688,322.270000,-0.907928
9200.000697,322.318000,5.854854
9204.620330,322.366000,-1.579122
9209.334786,322.415000,-4.994978
9213.951640,322.463000,-3.873073
9218.567119,322.511000,-3.041966
9223.181225,322.559000,1.308558
9227.793957,322.607000,-1.492140
9232.405318,322.655000,1.812400
9237.015306,322.703000,1.167833
9241.623923,322.751000,-3.630628
9246.231170,322.799000,3.113764
9250.932988,322.848000,-5.032717
9255.537466,322.896000,0.662850
9260.140576,322.944000,1.662618
9264.742318,322.992000,-1.627704
9269.342693,323.040000,-0.131106
9273.941700,323.088000,5.064721
9278.539341,323.136000,3.820244
9283.135616,323.184000,2.747365
9287.730527,323.232000,0.489730
9292.324072,323.280000,-3.430046
9296.916254,323.328000,-2.962633
9301.411445,323.375000,-3.604306
9306.000929,323.423000,-3.829102
9310.589052,323.471000,-2.051228
9315.175812,323.519000,-1.745031
9319.761212,323.567000,3.545789
9324.345252,323.615000,2.471003
9328.927932,323.663000,0.639835
9333.509253,323.711000,-2.638127
9338.089216,323.759000,0.631879
9342.572447,323.806000,-0.215087
9347.149722,323.854000,0.753381
9351.725642,323.902000,-0.557303
9356.300205,323.950000,-1.831102
9360.873412,323.998000,0.365055
9365.350032,324.045000,1.890315
9369.920559,324.093000,-3.777576
9374.489732,324.141000,-0.058096
9379.057552,324.189000,2.336951
9383.528899,324.236000,-2.024127
9388.094043,324.284000,-4.237475
9392.657836,324.332000,-3.167184
9397.125241,324.379000,-1.607263
9401.686361,324.427000,2.102775
9406.246132,324.475000,-1.067871
9410.804554,324.523000,-0.049647
9415.266702,324.570000,1.886046
9419.822456,324.618000,-0.631371
9424.281993,324.665000,-3.417979
9428.835082,324.713000,5.445035
9433.386824,324.761000,0.481471
9437.842435,324.808000,0.031498
9442.391516,324.856000,-0.808705
9446.844521,324.903000,-4.714703
9451.390942,324.951000,-3.424455
9455.936020,324.999000,-4.908171
9460.385108,325.046000,0.326401
9464.927530,325.094000,0.187957
9469.374018,325.141000,-1.734156
9473.913786,325.189000,-2.204263
9478.357677,325.236000,2.288359
9482.894794,325.284000,-2.688642
9487.336090,325.331000,-0.880182
9491.870557,325.379000,-5.455270
9496.309260,325.426000,1.358390
9500.746681,325.473000,-1.036958
9505.277193,325.521000,-2.312204
9509.712024,325.568000,-1.254726
9514.239893,325.616000,-6.267626
9518.672137,325.663000,-4.996404
9523.103102,325.710000,-2.673541
9527.627024,325.758000,-3.020011
9532.055405,325.805000,1.474612
9536.576689,325.853000,-2.889602
9541.002489,325.900000,1.399317
9545.427013,325.947000,-1.045485
9549.850260,325.994000,-1.534153
9554.366303,326.042000,1.835236
9558.786974,326.089000,2.541892
9563.206371,326.136000,8.736772
9567.718482,326.184000,5.104985
9572.135305,326.231000,3.170484
9576.550855,326.278000,3.140140
9580.965134,326.325000,1.064485
9585.472021,326.373000,0.197650
9589.883730,326.420000,2.013468
9594.294169,326.467000,-3.886484
9598.703338,326.514000,-0.314320
9603.111238,326.561000,-2.220943
9607.611614,326.609000,-0.505768
9612.016950,326.656000,2.462331
9616.421019,326.703000,1.666092
9620.823821,326.750000,-0.375648
9625.225356,326.797000,-4.888511
9629.625626,326.844000,-1.736519
9634.024630,326.891000,6.286298
9638.422369,326.938000,2.761902
9642.818845,326.985000,-2.925131
9647.214056,327.032000,-0.321976
9651.701479,327.080000,-1.101208
9656.094138,327.127000,3.187500
9660.485535,327.174000,-0.970421
9664.875670,327.221000,1.651474
9669.264544,327.268000,5.470381
9673.652158,327.315000,1.644404
9678.038512,327.362000,-0.672811
9682.423607,327.409000,-2.912090
9686.807443,327.456000,-5.611347
9691.190021,327.503000,4.286225
9695.478134,327.549000,3.352516
9699.858224,327.596000,0.247587
9704.237057,327.643000,-1.469168
9708.614633,327.690000,2.337969
9712.990955,327.737000,-2.320079
9717.366021,327.784000,-2.410554
9721.739833,327.831000,-1.784636
9726.112390,327.878000,2.657153
9730.483695,327.925000,-1.273904
9734.760780,327.971000,0.707225
9739.129606,328.018000,-1.310781
9743.497180,328.065000,3.797375
9747.863503,328.112000,-0.513593
9752.228575,328.159000,1.228985
9756.499562,328.205000,-0.997989
9760.862161,328.252000,3.262428
9765.223511,328.299000,-2.985090
9769.583612,328.346000,6.824986
9773.849737,328.392000,-0.638593
9778.207369,328.439000,-6.835242
9782.563754,328.486000,-2.280523
9786.918893,328.533000,-1.656364
9791.180163,328.579000,0.960110
9795.532837,328.626000,-3.451668
9799.884266,328.673000,-1.748454
9804.141906,328.719000,-4.541945
9808.490874,328.766000,-2.123856
9812.838598,328.813000,3.115674
9817.092614,328.859000,-1.763701
9821.437879,328.906000,1.681352
9825.689490,328.952000,-1.037878
9830.032299,328.999000,-3.580989
9834.373868,329.046000,2.466047
9838.621862,329.092000,-0.852755
9842.960977,329.139000,-4.243073
9847.206571,329.185000,3.055522
9851.543235,329.232000,4.162174
9855.786431,329.278000,-0.415989
9860.120646,329.325000,-3.042995
9864.361446,329.371000,-2.707298
9868.693214,329.418000,-6.657569
9872.931619,329.464000,1.025389
9877.260942,329.511000,-0.573215
9881.496956,329.557000,-0.661857
9885.823836,329.604000,3.921479
9890.057460,329.650000,-4.620483
9894.289903,329.696000,-3.970499
9898.613135,329.743000,1.915559
9902.843191,329.789000,-5.786922
9907.163985,329.836000,-1.364392
9911.391656,329.882000,-0.155092
9915.618148,329.928000,-1.237631
9919.935303,329.975000,-1.105748
9924.159413,330.021000,1.861087
9928.382346,330.067000,0.016840
9932.695866,330.114000,1.663890
9936.916419,330.160000,2.860443
9941.135797,330.206000,1.966790
9945.445687,330.253000,-3.169026
9949.662689,330.299000,0.148696
9953.878516,330.345000,-0.397542
9958.093170,330.391000,-0.584796
9962.398234,330.438000,1.328695
9966.610516,330.484000,1.741327
9970.821625,330.530000,-1.108090
9975.031562,330.576000,-2.940201
9979.240328,330.622000,-0.550398
9983.539380,330.669000,5.174890
9987.745778,330.715000,2.273597
9991.951007,330.761000,4.050685
9996.155067,330.807000,0.474252
10000.357957,330.853000,-2.569076
10004.559679,330.899000,-0.406623
10008.760233,330.945000,-4.589228
10013.050897,330.992000,0.075399
10017.249091,331.038000,0.950352
10021.446118,331.084000,-2.564304
10025.641979,331.130000,0.544440
10029.836675,331.176000,-3.229171
10034.030205,331.222000,-0.201857
10038.222571,331.268000,-1.297785
10042.413773,331.314000,2.402332
10046.603811,331.360000,3.344912
10050.792686,331.406000,-0.233074
10054.980398,331.452000,-5.708195
10059.166948,331.498000,-3.511706
10063.352336,331.544000,0.890444
10067.536563,331.590000,-1.589479
10071.719629,331.636000,-3.511390
10075.901535,331.682000,-0.768073
10080.082281,331.728000,-2.870718
10084.261868,331.774000,1.397675
10088.440296,331.820000,6.286692
10092.526768,331.865000,-0.555031
10096.702905,331.911000,-2.422639
10100.877884,331.957000,3.795676
10105.051707,332.003000,-0.969092
10109.224373,332.049000,-6.001247
10113.395884,332.095000,7.363818
10117.475591,332.140000,-2.056714
10121.644816,332.186000,1.357652
10125.812886,332.232000,-5.660819
10129.979802,332.278000,0.304214
10134.145565,332.324000,-3.340593
10138.219652,332.369000,-3.474619
10142.383134,332.415000,-0.035011
10146.545464,332.461000,-4.755630
10150.706643,332.507000,-0.137797
10154.776247,332.552000,2.469178
10158.935148,332.598000,-2.924850
10163.092900,332.644000,1.742217
10167.159152,332.689000,0.709729
10171.314630,332.735000,-5.986939
10175.468958,332.781000,-1.619812
10179.531864,332.826000,0.918132
10183.683921,332.872000,-0.159694
10187.834831,332.918000,-3.088866
10191.894393,332.963000,-1.046042
10196.043035,333.009000,-1.786761
10200.190530,333.055000,1.649535
10204.246754,333.100000,-0.506420
10208.391984,333.146000,0.766731
10212.445992,333.191000,0.239873
10216.588958,333.237000,-0.120752
10220.640753,333.282000,-4.224391
10224.781457,333.328000,-3.834349
10228.831039,333.373000,2.919901
10232.969483,333.419000,-3.360079
10237.016856,333.464000,0.343511
10241.153042,333.510000,3.452025
10245.198206,333.555000,1.330732
10249.332135,333.601000,0.282352
10253.375094,333.646000,2.945554
10257.506768,333.692000,-4.300342
10261.547522,333.737000,0.215538
10265.587186,333.782000,-3.086032
10269.715494,333.828000,1.478843
10273.752956,333.873000,0.641976
10277.879015,333.919000,-1.436187
10281.914277,333.964000,-2.816644
10285.948452,334.009000,0.426630
10290.071151,334.055000,1.054647
10294.103128,334.100000,2.802986
10298.134020,334.145000,4.529078
10302.253364,334.191000,2.286549
10306.282060,334.236000,-4.825073
10310.309672,334.281000,3.218978
10314.425666,334.327000,-3.760505
10318.451085,334.372000,1.376086
10322.475422,334.417000,4.397329
10326.498675,334.462000,-1.392220
10330.610215,334.508000,7.955479
10334.631280,334.553000,2.916867
10338.651263,334.598000,0.309726
10342.670165,334.643000,3.922157
10346.687987,334.688000,2.816035
10350.704728,334.733000,-6.617789
10354.809614,334.779000,-1.474724
10358.824172,334.824000,-0.600679
10362.837651,334.869000,1.362334
10366.850051,334.914000,-4.505216
10370.861373,334.959000,-0.338856
10374.871618,335.004000,3.437438
10378.880786,335.049000,-7.809481
10382.888876,335.094000,-1.199329
10386.984923,335.140000,1.675209
10390.990838,335.185000,6.463207
10394.995677,335.230000,1.790024
10398.999440,335.275000,1.982344
10403.002130,335.320000,-2.189421
10407.003745,335.365000,2.509007
10411.004286,335.410000,-2.296654
10415.003755,335.455000,0.116987
10419.002150,335.500000,-1.157998
10422.999473,335.545000,-4.028694
10426.995723,335.590000,-4.203998
10430.990902,335.635000,2.173504
10434.985010,335.680000,3.760131
10438.889325,335.724000,0.609613
10442.881316,335.769000,6.251200
10446.872237,335.814000,0.380722
10450.862088,335.859000,-0.715465
10454.850871,335.904000,2.034353
10458.838585,335.949000,-2.531948
10462.825230,335.994000,-2.041384
10466.810808,336.039000,17.152850
10470.706786,336.083000,0.806365
10474.690253,336.128000,-2.347953
10478.672654,336.173000,2.669040
10482.653989,336.218000,0.658556
10486.634259,336.263000,8.393559
10490.525048,336.307000,6.190181
10494.503211,336.352000,0.699649
10498.480310,336.397000,-0.663552
10502.456345,336.442000,7.120030
10506.342995,336.486000,3.968708
10510.316927,336.531000,4.384634
10514.289797,336.576000,0.155116
10518.261604,336.621000,3.673512
10522.144122,336.665000,0.489105
10526.113830,336.710000,5.823696
10530.082477,336.755000,5.569883
10533.961906,336.799000,1.663866
10537.928455,336.844000,2.407988
10541.893946,336.889000,0.691230
10545.770289,336.933000,2.614285
10549.733685,336.978000,2.517525
10553.607982,337.022000,4.583590
10557.569284,337.067000,-0.585279
10561.529529,337.112000,2.070040
10565.400747,337.156000,-0.041238
10569.358902,337.201000,1.890870
10573.228076,337.245000,3.885360
10577.184142,337.290000,2.090961
10581.051275,337.334000,2.504873
10585.005254,337.379000,-0.872140
10588.870347,337.423000,3.695822
10592.822240,337.468000,4.940877
10596.685295,337.512000,17.898491
10600.635105,337.557000,10.619520
10604.496123,337.601000,16.151360
10608.443850,337.646000,17.114291
10612.302834,337.690000,21.184959
10616.160811,337.734000,24.235529
10620.105430,337.779000,26.525452
10623.961375,337.823000,28.076127
10627.903916,337.868000,37.226110
10631.757830,337.912000,33.519489
10635.610740,337.956000,44.424178
10639.550179,338.001000,43.371771
10643.401061,338.045000,40.248676
10647.250940,338.089000,40.916275
10651.187281,338.134000,49.516327
10655.035134,338.178000,50.441549
10658.881986,338.222000,56.001136
10662.815231,338.267000,50.644242
10666.660059,338.311000,54.769428
10670.503887,338.355000,59.799944
10674.346716,338.399000,55.055886
10678.275848,338.444000,44.230505
10682.116656,338.488000,53.263853
10685.956465,338.532000,51.676243
10689.795276,338.576000,53.075086
10693.633090,338.620000,54.540895
10697.557096,338.665000,55.092948
10701.392893,338.709000,53.499290
10705.227693,338.753000,56.680798
10709.061498,338.797000,53.220150
10712.894307,338.841000,53.550540
10716.726120,338.885000,55.383320
10720.556939,338.929000,53.422557
10724.386763,338.973000,56.854605
10728.302601,339.018000,54.449583
10732.130414,339.062000,53.058751
10735.957235,339.106000,56.627672
10739.783062,339.150000,56.695647
10743.607897,339.194000,53.730309
10747.431740,339.238000,50.961695
10751.254591,339.282000,56.208015
10755.076450,339.326000,60.263204
10758.897319,339.370000,53.290363
10762.717197,339.414000,56.789289
10766.536084,339.458000,55.393712
10770.353982,339.502000,53.265221
10774.170890,339.546000,54.893894
10777.986809,339.590000,58.421834
10781.801740,339.634000,61.535086
10785.615682,339.678000,56.360688
10789.341989,339.721000,60.176152
10793.153978,339.765000,56.936280
10796.964980,339.809000,56.786142
10800.774995,339.853000,56.950042
10804.584024,339.897000,53.475326
10808.392066,339.941000,55.726266
10812.199123,339.985000,59.492947
10816.005195,340.029000,63.793633
10819.723813,340.072000,57.055962
10823.527938,340.116000,57.639945
10827.331078,340.160000,56.845944
10831.133235,340.204000,55.520218
10834.848029,340.247000,56.265593
10838.648242,340.291000,61.387369
10842.447472,340.335000,54.428258
10846.245720,340.379000,52.942858
10849.956695,340.422000,59.432802
10853.753002,340.466000,54.231312
10857.548328,340.510000,57.996716
10861.342673,340.554000,58.120665
10865.049836,340.597000,56.203954
10868.842243,340.641000,59.912417
10872.633670,340.685000,55.571283
10876.337983,340.728000,58.342414
10880.127474,340.772000,59.085044
10883.829896,340.815000,64.865364
10887.617453,340.859000,65.252499
10891.404033,340.903000,55.953932
10895.103609,340.946000,58.782174
10898.888257,340.990000,59.097033
10902.585946,341.033000,57.611714
10906.368663,341.077000,55.555308
10910.150404,341.121000,50.962285
10913.845254,341.164000,59.405982
10917.625066,341.208000,57.068523
10921.318033,341.251000,62.868110
10925.095918,341.295000,55.336365
10928.787002,341.338000,63.897289
10932.562962,341.382000,59.029515
10936.252165,341.425000,58.554539
10939.940439,341.468000,58.711360
10943.713524,341.512000,56.618883
10947.399919,341.555000,58.195483
10951.171083,341.599000,55.388363
10954.855601,341.642000,57.195535
10958.624845,341.686000,57.979319
10962.307486,341.729000,58.803924
10965.989201,341.772000,58.447736
10969.755578,341.816000,55.314839
10973.435419,341.859000,55.770065
10977.114334,341.902000,53.392579
10980.877848,341.946000,58.665289
10984.554892,341.989000,58.583861
10988.231011,342.032000,49.552972
10991.991665,342.076000,57.560775
10995.665914,342.119000,56.798395
10999.339240,342.162000,59.309502
11003.011643,342.205000,58.702691
11006.768496,342.249000,55.314799
11010.439032,342.292000,60.271876
11014.108646,342.335000,63.156398
11017.777338,342.378000,58.882829
11021.530396,342.422000,60.902703
11025.197224,342.465000,55.470436
11028.863132,342.508000,57.793475
11032.528119,342.551000,56.917272
11036.192187,342.594000,61.337019
11039.855335,342.637000,56.174306
11043.602720,342.681000,58.872770
11047.264009,342.724000,54.421337
11050.924378,342.767000,57.082460
11054.583829,342.810000,59.653406
11058.242363,342.853000,57.608168
11061.899979,342.896000,55.718442
11065.556677,342.939000,54.716875
11069.212459,342.982000,57.129307
11072.867324,343.025000,56.125758
11076.521273,343.068000,60.724061
11080.174306,343.111000,51.645865
11083.826423,343.154000,58.388278
11087.477626,343.197000,59.381005
11091.127913,343.240000,56.960856
11094.777286,343.283000,57.253172
11098.425745,343.326000,59.326107
11102.073291,343.369000,58.412309
11105.719922,343.412000,55.179104
11109.365641,343.455000,55.578408
11113.010447,343.498000,54.571056
11116.654340,343.541000,54.693335
11120.297322,343.584000,55.781049
11123.939391,343.627000,52.713515
11127.580549,343.670000,58.438971
11131.220797,343.713000,59.268445
11134.775508,343.755000,62.068584
11138.413955,343.798000,60.706600
11142.051492,343.841000,63.113748
11145.688120,343.884000,59.091055
11149.323838,343.927000,59.122232
11152.958647,343.970000,61.260834
11156.508049,344.012000,60.914258
11160.141062,344.055000,55.485748
11163.773167,344.098000,60.525354
11167.404365,344.141000,54.573137
11170.950240,344.183000,58.154781
11174.579645,344.226000,61.478897
11178.208143,344.269000,57.160508
11181.751382,344.311000,60.816472
11185.378088,344.354000,60.515321
11189.003889,344.397000,64.055076
11192.628785,344.440000,56.246749
11196.168507,344.482000,60.305307
11199.791614,344.525000,59.178837
11203.413817,344.568000,56.715346
11206.950910,344.610000,57.789259
11210.571327,344.653000,58.224638
11214.106675,344.695000,55.616773
11217.725306,344.738000,62.586866
11221.343035,344.781000,56.451339
11224.875759,344.823000,62.689744
11228.491704,344.866000,54.803393
11232.022687,344.908000,62.388862
11235.636851,344.951000,59.124664
11239.166094,344.993000,59.109508
11242.778477,345.036000,63.626357
11246.305982,345.078000,63.294882
11249.916585,345.121000,58.768059
11253.442353,345.163000,59.225421
11257.051178,345.206000,63.920882
11260.575210,345.248000,54.753562
11264.182259,345.291000,57.808449
11267.704555,345.333000,58.137409
11271.309829,345.376000,58.791165
11274.830392,345.418000,60.033485
11278.350100,345.460000,58.903531
11281.952723,345.503000,60.162652
11285.470699,345.545000,56.731890
11288.987820,345.587000,61.193654
11292.587796,345.630000,59.123211
11296.103187,345.672000,58.265283
11299.701393,345.715000,59.629624
11303.215056,345.757000,58.632607
11306.727865,345.799000,61.312188
11310.239821,345.841000,58.877410
11313.834512,345.884000,61.278224
11317.344742,345.926000,61.021103
11320.854120,345.968000,61.516155
11324.446172,346.011000,61.331147
11327.953826,346.053000,61.385977
11331.460629,346.095000,59.749539
11334.966581,346.137000,55.880245
11338.471682,346.179000,56.384452
11342.059357,346.222000,59.333104
11345.562737,346.264000,58.158077
11349.065268,346.306000,59.589659
11352.566949,346.348000,57.907149
11356.067781,346.390000,54.911948
11359.567764,346.432000,55.552829
11363.150201,346.475000,56.123119
11366.648467,346.517000,57.480877
11370.145885,346.559000,58.630676
11373.642456,346.601000,59.985083
11377.138179,346.643000,56.924091
11380.633055,346.685000,57.775900
11384.127085,346.727000,62.278963
11387.620268,346.769000,56.152136
11391.112605,346.811000,54.513954
11394.604096,346.853000,56.080927
11398.094742,346.895000,61.066445
11401.584543,346.937000,51.420184
11405.073499,346.979000,55.389956
11408.561610,347.021000,60.182309
11412.048877,347.063000,58.742100
11415.535301,347.105000,59.760019
11419.020880,347.147000,64.798481
11422.505617,347.189000,57.668579
11425.989510,347.231000,58.304847
11429.472560,347.273000,62.521097
11432.954769,347.315000,63.022764
11436.436135,347.357000,55.177901
11439.916659,347.399000,58.201987
11443.313502,347.440000,61.413302
11446.792364,347.482000,60.176186
11450.270384,347.524000,55.869220
11453.747565,347.566000,55.583408
11457.223905,347.608000,62.429231
11460.699405,347.650000,56.340345
11464.091345,347.691000,55.954740
11467.565186,347.733000,58.431005
11471.038188,347.775000,58.356671
11474.510351,347.817000,54.881916
11477.981676,347.859000,61.838603
11481.369541,347.900000,53.523130
11484.839210,347.942000,57.168389
11488.308041,347.984000,56.723046
11491.693473,348.025000,57.235360
11495.160650,348.067000,60.870427
11498.626991,348.109000,60.256569
11502.092494,348.151000,57.553332
11505.474680,348.192000,57.297235
11508.938532,348.234000,57.881698
11512.401549,348.276000,63.946075
11515.781307,348.317000,55.843810
11519.242673,348.359000,53.773972
11522.620821,348.400000,63.625049
11526.080539,348.442000,60.024956
11529.539422,348.484000,54.634129
11532.915148,348.525000,64.649578
11536.372384,348.567000,61.156554
11539.746502,348.608000,55.596721
11543.202092,348.650000,59.718802
11546.574604,348.691000,63.896236
11550.028550,348.733000,50.270206
11553.399456,348.774000,58.263782
11556.851758,348.816000,60.134466
11560.221061,348.857000,53.783596
11563.671720,348.899000,54.463117
11567.039420,348.940000,54.349907
11570.488439,348.982000,59.683221
11573.854537,349.023000,57.379737
11577.301915,349.065000,58.077225
11580.666413,349.106000,54.406428
11584.030120,349.147000,58.370579
11587.475051,349.189000,62.419389
11590.837159,349.230000,59.311282
11594.280452,349.272000,51.626842
11597.640963,349.313000,55.256215
11601.000686,349.354000,50.964332
11604.441535,349.396000,55.957768
11607.799661,349.437000,54.537252
11611.157000,349.478000,53.491814
11614.595408,349.520000,53.779364
11617.951152,349.561000,52.078836
11621.306109,349.602000,50.915407
11624.660280,349.643000,51.938976
11628.095443,349.685000,49.177132
11631.448022,349.726000,58.250488
11634.799814,349.767000,51.607696
11638.150821,349.808000,58.862715
11641.582745,349.850000,51.011985
11644.932162,349.891000,49.793910
11648.280794,349.932000,48.971697
11651.628641,349.973000,53.759667
11654.975704,350.014000,52.464673
11658.403590,350.056000,57.738569
11661.749066,350.097000,52.853475
11665.093759,350.138000,54.060271
11668.437668,350.179000,53.259515
11671.780795,350.220000,58.171995
11675.123139,350.261000,52.571438
11678.464700,350.302000,53.803484
11681.805480,350.343000,59.492159
11685.145477,350.384000,55.722773
11688.484693,350.425000,53.965238
11691.904543,350.467000,56.885877
11695.242178,350.508000,56.445522
11698.579032,350.549000,54.625072
11701.915105,350.590000,56.643488
11705.250398,350.631000,51.125606
11708.584912,350.672000,54.841838
11711.918645,350.713000,47.261811
11715.251600,350.754000,51.748769
11718.502512,350.794000,51.265901
11721.833927,350.835000,56.810569
11725.164564,350.876000,55.376445
11728.494422,350.917000,49.733086
11731.823503,350.958000,57.293929
11735.151806,350.999000,57.693972
11738.479331,351.040000,61.237593
11741.806079,351.081000,55.011204
11745.132050,351.122000,55.521747
11748.457245,351.163000,53.297950
11751.700589,351.203000,51.605361
11755.024250,351.244000,57.494479
11758.347135,351.285000,52.673850
11761.669245,351.326000,54.026323
11764.990579,351.367000,57.853619
11768.230159,351.407000,53.297563
11771.549962,351.448000,53.221924
11774.868991,351.489000,54.597265
11778.187246,351.530000,56.573376
11781.423822,351.570000,53.472677
11784.740548,351.611000,53.553318
11788.056500,351.652000,52.426511
11791.371680,351.693000,54.453187
11794.605256,351.733000,56.098333
11797.918909,351.774000,59.842708
11801.231790,351.815000,52.422961
11804.463124,351.855000,50.546370
11807.774479,351.896000,52.657561
11811.085063,351.937000,58.678252
11814.314158,351.977000,53.183500
11817.623218,352.018000,56.093790
11820.850827,352.058000,51.978021
11824.158365,352.099000,53.830260
11827.465133,352.140000,53.445015
11830.690506,352.180000,52.561914
11833.995753,352.221000,56.159117
11837.219643,352.261000,59.865322
11840.523370,352.302000,56.473894
11843.745778,352.342000,52.300425
11847.047986,352.383000,56.107569
11850.268913,352.423000,56.830486
11853.569603,352.464000,54.434623
11856.789050,352.504000,57.735826
11860.088224,352.545000,54.073961
11863.306191,352.585000,57.203243
11866.603850,352.626000,51.306407
11869.820339,352.666000,58.256887
11873.116483,352.707000,49.147515
11876.331495,352.747000,49.284282
11879.545777,352.787000,56.272707
11882.839661,352.828000,55.452449
11886.052468,352.868000,55.081650
11889.264547,352.908000,51.887983
11892.556173,352.949000,48.222346
11895.766777,352.989000,49.364998
11899.056892,353.030000,55.053821
11902.266024,353.070000,50.259365
11905.474429,353.110000,57.635539
11908.682107,353.150000,54.559210
11911.969223,353.191000,56.057947
11915.175430,353.231000,54.128781
11918.380911,353.271000,59.036366
11921.665775,353.312000,54.048092
11924.869787,353.352000,51.686295
11928.073073,353.392000,55.172447
11931.275634,353.432000,49.656656
11934.477470,353.472000,48.216551
11937.758600,353.513000,45.089510
11940.958969,353.553000,47.959168
11944.158614,353.593000,55.854903
11947.357536,353.633000,45.577739
11950.555733,353.673000,52.361867
11953.753208,353.713000,51.965789
11957.029868,353.754000,55.849824
11960.225879,353.794000,56.039336
11963.421166,353.834000,50.129738
11966.615732,353.874000,51.085073
11969.809575,353.914000,52.324190
11973.002696,353.954000,49.141558
11976.195096,353.994000,49.737092
11979.386774,354.034000,52.527860
11982.577731,354.074000,55.917502
11985.767968,354.114000,49.856796
11988.957483,354.154000,49.785659
11992.146279,354.194000,46.191434
11995.334354,354.234000,47.278898
11998.521709,354.274000,53.075039
12001.708345,354.314000,44.392043
12004.894261,354.354000,51.536325
12008.079458,354.394000,44.911494
12011.263936,354.434000,50.013265
12014.447695,354.474000,47.553343
12017.630736,354.514000,46.803922
12020.813059,354.554000,51.273629
12023.994663,354.594000,45.407611
12027.175550,354.634000,44.227113
12030.276224,354.673000,40.181775
12033.455694,354.713000,44.612616
12036.634448,354.753000,43.607431
12039.812484,354.793000,38.555075
12042.989804,354.833000,35.225688
12046.166408,354.873000,39.541782
12049.262907,354.912000,35.650696
12052.438097,354.952000,35.545093
12055.612571,354.992000,31.833657
12058.786330,355.032000,30.378990
12061.880056,355.071000,32.269312
12065.052403,355.111000,26.877421
12068.224035,355.151000,25.373062
12071.394953,355.191000,22.839880
12074.485910,355.230000,25.086040
12077.655418,355.270000,17.092790
12080.824212,355.310000,15.339517
12083.913100,355.349000,11.357707
12087.080485,355.389000,13.382499
12090.247158,355.429000,9.065923
12093.333977,355.468000,5.383360
12096.499242,355.508000,5.603502
12099.663795,355.548000,-0.888343
12102.748549,355.587000,0.124988
12105.911696,355.627000,0.562725
12108.995079,355.666000,-1.310079
12112.156822,355.706000,-1.373954
12115.317853,355.746000,-0.243074
12118.399174,355.785000,2.236059
12121.558801,355.825000,-1.619392
12124.638754,355.864000,-1.127968
12127.796979,355.904000,0.106981
12130.875565,355.943000,1.061823
12134.032389,355.983000,2.156962
12137.109608,356.022000,-1.003421
12140.265031,356.062000,-0.536417
12143.340885,356.101000,0.672503
12146.494908,356.141000,0.047662
12149.569398,356.180000,0.459790
12152.643215,356.219000,-1.957255
12155.795149,356.259000,-1.641147
12158.867603,356.298000,0.471862
12162.018139,356.338000,-1.862028
12165.089231,356.377000,-1.166363
12168.159651,356.416000,0.438423
12171.308101,356.456000,-0.526008
12174.377160,356.495000,0.209142
12177.445548,356.534000,-1.390045
12180.591915,356.574000,1.596070
12183.658943,356.613000,-0.408590
12186.725300,356.652000,0.884525
12189.869585,356.692000,0.361515
12192.934585,356.731000,-0.515566
12195.998914,356.770000,0.061606
12199.062573,356.809000,-0.569278
12202.204093,356.849000,-0.211674
12205.266396,356.888000,-0.095681
12208.328030,356.927000,-2.838878
12211.388995,356.966000,-1.330536
12214.527751,357.006000,1.162213
12217.587361,357.045000,2.022874
12220.646304,357.084000,1.832105
12223.704578,357.123000,-0.354835
12226.762184,357.162000,0.119925
12229.819122,357.201000,0.727486
12232.953750,357.241000,-0.449911
12236.009337,357.280000,-1.172072
12239.064257,357.319000,1.093684
12242.118510,357.358000,0.468328
12245.172096,357.397000,-0.587908
12248.225016,357.436000,1.567010
