raman_shift_cm-1,wavelength_nm,intensity
-323.608033,246.616000,0.000000
-312.759145,246.682000,0.000000
-301.916061,246.748000,0.000000
-291.078776,246.814000,0.008809
-280.083216,246.881000,0.243711
-269.257603,246.947000,-0.163529
-258.437774,247.013000,-3.807360
-247.623726,247.079000,-3.431231
-236.815454,247.145000,-2.176806
-226.012953,247.211000,-3.536444
-215.216219,247.277000,-3.579903
-204.425246,247.343000,-4.097062
-193.640031,247.409000,-2.621657
-182.860568,247.475000,-0.147251
-172.086854,247.541000,-3.833990
-161.318883,247.607000,-6.645318
-150.556651,247.673000,-0.660733
-139.800153,247.739000,-0.040003
-129.049385,247.805000,-3.197111
-118.467103,247.870000,0.454574
-107.727694,247.936000,0.526015
-96.994001,248.002000,-3.006789
-86.266020,248.068000,-2.339735
-75.543746,248.134000,-1.677074
-64.827174,248.200000,-2.100268
-54.278543,248.265000,0.072373
-43.573277,248.331000,-1.747684
-32.873698,248.397000,0.565090
-22.179805,248.463000,-2.182716
-11.653491,248.528000,-0.066687
-0.970866,248.594000,-0.591891
9.706087,248.660000,2.031186
20.377375,248.726000,-0.817995
30.881442,248.791000,-1.621399
41.541497,248.857000,-0.540095
52.195898,248.923000,-0.478301
62.683348,248.988000,-3.090966
73.326542,249.054000,-1.160541
83.802964,249.119000,-0.772924
94.434970,249.185000,-1.938175
104.900381,249.250000,-2.050498
115.521215,249.316000,0.901720
125.975632,249.381000,-2.404981
136.585313,249.447000,0.807103
147.028754,249.512000,-0.054545
157.627298,249.578000,-2.054354
168.059780,249.643000,-1.379509
178.647205,249.709000,-3.534964
189.068746,249.774000,-2.677965
199.645070,249.840000,0.526730
210.055686,249.905000,1.602764
220.620926,249.971000,-3.588812
231.020635,250.036000,-1.492314
241.414938,250.101000,-0.779820
251.963627,250.167000,0.650103
262.347049,250.232000,-5.180914
272.725077,250.297000,-7.229898
283.097717,250.362000,-7.539667
293.624427,250.428000,-3.457783
303.986219,250.493000,-1.317634
314.342635,250.558000,0.612849
324.693679,250.623000,1.202340
335.198478,250.689000,-6.628046
345.538708,250.754000,-0.555501
355.873579,250.819000,1.264757
366.203095,250.884000,-3.289711
376.527259,250.949000,0.168510
386.846077,251.014000,-12.026877
397.318179,251.080000,-1.004199
407.626234,251.145000,-4.807361
417.928954,251.210000,-2.151244
428.226343,251.275000,-0.500755
438.518407,251.340000,-11.321788
448.805149,251.405000,-1.057360
459.086573,251.470000,-11.040735
469.362683,251.535000,-9.701645
479.633483,251.600000,-11.893755
489.898978,251.665000,2.606309
500.159172,251.730000,-4.675272
510.414069,251.795000,1.667650
520.663672,251.860000,-1.374286
530.907986,251.925000,-1.338142
541.147015,251.990000,-6.888117
551.223361,252.054000,1.235187
561.451914,252.119000,-3.265145
571.675194,252.184000,4.443099
581.893205,252.249000,-11.040562
592.105952,252.314000,-3.655667
602.313438,252.379000,1.393319
612.358750,252.443000,-0.927405
622.555807,252.508000,-1.062135
632.747617,252.573000,-10.700395
642.934182,252.638000,-3.974384
652.958910,252.702000,0.316438
663.135079,252.767000,-3.322757
673.306016,252.832000,-6.494832
683.315368,252.896000,-2.355411
693.475932,252.961000,-5.568198
703.631276,253.026000,-5.251860
713.625287,253.090000,4.327640
723.770283,253.155000,-3.157234
733.910070,253.220000,-4.154178
743.888776,253.284000,-4.222799
754.018238,253.349000,-1.832717
763.986786,253.413000,-1.242356
774.105940,253.478000,-0.006239
784.064345,253.542000,5.260692
794.173206,253.607000,1.609371
804.121484,253.671000,1.940038
814.220067,253.736000,-3.087085
824.158233,253.800000,0.945472
834.246555,253.865000,1.519133
844.174625,253.929000,-3.943958
854.252700,253.994000,4.818313
864.170690,254.058000,-3.589204
874.083683,254.122000,-2.636159
884.146458,254.187000,3.748904
894.049394,254.251000,-0.782440
903.947346,254.315000,2.257867
913.994855,254.380000,2.901976
923.882772,254.444000,2.806961
933.765716,254.508000,3.176375
943.797994,254.573000,-9.229488
953.670926,254.637000,9.236329
963.538895,254.701000,3.418163
973.401907,254.765000,0.676535
983.259965,254.829000,-3.853458
993.266988,254.894000,-8.545284
1003.115071,254.958000,-7.978700
1012.958212,255.022000,-3.153198
1022.796413,255.086000,-10.485390
1032.629679,255.150000,-5.283426
1042.458013,255.214000,-10.823469
1052.281419,255.278000,-8.434326
1062.253275,255.343000,-7.269336
1072.066759,255.407000,-0.802479
1081.875326,255.471000,-4.983618
1091.678980,255.535000,-2.946287
1101.477725,255.599000,-1.734651
1111.271563,255.663000,4.766502
1121.060500,255.727000,2.756778
1130.844538,255.791000,-1.063125
1140.623681,255.855000,-2.444792
1150.397933,255.919000,-0.386935
1160.014689,255.982000,0.500465
1169.779246,256.046000,2.661079
1179.538923,256.110000,1.147834
1189.293724,256.174000,-4.781732
1199.043651,256.238000,-7.456890
1208.788709,256.302000,2.112079
1218.528902,256.366000,3.233012
1228.112156,256.429000,0.851880
1237.842704,256.493000,-0.143725
1247.568398,256.557000,1.635836
1257.289241,256.621000,-0.772315
1267.005236,256.685000,-5.328998
1276.564688,256.748000,-7.366291
1286.271074,256.812000,-0.503490
1295.972624,256.876000,-8.495203
1305.517867,256.939000,-9.630515
1315.209831,257.003000,2.441308
1324.896968,257.067000,-0.752289
1334.428034,257.130000,-0.423456
1344.105605,257.194000,-4.457872
1353.778362,257.258000,-3.118605
1363.295282,257.321000,-2.711075
1372.958494,257.385000,-3.597360
1382.466026,257.448000,1.047061
1392.119708,257.512000,-5.002145
1401.617865,257.575000,-8.984566
1411.262031,257.639000,-9.258073
1420.750828,257.702000,-3.241969
1430.385491,257.766000,-7.642008
1439.864942,257.829000,3.750836
1449.490117,257.893000,-7.289965
1458.960235,257.956000,-3.519534
1468.575936,258.020000,-6.614214
1478.036734,258.083000,-1.078953
1487.492915,258.146000,-13.164894
1497.094468,258.210000,-9.226945
1506.541350,258.273000,1.609571
1516.133465,258.337000,-2.398465
1525.571062,258.400000,-6.449454
1535.004058,258.463000,0.177419
1544.432457,258.526000,-5.343427
1554.005809,258.590000,-3.992602
1563.424950,258.653000,4.640320
1572.839503,258.716000,-1.138364
1582.249473,258.779000,-1.146454
1591.804117,258.843000,0.388981
1601.204857,258.906000,-3.709100
1610.601022,258.969000,3.629508
1619.992617,259.032000,-6.029790
1629.379645,259.095000,-7.766227
1638.911000,259.159000,-4.048862
1648.288831,259.222000,-1.208508
1657.662104,259.285000,-9.751360
1667.030824,259.348000,-3.142560
1676.394994,259.411000,-0.994842
1685.754616,259.474000,0.935215
1695.109694,259.537000,0.188068
1704.460232,259.600000,0.930921
1713.806232,259.663000,0.905059
1723.147698,259.726000,-0.530205
1732.484634,259.789000,3.381960
1741.817042,259.852000,-5.429723
1751.144926,259.915000,-3.660066
1760.468289,259.978000,1.051802
1769.787135,260.041000,-1.123296
1779.101467,260.104000,-1.636592
1788.411287,260.167000,-4.248361
1797.568932,260.229000,-1.845522
1806.869812,260.292000,-2.790938
1816.166190,260.355000,-5.188510
1825.458071,260.418000,1.535413
1834.745457,260.481000,-0.509261
1844.028352,260.544000,-2.856710
1853.159517,260.606000,0.054362
1862.433510,260.669000,-13.522350
1871.703021,260.732000,-4.505753
1880.968054,260.795000,-2.391467
1890.081653,260.857000,0.726391
1899.337809,260.920000,-5.859597
1908.589497,260.983000,-5.135575
1917.689973,261.045000,-4.022152
1926.932803,261.108000,-7.724089
1936.171175,261.171000,-6.553791
1945.258555,261.233000,1.218181
1954.488088,261.296000,-2.596606
1963.566777,261.358000,4.557330
1972.787485,261.421000,-0.904142
1982.003751,261.484000,0.313112
1991.069391,261.546000,4.817108
2000.276850,261.609000,-3.203751
2009.333830,261.671000,-11.934921
2018.532495,261.734000,2.346120
2027.580827,261.796000,-2.550056
2036.770712,261.859000,0.482988
2045.810408,261.921000,-5.766363
2054.845827,261.983000,-8.341759
2064.022598,262.046000,-1.360508
2073.049399,262.108000,-6.755441
2082.217420,262.171000,-0.423925
2091.235617,262.233000,3.177877
2100.249550,262.295000,-0.949038
2109.404505,262.358000,-0.935251
2118.409852,262.420000,-4.722542
2127.410945,262.482000,-0.861743
2136.552862,262.545000,0.224744
2145.545387,262.607000,2.511480
2154.533666,262.669000,3.789010
2163.517703,262.731000,-5.443368
2172.642302,262.794000,-2.806977
2181.617796,262.856000,-0.216536
2190.589057,262.918000,-1.861668
2199.556087,262.980000,-4.136221
2208.518891,263.042000,-5.111145
2217.621929,263.105000,-6.804787
2226.576219,263.167000,0.148062
2235.526291,263.229000,-8.632779
2244.472147,263.291000,-3.479459
2253.413792,263.353000,-10.087513
2262.351228,263.415000,-2.012302
2271.284457,263.477000,-1.936709
2280.213483,263.539000,-0.440951
2289.138308,263.601000,5.444438
2298.058937,263.663000,-4.860066
2306.975371,263.725000,-1.541228
2315.887613,263.787000,-7.007813
2324.795667,263.849000,1.790439
2333.699536,263.911000,-2.820743
2342.599222,263.973000,1.774810
2351.494729,264.035000,-4.582642
2360.386059,264.097000,-5.299150
2369.273215,264.159000,-0.466900
2378.156200,264.221000,-6.500697
2386.891844,264.282000,4.528914
2395.766564,264.344000,-2.583314
2404.637121,264.406000,-5.368834
2413.503520,264.468000,-0.673326
2422.365762,264.530000,-6.000508
2431.081012,264.591000,-5.177535
2439.935018,264.653000,-3.433843
2448.784876,264.715000,-5.941171
2457.630590,264.777000,0.261612
2466.329589,264.838000,-2.004708
2475.167089,264.900000,-7.428770
2484.000453,264.962000,-0.934280
2492.687310,265.023000,-0.432661
2501.512478,265.085000,-2.460545
2510.333519,265.147000,-4.966346
2519.008259,265.208000,-1.601052
2527.821120,265.270000,-7.663493
2536.487819,265.331000,0.213056
2545.292512,265.393000,1.427600
2554.093093,265.455000,-3.224343
2562.747717,265.516000,1.497519
2571.540147,265.578000,0.408522
2580.186758,265.639000,-3.450791
2588.971048,265.701000,-1.760989
2597.609655,265.762000,1.878955
2606.385817,265.824000,0.255637
2615.016433,265.885000,-2.805039
2623.643091,265.946000,-1.244915
2632.407114,266.008000,2.084002
2641.025796,266.069000,-1.280944
2649.781719,266.131000,-2.967834
2658.392437,266.192000,-2.135302
2666.999210,266.253000,-1.034802
2675.743037,266.315000,-0.228544
2684.341862,266.376000,-1.280663
2692.936750,266.437000,5.960507
2701.668505,266.499000,1.466179
2710.255462,266.560000,-13.774834
2718.838489,266.621000,-1.789090
2727.417590,266.682000,1.320454
2736.133311,266.744000,-13.969732
2744.704503,266.805000,3.660576
2753.271776,266.866000,-4.728175
2761.835134,266.927000,3.942740
2770.394579,266.988000,-2.008789
2778.950113,267.049000,0.792956
2787.641898,267.111000,-7.149596
2796.189555,267.172000,-13.618146
2804.733311,267.233000,-2.315408
2813.273167,267.294000,3.633027
2821.809126,267.355000,-2.351386
2830.341190,267.416000,-6.455317
2838.869363,267.477000,2.587910
2847.393647,267.538000,-0.402092
2855.914045,267.599000,1.494011
2864.430559,267.660000,-5.660032
2872.943193,267.721000,-2.585816
2881.451948,267.782000,-5.223799
2889.956827,267.843000,-6.813431
2898.457833,267.904000,4.296325
2906.954969,267.965000,-4.313946
2915.448237,268.026000,-0.775364
2923.937640,268.087000,4.644294
2932.284105,268.147000,-1.822962
2940.765849,268.208000,-7.245068
2949.243736,268.269000,-7.507441
2957.717768,268.330000,2.114827
2966.187948,268.391000,-0.864311
2974.515518,268.451000,-0.577426
2982.978065,268.512000,5.413242
2991.436768,268.573000,-9.678542
2999.891630,268.634000,-7.874953
3008.204142,268.694000,-1.169123
3016.651392,268.755000,1.210340
3025.094807,268.816000,6.038396
3033.396069,268.876000,0.485380
3041.831888,268.937000,-1.389085
3050.263881,268.998000,1.553816
3058.553914,269.058000,-3.837991
3066.978326,269.119000,0.381194
3075.398919,269.180000,4.733843
3083.677747,269.240000,1.170450
3092.090774,269.301000,-2.850954
3100.362165,269.361000,-2.516897
3108.767637,269.422000,-1.706089
3117.031601,269.482000,-3.048419
3125.429526,269.543000,2.754187
3133.686074,269.603000,-1.489819
3142.076464,269.664000,-1.560474
3150.325604,269.724000,0.483786
3158.708468,269.785000,-1.784111
3166.950211,269.845000,-3.456847
3175.325561,269.906000,-0.469598
3183.559917,269.966000,-1.826644
3191.790613,270.026000,-5.118641
3200.154739,270.087000,6.745856
3208.378064,270.147000,1.172532
3216.597736,270.207000,10.607422
3224.950662,270.268000,-5.229113
3233.162976,270.328000,-1.650522
3241.371647,270.388000,2.471722
3249.576675,270.448000,9.058340
3257.914722,270.509000,2.093335
3266.112412,270.569000,-5.458122
3274.306467,270.629000,-9.552628
3282.496889,270.689000,2.776764
3290.820098,270.750000,-2.934422
3299.003202,270.810000,-6.139051
3307.182681,270.870000,-1.993360
3315.358537,270.930000,-2.205324
3323.530773,270.990000,-1.862008
3331.699391,271.050000,-1.662465
3339.864393,271.110000,-4.457178
3348.025782,271.170000,1.041387
3356.319492,271.231000,3.018646
3364.473602,271.291000,-4.840245
3372.624105,271.351000,3.261469
3380.771005,271.411000,4.368900
3388.914304,271.471000,-1.005692
3397.054004,271.531000,-4.030839
3405.190107,271.591000,0.358564
3413.322616,271.651000,-0.709925
3421.316081,271.710000,-6.315014
3429.441469,271.770000,3.279117
3437.563270,271.830000,-2.067501
3445.681487,271.890000,-2.261049
3453.796121,271.950000,-4.662840
3461.907176,272.010000,-2.058840
3470.014653,272.070000,-3.729123
3478.118555,272.130000,0.210454
3486.083907,272.189000,-4.209100
3494.180726,272.249000,-3.094972
3502.273976,272.309000,-3.804137
3510.363660,272.369000,-9.549422
3518.315042,272.428000,-1.624712
3526.397661,272.488000,-1.175027
3534.476722,272.548000,6.751845
3542.552226,272.608000,-3.444593
3550.489673,272.667000,-5.128079
3558.558131,272.727000,-5.614245
3566.623039,272.787000,1.762910
3574.550074,272.846000,-4.329817
3582.607950,272.906000,2.844241
3590.528073,272.965000,2.559427
3598.578926,273.025000,-5.061668
3606.626241,273.085000,-0.187414
3614.535986,273.144000,-3.154134
3622.576291,273.204000,-0.149990
3630.479148,273.263000,-0.910558
3638.512453,273.323000,-3.683160
3646.408431,273.382000,-5.678198
3654.434744,273.442000,-1.227988
3662.323852,273.501000,-0.953134
3670.343183,273.561000,-4.727576
3678.225429,273.620000,1.935110
3686.237787,273.680000,-0.487852
3694.113181,273.739000,-1.321302
3701.985180,273.798000,-0.115245
3709.987125,273.858000,-3.802232
3717.852286,273.917000,-1.366287
3725.714059,273.976000,0.080691
3733.705610,274.036000,-1.172579
3741.560558,274.095000,-3.089315
3749.412124,274.154000,6.045164
3757.393303,274.214000,-0.032283
3765.238057,274.273000,-1.135381
3773.079437,274.332000,-2.436168
3780.917444,274.391000,-8.545146
3788.884843,274.451000,0.047287
3796.716056,274.510000,-3.346279
3804.543903,274.569000,-0.309867
3812.368387,274.628000,-0.365934
3820.189510,274.687000,4.512549
3828.007273,274.746000,-2.668059
3835.821680,274.805000,2.095772
3843.765093,274.865000,-0.058074
3851.572736,274.924000,1.357591
3859.377028,274.983000,-1.210413
3867.177971,275.042000,-4.838142
3874.975569,275.101000,-6.626211
3882.769823,275.160000,-0.855731
3890.560735,275.219000,-1.132327
3898.348307,275.278000,-1.798357
3906.132542,275.337000,-4.643950
3913.913442,275.396000,4.482712
3921.691008,275.455000,4.120015
3929.465243,275.514000,2.287937
3937.236150,275.573000,-0.418361
3944.872103,275.631000,-5.725210
3952.636414,275.690000,1.624654
3960.397403,275.749000,0.348500
3968.155071,275.808000,-8.591312
3975.909421,275.867000,-6.749812
3983.660455,275.926000,-0.452664
3991.408175,275.985000,-1.485932
3999.021349,276.043000,2.287671
4006.762504,276.102000,-12.797914
4014.500350,276.161000,-1.827885
4022.234891,276.220000,-2.675099
4029.835118,276.278000,0.493259
4037.563110,276.337000,0.035731
4045.287803,276.396000,0.396408
4052.878355,276.454000,-2.291333
4060.596512,276.513000,0.249591
4068.311375,276.572000,-1.736036
4075.892271,276.630000,-12.376458
4083.600610,276.689000,-2.617666
4091.305663,276.748000,-3.834566
4098.876921,276.806000,-2.083996
4106.575462,276.865000,2.126900
4114.140322,276.923000,-8.076745
4121.832361,276.982000,1.009481
4129.390832,277.040000,-6.515268
4137.076375,277.099000,-3.795042
4144.628466,277.157000,0.007411
4152.307522,277.216000,1.777311
4159.853240,277.274000,1.268727
4167.525818,277.333000,-13.340290
4175.065171,277.391000,-1.499597
4182.731279,277.450000,-7.887695
4190.264275,277.508000,0.454883
4197.794123,277.566000,-0.698011
4205.450568,277.625000,-2.776466
4212.974072,277.683000,-6.384144
4220.494433,277.741000,0.669490
4228.011654,277.799000,-1.195233
4235.396210,277.856000,-0.256527
4242.907211,277.914000,-1.012340
4250.415077,277.972000,-3.139556
4257.790445,278.029000,-2.967864
4265.292102,278.087000,-4.559782
4272.790631,278.145000,0.942749
4280.156828,278.202000,-5.067442
4287.649159,278.260000,2.534771
4295.138368,278.318000,-2.390244
4302.495411,278.375000,-6.298445
4309.978434,278.433000,1.017439
4317.329402,278.490000,-1.778711
4324.806246,278.548000,-11.098649
4332.151147,278.605000,0.567850
4339.621821,278.663000,-8.937003
4346.960661,278.720000,-2.816983
4354.425172,278.778000,-4.415199
4361.757959,278.835000,-1.906673
4369.216314,278.893000,-1.787927
4376.543056,278.950000,-2.168806
4383.995264,279.008000,-2.281471
4391.315968,279.065000,-5.717343
4398.762036,279.123000,4.675824
4406.076709,279.180000,-1.215085
4413.516644,279.238000,-4.932257
4420.825295,279.295000,0.493212
4428.130962,279.352000,-3.168857
4435.561740,279.410000,-2.000718
4442.861395,279.467000,-0.893503
4450.158074,279.524000,-4.195938
4457.579711,279.582000,0.161707
4464.870389,279.639000,-1.917283
4472.158095,279.696000,-3.753362
4479.570607,279.754000,-1.404476
4486.852324,279.811000,-1.725921
4494.131074,279.868000,-15.747162
4501.534479,279.926000,2.290211
4508.807251,279.983000,-1.568390
4516.077062,280.040000,0.591475
4523.343914,280.097000,-4.888317
4530.735220,280.155000,-4.851249
4537.996108,280.212000,0.935760
4545.254043,280.269000,0.645530
4552.509026,280.326000,0.050325
4559.888262,280.384000,-10.010327
4567.137295,280.441000,-1.390781
4574.383383,280.498000,-3.025171
4581.626526,280.555000,-1.644915
4588.866727,280.612000,-6.291958
4596.103987,280.669000,4.416948
4603.338308,280.726000,-4.369699
4610.696532,280.784000,2.567932
4617.924929,280.841000,3.079033
4625.150392,280.898000,-3.780980
4632.372923,280.955000,-2.714915
4639.592525,281.012000,1.707628
4646.809198,281.069000,-5.809323
4654.022945,281.126000,1.050287
4661.233767,281.183000,-0.201018
4668.441666,281.240000,-0.002635
4675.646644,281.297000,-4.574042
4682.848703,281.354000,-8.287302
4690.047844,281.411000,10.348843
4697.244070,281.468000,0.038620
4704.437381,281.525000,-0.284191
4711.627780,281.582000,0.841572
4718.815269,281.639000,1.809429
4725.999849,281.696000,-1.302553
4733.181522,281.753000,3.027541
4740.360290,281.810000,0.364157
4747.536154,281.867000,-3.598549
4754.583300,281.923000,-2.188769
4761.753414,281.980000,1.199711
4768.920629,282.037000,-0.053714
4776.084949,282.094000,-1.298775
4783.246373,282.151000,6.600549
4790.404904,282.208000,-4.357083
4797.435032,282.264000,1.884781
4804.587834,282.321000,-0.414840
4811.737748,282.378000,-2.788186
4818.884776,282.435000,-1.414993
4826.028920,282.492000,-4.013640
4833.044920,282.548000,2.247251
4840.183352,282.605000,-3.621846
4847.318904,282.662000,4.166243
4854.451579,282.719000,5.986446
4861.456319,282.775000,-3.905382
4868.583295,282.832000,-7.893557
4875.707399,282.889000,0.595907
4882.703723,282.945000,-4.249400
4889.822139,283.002000,1.366735
4896.937687,283.059000,-8.992979
4903.925611,283.115000,1.720620
4911.035481,283.172000,0.259340
4918.142490,283.229000,-3.143925
4925.122029,283.285000,3.017285
4932.223369,283.342000,-5.263001
4939.197342,283.398000,1.722897
4946.293021,283.455000,2.788116
4953.385847,283.512000,2.037411
4960.351460,283.568000,-0.959194
4967.438635,283.625000,2.160026
4974.398699,283.681000,1.398929
4981.480229,283.738000,-5.818096
4988.434752,283.794000,3.869256
4995.510644,283.851000,4.134516
5002.459631,283.907000,-1.106153
5009.529893,283.964000,6.241921
5016.473351,284.020000,1.340698
5023.537988,284.077000,1.977066
5030.475924,284.133000,3.561549
5037.534943,284.190000,-2.625125
5044.467363,284.246000,2.396608
5051.397052,284.302000,-4.013831
5058.447683,284.359000,4.941259
5065.371866,284.415000,5.370947
5072.416896,284.472000,1.441320
5079.335580,284.528000,3.506640
5086.251541,284.584000,11.205278
5093.288207,284.641000,4.588306
5100.198678,284.697000,-2.187647
5107.106432,284.753000,4.943042
5114.134748,284.810000,-0.902135
5121.037022,284.866000,4.510395
5127.936582,284.922000,-2.236411
5134.833431,284.978000,4.344810
5141.850655,285.035000,5.992799
5148.742037,285.091000,7.768827
5155.630712,285.147000,-0.894785
5162.516682,285.203000,5.413092
5169.522840,285.260000,10.098916
5176.403356,285.316000,1.245484
5183.281172,285.372000,2.693855
5190.156289,285.428000,7.017654
5197.028709,285.484000,0.185421
5204.021082,285.541000,1.437015
5210.888064,285.597000,4.190529
5217.752353,285.653000,8.786150
5224.613952,285.709000,-1.696149
5231.472862,285.765000,6.667766
5238.329083,285.821000,3.404390
5245.182619,285.877000,2.870239
5252.033470,285.933000,4.112852
5258.881638,285.989000,2.169451
5265.727125,286.045000,4.038385
5272.569932,286.101000,4.177049
5279.532182,286.158000,-9.581460
5286.369586,286.214000,-2.606975
5293.204315,286.270000,5.702377
5300.036371,286.326000,6.593825
5306.865755,286.382000,1.653505
5313.692468,286.438000,1.994928
5320.516513,286.494000,2.144215
5327.216104,286.549000,-0.925222
5334.034863,286.605000,7.719480
5340.850958,286.661000,9.075811
5347.664391,286.717000,10.971688
5354.475163,286.773000,13.980301
5361.283275,286.829000,8.452081
5368.088729,286.885000,7.277208
5374.891528,286.941000,2.042942
5381.691671,286.997000,2.058514
5388.489161,287.053000,8.098029
5395.162686,287.108000,-2.562785
5401.954922,287.164000,5.681013
5408.744509,287.220000,-2.387050
5415.531448,287.276000,6.518232
5422.315743,287.332000,4.909079
5428.976316,287.387000,1.240912
5435.755371,287.443000,6.400779
5442.531785,287.499000,8.862053
5449.305560,287.555000,6.899935
5456.076697,287.611000,2.729644
5462.724355,287.666000,9.713039
5469.490268,287.722000,-1.712910
5476.253548,287.778000,8.650704
5482.893494,287.833000,6.664168
5489.651559,287.889000,-0.501406
5496.406995,287.945000,3.305062
5503.039242,288.000000,3.804981
5509.789473,288.056000,1.680133
5516.537079,288.112000,3.566825
5523.161640,288.167000,5.427436
5529.904050,288.223000,2.797945
5536.643840,288.279000,0.002262
5543.260729,288.334000,13.278022
5549.995332,288.390000,11.934162
5556.607128,288.445000,1.690550
5563.336549,288.501000,-2.619803
5569.943259,288.556000,3.559163
5576.667504,288.612000,6.878542
5583.269134,288.667000,5.987577
5589.988209,288.723000,9.037682
5596.584764,288.778000,9.324443
5603.298676,288.834000,4.364729
5609.890162,288.889000,13.490401
5616.598916,288.945000,17.248333
5623.185340,289.000000,3.860273
5629.888941,289.056000,3.534153
5636.470308,289.111000,6.579425
5643.168763,289.167000,4.499167
5649.745079,289.222000,-0.906620
5656.438394,289.278000,6.542156
5663.009664,289.333000,2.733016
5669.578437,289.388000,12.636801
5676.264076,289.444000,1.584066
5682.827812,289.499000,16.789252
5689.389054,289.554000,11.952224
5696.067030,289.610000,6.827659
5702.623244,289.665000,8.094237
5709.176969,289.720000,-0.672664
5715.847296,289.776000,6.163616
5722.396001,289.831000,-1.292013
5728.942221,289.886000,3.452370
5735.485958,289.941000,8.456646
5742.146122,289.997000,4.535178
5748.684850,290.052000,2.554465
5755.221100,290.107000,6.852130
5761.754871,290.162000,5.936322
5768.404894,290.218000,5.983822
5774.933669,290.273000,0.452415
5781.459971,290.328000,-0.571101
5787.983800,290.383000,7.849393
5794.505158,290.438000,8.518352
5801.142550,290.494000,2.714957
5807.658926,290.549000,4.775527
5814.172835,290.604000,5.282407
5820.684279,290.659000,8.831755
5827.193260,290.714000,7.293927
5833.699778,290.769000,9.307287
5840.203835,290.824000,13.239005
5846.705432,290.879000,8.734203
5853.204572,290.934000,2.189471
5859.701254,290.989000,4.198046
5866.195481,291.044000,13.635569
5872.687254,291.099000,10.235515
5879.176574,291.154000,5.792573
5885.663444,291.209000,4.259321
5892.147863,291.264000,8.304364
5898.629834,291.319000,-0.654655
5905.109357,291.374000,3.997918
5911.586435,291.429000,5.911349
5918.061069,291.484000,4.875318
5924.533260,291.539000,6.158349
5931.003009,291.594000,9.370333
5937.470318,291.649000,17.614961
5943.935188,291.704000,8.964256
5950.397621,291.759000,8.654650
5956.857618,291.814000,7.487697
5963.315180,291.869000,4.666956
5969.770309,291.924000,7.247096
5976.105706,291.978000,5.055981
5982.556017,292.033000,6.996163
5989.003898,292.088000,1.998285
5995.449352,292.143000,13.379002
6001.892379,292.198000,4.802805
6008.215901,292.252000,4.238883
6014.654123,292.307000,6.537617
6021.089923,292.362000,7.918066
6027.523303,292.417000,5.814338
6033.954262,292.472000,16.125821
6040.265942,292.526000,7.783732
6046.692111,292.581000,2.226944
6053.115864,292.636000,9.621053
6059.420472,292.690000,15.141873
6065.839442,292.745000,12.365100
6072.256000,292.800000,10.686877
6078.553548,292.854000,6.745255
6084.965331,292.909000,10.942917
6091.374707,292.964000,12.594685
6097.665207,293.018000,8.651267
6104.069816,293.073000,2.671425
6110.472021,293.128000,6.046970
6116.755485,293.182000,11.861034
6123.152931,293.237000,8.073566
6129.431725,293.291000,7.900901
6135.824417,293.346000,9.141080
6142.098547,293.400000,8.045563
6148.486490,293.455000,4.313883
6154.872040,293.510000,4.799295
6161.139160,293.564000,7.693835
6167.519969,293.619000,10.444481
6173.782438,293.673000,10.792666
6180.158512,293.728000,8.033421
6186.416334,293.782000,15.202535
6192.787678,293.837000,9.665633
6199.040859,293.891000,3.445771
6205.291742,293.945000,9.912367
6211.656022,294.000000,4.658515
6217.902272,294.054000,7.447033
6224.261835,294.109000,15.883058
6230.503456,294.163000,6.620700
6236.742786,294.217000,12.189083
6243.095305,294.272000,2.101971
6249.330014,294.326000,5.141259
6255.677829,294.381000,8.526416
6261.907923,294.435000,2.734583
6268.135731,294.489000,7.364218
6274.476522,294.544000,5.036759
6280.699722,294.598000,8.914169
6286.920642,294.652000,7.283134
6293.139281,294.706000,9.321335
6299.470739,294.761000,3.587891
6305.684781,294.815000,4.622880
6311.896546,294.869000,13.026931
6318.106037,294.923000,10.740968
6324.428182,294.978000,11.437522
6330.633085,295.032000,10.535576
6336.835717,295.086000,10.432362
6343.036080,295.140000,9.318439
6349.234174,295.194000,12.215986
6355.544717,295.249000,4.686707
6361.738236,295.303000,14.915423
6367.929490,295.357000,13.853468
6374.118480,295.411000,7.660511
6380.305209,295.465000,5.688697
6386.489676,295.519000,8.973005
6392.671884,295.573000,4.378550
6398.851833,295.627000,10.341701
6405.143905,295.682000,5.027547
6411.319300,295.736000,14.099799
6417.492439,295.790000,8.019627
6423.663325,295.844000,10.729901
6429.831958,295.898000,6.599708
6435.998340,295.952000,8.806792
6442.162473,296.006000,5.978630
6448.324357,296.060000,4.234395
6454.483993,296.114000,2.128810
6460.641384,296.168000,12.111326
6466.796529,296.222000,10.381144
6472.949431,296.276000,8.172720
6479.100090,296.330000,5.298816
6485.248508,296.384000,9.929922
6491.280888,296.437000,10.103434
6497.424869,296.491000,8.271181
6503.566612,296.545000,9.685417
6509.706118,296.599000,1.228836
6515.843390,296.653000,13.694191
6521.978427,296.707000,0.197745
6528.111232,296.761000,6.381838
6534.241805,296.815000,15.906637
6540.256681,296.868000,4.783247
6546.382836,296.922000,13.789103
6552.506763,296.976000,16.528985
6558.628464,297.030000,8.603075
6564.747939,297.084000,7.920803
6570.751928,297.137000,7.068188
6576.866997,297.191000,13.041552
6582.979845,297.245000,11.266226
6589.090471,297.299000,8.726560
6595.085780,297.352000,5.237387
6601.192010,297.406000,24.243533
6607.296023,297.460000,6.957478
6613.397821,297.514000,9.516308
6619.384468,297.567000,12.059926
6625.481879,297.621000,3.427110
6631.577077,297.675000,9.795164
6637.557251,297.728000,15.074645
6643.648069,297.782000,3.838808
6649.623947,297.835000,10.464690
6655.710390,297.889000,11.056449
6661.794627,297.943000,6.363792
6667.764048,297.996000,6.386147
6673.843917,298.050000,13.422307
6679.809053,298.103000,14.016920
6685.884559,298.157000,12.319516
6691.957864,298.211000,6.701121
6697.916562,298.264000,12.925461
6703.985510,298.318000,14.327798
6709.939935,298.371000,8.636614
6716.004532,298.425000,11.460595
6721.954688,298.478000,10.905043
6728.014938,298.532000,12.684761
6733.960830,298.585000,7.560016
6739.904611,298.638000,0.980354
6745.958369,298.692000,14.469500
6751.897893,298.745000,4.777276
6757.947317,298.799000,4.942998
6763.882588,298.852000,11.802524
6769.927680,298.906000,10.093475
6775.858703,298.959000,5.634366
6781.787624,299.012000,9.455396
6787.826249,299.066000,12.413605
6793.750928,299.119000,11.625907
6799.673508,299.172000,15.689214
6805.705677,299.226000,10.062122
6811.624022,299.279000,14.104722
6817.540272,299.332000,12.709750
6823.565994,299.386000,17.597050
6829.478016,299.439000,7.243439
6835.387945,299.492000,7.978086
6841.407231,299.546000,14.067938
6847.312940,299.599000,7.478153
6853.216559,299.652000,12.180475
6859.118090,299.705000,-2.919855
6865.017534,299.758000,11.941659
6871.026143,299.812000,9.859247
6876.921378,299.865000,10.284551
6882.814529,299.918000,9.163516
6888.705597,299.971000,7.689394
6894.594584,300.024000,13.067184
6900.592545,300.078000,11.851018
6906.477333,300.131000,5.897406
6912.360044,300.184000,12.282269
6918.240677,300.237000,12.039459
6924.119235,300.290000,7.081993
6929.995718,300.343000,6.320120
6935.870127,300.396000,13.499934
6941.742464,300.449000,19.381256
6947.612730,300.502000,10.844763
6953.480925,300.555000,8.178748
6959.347051,300.608000,14.991657
6965.211108,300.661000,17.354683
6971.073099,300.714000,5.159385
6976.933024,300.767000,11.996216
6982.790884,300.820000,8.723072
6988.646680,300.873000,11.651646
6994.500413,300.926000,10.861699
7000.352085,300.979000,10.350160
7006.201696,301.032000,12.999881
7012.049248,301.085000,15.249584
7017.894742,301.138000,0.661502
7023.738178,301.191000,12.182603
7029.579559,301.244000,18.352099
7035.418884,301.297000,15.786216
7041.256155,301.350000,14.707782
7047.091373,301.403000,15.074593
7052.924539,301.456000,12.347491
7058.645653,301.508000,7.540245
7064.474758,301.561000,19.628927
7070.301814,301.614000,6.132376
7076.126822,301.667000,11.687558
7081.949784,301.720000,9.540121
7087.660892,301.772000,8.572164
7093.479803,301.825000,11.494427
7099.296670,301.878000,13.292767
7105.111496,301.931000,9.873989
7110.814624,301.983000,15.593792
7116.625408,302.036000,13.579414
7122.434152,302.089000,9.422397
7128.240858,302.142000,10.048144
7133.936024,302.194000,14.298378
7139.738696,302.247000,14.612748
7145.539334,302.300000,9.259444
7151.228549,302.352000,19.173113
7157.025159,302.405000,4.629686
7162.819737,302.458000,14.127637
7168.503010,302.510000,4.885882
7174.293567,302.563000,17.229295
7180.082095,302.616000,13.419285
7185.759436,302.668000,4.953086
7191.543949,302.721000,9.881007
7197.217352,302.773000,8.764068
7202.997854,302.826000,18.950164
7208.667324,302.878000,2.669660
7214.443819,302.931000,16.447772
7220.109360,302.983000,10.749076
7225.881853,303.036000,8.091908
7231.543468,303.088000,8.506284
7237.311962,303.141000,13.390080
7242.969657,303.193000,10.480895
7248.734156,303.246000,10.410357
7254.387934,303.298000,20.460715
7260.148443,303.351000,7.351156
7265.798308,303.403000,12.512900
7271.554831,303.456000,11.595639
7277.200787,303.508000,11.883261
7282.953328,303.561000,10.788388
7288.595379,303.613000,11.851318
7294.235498,303.665000,16.019455
7299.982093,303.718000,18.975566
7305.618313,303.770000,15.989330
7311.252604,303.822000,10.175515
7316.993262,303.875000,15.898191
7322.623660,303.927000,15.402430
7328.252131,303.979000,14.558453
7333.986862,304.032000,17.377684
7339.611446,304.084000,17.906013
7345.234108,304.136000,10.703380
7350.962920,304.189000,14.845169
7356.581700,304.241000,16.187067
7362.198561,304.293000,10.331425
7367.813502,304.345000,13.104184
7373.426525,304.397000,8.211648
7379.145517,304.450000,20.602764
7384.754669,304.502000,16.892516
7390.361906,304.554000,11.812471
7395.967228,304.606000,6.835973
7401.570637,304.658000,16.398022
7407.279836,304.711000,8.201004
7412.879384,304.763000,14.894975
7418.477021,304.815000,13.694544
7424.072749,304.867000,14.174758
7429.666569,304.919000,8.982389
7435.258480,304.971000,13.316781
7440.848486,305.023000,14.508914
7446.436585,305.075000,14.542765
7452.022780,305.127000,11.521241
7457.607071,305.179000,18.603576
7463.296795,305.232000,13.394090
7468.877245,305.284000,4.662124
7474.455794,305.336000,16.033310
7480.032444,305.388000,25.062249
7485.607195,305.440000,9.751433
7491.180048,305.492000,15.301417
7496.751004,305.544000,10.861329
7502.212985,305.595000,14.171491
7507.780187,305.647000,12.660462
7513.345495,305.699000,11.491554
7518.908909,305.751000,8.679751
7524.470432,305.803000,12.316630
7530.030064,305.855000,10.746549
7535.587805,305.907000,21.311810
7541.143658,305.959000,16.754404
7546.697622,306.011000,15.526362
7552.249699,306.063000,12.331714
7557.693173,306.114000,15.114127
7563.241514,306.166000,5.756809
7568.787971,306.218000,16.302659
7574.332545,306.270000,13.186497
7579.875237,306.322000,15.855059
7585.416047,306.374000,12.417431
7590.848476,306.425000,11.711146
7596.385562,306.477000,4.957441
7601.920769,306.529000,10.467875
7607.454098,306.581000,12.701458
7612.879195,306.632000,8.484272
7618.408808,306.684000,6.263493
7623.936546,306.736000,15.808693
7629.462411,306.788000,12.680995
7634.880189,306.839000,18.186762
7640.402345,306.891000,8.696360
7645.922629,306.943000,8.694345
7651.334938,306.994000,17.849250
7656.851519,307.046000,16.488051
7662.260197,307.097000,12.431583
7667.773079,307.149000,12.659943
7673.284094,307.201000,13.246340
7678.687317,307.252000,13.227883
7684.194638,307.304000,9.228262
7689.700096,307.356000,13.562688
7695.097870,307.407000,15.759710
7700.599639,307.459000,17.776096
7705.993798,307.510000,15.447617
7711.491883,307.562000,19.565074
7716.882430,307.613000,17.615950
7722.376833,307.665000,13.143047
7727.763772,307.716000,8.579277
7733.254498,307.768000,10.879457
7738.637831,307.819000,10.471811
7744.124884,307.871000,5.890619
7749.504617,307.922000,7.152179
7754.988000,307.974000,11.097448
7760.364134,308.025000,11.869323
7765.738489,308.076000,7.942559
7771.216392,308.128000,-3.621096
7776.587155,308.179000,7.409304
7782.061397,308.231000,0.443299
7787.428571,308.282000,8.687205
7792.793970,308.333000,13.535394
7798.262745,308.385000,11.166854
7803.624561,308.436000,3.313219
7808.984603,308.487000,6.060800
7814.447920,308.539000,9.070423
7819.804385,308.590000,11.179559
7825.159080,308.641000,4.221170
7830.616947,308.693000,3.618318
7835.968069,308.744000,14.845933
7841.317424,308.795000,8.913704
7846.665012,308.846000,15.872232
7852.115636,308.898000,8.452964
7857.459659,308.949000,13.916208
7862.801917,309.000000,15.542863
7868.142413,309.051000,9.979030
7873.481146,309.102000,8.309937
7878.922746,309.154000,15.721456
7884.257923,309.205000,15.352515
7889.591340,309.256000,10.873127
7894.922998,309.307000,15.355856
7900.252898,309.358000,17.555557
7905.581041,309.409000,11.150846
7910.907428,309.460000,13.057976
7916.336447,309.512000,13.984986
7921.659290,309.563000,16.987188
7926.980379,309.614000,18.686017
7932.299715,309.665000,13.075043
7937.617300,309.716000,8.376129
7942.933134,309.767000,10.239046
7948.247217,309.818000,16.309624
7953.559551,309.869000,9.046235
7958.870137,309.920000,11.337392
7964.178976,309.971000,14.340290
7969.486068,310.022000,16.387089
7974.791414,310.073000,12.308290
7980.095015,310.124000,11.071299
7985.396872,310.175000,19.887841
7990.696985,310.226000,11.822157
7995.995357,310.277000,16.028587
8001.291987,310.328000,18.846563
8006.586876,310.379000,18.392275
8011.880026,310.430000,11.038669
8017.067700,310.480000,13.681047
8022.357406,310.531000,16.298232
8027.645376,310.582000,14.681586
8032.931609,310.633000,19.730023
8038.216106,310.684000,20.937978
8043.498869,310.735000,4.816746
8048.779898,310.786000,15.886897
8053.955695,310.836000,13.441474
8059.233293,310.887000,8.724441
8064.509160,310.938000,16.546383
8069.783296,310.989000,18.722818
8074.952339,311.039000,15.155544
8080.223051,311.090000,16.105560
8085.492035,311.141000,20.861806
8090.759292,311.192000,16.205115
8095.921594,311.242000,21.263138
8101.185433,311.293000,14.125829
8106.447548,311.344000,19.192523
8111.604811,311.394000,18.392211
8116.863513,311.445000,14.033265
8122.120493,311.496000,5.246325
8127.272724,311.546000,13.755571
8132.526297,311.597000,11.797755
8137.778150,311.648000,10.931587
8142.925357,311.698000,14.658610
8148.173807,311.749000,15.173816
8153.420541,311.800000,11.465073
8158.562731,311.850000,18.066809
8163.806066,311.901000,15.037400
8168.944927,311.951000,15.160680
8174.184869,312.002000,13.009522
8179.320403,312.052000,18.669782
8184.556953,312.103000,13.139084
8189.689165,312.153000,14.324285
8194.922327,312.204000,13.055514
8200.051219,312.254000,17.217711
8205.280996,312.305000,14.420912
8210.406572,312.355000,14.469968
8215.632968,312.406000,11.798433
8220.755230,312.456000,17.678253
8225.978248,312.507000,17.714931
8231.097200,312.557000,8.449436
8236.316843,312.608000,15.624638
8241.432488,312.658000,12.318315
8246.546497,312.708000,16.205453
8251.761101,312.759000,19.696326
8256.871808,312.809000,14.510201
8261.980881,312.859000,7.544251
8267.190453,312.910000,17.880913
8272.296229,312.960000,-0.532306
8277.400373,313.010000,18.058666
8282.604921,313.061000,9.731288
8287.705773,313.111000,14.529008
8292.804996,313.161000,11.276394
8298.004526,313.212000,19.199267
8303.100462,313.262000,18.492582
8308.194770,313.312000,9.277878
8313.287453,313.362000,18.209130
8318.480316,313.413000,14.464150
8323.569717,313.463000,15.888475
8328.657496,313.513000,11.951096
8333.743651,313.563000,21.841997
8338.828185,313.613000,15.861739
8344.012739,313.664000,19.368700
8349.094000,313.714000,9.660631
8354.173640,313.764000,19.612265
8359.251662,313.814000,13.230170
8364.328066,313.864000,7.414590
8369.402853,313.914000,18.378840
8374.476024,313.964000,12.049839
8379.547579,314.014000,16.368564
8384.718901,314.065000,15.525117
8389.787195,314.115000,5.773637
8394.853876,314.165000,16.899169
8399.918944,314.215000,14.684365
8404.982400,314.265000,16.676270
8410.044246,314.315000,13.327451
8415.104481,314.365000,13.299612
8420.163107,314.415000,13.813860
8425.220124,314.465000,16.098692
8430.275533,314.515000,16.776556
8435.329336,314.565000,11.631435
8440.381532,314.615000,14.952890
8445.432122,314.665000,14.097889
8450.481107,314.715000,22.571887
8455.528489,314.765000,17.072059
8460.473367,314.814000,13.858126
8465.517575,314.864000,16.155066
8470.560181,314.914000,19.296090
8475.601186,314.964000,20.161583
8480.640590,315.014000,16.141463
8485.678395,315.064000,19.749620
8490.714602,315.114000,16.728022
8495.749210,315.164000,16.891813
8500.681577,315.213000,21.163735
8505.713024,315.263000,14.996545
8510.742875,315.313000,14.285926
8515.771131,315.363000,14.116454
8520.797793,315.413000,17.843654
8525.722375,315.462000,14.804299
8530.745883,315.512000,10.728173
8535.767799,315.562000,21.022212
8540.788124,315.612000,9.000012
8545.706499,315.661000,18.114854
8550.723675,315.711000,16.351239
8555.739262,315.761000,18.033306
8560.652997,315.810000,17.715194
8565.665441,315.860000,20.755208
8570.676298,315.910000,13.843565
8575.585399,315.959000,18.888829
8580.593116,316.009000,29.481941
8585.599249,316.059000,11.577852
8590.503723,316.108000,24.763514
8595.506721,316.158000,18.873939
8600.508137,316.208000,18.049053
8605.407991,316.257000,17.740916
8610.406276,316.307000,14.931698
8615.303063,316.356000,16.735822
8620.298221,316.406000,22.190659
8625.191944,316.455000,15.013421
8630.183977,316.505000,24.050732
8635.074640,316.554000,13.820372
8640.063551,316.604000,17.023823
8644.951156,316.653000,16.981988
8649.936949,316.703000,16.452442
8654.821499,316.752000,24.861171
8659.804175,316.802000,14.486522
8664.685673,316.851000,26.508535
8669.665237,316.901000,24.155466
8674.543685,316.950000,17.474742
8679.520139,317.000000,16.958375
8684.395541,317.049000,25.139042
8689.269436,317.098000,13.961291
8694.241247,317.148000,10.090689
8699.112100,317.197000,18.222252
8703.981448,317.246000,16.826931
8708.948621,317.296000,26.472367
8713.814931,317.345000,12.110646
8718.779005,317.395000,10.966180
8723.642281,317.444000,19.084139
8728.504055,317.493000,18.999029
8733.364329,317.542000,27.129989
8738.322247,317.592000,27.224739
8743.179491,317.641000,35.099426
8748.035237,317.690000,25.042462
8752.889486,317.739000,23.197508
8757.841258,317.789000,29.579644
8762.692483,317.838000,28.134218
8767.542212,317.887000,30.698423
8772.390446,317.936000,27.804120
8777.336084,317.986000,34.190441
8782.181300,318.035000,27.384783
8787.025024,318.084000,34.072894
8791.867255,318.133000,31.237816
8796.707995,318.182000,42.507106
8801.547244,318.231000,24.444619
8806.385003,318.280000,28.299708
8811.319957,318.330000,21.696123
8816.154708,318.379000,27.860223
8820.987971,318.428000,29.454106
8825.819746,318.477000,27.103333
8830.650035,318.526000,39.742939
8835.478838,318.575000,29.487820
8840.306156,318.624000,25.290363
8845.131990,318.673000,36.876287
8849.956339,318.722000,30.140454
8854.779206,318.771000,52.433759
8859.600590,318.820000,34.475212
8864.420492,318.869000,34.459623
8869.238913,318.918000,31.015205
8874.055854,318.967000,34.322784
8878.871314,319.016000,33.011270
8883.685296,319.065000,42.059439
8888.497800,319.114000,38.047745
8893.308826,319.163000,29.043005
8898.118374,319.212000,30.691660
8902.926447,319.261000,28.649322
8907.634964,319.309000,27.055048
8912.440116,319.358000,26.720562
8917.243794,319.407000,32.663274
8922.045998,319.456000,30.202448
8926.846729,319.505000,21.489747
8931.645988,319.554000,24.483965
8936.443775,319.603000,22.133066
8941.142222,319.651000,19.250063
8945.937098,319.700000,20.914557
8950.730504,319.749000,26.615313
8955.522441,319.798000,22.307036
8960.215161,319.846000,20.217171
8965.004192,319.895000,26.006562
8969.791757,319.944000,28.558156
8974.577855,319.993000,25.324347
8979.264858,320.041000,20.387841
8984.048055,320.090000,21.460888
8988.829789,320.139000,28.800421
8993.512517,320.187000,28.203865
8998.291355,320.236000,25.771814
9003.068730,320.285000,31.350970
9007.747190,320.333000,24.806748
9012.521672,320.382000,24.724295
9017.294694,320.431000,22.544869
9021.968893,320.479000,22.934907
9026.739026,320.528000,26.731498
9031.410396,320.576000,25.255914
9036.177644,320.625000,29.564298
9040.943434,320.674000,26.360313
9045.610552,320.722000,25.469106
9050.373460,320.771000,21.870229
9055.037756,320.819000,23.158325
9059.797784,320.868000,24.688504
9064.459261,320.916000,27.244978
9069.216413,320.965000,31.673548
9073.875072,321.013000,27.643083
9078.629350,321.062000,28.531772
9083.285194,321.110000,22.887478
9088.036601,321.159000,27.749042
9092.689634,321.207000,28.542020
9097.438171,321.256000,28.755350
9102.088394,321.304000,29.993296
9106.737229,321.352000,23.725483
9111.481482,321.401000,18.128941
9116.127511,321.449000,25.556505
9120.868902,321.498000,29.948633
9125.512128,321.546000,18.868019
9130.153968,321.594000,23.145900
9134.891085,321.643000,22.757527
9139.530126,321.691000,25.849788
9144.167783,321.739000,28.862959
9148.900630,321.788000,16.341796
9153.535492,321.836000,23.514691
9158.168971,321.884000,23.902209
9162.801069,321.932000,26.394188
9167.528244,321.981000,26.029985
9172.157551,322.029000,26.958637
9176.785479,322.077000,26.686569
9181.412027,322.125000,18.489782
9186.133540,322.174000,15.981666
9190.757302,322.222000,21.966049
9195.379688,322.270000,22.064040
9200.000697,322.318000,19.071204
9204.620330,322.366000,24.581700
9209.334786,322.415000,25.276075
9213.951640,322.463000,22.912107
9218.567119,322.511000,25.878049
9223.181225,322.559000,22.736287
9227.793957,322.607000,24.675411
9232.405318,322.655000,23.422943
9237.015306,322.703000,22.358640
9241.623923,322.751000,30.430137
9246.231170,322.799000,33.277870
9250.932988,322.848000,26.812010
9255.537466,322.896000,24.484416
9260.140576,322.944000,31.937865
9264.742318,322.992000,26.925968
9269.342693,323.040000,25.804829
9273.941700,323.088000,25.057118
9278.539341,323.136000,25.828210
9283.135616,323.184000,43.405849
9287.730527,323.232000,32.504313
9292.324072,323.280000,32.241393
9296.916254,323.328000,38.031582
9301.411445,323.375000,38.516069
9306.000929,323.423000,51.466863
9310.589052,323.471000,41.036012
9315.175812,323.519000,28.966336
9319.761212,323.567000,34.686019
9324.345252,323.615000,32.915009
9328.927932,323.663000,33.843220
9333.509253,323.711000,38.648188
9338.089216,323.759000,26.854822
9342.572447,323.806000,44.129046
9347.149722,323.854000,40.232112
9351.725642,323.902000,20.652148
9356.300205,323.950000,26.449454
9360.873412,323.998000,31.802502
9365.350032,324.045000,26.088450
9369.920559,324.093000,22.521212
9374.489732,324.141000,30.099309
9379.057552,324.189000,32.735548
9383.528899,324.236000,37.706881
9388.094043,324.284000,36.795827
9392.657836,324.332000,34.104581
9397.125241,324.379000,42.556907
9401.686361,324.427000,30.993784
9406.246132,324.475000,27.444718
9410.804554,324.523000,32.669056
9415.266702,324.570000,39.393783
9419.822456,324.618000,50.512179
9424.281993,324.665000,43.122484
9428.835082,324.713000,39.461207
9433.386824,324.761000,39.564005
9437.842435,324.808000,34.760866
9442.391516,324.856000,37.031537
9446.844521,324.903000,32.886136
9451.390942,324.951000,33.603611
9455.936020,324.999000,25.727586
9460.385108,325.046000,30.832144
9464.927530,325.094000,35.225606
9469.374018,325.141000,39.245821
9473.913786,325.189000,25.287555
9478.357677,325.236000,29.384241
9482.894794,325.284000,33.296323
9487.336090,325.331000,29.467718
9491.870557,325.379000,28.621643
9496.309260,325.426000,26.095953
9500.746681,325.473000,31.659093
9505.277193,325.521000,29.294791
9509.712024,325.568000,26.736596
9514.239893,325.616000,36.611800
9518.672137,325.663000,26.851284
9523.103102,325.710000,26.296380
9527.627024,325.758000,39.095780
9532.055405,325.805000,32.170600
9536.576689,325.853000,35.596817
9541.002489,325.900000,26.032657
9545.427013,325.947000,22.103990
9549.850260,325.994000,35.520301
9554.366303,326.042000,28.619323
9558.786974,326.089000,35.832603
9563.206371,326.136000,35.082218
9567.718482,326.184000,36.621278
9572.135305,326.231000,24.818692
9576.550855,326.278000,24.039770
9580.965134,326.325000,34.154283
9585.472021,326.373000,38.054438
9589.883730,326.420000,31.313049
9594.294169,326.467000,31.621605
9598.703338,326.514000,33.478512
9603.111238,326.561000,34.109903
9607.611614,326.609000,33.533283
9612.016950,326.656000,37.057802
9616.421019,326.703000,36.061665
9620.823821,326.750000,32.830965
9625.225356,326.797000,26.106982
9629.625626,326.844000,28.885459
9634.024630,326.891000,41.046198
9638.422369,326.938000,32.771768
9642.818845,326.985000,30.023454
9647.214056,327.032000,36.634205
9651.701479,327.080000,29.990953
9656.094138,327.127000,34.682921
9660.485535,327.174000,33.570386
9664.875670,327.221000,32.967291
9669.264544,327.268000,33.190748
9673.652158,327.315000,31.684064
9678.038512,327.362000,41.272243
9682.423607,327.409000,35.965329
9686.807443,327.456000,30.051537
9691.190021,327.503000,34.013301
9695.478134,327.549000,40.268686
9699.858224,327.596000,33.882525
9704.237057,327.643000,36.766340
9708.614633,327.690000,31.656686
9712.990955,327.737000,38.072129
9717.366021,327.784000,33.920856
9721.739833,327.831000,41.357049
9726.112390,327.878000,40.228880
9730.483695,327.925000,29.343571
9734.760780,327.971000,39.288311
9739.129606,328.018000,35.890673
9743.497180,328.065000,29.259284
9747.863503,328.112000,32.125809
9752.228575,328.159000,38.268003
9756.499562,328.205000,31.923402
9760.862161,328.252000,34.394727
9765.223511,328.299000,26.197181
9769.583612,328.346000,35.172285
9773.849737,328.392000,35.834286
9778.207369,328.439000,33.964119
9782.563754,328.486000,39.797768
9786.918893,328.533000,33.293264
9791.180163,328.579000,38.748126
9795.532837,328.626000,33.907124
9799.884266,328.673000,33.566648
9804.141906,328.719000,33.565306
9808.490874,328.766000,35.885655
9812.838598,328.813000,41.666578
9817.092614,328.859000,33.027897
9821.437879,328.906000,34.666836
9825.689490,328.952000,45.192400
9830.032299,328.999000,41.922549
9834.373868,329.046000,33.141647
9838.621862,329.092000,40.575132
9842.960977,329.139000,35.744285
9847.206571,329.185000,39.665356
9851.543235,329.232000,33.964589
9855.786431,329.278000,37.343683
9860.120646,329.325000,39.786772
9864.361446,329.371000,42.595515
9868.693214,329.418000,41.845870
9872.931619,329.464000,39.264578
9877.260942,329.511000,37.068507
9881.496956,329.557000,42.120418
9885.823836,329.604000,46.293985
9890.057460,329.650000,41.684110
9894.289903,329.696000,34.383377
9898.613135,329.743000,35.957635
9902.843191,329.789000,45.109227
9907.163985,329.836000,33.737912
9911.391656,329.882000,41.498346
9915.618148,329.928000,43.317910
9919.935303,329.975000,45.233715
9924.159413,330.021000,35.642782
9928.382346,330.067000,43.418924
9932.695866,330.114000,43.066438
9936.916419,330.160000,39.122911
9941.135797,330.206000,44.674095
9945.445687,330.253000,35.151766
9949.662689,330.299000,41.556269
9953.878516,330.345000,40.310900
9958.093170,330.391000,43.590027
9962.398234,330.438000,44.424493
9966.610516,330.484000,41.537169
9970.821625,330.530000,43.373518
9975.031562,330.576000,42.978889
9979.240328,330.622000,38.937204
9983.539380,330.669000,45.262684
9987.745778,330.715000,44.664525
9991.951007,330.761000,47.463947
9996.155067,330.807000,46.474053
10000.357957,330.853000,42.573791
10004.559679,330.899000,37.787841
10008.760233,330.945000,42.343553
10013.050897,330.992000,45.259532
10017.249091,331.038000,37.756887
10021.446118,331.084000,43.254160
10025.641979,331.130000,39.703774
10029.836675,331.176000,45.742705
10034.030205,331.222000,48.082162
10038.222571,331.268000,43.502512
10042.413773,331.314000,49.256448
10046.603811,331.360000,32.442834
10050.792686,331.406000,36.744709
10054.980398,331.452000,48.718288
10059.166948,331.498000,37.395967
10063.352336,331.544000,43.154294
10067.536563,331.590000,41.269348
10071.719629,331.636000,38.482110
10075.901535,331.682000,44.490566
10080.082281,331.728000,43.501264
10084.261868,331.774000,44.746649
10088.440296,331.820000,44.646042
10092.526768,331.865000,38.726576
10096.702905,331.911000,45.469069
10100.877884,331.957000,30.596286
10105.051707,332.003000,35.947587
10109.224373,332.049000,41.949369
10113.395884,332.095000,48.331260
10117.475591,332.140000,45.025427
10121.644816,332.186000,45.484520
10125.812886,332.232000,39.593918
10129.979802,332.278000,34.071955
10134.145565,332.324000,44.270485
10138.219652,332.369000,49.717654
10142.383134,332.415000,52.089683
10146.545464,332.461000,38.850500
10150.706643,332.507000,40.078772
10154.776247,332.552000,44.762323
10158.935148,332.598000,41.391688
10163.092900,332.644000,45.357689
10167.159152,332.689000,48.093244
10171.314630,332.735000,48.909669
10175.468958,332.781000,36.404934
10179.531864,332.826000,38.352030
10183.683921,332.872000,42.285150
10187.834831,332.918000,47.962309
10191.894393,332.963000,47.483845
10196.043035,333.009000,50.229807
10200.190530,333.055000,46.760027
10204.246754,333.100000,43.864503
10208.391984,333.146000,42.398330
10212.445992,333.191000,49.098522
10216.588958,333.237000,46.159008
10220.640753,333.282000,51.329204
10224.781457,333.328000,47.557997
10228.831039,333.373000,51.151510
10232.969483,333.419000,47.926376
10237.016856,333.464000,49.779561
10241.153042,333.510000,45.222546
10245.198206,333.555000,42.006716
10249.332135,333.601000,48.141794
10253.375094,333.646000,50.887115
10257.506768,333.692000,45.389450
10261.547522,333.737000,42.070252
10265.587186,333.782000,49.430136
10269.715494,333.828000,47.983126
10273.752956,333.873000,38.249936
10277.879015,333.919000,43.777953
10281.914277,333.964000,45.118274
10285.948452,334.009000,45.196587
10290.071151,334.055000,48.703761
10294.103128,334.100000,35.478417
10298.134020,334.145000,42.464372
10302.253364,334.191000,44.322146
10306.282060,334.236000,47.984083
10310.309672,334.281000,43.041500
10314.425666,334.327000,47.791203
10318.451085,334.372000,40.952285
10322.475422,334.417000,44.963120
10326.498675,334.462000,50.006382
10330.610215,334.508000,46.520340
10334.631280,334.553000,42.433731
10338.651263,334.598000,45.514012
10342.670165,334.643000,41.048182
10346.687987,334.688000,48.826420
10350.704728,334.733000,48.472845
10354.809614,334.779000,41.338452
10358.824172,334.824000,43.395022
10362.837651,334.869000,45.974333
10366.850051,334.914000,43.529946
10370.861373,334.959000,49.579661
10374.871618,335.004000,44.778584
10378.880786,335.049000,51.564606
10382.888876,335.094000,43.446194
10386.984923,335.140000,48.705271
10390.990838,335.185000,39.263801
10394.995677,335.230000,45.898211
10398.999440,335.275000,50.292024
10403.002130,335.320000,47.336164
10407.003745,335.365000,42.745546
10411.004286,335.410000,46.838794
10415.003755,335.455000,49.969182
10419.002150,335.500000,46.102431
10422.999473,335.545000,48.743799
10426.995723,335.590000,46.347356
10430.990902,335.635000,38.393469
10434.985010,335.680000,48.838877
10438.889325,335.724000,44.083207
10442.881316,335.769000,51.066059
10446.872237,335.814000,47.441130
10450.862088,335.859000,51.935628
10454.850871,335.904000,49.226613
10458.838585,335.949000,44.042316
10462.825230,335.994000,46.900925
10466.810808,336.039000,41.449292
10470.706786,336.083000,47.960779
10474.690253,336.128000,44.002708
10478.672654,336.173000,43.151641
10482.653989,336.218000,52.501165
10486.634259,336.263000,49.158128
10490.525048,336.307000,48.064819
10494.503211,336.352000,48.468245
10498.480310,336.397000,43.973045
10502.456345,336.442000,44.177991
10506.342995,336.486000,41.324702
10510.316927,336.531000,46.015589
10514.289797,336.576000,45.604552
10518.261604,336.621000,46.223319
10522.144122,336.665000,54.961291
10526.113830,336.710000,52.795877
10530.082477,336.755000,43.503959
10533.961906,336.799000,42.800288
10537.928455,336.844000,48.971439
10541.893946,336.889000,49.627610
10545.770289,336.933000,43.149330
10549.733685,336.978000,37.655794
10553.607982,337.022000,46.814327
10557.569284,337.067000,44.064552
10561.529529,337.112000,52.043019
10565.400747,337.156000,49.283960
10569.358902,337.201000,50.589757
10573.228076,337.245000,45.263305
10577.184142,337.290000,40.769715
10581.051275,337.334000,43.525691
10585.005254,337.379000,41.745025
10588.870347,337.423000,44.032788
10592.822240,337.468000,45.730800
10596.685295,337.512000,51.942615
10600.635105,337.557000,44.440637
10604.496123,337.601000,38.423683
10608.443850,337.646000,34.815772
10612.302834,337.690000,42.837844
10616.160811,337.734000,38.102131
10620.105430,337.779000,22.619492
10623.961375,337.823000,25.035045
10627.903916,337.868000,28.009442
10631.757830,337.912000,20.765046
10635.610740,337.956000,19.700260
10639.550179,338.001000,18.775905
10643.401061,338.045000,14.298822
10647.250940,338.089000,21.301921
10651.187281,338.134000,8.376745
10655.035134,338.178000,10.890371
10658.881986,338.222000,10.396590
10662.815231,338.267000,-1.375566
10666.660059,338.311000,4.574704
10670.503887,338.355000,-1.999242
10674.346716,338.399000,-2.968211
10678.275848,338.444000,-1.797820
10682.116656,338.488000,3.356001
10685.956465,338.532000,3.098257
10689.795276,338.576000,-1.443221
10693.633090,338.620000,5.817039
10697.557096,338.665000,0.783395
10701.392893,338.709000,-3.299579
10705.227693,338.753000,-1.641911
10709.061498,338.797000,0.594269
10712.894307,338.841000,2.509853
10716.726120,338.885000,2.419392
10720.556939,338.929000,1.996823
10724.386763,338.973000,9.897375
10728.302601,339.018000,4.319002
10732.130414,339.062000,2.843300
10735.957235,339.106000,-1.612352
10739.783062,339.150000,-1.387644
10743.607897,339.194000,5.997356
10747.431740,339.238000,2.073948
10751.254591,339.282000,2.966413
10755.076450,339.326000,0.706165
10758.897319,339.370000,-1.561499
10762.717197,339.414000,5.085434
10766.536084,339.458000,1.907542
10770.353982,339.502000,2.207695
10774.170890,339.546000,6.530721
10777.986809,339.590000,3.971838
10781.801740,339.634000,8.509043
10785.615682,339.678000,1.293416
10789.341989,339.721000,-1.107792
10793.153978,339.765000,2.929691
10796.964980,339.809000,1.562276
10800.774995,339.853000,3.710694
10804.584024,339.897000,1.379424
10808.392066,339.941000,2.208746
10812.199123,339.985000,4.218218
10816.005195,340.029000,1.321265
10819.723813,340.072000,5.124269
10823.527938,340.116000,-2.565571
10827.331078,340.160000,5.666577
10831.133235,340.204000,3.498150
10834.848029,340.247000,-1.309258
10838.648242,340.291000,1.236839
10842.447472,340.335000,0.296139
10846.245720,340.379000,3.231415
10849.956695,340.422000,2.331567
10853.753002,340.466000,5.123962
10857.548328,340.510000,-2.214158
10861.342673,340.554000,3.327097
10865.049836,340.597000,2.010907
10868.842243,340.641000,6.030139
10872.633670,340.685000,4.698093
10876.337983,340.728000,2.753800
10880.127474,340.772000,0.424600
10883.829896,340.815000,-0.684662
10887.617453,340.859000,8.429800
10891.404033,340.903000,-7.504806
10895.103609,340.946000,-4.449050
10898.888257,340.990000,-4.960175
10902.585946,341.033000,4.379178
10906.368663,341.077000,1.855741
10910.150404,341.121000,1.922523
10913.845254,341.164000,-10.745492
10917.625066,341.208000,-0.889865
10921.318033,341.251000,-5.576407
10925.095918,341.295000,0.787883
10928.787002,341.338000,2.320789
10932.562962,341.382000,-2.242195
10936.252165,341.425000,5.263529
10939.940439,341.468000,5.693637
10943.713524,341.512000,7.616292
10947.399919,341.555000,-3.050516
10951.171083,341.599000,-0.345696
10954.855601,341.642000,-3.285175
10958.624845,341.686000,0.293212
10962.307486,341.729000,5.299167
10965.989201,341.772000,-1.293448
10969.755578,341.816000,3.180554
10973.435419,341.859000,1.521910
10977.114334,341.902000,5.017217
10980.877848,341.946000,0.094001
10984.554892,341.989000,-2.376397
10988.231011,342.032000,3.490721
10991.991665,342.076000,1.261004
10995.665914,342.119000,4.312014
10999.339240,342.162000,-4.284469
11003.011643,342.205000,-0.389000
11006.768496,342.249000,0.374887
11010.439032,342.292000,5.426705
11014.108646,342.335000,2.764005
11017.777338,342.378000,-0.953679
11021.530396,342.422000,2.609789
11025.197224,342.465000,2.490531
11028.863132,342.508000,2.854017
11032.528119,342.551000,3.587231
11036.192187,342.594000,-0.555057
11039.855335,342.637000,2.626356
11043.602720,342.681000,-8.361743
11047.264009,342.724000,-5.042621
11050.924378,342.767000,0.678876
11054.583829,342.810000,5.201298
11058.242363,342.853000,-1.341968
11061.899979,342.896000,-6.808827
11065.556677,342.939000,6.212447
11069.212459,342.982000,2.011404
11072.867324,343.025000,6.631933
11076.521273,343.068000,-6.148162
11080.174306,343.111000,-1.685718
11083.826423,343.154000,5.173694
11087.477626,343.197000,5.023635
11091.127913,343.240000,2.783569
11094.777286,343.283000,4.204411
11098.425745,343.326000,3.488134
11102.073291,343.369000,-6.119482
11105.719922,343.412000,3.135875
11109.365641,343.455000,-1.349824
11113.010447,343.498000,-4.646105
11116.654340,343.541000,4.354136
11120.297322,343.584000,-4.399212
11123.939391,343.627000,-1.186131
11127.580549,343.670000,6.706608
11131.220797,343.713000,-3.047064
11134.775508,343.755000,0.412414
11138.413955,343.798000,0.576965
11142.051492,343.841000,1.559037
11145.688120,343.884000,-6.748140
11149.323838,343.927000,-0.681824
11152.958647,343.970000,4.798110
11156.508049,344.012000,0.773233
11160.141062,344.055000,5.358522
11163.773167,344.098000,-8.912198
11167.404365,344.141000,0.233130
11170.950240,344.183000,4.763911
11174.579645,344.226000,2.869126
11178.208143,344.269000,-4.459524
11181.751382,344.311000,0.354807
11185.378088,344.354000,-1.574578
11189.003889,344.397000,3.609893
11192.628785,344.440000,-4.301155
11196.168507,344.482000,4.745873
11199.791614,344.525000,-6.524367
11203.413817,344.568000,0.142887
11206.950910,344.610000,0.151147
11210.571327,344.653000,-1.256972
11214.106675,344.695000,-3.896916
11217.725306,344.738000,-3.146882
11221.343035,344.781000,-2.477926
11224.875759,344.823000,1.391247
11228.491704,344.866000,-0.957784
11232.022687,344.908000,-8.698569
11235.636851,344.951000,2.009111
11239.166094,344.993000,-1.506226
11242.778477,345.036000,-4.959188
11246.305982,345.078000,0.379072
11249.916585,345.121000,6.979401
11253.442353,345.163000,-4.451651
11257.051178,345.206000,-5.366650
11260.575210,345.248000,-4.115585
11264.182259,345.291000,-1.064598
11267.704555,345.333000,-4.945444
11271.309829,345.376000,-4.912001
11274.830392,345.418000,-3.394253
11278.350100,345.460000,1.674327
11281.952723,345.503000,-5.855015
11285.470699,345.545000,-11.127200
11288.987820,345.587000,1.320934
11292.587796,345.630000,0.979360
11296.103187,345.672000,1.827940
11299.701393,345.715000,-1.736039
11303.215056,345.757000,-3.828048
11306.727865,345.799000,2.019894
11310.239821,345.841000,-1.816685
11313.834512,345.884000,0.106456
11317.344742,345.926000,0.938006
11320.854120,345.968000,-4.765777
11324.446172,346.011000,7.069795
11327.953826,346.053000,2.275951
11331.460629,346.095000,-0.802330
11334.966581,346.137000,1.062468
11338.471682,346.179000,-1.799664
11342.059357,346.222000,-2.318337
11345.562737,346.264000,-4.258141
11349.065268,346.306000,-0.956435
11352.566949,346.348000,4.874109
11356.067781,346.390000,-1.802052
11359.567764,346.432000,-0.895361
11363.150201,346.475000,-1.311606
11366.648467,346.517000,-1.714818
11370.145885,346.559000,-7.076253
11373.642456,346.601000,-2.448363
11377.138179,346.643000,7.592331
11380.633055,346.685000,-2.362760
11384.127085,346.727000,1.349708
11387.620268,346.769000,-3.155140
11391.112605,346.811000,-5.303398
11394.604096,346.853000,0.541585
11398.094742,346.895000,-3.208412
11401.584543,346.937000,0.375111
11405.073499,346.979000,0.523988
11408.561610,347.021000,5.846201
11412.048877,347.063000,2.299850
11415.535301,347.105000,-3.780941
11419.020880,347.147000,1.424512
11422.505617,347.189000,-6.916240
11425.989510,347.231000,-10.200384
11429.472560,347.273000,-2.752022
11432.954769,347.315000,9.968988
11436.436135,347.357000,-5.175883
11439.916659,347.399000,1.998056
11443.313502,347.440000,-6.890301
11446.792364,347.482000,0.359631
11450.270384,347.524000,1.009611
11453.747565,347.566000,4.395444
11457.223905,347.608000,-4.052579
11460.699405,347.650000,1.271356
11464.091345,347.691000,3.376946
11467.565186,347.733000,0.234907
11471.038188,347.775000,-2.169061
11474.510351,347.817000,-1.953427
11477.981676,347.859000,-0.846261
11481.369541,347.900000,-5.305029
11484.839210,347.942000,-14.398879
11488.308041,347.984000,-2.507755
11491.693473,348.025000,-0.586975
11495.160650,348.067000,-7.168356
11498.626991,348.109000,-3.596219
11502.092494,348.151000,-0.817765
11505.474680,348.192000,0.013259
11508.938532,348.234000,-2.987388
11512.401549,348.276000,0.414230
11515.781307,348.317000,0.655524
11519.242673,348.359000,1.114247
11522.620821,348.400000,0.434469
11526.080539,348.442000,-3.711328
11529.539422,348.484000,1.273756
11532.915148,348.525000,3.075346
11536.372384,348.567000,-0.671474
11539.746502,348.608000,-8.425724
11543.202092,348.650000,-1.784820
11546.574604,348.691000,-2.906978
11550.028550,348.733000,0.818317
11553.399456,348.774000,0.549273
11556.851758,348.816000,5.094371
11560.221061,348.857000,-3.421777
11563.671720,348.899000,-0.545482
11567.039420,348.940000,-7.329285
11570.488439,348.982000,-6.162363
11573.854537,349.023000,1.235752
11577.301915,349.065000,-1.222137
11580.666413,349.106000,-2.837223
11584.030120,349.147000,1.242958
11587.475051,349.189000,-3.367802
11590.837159,349.230000,-2.173302
11594.280452,349.272000,-4.592772
11597.640963,349.313000,-0.214045
11601.000686,349.354000,2.108376
11604.441535,349.396000,-7.726032
11607.799661,349.437000,-4.141123
11611.157000,349.478000,-1.977703
11614.595408,349.520000,-0.096877
11617.951152,349.561000,-6.860943
11621.306109,349.602000,1.419866
11624.660280,349.643000,-0.968184
11628.095443,349.685000,-1.592483
11631.448022,349.726000,2.327644
11634.799814,349.767000,2.516454
11638.150821,349.808000,-7.023133
11641.582745,349.850000,5.004698
11644.932162,349.891000,-15.079275
11648.280794,349.932000,1.039130
11651.628641,349.973000,-8.012915
11654.975704,350.014000,-5.008897
11658.403590,350.056000,-7.861467
11661.749066,350.097000,-7.524339
11665.093759,350.138000,-5.055720
11668.437668,350.179000,1.823967
11671.780795,350.220000,-3.655688
11675.123139,350.261000,-5.609583
11678.464700,350.302000,5.072691
11681.805480,350.343000,-0.538727
11685.145477,350.384000,-2.159306
11688.484693,350.425000,-3.104100
11691.904543,350.467000,6.016044
11695.242178,350.508000,-3.021302
11698.579032,350.549000,-4.218094
11701.915105,350.590000,0.044996
11705.250398,350.631000,-7.078803
11708.584912,350.672000,0.597042
11711.918645,350.713000,-1.972704
11715.251600,350.754000,-2.813269
11718.502512,350.794000,7.042471
11721.833927,350.835000,1.541073
11725.164564,350.876000,1.107357
11728.494422,350.917000,-9.322947
11731.823503,350.958000,-6.422418
11735.151806,350.999000,-9.480899
11738.479331,351.040000,0.505155
11741.806079,351.081000,0.930926
11745.132050,351.122000,-5.040336
11748.457245,351.163000,-0.623931
11751.700589,351.203000,-3.230283
11755.024250,351.244000,-1.733476
11758.347135,351.285000,0.040050
11761.669245,351.326000,-10.025721
11764.990579,351.367000,-9.203945
11768.230159,351.407000,-5.311319
11771.549962,351.448000,-3.639851
11774.868991,351.489000,-6.723070
11778.187246,351.530000,-2.779697
11781.423822,351.570000,-5.403478
11784.740548,351.611000,4.698730
11788.056500,351.652000,-6.008953
11791.371680,351.693000,-0.914559
11794.605256,351.733000,-7.687258
11797.918909,351.774000,-4.768981
11801.231790,351.815000,-11.650767
11804.463124,351.855000,-4.289107
11807.774479,351.896000,-12.508308
11811.085063,351.937000,-6.281402
11814.314158,351.977000,3.974653
11817.623218,352.018000,-1.403296
11820.850827,352.058000,-5.258084
11824.158365,352.099000,-9.562185
11827.465133,352.140000,-1.297061
11830.690506,352.180000,2.111293
11833.995753,352.221000,-0.471290
11837.219643,352.261000,-2.860505
11840.523370,352.302000,6.978042
11843.745778,352.342000,-3.208544
11847.047986,352.383000,-4.972671
11850.268913,352.423000,-9.540980
11853.569603,352.464000,-19.308432
11856.789050,352.504000,3.576296
11860.088224,352.545000,-1.017515
11863.306191,352.585000,-5.782581
11866.603850,352.626000,2.159641
11869.820339,352.666000,4.192285
11873.116483,352.707000,4.047945
11876.331495,352.747000,-6.797790
11879.545777,352.787000,0.922171
11882.839661,352.828000,2.445443
11886.052468,352.868000,-1.559435
11889.264547,352.908000,-0.140752
11892.556173,352.949000,0.715547
11895.766777,352.989000,-7.102375
11899.056892,353.030000,-3.936959
11902.266024,353.070000,4.506555
11905.474429,353.110000,-4.938263
11908.682107,353.150000,-4.434841
11911.969223,353.191000,-3.789388
11915.175430,353.231000,-1.348727
11918.380911,353.271000,-2.843539
11921.665775,353.312000,-2.436921
11924.869787,353.352000,-1.402294
11928.073073,353.392000,-6.382958
11931.275634,353.432000,-9.739286
11934.477470,353.472000,-1.434416
11937.758600,353.513000,-2.724282
11940.958969,353.553000,-3.470245
11944.158614,353.593000,-3.988189
11947.357536,353.633000,-7.636863
11950.555733,353.673000,-1.590640
11953.753208,353.713000,-0.567171
11957.029868,353.754000,-3.327625
11960.225879,353.794000,0.233561
11963.421166,353.834000,3.435429
11966.615732,353.874000,-0.952359
11969.809575,353.914000,-1.890539
11973.002696,353.954000,-1.334618
11976.195096,353.994000,-2.601885
11979.386774,354.034000,-7.546001
11982.577731,354.074000,0.646580
11985.767968,354.114000,0.525850
11988.957483,354.154000,-5.464002
11992.146279,354.194000,-7.705000
11995.334354,354.234000,-1.622225
11998.521709,354.274000,-12.441789
12001.708345,354.314000,-1.033466
12004.894261,354.354000,1.947201
12008.079458,354.394000,-4.701302
12011.263936,354.434000,-4.004238
12014.447695,354.474000,1.890975
12017.630736,354.514000,-2.695922
12020.813059,354.554000,-4.531165
12023.994663,354.594000,-4.044563
12027.175550,354.634000,3.959258
12030.276224,354.673000,-8.788932
12033.455694,354.713000,4.096427
12036.634448,354.753000,-3.881654
12039.812484,354.793000,-5.785309
12042.989804,354.833000,2.569645
12046.166408,354.873000,-4.272122
12049.262907,354.912000,0.898936
12052.438097,354.952000,-0.719150
12055.612571,354.992000,-3.268106
12058.786330,355.032000,-3.214850
12061.880056,355.071000,-0.130460
12065.052403,355.111000,-5.590543
12068.224035,355.151000,-6.971063
12071.394953,355.191000,-8.186257
12074.485910,355.230000,-1.365652
12077.655418,355.270000,-0.012383
12080.824212,355.310000,-8.777609
12083.913100,355.349000,-2.220299
12087.080485,355.389000,5.250825
12090.247158,355.429000,-4.115194
12093.333977,355.468000,-3.999759
12096.499242,355.508000,4.365818
12099.663795,355.548000,2.178716
12102.748549,355.587000,0.436996
12105.911696,355.627000,-2.161917
12108.995079,355.666000,1.962631
12112.156822,355.706000,-1.448092
12115.317853,355.746000,-4.505296
12118.399174,355.785000,0.678313
12121.558801,355.825000,0.242923
12124.638754,355.864000,0.976745
12127.796979,355.904000,-0.511623
12130.875565,355.943000,-2.120812
12134.032389,355.983000,-1.422780
12137.109608,356.022000,-0.768211
12140.265031,356.062000,-0.531547
12143.340885,356.101000,1.848231
12146.494908,356.141000,1.052231
12149.569398,356.180000,-0.733870
12152.643215,356.219000,-3.044559
12155.795149,356.259000,0.799447
12158.867603,356.298000,-0.948874
12162.018139,356.338000,-0.648059
12165.089231,356.377000,-2.036534
12168.159651,356.416000,-3.616082
12171.308101,356.456000,-2.412154
12174.377160,356.495000,-3.338675
12177.445548,356.534000,-1.907802
12180.591915,356.574000,1.765884
12183.658943,356.613000,0.197944
12186.725300,356.652000,2.354513
12189.869585,356.692000,0.696655
12192.934585,356.731000,-2.989711
12195.998914,356.770000,-1.396360
12199.062573,356.809000,-0.877068
12202.204093,356.849000,1.029730
12205.266396,356.888000,-2.378344
12208.328030,356.927000,-1.070730
12211.388995,356.966000,2.129050
12214.527751,357.006000,-1.304493
12217.587361,357.045000,1.777248
12220.646304,357.084000,-0.735104
12223.704578,357.123000,0.668445
12226.762184,357.162000,-0.007221
12229.819122,357.201000,-2.958005
12232.953750,357.241000,-0.484944
12236.009337,357.280000,-2.380859
12239.064257,357.319000,0.262566
12242.118510,357.358000,-4.174288
12245.172096,357.397000,-1.675596
12248.225016,357.436000,0.573535
