raman_shift_cm-1,wavelength_nm,intensity
-323.608033,246.616000,0.000000
-312.759145,246.682000,0.000000
-301.916061,246.748000,-588.535023
-291.078776,246.814000,-1530.086833
-280.083216,246.881000,-531.529170
-269.257603,246.947000,-1041.484809
-258.437774,247.013000,-1019.792439
-247.623726,247.079000,-708.610915
-236.815454,247.145000,-1127.149860
-226.012953,247.211000,-572.091860
-215.216219,247.277000,-683.039648
-204.425246,247.343000,-734.953615
-193.640031,247.409000,-920.286187
-182.860568,247.475000,-810.762229
-172.086854,247.541000,-1084.034432
-161.318883,247.607000,-980.028708
-150.556651,247.673000,-1099.131498
-139.800153,247.739000,-772.308208
-129.049385,247.805000,-1063.695546
-118.467103,247.870000,-657.496023
-107.727694,247.936000,-584.424707
-96.994001,248.002000,-790.983973
-86.266020,248.068000,-630.458094
-75.543746,248.134000,-1433.325468
-64.827174,248.200000,-1191.714879
-54.278543,248.265000,-515.581618
-43.573277,248.331000,-1279.572552
-32.873698,248.397000,-836.103275
-22.179805,248.463000,-645.006975
-11.653491,248.528000,-420.371033
-0.970866,248.594000,-1286.127742
9.706087,248.660000,-1005.065059
20.377375,248.726000,-1000.066671
30.881442,248.791000,-881.073576
41.541497,248.857000,-711.494056
52.195898,248.923000,-641.418934
62.683348,248.988000,-1142.764999
73.326542,249.054000,-846.115762
83.802964,249.119000,-963.420714
94.434970,249.185000,-1051.361081
104.900381,249.250000,-901.373486
115.521215,249.316000,-1006.441434
125.975632,249.381000,-1164.270296
136.585313,249.447000,-865.560563
147.028754,249.512000,-1056.122603
157.627298,249.578000,-1127.739633
168.059780,249.643000,-963.277998
178.647205,249.709000,-1371.948961
189.068746,249.774000,-910.374860
199.645070,249.840000,-511.742409
210.055686,249.905000,-160.871612
220.620926,249.971000,0.585052
231.020635,250.036000,2.488181
241.414938,250.101000,0.085192
251.963627,250.167000,1.020305
262.347049,250.232000,0.722035
272.725077,250.297000,-0.732792
283.097717,250.362000,1.801104
293.624427,250.428000,0.276676
303.986219,250.493000,1.547172
314.342635,250.558000,-0.415599
324.693679,250.623000,0.584505
335.198478,250.689000,2.215735
345.538708,250.754000,0.588652
355.873579,250.819000,-2.842899
366.203095,250.884000,1.206495
376.527259,250.949000,-0.037961
386.846077,251.014000,0.812532
397.318179,251.080000,0.263192
407.626234,251.145000,1.344646
417.928954,251.210000,-0.643513
428.226343,251.275000,2.372519
438.518407,251.340000,-0.425456
448.805149,251.405000,2.739096
459.086573,251.470000,2.091417
469.362683,251.535000,-2.698252
479.633483,251.600000,1.735238
489.898978,251.665000,2.881544
500.159172,251.730000,3.678924
510.414069,251.795000,5.220482
520.663672,251.860000,4.888198
530.907986,251.925000,5.675592
541.147015,251.990000,6.066171
551.223361,252.054000,8.644290
561.451914,252.119000,3.922762
571.675194,252.184000,6.351565
581.893205,252.249000,3.393150
592.105952,252.314000,5.224857
602.313438,252.379000,4.893325
612.358750,252.443000,7.331627
622.555807,252.508000,7.237856
632.747617,252.573000,17.434890
642.934182,252.638000,28.907367
652.958910,252.702000,35.700062
663.135079,252.767000,29.981678
673.306016,252.832000,22.319121
683.315368,252.896000,14.993842
693.475932,252.961000,25.092136
703.631276,253.026000,16.550155
713.625287,253.090000,13.540696
723.770283,253.155000,7.282786
733.910070,253.220000,5.630279
743.888776,253.284000,7.043095
754.018238,253.349000,6.272475
763.986786,253.413000,7.210636
774.105940,253.478000,7.371681
784.064345,253.542000,7.258288
794.173206,253.607000,9.148953
804.121484,253.671000,11.119101
814.220067,253.736000,7.627783
824.158233,253.800000,9.753864
834.246555,253.865000,8.860718
844.174625,253.929000,9.303919
854.252700,253.994000,8.987329
864.170690,254.058000,5.765643
874.083683,254.122000,9.697443
884.146458,254.187000,6.509541
894.049394,254.251000,10.762762
903.947346,254.315000,9.172978
913.994855,254.380000,6.540498
923.882772,254.444000,10.260819
933.765716,254.508000,8.152634
943.797994,254.573000,6.954306
953.670926,254.637000,8.180468
963.538895,254.701000,11.586335
973.401907,254.765000,11.005410
983.259965,254.829000,2.350475
993.266988,254.894000,10.823470
1003.115071,254.958000,13.714677
1012.958212,255.022000,12.253039
1022.796413,255.086000,12.069392
1032.629679,255.150000,10.204650
1042.458013,255.214000,10.405463
1052.281419,255.278000,7.563714
1062.253275,255.343000,8.277198
1072.066759,255.407000,12.540826
1081.875326,255.471000,14.726195
1091.678980,255.535000,11.202322
1101.477725,255.599000,9.764758
1111.271563,255.663000,7.483167
1121.060500,255.727000,6.454363
1130.844538,255.791000,12.690808
1140.623681,255.855000,8.237911
1150.397933,255.919000,10.253319
1160.014689,255.982000,8.303992
1169.779246,256.046000,13.949296
1179.538923,256.110000,8.657190
1189.293724,256.174000,11.494198
1199.043651,256.238000,6.121381
1208.788709,256.302000,11.619095
1218.528902,256.366000,4.330828
1228.112156,256.429000,5.173380
1237.842704,256.493000,6.950508
1247.568398,256.557000,5.217341
1257.289241,256.621000,10.521421
1267.005236,256.685000,6.310741
1276.564688,256.748000,6.917367
1286.271074,256.812000,10.058732
1295.972624,256.876000,10.774613
1305.517867,256.939000,7.405626
1315.209831,257.003000,8.803961
1324.896968,257.067000,11.322957
1334.428034,257.130000,6.064316
1344.105605,257.194000,10.359890
1353.778362,257.258000,12.070559
1363.295282,257.321000,7.844993
1372.958494,257.385000,9.006182
1382.466026,257.448000,10.715589
1392.119708,257.512000,12.318519
1401.617865,257.575000,9.386360
1411.262031,257.639000,9.240858
1420.750828,257.702000,9.764570
1430.385491,257.766000,10.177167
1439.864942,257.829000,7.701383
1449.490117,257.893000,9.273011
1458.960235,257.956000,7.629177
1468.575936,258.020000,13.246887
1478.036734,258.083000,9.458238
1487.492915,258.146000,10.363403
1497.094468,258.210000,9.613818
1506.541350,258.273000,8.971975
1516.133465,258.337000,9.764546
1525.571062,258.400000,12.625488
1535.004058,258.463000,9.266041
1544.432457,258.526000,8.022450
1554.005809,258.590000,8.229733
1563.424950,258.653000,12.183490
1572.839503,258.716000,11.241485
1582.249473,258.779000,11.446576
1591.804117,258.843000,14.715700
1601.204857,258.906000,17.036905
1610.601022,258.969000,14.781863
1619.992617,259.032000,16.771600
1629.379645,259.095000,17.442610
1638.911000,259.159000,14.843154
1648.288831,259.222000,10.837603
1657.662104,259.285000,15.087359
1667.030824,259.348000,9.702986
1676.394994,259.411000,12.086177
1685.754616,259.474000,9.323377
1695.109694,259.537000,9.381315
1704.460232,259.600000,9.085466
1713.806232,259.663000,7.260507
1723.147698,259.726000,7.614000
1732.484634,259.789000,9.590609
1741.817042,259.852000,4.343374
1751.144926,259.915000,8.052181
1760.468289,259.978000,8.894367
1769.787135,260.041000,6.316653
1779.101467,260.104000,6.818260
1788.411287,260.167000,6.908035
1797.568932,260.229000,7.759785
1806.869812,260.292000,6.360650
1816.166190,260.355000,9.003116
1825.458071,260.418000,8.277377
1834.745457,260.481000,7.260888
1844.028352,260.544000,3.580870
1853.159517,260.606000,3.413432
1862.433510,260.669000,4.113535
1871.703021,260.732000,3.490988
1880.968054,260.795000,6.521227
1890.081653,260.857000,4.399460
1899.337809,260.920000,6.930287
1908.589497,260.983000,4.665269
1917.689973,261.045000,5.392222
1926.932803,261.108000,4.043630
1936.171175,261.171000,4.999096
1945.258555,261.233000,4.773357
1954.488088,261.296000,3.309539
1963.566777,261.358000,7.561644
1972.787485,261.421000,7.041005
1982.003751,261.484000,4.258907
1991.069391,261.546000,7.092258
2000.276850,261.609000,5.689799
2009.333830,261.671000,6.858120
2018.532495,261.734000,3.317731
2027.580827,261.796000,6.813245
2036.770712,261.859000,7.140590
2045.810408,261.921000,5.310382
2054.845827,261.983000,3.997788
2064.022598,262.046000,8.554742
2073.049399,262.108000,7.712932
2082.217420,262.171000,7.293280
2091.235617,262.233000,11.089221
2100.249550,262.295000,7.844645
2109.404505,262.358000,6.737843
2118.409852,262.420000,5.910881
2127.410945,262.482000,8.611015
2136.552862,262.545000,6.711110
2145.545387,262.607000,5.149944
2154.533666,262.669000,5.392377
2163.517703,262.731000,4.187668
2172.642302,262.794000,2.843806
2181.617796,262.856000,3.378566
2190.589057,262.918000,7.631216
2199.556087,262.980000,6.045449
2208.518891,263.042000,5.563390
2217.621929,263.105000,4.649117
2226.576219,263.167000,9.830789
2235.526291,263.229000,6.165004
2244.472147,263.291000,3.732066
2253.413792,263.353000,5.065873
2262.351228,263.415000,5.482673
2271.284457,263.477000,2.101326
2280.213483,263.539000,2.899706
2289.138308,263.601000,7.950307
2298.058937,263.663000,5.843626
2306.975371,263.725000,7.341981
2315.887613,263.787000,3.722370
2324.795667,263.849000,5.765835
2333.699536,263.911000,6.800510
2342.599222,263.973000,3.237464
2351.494729,264.035000,7.769795
2360.386059,264.097000,4.281836
2369.273215,264.159000,4.321058
2378.156200,264.221000,5.494400
2386.891844,264.282000,5.941060
2395.766564,264.344000,6.896748
2404.637121,264.406000,4.362979
2413.503520,264.468000,3.943117
2422.365762,264.530000,5.956546
2431.081012,264.591000,6.806901
2439.935018,264.653000,5.568415
2448.784876,264.715000,3.835069
2457.630590,264.777000,6.198293
2466.329589,264.838000,4.129615
2475.167089,264.900000,4.287805
2484.000453,264.962000,8.368980
2492.687310,265.023000,5.037211
2501.512478,265.085000,1.689587
2510.333519,265.147000,5.576216
2519.008259,265.208000,6.588671
2527.821120,265.270000,6.894381
2536.487819,265.331000,3.718304
2545.292512,265.393000,7.112036
2554.093093,265.455000,6.504397
2562.747717,265.516000,5.925377
2571.540147,265.578000,1.781671
2580.186758,265.639000,8.364817
2588.971048,265.701000,6.910243
2597.609655,265.762000,6.859668
2606.385817,265.824000,3.576306
2615.016433,265.885000,4.962477
2623.643091,265.946000,7.958083
2632.407114,266.008000,9.329480
2641.025796,266.069000,6.431076
2649.781719,266.131000,4.705167
2658.392437,266.192000,3.510579
2666.999210,266.253000,5.915502
2675.743037,266.315000,6.945298
2684.341862,266.376000,2.474405
2692.936750,266.437000,4.799145
2701.668505,266.499000,3.075884
2710.255462,266.560000,7.366393
2718.838489,266.621000,5.636535
2727.417590,266.682000,5.083529
2736.133311,266.744000,8.708918
2744.704503,266.805000,5.071639
2753.271776,266.866000,7.125870
2761.835134,266.927000,8.023469
2770.394579,266.988000,6.977589
2778.950113,267.049000,8.688793
2787.641898,267.111000,6.320236
2796.189555,267.172000,8.231380
2804.733311,267.233000,7.182183
2813.273167,267.294000,7.206182
2821.809126,267.355000,5.999029
2830.341190,267.416000,7.262954
2838.869363,267.477000,2.042747
2847.393647,267.538000,0.490078
2855.914045,267.599000,5.856511
2864.430559,267.660000,3.915939
2872.943193,267.721000,3.899035
2881.451948,267.782000,6.186602
2889.956827,267.843000,3.341739
2898.457833,267.904000,9.966881
2906.954969,267.965000,5.134752
2915.448237,268.026000,5.342289
2923.937640,268.087000,7.216132
2932.284105,268.147000,4.100157
2940.765849,268.208000,5.113470
2949.243736,268.269000,7.956296
2957.717768,268.330000,4.381659
2966.187948,268.391000,5.940759
2974.515518,268.451000,4.123525
2982.978065,268.512000,4.847627
2991.436768,268.573000,3.918654
2999.891630,268.634000,5.740451
3008.204142,268.694000,6.443285
3016.651392,268.755000,4.184789
3025.094807,268.816000,7.354428
3033.396069,268.876000,6.887292
3041.831888,268.937000,7.172587
3050.263881,268.998000,10.292370
3058.553914,269.058000,5.048706
3066.978326,269.119000,4.163559
3075.398919,269.180000,5.196083
3083.677747,269.240000,8.291161
3092.090774,269.301000,7.458456
3100.362165,269.361000,3.187436
3108.767637,269.422000,5.167590
3117.031601,269.482000,6.456715
3125.429526,269.543000,4.500644
3133.686074,269.603000,6.746131
3142.076464,269.664000,5.713328
3150.325604,269.724000,5.786473
3158.708468,269.785000,6.313569
3166.950211,269.845000,6.855233
3175.325561,269.906000,3.420976
3183.559917,269.966000,6.773222
3191.790613,270.026000,1.513423
3200.154739,270.087000,8.529343
3208.378064,270.147000,8.068518
3216.597736,270.207000,2.858981
3224.950662,270.268000,5.738740
3233.162976,270.328000,1.828063
3241.371647,270.388000,7.367728
3249.576675,270.448000,8.684300
3257.914722,270.509000,8.102519
3266.112412,270.569000,8.891620
3274.306467,270.629000,2.633218
3282.496889,270.689000,7.095762
3290.820098,270.750000,5.864743
3299.003202,270.810000,7.789722
3307.182681,270.870000,7.808950
3315.358537,270.930000,4.991165
3323.530773,270.990000,4.475358
3331.699391,271.050000,0.930747
3339.864393,271.110000,6.578983
3348.025782,271.170000,6.617767
3356.319492,271.231000,4.594914
3364.473602,271.291000,5.182766
3372.624105,271.351000,2.748688
3380.771005,271.411000,4.325024
3388.914304,271.471000,8.166172
3397.054004,271.531000,2.822890
3405.190107,271.591000,8.656242
3413.322616,271.651000,4.622008
3421.316081,271.710000,9.044968
3429.441469,271.770000,5.686988
3437.563270,271.830000,10.161579
3445.681487,271.890000,4.595758
3453.796121,271.950000,6.352416
3461.907176,272.010000,3.023151
3470.014653,272.070000,5.675863
3478.118555,272.130000,5.904819
3486.083907,272.189000,1.869984
3494.180726,272.249000,4.182062
3502.273976,272.309000,6.193898
3510.363660,272.369000,5.650566
3518.315042,272.428000,4.633198
3526.397661,272.488000,6.342300
3534.476722,272.548000,6.357858
3542.552226,272.608000,3.310460
3550.489673,272.667000,4.176687
3558.558131,272.727000,5.050629
3566.623039,272.787000,2.977263
3574.550074,272.846000,8.781201
3582.607950,272.906000,5.422466
3590.528073,272.965000,5.958093
3598.578926,273.025000,2.684295
3606.626241,273.085000,1.616392
3614.535986,273.144000,7.517604
3622.576291,273.204000,5.293591
3630.479148,273.263000,4.287703
3638.512453,273.323000,5.454356
3646.408431,273.382000,7.266194
3654.434744,273.442000,2.633551
3662.323852,273.501000,6.071363
3670.343183,273.561000,4.496481
3678.225429,273.620000,7.359597
3686.237787,273.680000,6.312085
3694.113181,273.739000,7.637033
3701.985180,273.798000,3.729029
3709.987125,273.858000,7.650025
3717.852286,273.917000,7.126040
3725.714059,273.976000,0.828418
3733.705610,274.036000,6.875988
3741.560558,274.095000,5.528889
3749.412124,274.154000,4.907485
3757.393303,274.214000,6.394100
3765.238057,274.273000,4.212967
3773.079437,274.332000,5.595969
3780.917444,274.391000,6.575693
3788.884843,274.451000,7.092672
3796.716056,274.510000,7.547038
3804.543903,274.569000,4.374066
3812.368387,274.628000,6.125184
3820.189510,274.687000,2.499999
3828.007273,274.746000,7.526249
3835.821680,274.805000,2.252684
3843.765093,274.865000,7.938102
3851.572736,274.924000,6.865036
3859.377028,274.983000,2.673002
3867.177971,275.042000,2.611052
3874.975569,275.101000,4.176198
3882.769823,275.160000,4.520823
3890.560735,275.219000,6.064235
3898.348307,275.278000,5.254682
3906.132542,275.337000,6.086034
3913.913442,275.396000,4.830785
3921.691008,275.455000,2.490323
3929.465243,275.514000,4.697782
3937.236150,275.573000,5.151221
3944.872103,275.631000,3.103720
3952.636414,275.690000,6.140722
3960.397403,275.749000,10.799073
3968.155071,275.808000,5.912836
3975.909421,275.867000,3.605349
3983.660455,275.926000,6.895906
3991.408175,275.985000,5.165342
3999.021349,276.043000,3.811566
4006.762504,276.102000,5.052599
4014.500350,276.161000,3.615931
4022.234891,276.220000,7.652609
4029.835118,276.278000,4.554404
4037.563110,276.337000,2.599800
4045.287803,276.396000,5.925137
4052.878355,276.454000,1.561402
4060.596512,276.513000,6.063943
4068.311375,276.572000,3.412355
4075.892271,276.630000,5.196985
4083.600610,276.689000,6.592682
4091.305663,276.748000,5.721395
4098.876921,276.806000,6.664752
4106.575462,276.865000,3.698215
4114.140322,276.923000,3.636933
4121.832361,276.982000,6.922609
4129.390832,277.040000,4.033120
4137.076375,277.099000,5.417404
4144.628466,277.157000,3.385353
4152.307522,277.216000,6.102532
4159.853240,277.274000,1.205683
4167.525818,277.333000,4.534555
4175.065171,277.391000,7.597207
4182.731279,277.450000,4.965353
4190.264275,277.508000,4.680302
4197.794123,277.566000,6.194788
4205.450568,277.625000,5.615559
4212.974072,277.683000,6.145359
4220.494433,277.741000,0.132008
4228.011654,277.799000,6.109309
4235.396210,277.856000,4.686389
4242.907211,277.914000,3.761375
4250.415077,277.972000,3.795101
4257.790445,278.029000,4.739613
4265.292102,278.087000,2.016722
4272.790631,278.145000,4.292422
4280.156828,278.202000,5.013658
4287.649159,278.260000,5.256865
4295.138368,278.318000,9.026079
4302.495411,278.375000,4.050007
4309.978434,278.433000,3.631543
4317.329402,278.490000,4.214262
4324.806246,278.548000,7.554235
4332.151147,278.605000,6.916562
4339.621821,278.663000,9.083689
4346.960661,278.720000,1.968271
4354.425172,278.778000,4.985531
4361.757959,278.835000,6.827949
4369.216314,278.893000,5.697296
4376.543056,278.950000,6.920477
4383.995264,279.008000,4.329791
4391.315968,279.065000,5.885806
4398.762036,279.123000,4.290415
4406.076709,279.180000,6.183330
4413.516644,279.238000,3.363522
4420.825295,279.295000,3.197528
4428.130962,279.352000,5.611977
4435.561740,279.410000,3.503136
4442.861395,279.467000,5.335252
4450.158074,279.524000,5.654535
4457.579711,279.582000,5.314569
4464.870389,279.639000,4.747424
4472.158095,279.696000,7.624334
4479.570607,279.754000,2.530302
4486.852324,279.811000,7.287063
4494.131074,279.868000,5.474586
4501.534479,279.926000,0.020674
4508.807251,279.983000,5.358694
4516.077062,280.040000,2.000244
4523.343914,280.097000,6.124763
4530.735220,280.155000,5.664459
4537.996108,280.212000,2.862366
4545.254043,280.269000,5.708546
4552.509026,280.326000,3.018313
4559.888262,280.384000,5.520839
4567.137295,280.441000,8.553552
4574.383383,280.498000,1.987804
4581.626526,280.555000,5.479453
4588.866727,280.612000,7.797453
4596.103987,280.669000,5.475561
4603.338308,280.726000,1.836943
4610.696532,280.784000,2.182721
4617.924929,280.841000,2.531495
4625.150392,280.898000,5.371181
4632.372923,280.955000,3.816511
4639.592525,281.012000,5.694608
4646.809198,281.069000,0.732378
4654.022945,281.126000,4.908019
4661.233767,281.183000,6.782641
4668.441666,281.240000,6.597513
4675.646644,281.297000,4.497141
4682.848703,281.354000,5.289367
4690.047844,281.411000,6.895166
4697.244070,281.468000,6.877812
4704.437381,281.525000,7.303395
4711.627780,281.582000,-0.193912
4718.815269,281.639000,6.462183
4725.999849,281.696000,5.565178
4733.181522,281.753000,3.965476
4740.360290,281.810000,6.272215
4747.536154,281.867000,5.474635
4754.583300,281.923000,5.652977
4761.753414,281.980000,5.133494
4768.920629,282.037000,9.008759
4776.084949,282.094000,6.502439
4783.246373,282.151000,6.687235
4790.404904,282.208000,4.161229
4797.435032,282.264000,7.504785
4804.587834,282.321000,8.729828
4811.737748,282.378000,5.605882
4818.884776,282.435000,6.315719
4826.028920,282.492000,2.817845
4833.044920,282.548000,4.798636
4840.183352,282.605000,7.418541
4847.318904,282.662000,8.087761
4854.451579,282.719000,8.320230
4861.456319,282.775000,5.870211
4868.583295,282.832000,9.092512
4875.707399,282.889000,8.913811
4882.703723,282.945000,8.632487
4889.822139,283.002000,7.842258
4896.937687,283.059000,7.311171
4903.925611,283.115000,5.116627
4911.035481,283.172000,5.580732
4918.142490,283.229000,6.341642
4925.122029,283.285000,8.258906
4932.223369,283.342000,6.352456
4939.197342,283.398000,8.379147
4946.293021,283.455000,9.308028
4953.385847,283.512000,9.834924
4960.351460,283.568000,5.781326
4967.438635,283.625000,5.463677
4974.398699,283.681000,8.217180
4981.480229,283.738000,8.532233
4988.434752,283.794000,5.493867
4995.510644,283.851000,2.394170
5002.459631,283.907000,2.587126
5009.529893,283.964000,4.401177
5016.473351,284.020000,3.930033
5023.537988,284.077000,3.618003
5030.475924,284.133000,4.395710
5037.534943,284.190000,4.856448
5044.467363,284.246000,5.536159
5051.397052,284.302000,4.224821
5058.447683,284.359000,2.544475
5065.371866,284.415000,7.746713
5072.416896,284.472000,4.593057
5079.335580,284.528000,3.539182
5086.251541,284.584000,6.230448
5093.288207,284.641000,2.124489
5100.198678,284.697000,7.869346
5107.106432,284.753000,8.154176
5114.134748,284.810000,6.130602
5121.037022,284.866000,2.216817
5127.936582,284.922000,5.267931
5134.833431,284.978000,3.495292
5141.850655,285.035000,4.225572
5148.742037,285.091000,5.561506
5155.630712,285.147000,3.861428
5162.516682,285.203000,3.175208
5169.522840,285.260000,4.277789
5176.403356,285.316000,0.227795
5183.281172,285.372000,0.150845
5190.156289,285.428000,-0.101876
5197.028709,285.484000,5.542347
5204.021082,285.541000,0.809604
5210.888064,285.597000,5.002279
5217.752353,285.653000,6.056623
5224.613952,285.709000,0.718603
5231.472862,285.765000,0.520866
5238.329083,285.821000,5.314728
5245.182619,285.877000,1.709304
5252.033470,285.933000,2.420492
5258.881638,285.989000,-0.150033
5265.727125,286.045000,-0.819887
5272.569932,286.101000,2.576215
5279.532182,286.158000,0.607953
5286.369586,286.214000,-2.039285
5293.204315,286.270000,4.504219
5300.036371,286.326000,2.531742
5306.865755,286.382000,-0.571488
5313.692468,286.438000,2.321165
5320.516513,286.494000,-1.251327
5327.216104,286.549000,0.613393
5334.034863,286.605000,4.416215
5340.850958,286.661000,-1.375783
5347.664391,286.717000,0.301028
5354.475163,286.773000,3.199470
5361.283275,286.829000,0.995259
5368.088729,286.885000,1.901691
5374.891528,286.941000,1.815231
5381.691671,286.997000,2.308377
5388.489161,287.053000,-1.664958
5395.162686,287.108000,0.414319
5401.954922,287.164000,2.155387
5408.744509,287.220000,2.258716
5415.531448,287.276000,-0.090326
5422.315743,287.332000,0.835120
5428.976316,287.387000,1.593364
5435.755371,287.443000,3.402999
5442.531785,287.499000,3.256844
5449.305560,287.555000,1.384831
5456.076697,287.611000,-0.403719
5462.724355,287.666000,3.048934
5469.490268,287.722000,-0.518023
5476.253548,287.778000,0.107946
5482.893494,287.833000,1.445085
5489.651559,287.889000,-2.328672
5496.406995,287.945000,3.895221
5503.039242,288.000000,0.112140
5509.789473,288.056000,-0.645395
5516.537079,288.112000,4.851694
5523.161640,288.167000,2.378915
5529.904050,288.223000,1.376919
5536.643840,288.279000,1.927325
5543.260729,288.334000,-4.395218
5549.995332,288.390000,3.364341
5556.607128,288.445000,1.826011
5563.336549,288.501000,3.593462
5569.943259,288.556000,0.611343
5576.667504,288.612000,2.332821
5583.269134,288.667000,-3.047505
5589.988209,288.723000,3.692336
5596.584764,288.778000,0.178883
5603.298676,288.834000,2.469164
5609.890162,288.889000,3.190614
5616.598916,288.945000,0.356599
5623.185340,289.000000,2.824057
5629.888941,289.056000,2.825924
5636.470308,289.111000,0.289171
5643.168763,289.167000,-1.348791
5649.745079,289.222000,2.380609
5656.438394,289.278000,-2.697246
5663.009664,289.333000,0.376919
5669.578437,289.388000,0.010160
5676.264076,289.444000,-0.849136
5682.827812,289.499000,-2.448616
5689.389054,289.554000,1.703784
5696.067030,289.610000,5.746981
5702.623244,289.665000,3.353273
5709.176969,289.720000,3.963270
5715.847296,289.776000,-0.587123
5722.396001,289.831000,-0.625765
5728.942221,289.886000,-1.872194
5735.485958,289.941000,2.252695
5742.146122,289.997000,1.280090
5748.684850,290.052000,1.203012
5755.221100,290.107000,-0.206877
5761.754871,290.162000,-1.118301
5768.404894,290.218000,-1.487466
5774.933669,290.273000,0.517831
5781.459971,290.328000,1.454495
5787.983800,290.383000,-0.172319
5794.505158,290.438000,1.256813
5801.142550,290.494000,2.672541
5807.658926,290.549000,1.196206
5814.172835,290.604000,4.724304
5820.684279,290.659000,-3.606570
5827.193260,290.714000,1.970900
5833.699778,290.769000,2.167373
5840.203835,290.824000,2.528147
5846.705432,290.879000,2.140056
5853.204572,290.934000,0.403998
5859.701254,290.989000,0.911998
5866.195481,291.044000,1.396270
5872.687254,291.099000,5.151405
5879.176574,291.154000,0.787907
5885.663444,291.209000,1.724046
5892.147863,291.264000,1.678556
5898.629834,291.319000,-0.421681
5905.109357,291.374000,2.184167
5911.586435,291.429000,2.297471
5918.061069,291.484000,-1.324872
5924.533260,291.539000,0.014228
5931.003009,291.594000,-1.211657
5937.470318,291.649000,-1.778377
5943.935188,291.704000,4.466279
5950.397621,291.759000,0.382167
5956.857618,291.814000,1.643177
5963.315180,291.869000,1.150600
5969.770309,291.924000,3.136847
5976.105706,291.978000,0.188721
5982.556017,292.033000,-3.201861
5989.003898,292.088000,1.661041
5995.449352,292.143000,-0.840208
6001.892379,292.198000,0.514062
6008.215901,292.252000,4.113064
6014.654123,292.307000,4.092579
6021.089923,292.362000,-1.196013
6027.523303,292.417000,-1.426694
6033.954262,292.472000,-0.949688
6040.265942,292.526000,0.847124
6046.692111,292.581000,0.263542
6053.115864,292.636000,3.081032
6059.420472,292.690000,0.577045
6065.839442,292.745000,1.194402
6072.256000,292.800000,2.272339
6078.553548,292.854000,-0.917742
6084.965331,292.909000,2.062576
6091.374707,292.964000,-3.851580
6097.665207,293.018000,1.393564
6104.069816,293.073000,-1.352282
6110.472021,293.128000,1.266735
6116.755485,293.182000,2.758253
6123.152931,293.237000,5.258755
6129.431725,293.291000,-1.735435
6135.824417,293.346000,0.019381
6142.098547,293.400000,1.667095
6148.486490,293.455000,1.017742
6154.872040,293.510000,-0.094167
6161.139160,293.564000,0.417340
6167.519969,293.619000,0.297731
6173.782438,293.673000,2.391164
6180.158512,293.728000,1.975630
6186.416334,293.782000,2.971130
6192.787678,293.837000,-0.280993
6199.040859,293.891000,3.083059
6205.291742,293.945000,-0.775982
6211.656022,294.000000,4.934891
6217.902272,294.054000,3.969645
6224.261835,294.109000,0.892628
6230.503456,294.163000,-0.497878
6236.742786,294.217000,4.588809
6243.095305,294.272000,0.485111
6249.330014,294.326000,1.786323
6255.677829,294.381000,-0.034696
6261.907923,294.435000,3.451401
6268.135731,294.489000,2.082999
6274.476522,294.544000,1.457738
6280.699722,294.598000,2.511355
6286.920642,294.652000,2.135433
6293.139281,294.706000,2.711399
6299.470739,294.761000,-0.146869
6305.684781,294.815000,2.430424
6311.896546,294.869000,-0.284904
6318.106037,294.923000,1.511687
6324.428182,294.978000,4.480622
6330.633085,295.032000,-1.035867
6336.835717,295.086000,2.186475
6343.036080,295.140000,1.376438
6349.234174,295.194000,1.724644
6355.544717,295.249000,1.526506
6361.738236,295.303000,1.119132
6367.929490,295.357000,1.263962
6374.118480,295.411000,2.074172
6380.305209,295.465000,1.104079
6386.489676,295.519000,-0.056720
6392.671884,295.573000,0.068160
6398.851833,295.627000,-1.517044
6405.143905,295.682000,0.725262
6411.319300,295.736000,0.103113
6417.492439,295.790000,0.938000
6423.663325,295.844000,2.959002
6429.831958,295.898000,0.002805
6435.998340,295.952000,-3.193656
6442.162473,296.006000,2.775870
6448.324357,296.060000,2.470766
6454.483993,296.114000,2.788313
6460.641384,296.168000,4.923301
6466.796529,296.222000,0.777959
6472.949431,296.276000,-1.785253
6479.100090,296.330000,0.677281
6485.248508,296.384000,4.825997
6491.280888,296.437000,0.560554
6497.424869,296.491000,2.938810
6503.566612,296.545000,0.424937
6509.706118,296.599000,2.717272
6515.843390,296.653000,5.079006
6521.978427,296.707000,-0.037724
6528.111232,296.761000,3.471878
6534.241805,296.815000,1.108518
6540.256681,296.868000,0.266336
6546.382836,296.922000,1.547242
6552.506763,296.976000,1.374529
6558.628464,297.030000,2.601130
6564.747939,297.084000,1.769599
6570.751928,297.137000,-1.792563
6576.866997,297.191000,-0.828061
6582.979845,297.245000,3.275291
6589.090471,297.299000,3.077269
6595.085780,297.352000,-0.081330
6601.192010,297.406000,3.479183
6607.296023,297.460000,-2.377205
6613.397821,297.514000,6.492622
6619.384468,297.567000,-1.003862
6625.481879,297.621000,3.376442
6631.577077,297.675000,2.279968
6637.557251,297.728000,-3.479183
6643.648069,297.782000,2.241156
6649.623947,297.835000,1.821063
6655.710390,297.889000,0.700829
6661.794627,297.943000,3.699987
6667.764048,297.996000,0.535532
6673.843917,298.050000,0.374007
6679.809053,298.103000,-0.513109
6685.884559,298.157000,2.033200
6691.957864,298.211000,0.270846
6697.916562,298.264000,-0.881487
6703.985510,298.318000,-0.638164
6709.939935,298.371000,-1.004657
6716.004532,298.425000,-0.090946
6721.954688,298.478000,-0.655188
6728.014938,298.532000,2.201640
6733.960830,298.585000,0.534286
6739.904611,298.638000,4.664398
6745.958369,298.692000,-1.025792
6751.897893,298.745000,-3.148789
6757.947317,298.799000,-0.569671
6763.882588,298.852000,-3.399781
6769.927680,298.906000,0.699869
6775.858703,298.959000,0.926112
6781.787624,299.012000,2.938029
6787.826249,299.066000,0.496030
6793.750928,299.119000,-0.367791
6799.673508,299.172000,2.352831
6805.705677,299.226000,3.512735
6811.624022,299.279000,0.539065
6817.540272,299.332000,1.118989
6823.565994,299.386000,0.584365
6829.478016,299.439000,-0.247575
6835.387945,299.492000,0.109223
6841.407231,299.546000,1.309709
6847.312940,299.599000,-0.457241
6853.216559,299.652000,2.118551
6859.118090,299.705000,4.679070
6865.017534,299.758000,0.175870
6871.026143,299.812000,-0.058736
6876.921378,299.865000,2.622929
6882.814529,299.918000,-0.739137
6888.705597,299.971000,3.260711
6894.594584,300.024000,0.834168
6900.592545,300.078000,3.354463
6906.477333,300.131000,2.048817
6912.360044,300.184000,-2.404390
6918.240677,300.237000,2.662025
6924.119235,300.290000,-0.610115
6929.995718,300.343000,-0.771194
6935.870127,300.396000,-1.428093
6941.742464,300.449000,2.141313
6947.612730,300.502000,2.105207
6953.480925,300.555000,1.615343
6959.347051,300.608000,1.125637
6965.211108,300.661000,1.269441
6971.073099,300.714000,0.724481
6976.933024,300.767000,-0.578567
6982.790884,300.820000,-3.946812
6988.646680,300.873000,-0.362729
6994.500413,300.926000,0.475684
7000.352085,300.979000,2.790717
7006.201696,301.032000,0.046198
7012.049248,301.085000,0.382870
7017.894742,301.138000,-0.172773
7023.738178,301.191000,-2.188770
7029.579559,301.244000,-1.596095
7035.418884,301.297000,-1.235049
7041.256155,301.350000,2.471114
7047.091373,301.403000,0.731354
7052.924539,301.456000,1.710540
7058.645653,301.508000,2.910531
7064.474758,301.561000,2.029849
7070.301814,301.614000,3.019073
7076.126822,301.667000,2.293475
7081.949784,301.720000,-2.021558
7087.660892,301.772000,2.523448
7093.479803,301.825000,0.557541
7099.296670,301.878000,-0.989436
7105.111496,301.931000,-0.006002
7110.814624,301.983000,0.608799
7116.625408,302.036000,3.166789
7122.434152,302.089000,-0.751846
7128.240858,302.142000,0.456323
7133.936024,302.194000,-2.135748
7139.738696,302.247000,3.380689
7145.539334,302.300000,2.284827
7151.228549,302.352000,0.417127
7157.025159,302.405000,1.441700
7162.819737,302.458000,3.832650
7168.503010,302.510000,-0.516302
7174.293567,302.563000,-0.836921
7180.082095,302.616000,5.165262
7185.759436,302.668000,4.207883
7191.543949,302.721000,3.042042
7197.217352,302.773000,-3.455303
7202.997854,302.826000,-1.897888
7208.667324,302.878000,4.020876
7214.443819,302.931000,3.012337
7220.109360,302.983000,1.330905
7225.881853,303.036000,3.296367
7231.543468,303.088000,2.468258
7237.311962,303.141000,0.173796
7242.969657,303.193000,3.229997
7248.734156,303.246000,4.737401
7254.387934,303.298000,3.347414
7260.148443,303.351000,3.178671
7265.798308,303.403000,1.719540
7271.554831,303.456000,-1.837274
7277.200787,303.508000,-0.641809
7282.953328,303.561000,3.614822
7288.595379,303.613000,-0.211397
7294.235498,303.665000,1.193802
7299.982093,303.718000,0.735248
7305.618313,303.770000,1.937239
7311.252604,303.822000,-2.609182
7316.993262,303.875000,6.099298
7322.623660,303.927000,0.567331
7328.252131,303.979000,2.333924
7333.986862,304.032000,3.927675
7339.611446,304.084000,2.598947
7345.234108,304.136000,1.483076
7350.962920,304.189000,0.972108
7356.581700,304.241000,1.942262
7362.198561,304.293000,0.792629
7367.813502,304.345000,0.702512
7373.426525,304.397000,5.362252
7379.145517,304.450000,3.119585
7384.754669,304.502000,1.064363
7390.361906,304.554000,1.695388
7395.967228,304.606000,1.802194
7401.570637,304.658000,0.572284
7407.279836,304.711000,2.001080
7412.879384,304.763000,-1.822704
7418.477021,304.815000,2.295783
7424.072749,304.867000,-0.773241
7429.666569,304.919000,-4.814107
7435.258480,304.971000,-0.162789
7440.848486,305.023000,0.147642
7446.436585,305.075000,0.435498
7452.022780,305.127000,4.176118
7457.607071,305.179000,1.630475
7463.296795,305.232000,0.160296
7468.877245,305.284000,1.625033
7474.455794,305.336000,1.212546
7480.032444,305.388000,-0.060617
7485.607195,305.440000,0.206867
7491.180048,305.492000,0.659174
7496.751004,305.544000,0.877730
7502.212985,305.595000,1.324997
7507.780187,305.647000,3.688211
7513.345495,305.699000,-1.561495
7518.908909,305.751000,-0.205809
7524.470432,305.803000,-0.538829
7530.030064,305.855000,1.736612
7535.587805,305.907000,0.782018
7541.143658,305.959000,-0.135679
7546.697622,306.011000,2.108297
7552.249699,306.063000,-0.404397
7557.693173,306.114000,-0.273649
7563.241514,306.166000,-3.873719
7568.787971,306.218000,0.610057
7574.332545,306.270000,1.467215
7579.875237,306.322000,-0.338643
7585.416047,306.374000,2.809613
7590.848476,306.425000,2.088275
7596.385562,306.477000,1.747951
7601.920769,306.529000,0.499392
7607.454098,306.581000,-0.980772
7612.879195,306.632000,1.292552
7618.408808,306.684000,0.177285
7623.936546,306.736000,3.600984
7629.462411,306.788000,-1.200373
7634.880189,306.839000,3.423201
7640.402345,306.891000,-1.311188
7645.922629,306.943000,-2.474635
7651.334938,306.994000,3.536985
7656.851519,307.046000,1.442647
7662.260197,307.097000,0.478526
7667.773079,307.149000,1.800233
7673.284094,307.201000,-0.664552
7678.687317,307.252000,1.067343
7684.194638,307.304000,-1.030774
7689.700096,307.356000,0.055384
7695.097870,307.407000,2.419221
7700.599639,307.459000,-0.583812
7705.993798,307.510000,0.793835
7711.491883,307.562000,-0.103280
7716.882430,307.613000,1.460306
7722.376833,307.665000,1.074822
7727.763772,307.716000,-0.721012
7733.254498,307.768000,0.076037
7738.637831,307.819000,-2.545836
7744.124884,307.871000,0.496600
7749.504617,307.922000,0.088598
7754.988000,307.974000,-2.089806
7760.364134,308.025000,0.556384
7765.738489,308.076000,-1.452781
7771.216392,308.128000,0.229826
7776.587155,308.179000,-0.262945
7782.061397,308.231000,0.515694
7787.428571,308.282000,1.287953
7792.793970,308.333000,-3.851965
7798.262745,308.385000,0.641478
7803.624561,308.436000,-1.949110
7808.984603,308.487000,-0.449390
7814.447920,308.539000,5.977509
7819.804385,308.590000,-0.472028
7825.159080,308.641000,-0.808973
7830.616947,308.693000,2.080453
7835.968069,308.744000,0.900784
7841.317424,308.795000,0.657899
7846.665012,308.846000,-1.411535
7852.115636,308.898000,0.563751
7857.459659,308.949000,-0.312921
7862.801917,309.000000,0.481612
7868.142413,309.051000,-1.790638
7873.481146,309.102000,-0.966923
7878.922746,309.154000,-0.710309
7884.257923,309.205000,0.179070
7889.591340,309.256000,-0.018654
7894.922998,309.307000,1.792942
7900.252898,309.358000,0.605441
7905.581041,309.409000,-0.671133
7910.907428,309.460000,2.294156
7916.336447,309.512000,0.461581
7921.659290,309.563000,0.873427
7926.980379,309.614000,-0.656833
7932.299715,309.665000,2.272245
7937.617300,309.716000,0.542140
7942.933134,309.767000,1.370167
7948.247217,309.818000,0.428562
7953.559551,309.869000,-0.792218
7958.870137,309.920000,-1.428751
7964.178976,309.971000,2.035293
7969.486068,310.022000,0.089640
7974.791414,310.073000,0.712666
7980.095015,310.124000,-0.723144
7985.396872,310.175000,0.880988
7990.696985,310.226000,-0.132748
7995.995357,310.277000,1.203508
8001.291987,310.328000,4.254981
8006.586876,310.379000,0.502900
8011.880026,310.430000,-2.869151
8017.067700,310.480000,-0.718410
8022.357406,310.531000,1.684720
8027.645376,310.582000,3.362816
8032.931609,310.633000,0.862190
8038.216106,310.684000,1.545451
8043.498869,310.735000,0.461135
8048.779898,310.786000,2.306466
8053.955695,310.836000,1.381211
8059.233293,310.887000,-1.464021
8064.509160,310.938000,0.227847
8069.783296,310.989000,0.175322
8074.952339,311.039000,0.037910
8080.223051,311.090000,-2.333200
8085.492035,311.141000,3.091102
8090.759292,311.192000,0.140265
8095.921594,311.242000,-0.257521
8101.185433,311.293000,4.316657
8106.447548,311.344000,0.176574
8111.604811,311.394000,-2.357127
8116.863513,311.445000,1.718002
8122.120493,311.496000,0.976033
8127.272724,311.546000,-2.499548
8132.526297,311.597000,0.385288
8137.778150,311.648000,0.776053
8142.925357,311.698000,3.183071
8148.173807,311.749000,-0.717186
8153.420541,311.800000,0.404750
8158.562731,311.850000,3.767488
8163.806066,311.901000,0.332120
8168.944927,311.951000,2.890620
8174.184869,312.002000,0.592117
8179.320403,312.052000,-3.252843
8184.556953,312.103000,1.692257
8189.689165,312.153000,1.477317
8194.922327,312.204000,2.052564
8200.051219,312.254000,-0.855367
8205.280996,312.305000,-1.722167
8210.406572,312.355000,0.542649
8215.632968,312.406000,0.884485
8220.755230,312.456000,0.756244
8225.978248,312.507000,2.261316
8231.097200,312.557000,-0.248846
8236.316843,312.608000,-0.246707
8241.432488,312.658000,-0.535592
8246.546497,312.708000,-1.442541
8251.761101,312.759000,-1.921716
8256.871808,312.809000,-0.672750
8261.980881,312.859000,-2.456041
8267.190453,312.910000,-3.507236
8272.296229,312.960000,2.687389
8277.400373,313.010000,2.329316
8282.604921,313.061000,2.648165
8287.705773,313.111000,-0.642676
8292.804996,313.161000,1.818164
8298.004526,313.212000,-1.939988
8303.100462,313.262000,-0.445029
8308.194770,313.312000,1.910413
8313.287453,313.362000,-0.677157
8318.480316,313.413000,1.358387
8323.569717,313.463000,-1.686546
8328.657496,313.513000,-1.296515
8333.743651,313.563000,0.486050
8338.828185,313.613000,1.488190
8344.012739,313.664000,0.889961
8349.094000,313.714000,-2.876665
8354.173640,313.764000,0.759790
8359.251662,313.814000,-0.134506
8364.328066,313.864000,1.220645
8369.402853,313.914000,-0.427858
8374.476024,313.964000,-0.816347
8379.547579,314.014000,1.577976
8384.718901,314.065000,0.926259
8389.787195,314.115000,-3.667152
8394.853876,314.165000,-0.066994
8399.918944,314.215000,-2.254831
8404.982400,314.265000,-2.465603
8410.044246,314.315000,0.212329
8415.104481,314.365000,-3.889561
8420.163107,314.415000,-3.949706
8425.220124,314.465000,-0.484002
8430.275533,314.515000,-3.247193
8435.329336,314.565000,0.001517
8440.381532,314.615000,0.125021
8445.432122,314.665000,0.115054
8450.481107,314.715000,1.465418
8455.528489,314.765000,1.609279
8460.473367,314.814000,-0.252479
8465.517575,314.864000,0.089231
8470.560181,314.914000,0.011572
8475.601186,314.964000,0.825919
8480.640590,315.014000,-2.889724
8485.678395,315.064000,0.081328
8490.714602,315.114000,-0.740405
8495.749210,315.164000,-0.813332
8500.681577,315.213000,0.990420
8505.713024,315.263000,2.763032
8510.742875,315.313000,0.938321
8515.771131,315.363000,0.904465
8520.797793,315.413000,0.682668
8525.722375,315.462000,0.904279
8530.745883,315.512000,0.307513
8535.767799,315.562000,-2.600410
8540.788124,315.612000,0.077409
8545.706499,315.661000,1.009534
8550.723675,315.711000,-0.590796
8555.739262,315.761000,0.728546
8560.652997,315.810000,-1.000963
8565.665441,315.860000,3.973491
8570.676298,315.910000,1.026353
8575.585399,315.959000,0.487600
8580.593116,316.009000,0.012786
8585.599249,316.059000,0.442115
8590.503723,316.108000,-1.413285
8595.506721,316.158000,-2.635665
8600.508137,316.208000,-3.061621
8605.407991,316.257000,0.152643
8610.406276,316.307000,0.049138
8615.303063,316.356000,-1.017928
8620.298221,316.406000,0.499602
8625.191944,316.455000,-0.371639
8630.183977,316.505000,-0.386438
8635.074640,316.554000,0.141063
8640.063551,316.604000,0.481039
8644.951156,316.653000,0.050183
8649.936949,316.703000,0.537397
8654.821499,316.752000,2.225175
8659.804175,316.802000,-0.604714
8664.685673,316.851000,-3.076294
8669.665237,316.901000,-0.328609
8674.543685,316.950000,-2.835105
8679.520139,317.000000,0.245887
8684.395541,317.049000,1.316631
8689.269436,317.098000,2.591235
8694.241247,317.148000,-0.071475
8699.112100,317.197000,-3.235704
8703.981448,317.246000,-1.204901
8708.948621,317.296000,0.146526
8713.814931,317.345000,1.124625
8718.779005,317.395000,2.555781
8723.642281,317.444000,1.133433
8728.504055,317.493000,-4.562932
8733.364329,317.542000,-1.238052
8738.322247,317.592000,-1.008421
8743.179491,317.641000,0.565336
8748.035237,317.690000,1.324968
8752.889486,317.739000,-3.343201
8757.841258,317.789000,0.224996
8762.692483,317.838000,-1.731935
8767.542212,317.887000,-1.770350
8772.390446,317.936000,1.502340
8777.336084,317.986000,0.404930
8782.181300,318.035000,3.694978
8787.025024,318.084000,-1.568994
8791.867255,318.133000,0.868625
8796.707995,318.182000,-2.624468
8801.547244,318.231000,1.296917
8806.385003,318.280000,-0.049917
8811.319957,318.330000,-1.175562
8816.154708,318.379000,-0.435064
8820.987971,318.428000,-0.137525
8825.819746,318.477000,0.408046
8830.650035,318.526000,-1.890556
8835.478838,318.575000,-3.733103
8840.306156,318.624000,-0.633672
8845.131990,318.673000,-3.944286
8849.956339,318.722000,-0.706764
8854.779206,318.771000,-0.402876
8859.600590,318.820000,0.251594
8864.420492,318.869000,-2.666213
8869.238913,318.918000,-2.811461
8874.055854,318.967000,3.423884
8878.871314,319.016000,0.150008
8883.685296,319.065000,-2.303674
8888.497800,319.114000,-2.320254
8893.308826,319.163000,-2.791306
8898.118374,319.212000,0.129466
8902.926447,319.261000,-1.901632
8907.634964,319.309000,-2.072014
8912.440116,319.358000,-0.914037
8917.243794,319.407000,-1.752992
8922.045998,319.456000,-0.560953
8926.846729,319.505000,1.786441
8931.645988,319.554000,2.250167
8936.443775,319.603000,0.208891
8941.142222,319.651000,-0.745604
8945.937098,319.700000,-0.261277
8950.730504,319.749000,4.665462
8955.522441,319.798000,-3.297957
8960.215161,319.846000,-2.343201
8965.004192,319.895000,-4.002783
8969.791757,319.944000,-0.933636
8974.577855,319.993000,-1.358005
8979.264858,320.041000,-0.055086
8984.048055,320.090000,-1.839708
8988.829789,320.139000,-3.470508
8993.512517,320.187000,-0.028595
8998.291355,320.236000,0.189526
9003.068730,320.285000,0.323447
9007.747190,320.333000,-2.079064
9012.521672,320.382000,-3.355031
9017.294694,320.431000,-2.398306
9021.968893,320.479000,-1.208208
9026.739026,320.528000,-1.403745
9031.410396,320.576000,2.288863
9036.177644,320.625000,-3.047035
9040.943434,320.674000,3.675503
9045.610552,320.722000,-4.486178
9050.373460,320.771000,0.677583
9055.037756,320.819000,-2.023428
9059.797784,320.868000,0.746974
9064.459261,320.916000,1.137429
9069.216413,320.965000,-2.744609
9073.875072,321.013000,-2.055287
9078.629350,321.062000,3.925103
9083.285194,321.110000,-0.118196
9088.036601,321.159000,-2.341215
9092.689634,321.207000,0.444322
9097.438171,321.256000,0.569576
9102.088394,321.304000,0.027883
9106.737229,321.352000,-3.084931
9111.481482,321.401000,2.401696
9116.127511,321.449000,1.013685
9120.868902,321.498000,1.194454
9125.512128,321.546000,0.746631
9130.153968,321.594000,-1.119309
9134.891085,321.643000,-2.926974
9139.530126,321.691000,-0.892383
9144.167783,321.739000,-0.504525
9148.900630,321.788000,-0.473536
9153.535492,321.836000,0.329059
9158.168971,321.884000,-1.186650
9162.801069,321.932000,-3.329279
9167.528244,321.981000,-3.765934
9172.157551,322.029000,-1.918270
9176.785479,322.077000,-0.616305
9181.412027,322.125000,1.242487
9186.133540,322.174000,-2.691907
9190.757302,322.222000,-5.339921
9195.379688,322.270000,-2.932825
9200.000697,322.318000,-2.829182
9204.620330,322.366000,-1.286693
9209.334786,322.415000,1.522792
9213.951640,322.463000,0.981817
9218.567119,322.511000,0.739782
9223.181225,322.559000,0.527295
9227.793957,322.607000,-3.996673
9232.405318,322.655000,-1.296850
9237.015306,322.703000,-1.392846
9241.623923,322.751000,-0.393245
9246.231170,322.799000,-0.251948
9250.932988,322.848000,1.607337
9255.537466,322.896000,0.758144
9260.140576,322.944000,-4.987711
9264.742318,322.992000,1.190740
9269.342693,323.040000,-2.046747
9273.941700,323.088000,1.009828
9278.539341,323.136000,-2.461536
9283.135616,323.184000,-0.702359
9287.730527,323.232000,-0.399308
9292.324072,323.280000,-4.926791
9296.916254,323.328000,-4.808050
9301.411445,323.375000,0.076254
9306.000929,323.423000,-1.747592
9310.589052,323.471000,-1.890229
9315.175812,323.519000,-2.956965
9319.761212,323.567000,-2.476372
9324.345252,323.615000,-1.964213
9328.927932,323.663000,-3.595760
9333.509253,323.711000,-5.001302
9338.089216,323.759000,-0.856614
9342.572447,323.806000,0.375443
9347.149722,323.854000,-0.203949
9351.725642,323.902000,1.905784
9356.300205,323.950000,1.926981
9360.873412,323.998000,-0.929305
9365.350032,324.045000,0.087024
9369.920559,324.093000,1.853643
9374.489732,324.141000,-0.500341
9379.057552,324.189000,-5.302819
9383.528899,324.236000,-0.959247
9388.094043,324.284000,-0.918193
9392.657836,324.332000,1.097969
9397.125241,324.379000,-2.474762
9401.686361,324.427000,-1.728570
9406.246132,324.475000,1.654144
9410.804554,324.523000,-5.741462
9415.266702,324.570000,-0.569806
9419.822456,324.618000,-1.972148
9424.281993,324.665000,-2.794371
9428.835082,324.713000,-0.226477
9433.386824,324.761000,-3.566470
9437.842435,324.808000,0.618939
9442.391516,324.856000,-0.984063
9446.844521,324.903000,-1.759340
9451.390942,324.951000,2.180243
9455.936020,324.999000,-2.325660
9460.385108,325.046000,-2.729921
9464.927530,325.094000,2.260069
9469.374018,325.141000,0.360796
9473.913786,325.189000,0.215057
9478.357677,325.236000,-0.950819
9482.894794,325.284000,1.102850
9487.336090,325.331000,-0.853579
9491.870557,325.379000,3.867420
9496.309260,325.426000,-2.213606
9500.746681,325.473000,-0.094100
9505.277193,325.521000,-4.475875
9509.712024,325.568000,1.523064
9514.239893,325.616000,-1.555984
9518.672137,325.663000,-2.779362
9523.103102,325.710000,1.863823
9527.627024,325.758000,-1.880245
9532.055405,325.805000,-2.155343
9536.576689,325.853000,1.606515
9541.002489,325.900000,0.283890
9545.427013,325.947000,-6.076777
9549.850260,325.994000,-0.188971
9554.366303,326.042000,-0.274542
9558.786974,326.089000,-0.606224
9563.206371,326.136000,2.064412
9567.718482,326.184000,-4.781375
9572.135305,326.231000,-1.327160
9576.550855,326.278000,1.693270
9580.965134,326.325000,-2.017644
9585.472021,326.373000,-2.343435
9589.883730,326.420000,-2.272296
9594.294169,326.467000,-0.656390
9598.703338,326.514000,-0.976691
9603.111238,326.561000,-0.813814
9607.611614,326.609000,-1.614115
9612.016950,326.656000,-1.166815
9616.421019,326.703000,-3.854796
9620.823821,326.750000,-1.196394
9625.225356,326.797000,-0.882934
9629.625626,326.844000,1.620221
9634.024630,326.891000,2.625587
9638.422369,326.938000,0.063481
9642.818845,326.985000,-3.089807
9647.214056,327.032000,-0.244606
9651.701479,327.080000,-1.161758
9656.094138,327.127000,2.012538
9660.485535,327.174000,-1.481431
9664.875670,327.221000,0.082625
9669.264544,327.268000,-1.153260
9673.652158,327.315000,1.451202
9678.038512,327.362000,0.048231
9682.423607,327.409000,-0.889755
9686.807443,327.456000,-1.857845
9691.190021,327.503000,-0.400894
9695.478134,327.549000,-3.466554
9699.858224,327.596000,0.364576
9704.237057,327.643000,1.674654
9708.614633,327.690000,-0.373909
9712.990955,327.737000,-1.780447
9717.366021,327.784000,0.089090
9721.739833,327.831000,0.014593
9726.112390,327.878000,0.854400
9730.483695,327.925000,0.730530
9734.760780,327.971000,-2.467684
9739.129606,328.018000,0.186781
9743.497180,328.065000,-3.994490
9747.863503,328.112000,0.439956
9752.228575,328.159000,3.870422
9756.499562,328.205000,-1.090975
9760.862161,328.252000,0.995037
9765.223511,328.299000,-1.590140
9769.583612,328.346000,-3.337613
9773.849737,328.392000,0.370599
9778.207369,328.439000,4.434515
9782.563754,328.486000,1.677125
9786.918893,328.533000,-3.035824
9791.180163,328.579000,1.571014
9795.532837,328.626000,-0.493403
9799.884266,328.673000,0.780542
9804.141906,328.719000,0.422955
9808.490874,328.766000,3.102126
9812.838598,328.813000,-0.048427
9817.092614,328.859000,-1.851283
9821.437879,328.906000,-1.779509
9825.689490,328.952000,-1.966527
9830.032299,328.999000,2.225106
9834.373868,329.046000,2.362802
9838.621862,329.092000,0.414299
9842.960977,329.139000,1.127274
9847.206571,329.185000,-0.776657
9851.543235,329.232000,-3.696710
9855.786431,329.278000,-0.706752
9860.120646,329.325000,-3.522125
9864.361446,329.371000,-2.133894
9868.693214,329.418000,-4.266299
9872.931619,329.464000,-3.194793
9877.260942,329.511000,2.600326
9881.496956,329.557000,0.613927
9885.823836,329.604000,-2.690958
9890.057460,329.650000,-2.601225
9894.289903,329.696000,-2.163168
9898.613135,329.743000,-1.802583
9902.843191,329.789000,-3.838468
9907.163985,329.836000,-0.061308
9911.391656,329.882000,-2.226440
9915.618148,329.928000,-4.380666
9919.935303,329.975000,0.267142
9924.159413,330.021000,0.021978
9928.382346,330.067000,-3.804646
9932.695866,330.114000,-1.122890
9936.916419,330.160000,-2.393921
9941.135797,330.206000,-0.818593
9945.445687,330.253000,-1.241302
9949.662689,330.299000,-2.634363
9953.878516,330.345000,1.777698
9958.093170,330.391000,0.358409
9962.398234,330.438000,-2.486853
9966.610516,330.484000,-2.275077
9970.821625,330.530000,0.606501
9975.031562,330.576000,2.252221
9979.240328,330.622000,2.304051
9983.539380,330.669000,-1.418479
9987.745778,330.715000,1.653759
9991.951007,330.761000,0.495013
9996.155067,330.807000,-1.329622
10000.357957,330.853000,-3.417198
10004.559679,330.899000,-1.460765
10008.760233,330.945000,-4.953433
10013.050897,330.992000,1.919782
10017.249091,331.038000,0.028137
10021.446118,331.084000,-0.537729
10025.641979,331.130000,-1.192623
10029.836675,331.176000,-4.438246
10034.030205,331.222000,-0.716978
10038.222571,331.268000,0.589894
10042.413773,331.314000,-1.374073
10046.603811,331.360000,-3.783486
10050.792686,331.406000,-1.952167
10054.980398,331.452000,-1.302634
10059.166948,331.498000,-2.758066
10063.352336,331.544000,-1.342997
10067.536563,331.590000,2.546804
10071.719629,331.636000,0.460699
10075.901535,331.682000,-2.137471
10080.082281,331.728000,-0.141809
10084.261868,331.774000,-1.412421
10088.440296,331.820000,-1.455161
10092.526768,331.865000,0.082285
10096.702905,331.911000,0.136865
10100.877884,331.957000,-1.371059
10105.051707,332.003000,-1.413100
10109.224373,332.049000,0.826874
10113.395884,332.095000,-2.955718
10117.475591,332.140000,-1.022317
10121.644816,332.186000,-1.272250
10125.812886,332.232000,-0.051985
10129.979802,332.278000,0.425437
10134.145565,332.324000,1.078574
10138.219652,332.369000,-0.393362
10142.383134,332.415000,-0.134748
10146.545464,332.461000,0.996968
10150.706643,332.507000,-4.373826
10154.776247,332.552000,2.250384
10158.935148,332.598000,-1.003312
10163.092900,332.644000,-1.638664
10167.159152,332.689000,-4.297011
10171.314630,332.735000,-2.099699
10175.468958,332.781000,4.445258
10179.531864,332.826000,-1.204593
10183.683921,332.872000,-1.835617
10187.834831,332.918000,-1.265306
10191.894393,332.963000,-1.956264
10196.043035,333.009000,0.395637
10200.190530,333.055000,-0.383428
10204.246754,333.100000,0.808544
10208.391984,333.146000,-3.099887
10212.445992,333.191000,-0.637829
10216.588958,333.237000,0.309744
10220.640753,333.282000,-0.683103
10224.781457,333.328000,-0.983224
10228.831039,333.373000,4.051614
10232.969483,333.419000,-3.379337
10237.016856,333.464000,1.045491
10241.153042,333.510000,-0.580366
10245.198206,333.555000,1.824225
10249.332135,333.601000,2.052290
10253.375094,333.646000,-2.747739
10257.506768,333.692000,-3.621773
10261.547522,333.737000,6.448910
10265.587186,333.782000,0.611941
10269.715494,333.828000,0.737410
10273.752956,333.873000,-0.613450
10277.879015,333.919000,-2.117152
10281.914277,333.964000,0.377681
10285.948452,334.009000,-0.336392
10290.071151,334.055000,0.364096
10294.103128,334.100000,-0.475521
10298.134020,334.145000,-1.615421
10302.253364,334.191000,0.558312
10306.282060,334.236000,0.349976
10310.309672,334.281000,-1.023239
10314.425666,334.327000,1.285759
10318.451085,334.372000,-0.711719
10322.475422,334.417000,0.202360
10326.498675,334.462000,-0.467960
10330.610215,334.508000,0.949325
10334.631280,334.553000,2.982350
10338.651263,334.598000,-2.819775
10342.670165,334.643000,1.162705
10346.687987,334.688000,-4.110068
10350.704728,334.733000,-1.174894
10354.809614,334.779000,-1.384743
10358.824172,334.824000,-0.127275
10362.837651,334.869000,-2.332134
10366.850051,334.914000,-1.211917
10370.861373,334.959000,0.403091
10374.871618,335.004000,2.436647
10378.880786,335.049000,0.380874
10382.888876,335.094000,-0.948348
10386.984923,335.140000,-1.473114
10390.990838,335.185000,-3.553366
10394.995677,335.230000,1.655096
10398.999440,335.275000,-4.909020
10403.002130,335.320000,1.716394
10407.003745,335.365000,2.151062
10411.004286,335.410000,-1.682386
10415.003755,335.455000,0.890111
10419.002150,335.500000,1.449556
10422.999473,335.545000,-0.977059
10426.995723,335.590000,0.475983
10430.990902,335.635000,-2.412868
10434.985010,335.680000,2.508554
10438.889325,335.724000,0.387427
10442.881316,335.769000,0.094426
10446.872237,335.814000,5.362776
10450.862088,335.859000,0.243917
10454.850871,335.904000,-0.366053
10458.838585,335.949000,-1.945621
10462.825230,335.994000,1.314832
10466.810808,336.039000,1.715631
10470.706786,336.083000,2.589461
10474.690253,336.128000,-1.171332
10478.672654,336.173000,-1.191227
10482.653989,336.218000,-0.083147
10486.634259,336.263000,-3.183570
10490.525048,336.307000,1.207306
10494.503211,336.352000,-0.104092
10498.480310,336.397000,-0.484046
10502.456345,336.442000,-2.687441
10506.342995,336.486000,1.878402
10510.316927,336.531000,1.800327
10514.289797,336.576000,-0.116055
10518.261604,336.621000,2.859157
10522.144122,336.665000,-0.598149
10526.113830,336.710000,-1.545883
10530.082477,336.755000,-1.634553
10533.961906,336.799000,0.309586
10537.928455,336.844000,-1.383569
10541.893946,336.889000,1.117419
10545.770289,336.933000,-2.368454
10549.733685,336.978000,-0.473060
10553.607982,337.022000,-6.270829
10557.569284,337.067000,-0.799743
10561.529529,337.112000,0.197742
10565.400747,337.156000,-3.762728
10569.358902,337.201000,1.526978
10573.228076,337.245000,0.410032
10577.184142,337.290000,0.392984
10581.051275,337.334000,-2.265815
10585.005254,337.379000,2.739584
10588.870347,337.423000,-4.020036
10592.822240,337.468000,-2.841535
10596.685295,337.512000,-1.116926
10600.635105,337.557000,-0.272904
10604.496123,337.601000,1.284492
10608.443850,337.646000,2.439986
10612.302834,337.690000,-1.917530
10616.160811,337.734000,-2.625330
10620.105430,337.779000,-1.305320
10623.961375,337.823000,2.260704
10627.903916,337.868000,-2.448684
10631.757830,337.912000,0.456435
10635.610740,337.956000,-0.984383
10639.550179,338.001000,-2.420033
10643.401061,338.045000,2.099759
10647.250940,338.089000,-2.906150
10651.187281,338.134000,-0.699597
10655.035134,338.178000,-1.125921
10658.881986,338.222000,2.454800
10662.815231,338.267000,0.450590
10666.660059,338.311000,-1.349011
10670.503887,338.355000,0.661789
10674.346716,338.399000,-1.989861
10678.275848,338.444000,1.666636
10682.116656,338.488000,-0.070669
10685.956465,338.532000,-1.458135
10689.795276,338.576000,3.585062
10693.633090,338.620000,-1.688281
10697.557096,338.665000,-0.007737
10701.392893,338.709000,-2.478431
10705.227693,338.753000,-2.550413
10709.061498,338.797000,-2.269223
10712.894307,338.841000,-2.698119
10716.726120,338.885000,-0.367691
10720.556939,338.929000,-3.878369
10724.386763,338.973000,-1.298144
10728.302601,339.018000,-3.960973
10732.130414,339.062000,1.439931
10735.957235,339.106000,-1.430777
10739.783062,339.150000,-2.308149
10743.607897,339.194000,-1.561758
10747.431740,339.238000,0.017145
10751.254591,339.282000,0.202314
10755.076450,339.326000,-4.391684
10758.897319,339.370000,-2.567745
10762.717197,339.414000,-0.670219
10766.536084,339.458000,-0.239435
10770.353982,339.502000,1.923791
10774.170890,339.546000,-2.010324
10777.986809,339.590000,-1.003597
10781.801740,339.634000,1.455458
10785.615682,339.678000,2.459958
10789.341989,339.721000,3.345542
10793.153978,339.765000,-2.526584
10796.964980,339.809000,-1.778103
10800.774995,339.853000,-0.084986
10804.584024,339.897000,-0.969232
10808.392066,339.941000,-0.573140
10812.199123,339.985000,-4.558191
10816.005195,340.029000,-0.177630
10819.723813,340.072000,0.922246
10823.527938,340.116000,1.105976
10827.331078,340.160000,-0.026710
10831.133235,340.204000,-2.974663
10834.848029,340.247000,0.002820
10838.648242,340.291000,0.721534
10842.447472,340.335000,3.095255
10846.245720,340.379000,-0.667762
10849.956695,340.422000,-3.580622
10853.753002,340.466000,-1.187770
10857.548328,340.510000,-1.283286
10861.342673,340.554000,0.243043
10865.049836,340.597000,-1.670400
10868.842243,340.641000,-4.981160
10872.633670,340.685000,1.408290
10876.337983,340.728000,-3.127641
10880.127474,340.772000,-1.509192
10883.829896,340.815000,-3.337069
10887.617453,340.859000,-0.632288
10891.404033,340.903000,-2.585936
10895.103609,340.946000,-2.262063
10898.888257,340.990000,-3.731665
10902.585946,341.033000,-0.655894
10906.368663,341.077000,0.973846
10910.150404,341.121000,-2.081432
10913.845254,341.164000,0.545755
10917.625066,341.208000,1.441620
10921.318033,341.251000,-2.934351
10925.095918,341.295000,2.188215
10928.787002,341.338000,-1.296059
10932.562962,341.382000,1.079421
10936.252165,341.425000,-0.948742
10939.940439,341.468000,-1.260990
10943.713524,341.512000,-0.592919
10947.399919,341.555000,-1.312233
10951.171083,341.599000,-0.245910
10954.855601,341.642000,-2.370631
10958.624845,341.686000,-4.488183
10962.307486,341.729000,-1.058575
10965.989201,341.772000,-2.904900
10969.755578,341.816000,-2.393891
10973.435419,341.859000,-0.833924
10977.114334,341.902000,1.123181
10980.877848,341.946000,0.300396
10984.554892,341.989000,-0.919373
10988.231011,342.032000,-1.322393
10991.991665,342.076000,0.732629
10995.665914,342.119000,-2.719058
10999.339240,342.162000,2.090647
11003.011643,342.205000,-1.293508
11006.768496,342.249000,-1.943955
11010.439032,342.292000,-0.149255
11014.108646,342.335000,-2.351158
11017.777338,342.378000,0.862998
11021.530396,342.422000,-2.927048
11025.197224,342.465000,1.850228
11028.863132,342.508000,1.966002
11032.528119,342.551000,2.280369
11036.192187,342.594000,1.427243
11039.855335,342.637000,-3.473790
11043.602720,342.681000,-3.582420
11047.264009,342.724000,-1.654732
11050.924378,342.767000,-0.005233
11054.583829,342.810000,-1.806181
11058.242363,342.853000,-0.882922
11061.899979,342.896000,-0.822252
11065.556677,342.939000,-0.333465
11069.212459,342.982000,-3.842264
11072.867324,343.025000,0.368107
11076.521273,343.068000,-0.564340
11080.174306,343.111000,-2.269138
11083.826423,343.154000,-2.554154
11087.477626,343.197000,1.116235
11091.127913,343.240000,-0.159372
11094.777286,343.283000,-0.151634
11098.425745,343.326000,-1.061124
11102.073291,343.369000,-2.620360
11105.719922,343.412000,-0.687401
11109.365641,343.455000,-1.756176
11113.010447,343.498000,0.296586
11116.654340,343.541000,0.682567
11120.297322,343.584000,0.447823
11123.939391,343.627000,-1.776553
11127.580549,343.670000,-1.040603
11131.220797,343.713000,-0.870961
11134.775508,343.755000,-0.580666
11138.413955,343.798000,-0.279873
11142.051492,343.841000,0.818594
11145.688120,343.884000,0.870142
11149.323838,343.927000,0.946428
11152.958647,343.970000,-2.991473
11156.508049,344.012000,0.931368
11160.141062,344.055000,-1.493262
11163.773167,344.098000,-0.804867
11167.404365,344.141000,0.536960
11170.950240,344.183000,-2.232253
11174.579645,344.226000,1.950415
11178.208143,344.269000,-1.456559
11181.751382,344.311000,-2.237372
11185.378088,344.354000,-2.972975
11189.003889,344.397000,0.781979
11192.628785,344.440000,-2.299653
11196.168507,344.482000,-0.415602
11199.791614,344.525000,-3.583215
11203.413817,344.568000,-3.210007
11206.950910,344.610000,1.615325
11210.571327,344.653000,-1.737624
11214.106675,344.695000,0.389624
11217.725306,344.738000,0.289319
11221.343035,344.781000,-0.903735
11224.875759,344.823000,-0.551978
11228.491704,344.866000,-1.008030
11232.022687,344.908000,1.994656
11235.636851,344.951000,-7.284800
11239.166094,344.993000,3.915601
11242.778477,345.036000,1.086737
11246.305982,345.078000,2.637258
11249.916585,345.121000,-0.330986
11253.442353,345.163000,-1.581303
11257.051178,345.206000,-0.911338
11260.575210,345.248000,3.217811
11264.182259,345.291000,-1.071079
11267.704555,345.333000,-3.421647
11271.309829,345.376000,1.803643
11274.830392,345.418000,-0.324293
11278.350100,345.460000,0.820254
11281.952723,345.503000,0.770542
11285.470699,345.545000,-1.347170
11288.987820,345.587000,0.554117
11292.587796,345.630000,-3.963886
11296.103187,345.672000,0.764187
11299.701393,345.715000,-0.348637
11303.215056,345.757000,-1.602979
11306.727865,345.799000,-5.184796
11310.239821,345.841000,-1.793851
11313.834512,345.884000,0.726319
11317.344742,345.926000,0.031753
11320.854120,345.968000,0.211821
11324.446172,346.011000,0.051414
11327.953826,346.053000,-0.905862
11331.460629,346.095000,-0.322193
11334.966581,346.137000,0.938018
11338.471682,346.179000,-2.154151
11342.059357,346.222000,-0.465260
11345.562737,346.264000,-1.260378
11349.065268,346.306000,2.069346
11352.566949,346.348000,-4.028809
11356.067781,346.390000,2.360898
11359.567764,346.432000,-1.797461
11363.150201,346.475000,-5.567150
11366.648467,346.517000,-2.865497
11370.145885,346.559000,-3.131533
11373.642456,346.601000,-0.095716
11377.138179,346.643000,-0.214530
11380.633055,346.685000,-4.376960
11384.127085,346.727000,-1.636397
11387.620268,346.769000,-4.537279
11391.112605,346.811000,-3.323779
11394.604096,346.853000,-1.425008
11398.094742,346.895000,-1.004538
11401.584543,346.937000,-3.819651
11405.073499,346.979000,-2.265119
11408.561610,347.021000,3.702039
11412.048877,347.063000,-1.846567
11415.535301,347.105000,-2.001120
11419.020880,347.147000,-1.038134
11422.505617,347.189000,-0.807535
11425.989510,347.231000,-4.136882
11429.472560,347.273000,-0.916600
11432.954769,347.315000,-1.840039
11436.436135,347.357000,0.005870
11439.916659,347.399000,4.760999
11443.313502,347.440000,-1.946765
11446.792364,347.482000,-2.748650
11450.270384,347.524000,1.420630
11453.747565,347.566000,-0.261754
11457.223905,347.608000,0.267498
11460.699405,347.650000,-0.605679
11464.091345,347.691000,-2.572789
11467.565186,347.733000,-0.760428
11471.038188,347.775000,-0.720255
11474.510351,347.817000,-0.949233
11477.981676,347.859000,0.390900
11481.369541,347.900000,0.525590
11484.839210,347.942000,1.138118
11488.308041,347.984000,-4.873593
11491.693473,348.025000,-0.178442
11495.160650,348.067000,-0.221604
11498.626991,348.109000,-1.920752
11502.092494,348.151000,2.287336
11505.474680,348.192000,1.816445
11508.938532,348.234000,1.115367
11512.401549,348.276000,1.831180
11515.781307,348.317000,0.719695
11519.242673,348.359000,-1.585215
11522.620821,348.400000,2.860131
11526.080539,348.442000,-4.685138
11529.539422,348.484000,-0.349052
11532.915148,348.525000,-0.304314
11536.372384,348.567000,-0.496032
11539.746502,348.608000,-0.792146
11543.202092,348.650000,-1.303076
11546.574604,348.691000,-5.524958
11550.028550,348.733000,-0.408596
11553.399456,348.774000,-5.928719
11556.851758,348.816000,-1.950893
11560.221061,348.857000,0.296187
11563.671720,348.899000,0.411177
11567.039420,348.940000,3.873821
11570.488439,348.982000,-1.103374
11573.854537,349.023000,0.118823
11577.301915,349.065000,-0.756499
11580.666413,349.106000,1.583121
11584.030120,349.147000,-3.003284
11587.475051,349.189000,-4.153204
11590.837159,349.230000,-2.609077
11594.280452,349.272000,-0.733894
11597.640963,349.313000,1.581728
11601.000686,349.354000,1.403975
11604.441535,349.396000,-3.847958
11607.799661,349.437000,1.810082
11611.157000,349.478000,1.319686
11614.595408,349.520000,-0.104495
11617.951152,349.561000,-4.369076
11621.306109,349.602000,-1.481001
11624.660280,349.643000,0.212981
11628.095443,349.685000,-0.300501
11631.448022,349.726000,-2.011399
11634.799814,349.767000,0.337113
11638.150821,349.808000,-3.050617
11641.582745,349.850000,-2.542846
11644.932162,349.891000,-1.237670
11648.280794,349.932000,0.814566
11651.628641,349.973000,-2.216143
11654.975704,350.014000,-2.990297
11658.403590,350.056000,-2.238005
11661.749066,350.097000,2.375875
11665.093759,350.138000,-3.942961
11668.437668,350.179000,-1.834477
11671.780795,350.220000,-3.161421
11675.123139,350.261000,-0.978155
11678.464700,350.302000,2.326063
11681.805480,350.343000,-1.828646
11685.145477,350.384000,-2.897998
11688.484693,350.425000,-0.758532
11691.904543,350.467000,-1.239206
11695.242178,350.508000,0.045691
11698.579032,350.549000,1.397709
11701.915105,350.590000,-0.000302
11705.250398,350.631000,-1.645658
11708.584912,350.672000,-0.163381
11711.918645,350.713000,-3.884503
11715.251600,350.754000,-0.909465
11718.502512,350.794000,-1.556100
11721.833927,350.835000,-0.943234
11725.164564,350.876000,-0.871025
11728.494422,350.917000,-1.498877
11731.823503,350.958000,0.490911
11735.151806,350.999000,-0.104902
11738.479331,351.040000,-2.237132
11741.806079,351.081000,1.407806
11745.132050,351.122000,-1.230863
11748.457245,351.163000,-0.746978
11751.700589,351.203000,-3.138581
11755.024250,351.244000,-1.595904
11758.347135,351.285000,-2.054994
11761.669245,351.326000,-0.141744
11764.990579,351.367000,-3.499938
11768.230159,351.407000,-0.421146
11771.549962,351.448000,-0.462144
11774.868991,351.489000,-1.423897
11778.187246,351.530000,0.784092
11781.423822,351.570000,-0.644883
11784.740548,351.611000,0.959158
11788.056500,351.652000,-0.621187
11791.371680,351.693000,-3.048327
11794.605256,351.733000,-1.047833
11797.918909,351.774000,-0.018515
11801.231790,351.815000,-0.875692
11804.463124,351.855000,1.527281
11807.774479,351.896000,0.313350
11811.085063,351.937000,0.333568
11814.314158,351.977000,0.280617
11817.623218,352.018000,0.448015
11820.850827,352.058000,-0.007029
11824.158365,352.099000,-0.002158
11827.465133,352.140000,2.160214
11830.690506,352.180000,-2.646409
11833.995753,352.221000,-0.309985
11837.219643,352.261000,1.100612
11840.523370,352.302000,0.428770
11843.745778,352.342000,-4.069155
11847.047986,352.383000,-0.278451
11850.268913,352.423000,1.275762
11853.569603,352.464000,-1.207516
11856.789050,352.504000,1.354309
11860.088224,352.545000,-1.618404
11863.306191,352.585000,-1.064352
11866.603850,352.626000,-1.998364
11869.820339,352.666000,-0.567646
11873.116483,352.707000,0.769710
11876.331495,352.747000,0.973805
11879.545777,352.787000,-0.358010
11882.839661,352.828000,1.620782
11886.052468,352.868000,0.954063
11889.264547,352.908000,-1.159396
11892.556173,352.949000,-2.750048
11895.766777,352.989000,-1.515191
11899.056892,353.030000,4.612273
11902.266024,353.070000,-1.031968
11905.474429,353.110000,0.094282
11908.682107,353.150000,-0.096354
11911.969223,353.191000,1.647465
11915.175430,353.231000,-2.215926
11918.380911,353.271000,-3.567867
11921.665775,353.312000,1.552745
11924.869787,353.352000,-0.911934
11928.073073,353.392000,-5.412900
11931.275634,353.432000,-1.111326
11934.477470,353.472000,-2.968191
11937.758600,353.513000,1.275869
11940.958969,353.553000,2.400051
11944.158614,353.593000,-1.897347
11947.357536,353.633000,2.650056
11950.555733,353.673000,-0.781602
11953.753208,353.713000,3.135326
11957.029868,353.754000,-2.182645
11960.225879,353.794000,-2.610769
11963.421166,353.834000,-2.004428
11966.615732,353.874000,-1.680529
11969.809575,353.914000,-3.326573
11973.002696,353.954000,-0.005187
11976.195096,353.994000,0.545915
11979.386774,354.034000,-1.263222
11982.577731,354.074000,-0.808662
11985.767968,354.114000,1.415512
11988.957483,354.154000,0.251443
11992.146279,354.194000,-0.959102
11995.334354,354.234000,-1.483680
11998.521709,354.274000,-2.457915
12001.708345,354.314000,-1.168321
12004.894261,354.354000,-3.390731
12008.079458,354.394000,-1.550816
12011.263936,354.434000,3.321972
12014.447695,354.474000,-0.378339
12017.630736,354.514000,-2.126013
12020.813059,354.554000,0.440816
12023.994663,354.594000,-3.803375
12027.175550,354.634000,0.342040
12030.276224,354.673000,-1.677073
12033.455694,354.713000,-1.998231
12036.634448,354.753000,1.131912
12039.812484,354.793000,-0.923169
12042.989804,354.833000,-6.398167
12046.166408,354.873000,-1.166113
12049.262907,354.912000,-0.030080
12052.438097,354.952000,-3.074290
12055.612571,354.992000,-2.272699
12058.786330,355.032000,-1.780081
12061.880056,355.071000,0.207385
12065.052403,355.111000,-2.733964
12068.224035,355.151000,-2.209751
12071.394953,355.191000,1.162545
12074.485910,355.230000,0.828758
12077.655418,355.270000,0.364220
12080.824212,355.310000,2.332958
12083.913100,355.349000,1.555834
12087.080485,355.389000,-1.360232
12090.247158,355.429000,-3.789444
12093.333977,355.468000,-4.779678
12096.499242,355.508000,-36.244750
12099.663795,355.548000,-903.809614
12102.748549,355.587000,-891.660598
12105.911696,355.627000,-665.881882
12108.995079,355.666000,-990.212704
12112.156822,355.706000,-977.698509
12115.317853,355.746000,-695.416829
12118.399174,355.785000,-1156.820146
12121.558801,355.825000,-802.618553
12124.638754,355.864000,-1290.742715
12127.796979,355.904000,-1332.700392
12130.875565,355.943000,-954.219130
12134.032389,355.983000,-797.077634
12137.109608,356.022000,-905.883978
12140.265031,356.062000,-629.901191
12143.340885,356.101000,-1437.391143
12146.494908,356.141000,-1096.951701
12149.569398,356.180000,-713.833147
12152.643215,356.219000,-826.303573
12155.795149,356.259000,-796.031508
12158.867603,356.298000,-687.415204
12162.018139,356.338000,-1224.310707
12165.089231,356.377000,-642.518612
12168.159651,356.416000,-1012.216853
12171.308101,356.456000,-1179.635538
12174.377160,356.495000,-1197.964603
12177.445548,356.534000,-472.831961
12180.591915,356.574000,-760.857228
12183.658943,356.613000,-947.879804
12186.725300,356.652000,-667.171019
12189.869585,356.692000,-473.758629
12192.934585,356.731000,-1307.029068
12195.998914,356.770000,-878.206666
12199.062573,356.809000,-1260.898769
12202.204093,356.849000,-918.322981
12205.266396,356.888000,-849.983593
12208.328030,356.927000,-811.727151
12211.388995,356.966000,-504.105279
12214.527751,357.006000,-859.318067
12217.587361,357.045000,-508.345362
12220.646304,357.084000,-989.734757
12223.704578,357.123000,-649.985614
12226.762184,357.162000,-1097.854691
12229.819122,357.201000,-1134.442734
12232.953750,357.241000,-1052.442555
12236.009337,357.280000,-685.598553
12239.064257,357.319000,-908.259524
12242.118510,357.358000,-621.832624
12245.172096,357.397000,-1130.404694
12248.225016,357.436000,-757.511973
