raman_shift_cm-1,wavelength_nm,intensity
-311.444523,246.690000,0.000000
-300.766377,246.755000,0.000000
-290.093855,246.820000,0.000000
-279.262891,246.886000,0.000000
-268.601691,246.951000,0.150000
-257.946101,247.016000,-0.160000
-247.296118,247.081000,1.190000
-236.651737,247.146000,-0.730000
-226.012953,247.211000,0.740000
-215.216219,247.277000,0.340000
-204.588703,247.342000,-0.170000
-193.966771,247.407000,-0.190000
-183.350419,247.472000,0.090000
-172.739643,247.537000,-0.750000
-162.134437,247.602000,-0.380000
-151.534799,247.667000,-1.250000
-140.940722,247.732000,0.940000
-130.352203,247.797000,0.220000
-119.769238,247.862000,-0.150000
-109.191822,247.927000,-1.190000
-98.619951,247.992000,-1.900000
-88.053621,248.057000,-1.840000
-77.655258,248.121000,-2.730000
-67.099910,248.186000,-3.590000
-56.550089,248.251000,0.910000
-46.005792,248.316000,3.970000
-35.467013,248.381000,-1.640000
-24.933749,248.446000,0.840000
-14.405995,248.511000,-0.700000
-4.045586,248.575000,-0.570000
6.471245,248.640000,-2.900000
16.982580,248.705000,-1.650000
27.488421,248.770000,0.990000
37.827271,248.834000,0.400000
48.322224,248.899000,-1.040000
58.811696,248.964000,-3.180000
69.134442,249.028000,-0.010000
79.613052,249.093000,1.070000
90.086194,249.158000,-1.420000
100.392873,249.222000,-0.240000
110.855177,249.287000,-0.390000
121.312027,249.352000,-0.320000
131.602677,249.416000,-4.180000
142.048715,249.481000,-0.180000
152.328727,249.545000,-0.340000
162.763968,249.610000,1.380000
173.033359,249.674000,-0.330000
183.457821,249.739000,-2.310000
193.716607,249.803000,0.220000
204.130307,249.868000,-2.750000
214.378504,249.932000,-0.710000
224.781458,249.997000,19.810000
235.019083,250.061000,43.490000
245.411309,250.126000,22.240000
255.638378,250.190000,-42.880000
265.860216,250.254000,-494.490000
276.236420,250.319000,-532.940000
286.447727,250.383000,-71.270000
296.813243,250.448000,21.920000
307.014035,250.512000,3.070000
317.209616,250.576000,-11.140000
327.399990,250.640000,-0.580000
337.744263,250.705000,-2.640000
347.924154,250.769000,10.260000
358.098850,250.833000,55.790000
368.268355,250.897000,10.330000
378.591450,250.962000,-17.980000
388.750505,251.026000,-14.060000
398.904381,251.090000,-53.620000
409.053082,251.154000,77.210000
419.196612,251.218000,87.310000
429.334975,251.282000,10.640000
439.626466,251.347000,3.630000
449.754426,251.411000,-1.480000
459.877231,251.475000,36.400000
469.994885,251.539000,-4.310000
480.107392,251.603000,0.280000
490.214756,251.667000,1.310000
500.316980,251.731000,-18.260000
510.414069,251.795000,-20.540000
520.506026,251.859000,-8.910000
530.592855,251.923000,12.610000
540.674561,251.987000,-13.880000
550.751147,252.051000,6.860000
560.822617,252.115000,10.350000
570.888975,252.179000,55.930000
580.950225,252.243000,-42.800000
590.849282,252.306000,1.680000
600.900407,252.370000,76.710000
610.946435,252.434000,427.550000
620.987371,252.498000,489.590000
631.023218,252.562000,63.370000
641.053980,252.626000,6.540000
650.923048,252.689000,36.550000
660.943731,252.753000,87.490000
670.959341,252.817000,23.180000
680.969880,252.881000,19.190000
690.819058,252.944000,-3.660000
700.819549,253.008000,259.050000
710.814983,253.072000,39.020000
720.805362,253.136000,-3.070000
730.634708,253.199000,12.720000
740.615069,253.263000,-5.950000
750.434561,253.326000,-4.920000
760.404919,253.390000,4.380000
770.370241,253.454000,1.800000
780.174941,253.517000,-88.920000
790.130283,253.581000,-42.510000
799.925166,253.644000,-5.390000
809.870542,253.708000,11.030000
819.655623,253.771000,-23.250000
829.591048,253.835000,12.470000
839.366341,253.898000,-61.290000
849.291831,253.962000,-3.710000
859.057350,254.025000,53.680000
868.972920,254.089000,65.320000
878.728681,254.152000,28.280000
888.634344,254.216000,75.140000
898.380361,254.279000,-128.480000
908.121550,254.342000,-8.990000
918.012421,254.406000,26.260000
927.743888,254.469000,-54.670000
937.470538,254.532000,-120.820000
947.346650,254.596000,-37.610000
957.063600,254.659000,-61.770000
966.775743,254.722000,-4.670000
976.637128,254.786000,-11.110000
986.339593,254.849000,6.270000
996.037261,254.912000,4.300000
1005.730138,254.975000,7.710000
1015.571966,255.039000,-8.600000
1025.255192,255.102000,-28.900000
1034.933637,255.165000,30.820000
1044.607304,255.228000,9.400000
1054.276196,255.291000,-55.670000
1063.940318,255.354000,292.490000
1073.599672,255.417000,159.660000
1083.407471,255.481000,32.500000
1093.057225,255.544000,-1.930000
1102.702223,255.607000,-8.640000
1112.342467,255.670000,-1.640000
1121.977961,255.733000,-39.530000
1131.608710,255.796000,-1.090000
1141.234715,255.859000,-66.380000
1150.855981,255.922000,5.280000
1160.472512,255.985000,-23.760000
1170.084310,256.048000,53.980000
1179.691379,256.111000,41.310000
1189.293724,256.174000,70.180000
1198.739040,256.236000,-13.220000
1208.332019,256.299000,-148.400000
1217.920283,256.362000,-191.950000
1227.503835,256.425000,-18.860000
1237.082680,256.488000,-45.520000
1246.656820,256.551000,-74.900000
1256.226260,256.614000,-114.600000
1265.639217,256.676000,-35.370000
1275.199339,256.739000,-21.410000
1284.754770,256.802000,0.140000
1294.305515,256.865000,-0.340000
1303.700087,256.927000,38.800000
1313.241541,256.990000,101.970000
1322.778319,257.053000,-3.250000
1332.310423,257.116000,111.260000
1341.686664,257.178000,53.820000
1351.209505,257.241000,11.940000
1360.727683,257.304000,-25.290000
1370.090229,257.366000,-11.480000
1379.599165,257.429000,0.520000
1388.952622,257.491000,14.160000
1398.452329,257.554000,11.770000
1407.796710,257.616000,8.930000
1417.287202,257.679000,8.330000
1426.773053,257.742000,-11.420000
1436.103810,257.804000,0.650000
1445.580466,257.867000,25.820000
1454.902179,257.929000,49.740000
1464.369654,257.992000,94.300000
1473.682337,258.054000,-0.320000
1482.990547,258.116000,-15.340000
1492.444310,258.179000,-43.740000
1501.743510,258.241000,10.410000
1511.188124,258.304000,-34.860000
1520.478327,258.366000,15.690000
1529.764072,258.428000,28.160000
1539.195025,258.491000,36.560000
1548.471792,258.553000,-5.820000
1557.744112,258.615000,-24.850000
1567.161432,258.678000,-7.180000
1576.424794,258.740000,-6.530000
1585.683718,258.802000,-61.630000
1594.938206,258.864000,-37.740000
1604.337420,258.927000,25.420000
1613.582976,258.989000,247.580000
1622.824106,259.051000,36.200000
1632.060814,259.113000,68.960000
1641.293103,259.175000,79.200000
1650.669776,259.238000,26.850000
1659.893165,259.300000,75.850000
1669.112144,259.362000,37.010000
1678.326716,259.424000,1.910000
1687.536886,259.486000,-16.770000
1696.742655,259.548000,-17.110000
1705.944027,259.610000,-96.300000
1715.141005,259.672000,-1.700000
1724.333592,259.734000,124.020000
1733.521792,259.796000,62.690000
1742.705607,259.858000,-20.940000
1751.885041,259.920000,-160.520000
1761.060096,259.982000,-205.310000
1770.230777,260.044000,-190.420000
1779.397086,260.106000,-65.420000
1788.559026,260.168000,-24.070000
1797.716600,260.230000,-53.350000
1806.869812,260.292000,17.910000
1816.018664,260.354000,22.580000
1825.163160,260.416000,19.440000
1834.155916,260.477000,29.850000
1843.291778,260.539000,39.250000
1852.423294,260.601000,13.790000
1861.550466,260.663000,6.540000
1870.673297,260.725000,6.710000
1879.644752,260.786000,8.170000
1888.758980,260.848000,16.410000
1897.868877,260.910000,-23.100000
1906.974445,260.972000,-23.360000
1915.928928,261.033000,93.950000
1925.025918,261.095000,46.350000
1934.118588,261.157000,20.650000
1943.060391,261.218000,21.560000
1952.144502,261.280000,-0.160000
1961.224302,261.342000,20.500000
1970.153451,261.403000,32.390000
1979.224710,261.465000,9.680000
1988.145460,261.526000,13.910000
1997.208190,261.588000,4.240000
2006.120554,261.649000,25.720000
2015.174766,261.711000,33.690000
2024.078756,261.772000,-72.390000
2033.124461,261.834000,-6.260000
2042.020089,261.895000,-14.240000
2051.057301,261.957000,8.200000
2059.944578,262.018000,38.250000
2068.973308,262.080000,96.240000
2077.852245,262.141000,133.190000
2086.872506,262.203000,183.720000
2095.743116,262.264000,15.550000
2104.609601,262.325000,14.430000
2113.617214,262.387000,76.950000
2122.475388,262.448000,9.610000
2131.329447,262.509000,6.730000
2140.324438,262.571000,44.590000
2149.170203,262.632000,83.560000
2158.011861,262.693000,13.530000
2166.994257,262.755000,15.160000
2175.827640,262.816000,11.540000
2184.656923,262.877000,-14.750000
2193.482109,262.938000,-32.610000
2202.303202,262.999000,-229.070000
2211.264711,263.061000,-73.240000
2220.077557,263.122000,-12.050000
2228.886318,263.183000,-8.650000
2237.690997,263.244000,-47.690000
2246.491597,263.305000,-19.460000
2255.288119,263.366000,12.870000
2264.080568,263.427000,25.820000
2272.868945,263.488000,-6.760000
2281.653255,263.549000,-17.450000
2290.577403,263.611000,4.350000
2299.353518,263.672000,-6.880000
2308.125573,263.733000,-13.820000
2316.893571,263.794000,-23.810000
2325.657515,263.855000,-12.360000
2334.273836,263.915000,82.850000
2343.029746,263.976000,-8.150000
2351.781611,264.037000,5.900000
2360.529433,264.098000,-24.920000
2369.273215,264.159000,-4.190000
2378.012959,264.220000,-35.410000
2386.748669,264.281000,-42.930000
2395.480347,264.342000,-21.870000
2404.207997,264.403000,-94.440000
2412.788642,264.463000,-43.820000
2421.508308,264.524000,-36.740000
2430.223953,264.585000,18.900000
2438.935580,264.646000,-12.810000
2447.643192,264.707000,-57.230000
2456.204142,264.767000,-89.160000
2464.903798,264.828000,-211.010000
2473.599447,264.889000,-177.460000
2482.148639,264.949000,-48.630000
2490.836348,265.010000,21.140000
2499.520059,265.071000,125.110000
2508.057516,265.131000,74.230000
2516.733303,265.192000,-9.620000
2525.405101,265.253000,84.210000
2533.930847,265.313000,131.190000
2542.594737,265.374000,153.700000
2551.112712,265.434000,150.340000
2559.768705,265.495000,193.850000
2568.278918,265.555000,298.110000
2576.927027,265.616000,207.290000
2585.571164,265.677000,133.520000
2594.069722,265.737000,7.630000
2602.564444,265.797000,15.020000
2611.196813,265.858000,-38.280000
2619.683805,265.918000,-26.750000
2628.308321,265.979000,-35.650000
2636.787594,266.039000,-20.410000
2645.404268,266.100000,86.470000
2653.875831,266.160000,-27.880000
2662.343577,266.220000,-28.030000
2670.948539,266.281000,-0.260000
2679.408591,266.341000,-14.820000
2687.864833,266.401000,23.220000
2696.458108,266.462000,-6.130000
2704.906672,266.522000,10.150000
2713.351433,266.582000,-34.780000
2721.792393,266.642000,-35.490000
2730.370143,266.703000,-47.160000
2738.803447,266.763000,-48.270000
2747.232958,266.823000,-74.870000
2755.658679,266.883000,125.560000
2764.220946,266.944000,27.140000
2772.639032,267.004000,-69.350000
2781.053334,267.064000,-4.730000
2789.463857,267.124000,70.830000
2797.870602,267.184000,28.160000
2806.273573,267.244000,260.090000
2814.672771,267.304000,53.720000
2823.068200,267.364000,5.940000
2831.459861,267.424000,-7.700000
2839.847757,267.484000,-8.160000
2848.231891,267.544000,4.100000
2856.612266,267.604000,-55.000000
2864.988884,267.664000,7.200000
2873.361747,267.724000,42.300000
2881.730857,267.784000,-8.310000
2890.096219,267.844000,59.960000
2898.457833,267.904000,108.750000
2906.815703,267.964000,69.310000
2915.169831,268.024000,33.330000
2923.520219,268.084000,-3.300000
2931.866870,268.144000,-73.240000
2940.209787,268.204000,-29.570000
2948.410016,268.263000,-4.800000
2956.745534,268.323000,48.910000
2965.077324,268.383000,64.780000
2973.405390,268.443000,150.320000
2981.729735,268.503000,-26.530000
2989.911713,268.562000,-68.260000
2998.228682,268.622000,-86.450000
3006.541937,268.682000,-447.190000
3014.851480,268.742000,-177.330000
3023.018913,268.801000,114.940000
3031.321101,268.861000,8.330000
3039.619584,268.921000,-25.050000
3047.776149,268.980000,4.280000
3056.067292,269.040000,17.940000
3064.216644,269.099000,-52.920000
3072.500457,269.159000,-7.650000
3080.780577,269.219000,86.900000
3088.919097,269.278000,123.460000
3097.191901,269.338000,70.930000
3105.323232,269.397000,-19.510000
3113.588730,269.457000,-12.040000
3121.712881,269.516000,-9.590000
3129.971082,269.576000,-10.460000
3138.088063,269.635000,-77.640000
3146.338978,269.695000,-428.950000
3154.448798,269.754000,-75.010000
3162.692435,269.814000,-45.990000
3170.795104,269.873000,-1.240000
3178.894231,269.932000,-30.370000
3187.127001,269.992000,-13.110000
3195.218991,270.051000,-4.680000
3203.307445,270.110000,-53.880000
3211.529370,270.170000,-19.850000
3219.610701,270.229000,-46.070000
3227.688505,270.288000,-27.150000
3235.899605,270.348000,36.220000
3243.970299,270.407000,20.060000
3252.037473,270.466000,-24.100000
3260.101128,270.525000,-67.920000
3268.297848,270.585000,2.790000
3276.354413,270.644000,11.260000
3284.407466,270.703000,-5.450000
3292.457009,270.762000,-6.030000
3300.503044,270.821000,10.360000
3308.545575,270.880000,6.670000
3316.720828,270.940000,-12.200000
3324.756296,270.999000,-77.920000
3332.788267,271.058000,-60.750000
3340.816741,271.117000,-3.010000
3348.841722,271.176000,9.860000
3356.863212,271.235000,12.110000
3364.881213,271.294000,-8.130000
3372.895727,271.353000,-37.990000
3380.906756,271.412000,-4.150000
3388.914304,271.471000,-26.890000
3396.918371,271.530000,-89.870000
3404.918961,271.589000,-16.930000
3412.916076,271.648000,-1.030000
3420.909718,271.707000,-26.710000
3428.899888,271.766000,-124.280000
3436.886591,271.825000,-82.550000
3444.734546,271.883000,-6.170000
3452.714377,271.942000,-32.090000
3460.690746,272.001000,-117.290000
3468.663655,272.060000,-163.430000
3476.633107,272.119000,-182.870000
3484.599104,272.178000,-53.970000
3492.426718,272.236000,-75.830000
3500.385870,272.295000,-2.050000
3508.341573,272.354000,-4.290000
3516.293830,272.413000,9.000000
3524.107947,272.471000,-9.840000
3532.053377,272.530000,-12.020000
3539.995368,272.589000,-11.910000
3547.799398,272.647000,-32.280000
3555.734574,272.706000,60.920000
3563.666318,272.765000,85.470000
3571.460282,272.823000,3.930000
3579.385225,272.882000,0.820000
3587.306741,272.941000,11.190000
3595.090658,272.999000,-4.030000
3603.005387,273.058000,-144.550000
3610.782635,273.116000,-25.640000
3618.690585,273.175000,10.920000
3626.461173,273.233000,-11.070000
3634.362353,273.292000,-31.480000
3642.126290,273.350000,-14.240000
3650.020708,273.409000,-23.900000
3657.778002,273.467000,-9.660000
3665.665667,273.526000,9.120000
3673.416327,273.584000,84.130000
3681.163701,273.642000,16.040000
3689.041282,273.701000,-11.720000
3696.782035,273.759000,-13.360000
3704.652885,273.818000,25.600000
3712.387025,273.876000,102.390000
3720.117889,273.934000,-42.770000
3727.845481,273.992000,-64.130000
3735.702951,274.051000,-63.060000
3743.423947,274.109000,-29.910000
3751.141676,274.167000,13.620000
3758.989119,274.226000,-18.030000
3766.700265,274.284000,-26.310000
3774.408150,274.342000,-34.540000
3782.112776,274.400000,-48.560000
3789.814146,274.458000,57.250000
3797.644960,274.517000,34.130000
3805.339767,274.575000,-15.310000
3813.031324,274.633000,-54.690000
3820.719634,274.691000,-91.220000
3828.404697,274.749000,48.530000
3836.086516,274.807000,-4.610000
3843.765093,274.865000,23.830000
3851.440431,274.923000,112.650000
3859.112530,274.981000,39.410000
3866.781394,275.039000,-3.800000
3874.447024,275.097000,-38.860000
3882.109423,275.155000,-63.400000
3889.768591,275.213000,-10.490000
3897.424533,275.271000,-26.990000
3905.077248,275.329000,-6.510000
3912.726740,275.387000,-9.590000
3920.373011,275.445000,-57.030000
3928.016062,275.503000,-75.540000
3935.655896,275.561000,-52.860000
3943.292514,275.619000,11.700000
3950.925919,275.677000,-4.460000
3958.424585,275.734000,-6.890000
3966.051625,275.792000,2.500000
3973.675457,275.850000,-92.260000
3981.296084,275.908000,-197.260000
3988.913508,275.966000,86.940000
3996.396478,276.023000,92.430000
4004.007557,276.081000,63.200000
4011.615438,276.139000,60.250000
4019.220124,276.197000,83.540000
4026.690584,276.254000,3.410000
4034.288940,276.312000,7.280000
4041.884108,276.370000,0.590000
4049.345219,276.427000,28.930000
4056.934068,276.485000,8.900000
4064.519735,276.543000,-63.050000
4071.971515,276.600000,-123.370000
4079.550876,276.658000,-67.540000
4086.996462,276.715000,-56.680000
4094.569525,276.773000,-34.390000
4102.008927,276.830000,-24.900000
4109.575700,276.888000,15.280000
4117.008923,276.945000,13.410000
4124.569414,277.003000,1.540000
4131.996467,277.060000,55.100000
4139.550684,277.118000,77.610000
4146.971575,277.175000,92.100000
4154.519525,277.233000,-14.480000
4161.934262,277.290000,110.740000
4169.475953,277.348000,8.990000
4228.011654,277.799000,7.590000
4235.396210,277.856000,-1.980000
4242.907211,277.914000,5.290000
4250.415077,277.972000,-11.580000
4257.790445,278.029000,-34.730000
4265.292102,278.087000,-75.890000
4272.790631,278.145000,24.170000
4280.156828,278.202000,33.400000
4287.649159,278.260000,40.710000
4295.138368,278.318000,96.200000
4302.495411,278.375000,172.880000
4309.978434,278.433000,33.640000
4317.329402,278.490000,22.860000
4324.806246,278.548000,37.610000
4332.151147,278.605000,90.490000
4339.621821,278.663000,220.840000
4346.960661,278.720000,221.350000
4354.425172,278.778000,100.150000
4361.757959,278.835000,21.800000
4369.216314,278.893000,-30.800000
4376.543056,278.950000,3.840000
4383.995264,279.008000,7.780000
4391.315968,279.065000,40.380000
4398.762036,279.123000,-0.830000
4406.076709,279.180000,-27.830000
4413.516644,279.238000,3.390000
4420.825295,279.295000,-0.490000
4428.130962,279.352000,-9.250000
4435.561740,279.410000,-21.590000
4442.861395,279.467000,-3.580000
4450.158074,279.524000,2.430000
4457.579711,279.582000,14.890000
4464.870389,279.639000,-9.110000
4472.158095,279.696000,-6.060000
4479.570607,279.754000,-12.340000
4486.852324,279.811000,-4.280000
4494.131074,279.868000,25.780000
4501.534479,279.926000,31.260000
4508.807251,279.983000,56.340000
4516.077062,280.040000,449.530000
4523.343914,280.097000,479.640000
4530.735220,280.155000,-4.320000
4537.996108,280.212000,25.570000
4545.254043,280.269000,26.000000
4552.509026,280.326000,22.590000
4559.888262,280.384000,94.430000
4567.137295,280.441000,4.320000
4574.383383,280.498000,-26.850000
4581.626526,280.555000,-1.250000
4588.866727,280.612000,-20.160000
4596.103987,280.669000,-23.210000
4603.338308,280.726000,17.480000
4610.696532,280.784000,5.670000
4617.924929,280.841000,70.060000
4625.150392,280.898000,-158.300000
4632.372923,280.955000,-55.340000
4639.592525,281.012000,6.700000
4646.809198,281.069000,0.980000
4654.022945,281.126000,8.460000
4661.233767,281.183000,0.570000
4668.441666,281.240000,8.790000
4675.646644,281.297000,5.680000
4682.848703,281.354000,-73.990000
4690.047844,281.411000,-81.350000
4697.244070,281.468000,-10.430000
4704.437381,281.525000,-57.380000
4711.627780,281.582000,-53.590000
4718.815269,281.639000,-96.950000
4725.999849,281.696000,-87.510000
4733.181522,281.753000,97.240000
4740.360290,281.810000,-32.680000
4747.536154,281.867000,-162.680000
4754.583300,281.923000,-2.080000
4761.753414,281.980000,34.780000
4768.920629,282.037000,13.030000
4776.084949,282.094000,8.970000
4783.246373,282.151000,-4.440000
4790.404904,282.208000,5.340000
4797.435032,282.264000,-7.470000
4804.587834,282.321000,-22.590000
4811.737748,282.378000,34.860000
4818.884776,282.435000,-1.490000
4826.028920,282.492000,-30.230000
4833.044920,282.548000,-13.150000
4840.183352,282.605000,-32.130000
4847.318904,282.662000,-15.520000
4854.451579,282.719000,-587.130000
4861.456319,282.775000,-271.950000
4868.583295,282.832000,74.640000
4875.707399,282.889000,209.150000
4882.703723,282.945000,38.790000
4889.822139,283.002000,-8.600000
4896.937687,283.059000,279.340000
4903.925611,283.115000,-8.660000
4911.035481,283.172000,-27.790000
4918.142490,283.229000,-35.930000
4925.122029,283.285000,5.870000
4932.223369,283.342000,-22.890000
4939.197342,283.398000,-177.160000
4946.293021,283.455000,-27.770000
4953.385847,283.512000,41.690000
4960.351460,283.568000,327.490000
4967.438635,283.625000,-69.790000
4974.398699,283.681000,-117.980000
4981.480229,283.738000,-60.310000
4988.434752,283.794000,-237.950000
4995.510644,283.851000,-26.680000
5002.459631,283.907000,-83.300000
5009.529893,283.964000,41.290000
5016.473351,284.020000,113.030000
5023.537988,284.077000,442.630000
5030.475924,284.133000,208.220000
5037.534943,284.190000,42.750000
5044.467363,284.246000,180.720000
5051.397052,284.302000,39.180000
5058.447683,284.359000,53.860000
5065.371866,284.415000,241.270000
5072.416896,284.472000,293.660000
5079.335580,284.528000,117.740000
5086.251541,284.584000,91.220000
5093.288207,284.641000,192.040000
5100.198678,284.697000,125.280000
5107.106432,284.753000,69.540000
5114.134748,284.810000,191.590000
5121.037022,284.866000,96.710000
5127.936582,284.922000,36.920000
5134.833431,284.978000,46.340000
5141.850655,285.035000,72.480000
5148.742037,285.091000,13.080000
5155.630712,285.147000,-16.440000
5162.516682,285.203000,0.360000
5169.522840,285.260000,-11.820000
5176.403356,285.316000,-39.730000
5183.281172,285.372000,88.880000
5190.156289,285.428000,1.730000
5197.028709,285.484000,23.850000
5204.021082,285.541000,2.230000
5210.888064,285.597000,27.450000
5217.752353,285.653000,-9.810000
5224.613952,285.709000,58.560000
5231.472862,285.765000,21.660000
5238.329083,285.821000,-24.480000
5245.182619,285.877000,47.670000
5252.033470,285.933000,37.260000
5258.881638,285.989000,22.470000
5265.727125,286.045000,260.350000
5272.569932,286.101000,18.010000
5279.532182,286.158000,-120.780000
5286.369586,286.214000,-84.920000
5293.204315,286.270000,-8.390000
5300.036371,286.326000,-4.920000
5306.865755,286.382000,23.840000
5313.692468,286.438000,16.880000
5320.516513,286.494000,51.000000
5327.216104,286.549000,102.760000
5334.034863,286.605000,283.470000
5340.850958,286.661000,11.240000
5347.664391,286.717000,-59.810000
5354.475163,286.773000,-0.490000
5361.283275,286.829000,-9.650000
5368.088729,286.885000,37.650000
5374.891528,286.941000,114.480000
5381.691671,286.997000,18.830000
5388.489161,287.053000,21.900000
5395.162686,287.108000,0.220000
5401.954922,287.164000,-3.860000
5408.744509,287.220000,3.660000
5415.531448,287.276000,-1.290000
5422.315743,287.332000,-95.700000
5428.976316,287.387000,-13.810000
5435.755371,287.443000,123.300000
5442.531785,287.499000,496.840000
5449.305560,287.555000,86.420000
5456.076697,287.611000,-18.170000
5462.724355,287.666000,9.180000
5469.490268,287.722000,24.940000
5476.253548,287.778000,-7.700000
5482.893494,287.833000,5.890000
5489.651559,287.889000,-16.060000
5496.406995,287.945000,9.240000
5503.039242,288.000000,4.310000
5509.789473,288.056000,7.730000
5516.537079,288.112000,-22.350000
5523.161640,288.167000,-20.230000
5529.904050,288.223000,-27.040000
5536.643840,288.279000,-11.640000
5543.260729,288.334000,20.380000
5549.995332,288.390000,7.140000
5556.607128,288.445000,-12.570000
5563.336549,288.501000,60.440000
5569.943259,288.556000,-2.510000
5576.667504,288.612000,-116.830000
5583.269134,288.667000,-48.430000
5589.988209,288.723000,-172.240000
5596.584764,288.778000,-31.980000
5603.298676,288.834000,-15.380000
5609.890162,288.889000,66.050000
5616.598916,288.945000,1.310000
5623.185340,289.000000,10.410000
5629.888941,289.056000,40.110000
5636.470308,289.111000,18.830000
5643.168763,289.167000,-24.300000
5649.745079,289.222000,6.550000
5656.438394,289.278000,24.020000
5663.009664,289.333000,148.080000
5669.578437,289.388000,9.920000
5676.264076,289.444000,-33.050000
5682.827812,289.499000,-76.830000
5689.389054,289.554000,-6.280000
5696.067030,289.610000,-5.240000
5702.623244,289.665000,-23.410000
5709.176969,289.720000,23.500000
5715.847296,289.776000,69.000000
5722.396001,289.831000,79.760000
5728.942221,289.886000,49.140000
5735.485958,289.941000,57.740000
5742.146122,289.997000,75.310000
5748.684850,290.052000,14.780000
5755.221100,290.107000,51.000000
5761.754871,290.162000,3.780000
5768.404894,290.218000,50.290000
5774.933669,290.273000,83.750000
5781.459971,290.328000,54.870000
5787.983800,290.383000,-0.290000
5794.505158,290.438000,-0.760000
5801.142550,290.494000,-71.630000
5807.658926,290.549000,19.130000
5814.172835,290.604000,19.560000
5820.684279,290.659000,46.990000
5827.193260,290.714000,34.000000
5833.699778,290.769000,10.010000
5840.203835,290.824000,38.130000
5846.705432,290.879000,132.620000
5853.204572,290.934000,3.230000
5859.701254,290.989000,-137.710000
5866.195481,291.044000,-369.210000
5872.687254,291.099000,-208.980000
5879.176574,291.154000,10.870000
5885.663444,291.209000,51.630000
5892.147863,291.264000,47.790000
5898.629834,291.319000,12.400000
5905.109357,291.374000,-6.940000
5911.586435,291.429000,28.820000
5918.061069,291.484000,-5.890000
5924.533260,291.539000,-43.640000
5931.003009,291.594000,-38.010000
5937.470318,291.649000,-52.460000
5943.935188,291.704000,-153.240000
5950.397621,291.759000,-76.140000
5956.857618,291.814000,-40.310000
5963.315180,291.869000,19.210000
5969.770309,291.924000,7.300000
5976.105706,291.978000,14.490000
5982.556017,292.033000,19.520000
5989.003898,292.088000,-18.630000
5995.449352,292.143000,12.930000
6001.892379,292.198000,-8.240000
6008.215901,292.252000,-18.050000
6014.654123,292.307000,17.410000
6021.089923,292.362000,84.270000
6027.523303,292.417000,14.350000
6033.954262,292.472000,114.460000
6040.265942,292.526000,189.170000
6046.692111,292.581000,50.440000
6053.115864,292.636000,18.580000
6059.420472,292.690000,10.050000
6065.839442,292.745000,-5.480000
6072.256000,292.800000,-6.790000
6078.553548,292.854000,55.340000
6084.965331,292.909000,106.700000
6091.374707,292.964000,16.920000
6097.665207,293.018000,11.610000
6104.069816,293.073000,11.740000
6110.472021,293.128000,-11.250000
6116.755485,293.182000,-36.260000
6123.152931,293.237000,-224.820000
6129.431725,293.291000,25.540000
6135.824417,293.346000,19.110000
6142.098547,293.400000,113.980000
6148.486490,293.455000,56.590000
6154.872040,293.510000,-16.460000
6161.139160,293.564000,-10.460000
6167.519969,293.619000,-8.940000
6173.782438,293.673000,-47.980000
6180.158512,293.728000,-40.370000
6186.416334,293.782000,43.580000
6192.787678,293.837000,7.680000
6199.040859,293.891000,-28.670000
6205.291742,293.945000,-28.980000
6211.656022,294.000000,-13.950000
6217.902272,294.054000,-30.920000
6224.261835,294.109000,-10.840000
6230.503456,294.163000,19.770000
6236.742786,294.217000,-6.300000
6243.095305,294.272000,41.050000
6249.330014,294.326000,-21.570000
6255.677829,294.381000,27.980000
6261.907923,294.435000,-11.640000
6268.135731,294.489000,-21.420000
6274.476522,294.544000,-6.700000
6280.699722,294.598000,-8.480000
6286.920642,294.652000,-19.330000
6293.139281,294.706000,85.960000
6299.470739,294.761000,124.120000
6305.684781,294.815000,121.840000
6311.896546,294.869000,15.120000
6318.106037,294.923000,3.190000
6324.428182,294.978000,9.830000
6330.633085,295.032000,-14.910000
6336.835717,295.086000,11.130000
6343.036080,295.140000,25.220000
6349.234174,295.194000,31.340000
6355.544717,295.249000,12.640000
6361.738236,295.303000,-32.240000
6367.929490,295.357000,-155.420000
6374.118480,295.411000,0.000000
6380.305209,295.465000,19.570000
6386.489676,295.519000,71.390000
6392.671884,295.573000,372.950000
6398.851833,295.627000,70.950000
6405.143905,295.682000,35.470000
6411.319300,295.736000,17.070000
6417.492439,295.790000,14.380000
6423.663325,295.844000,-38.040000
6429.831958,295.898000,-84.130000
6435.998340,295.952000,-21.760000
6442.162473,296.006000,-40.660000
6448.324357,296.060000,-294.300000
6454.483993,296.114000,-5.540000
6460.641384,296.168000,-30.970000
6466.796529,296.222000,-37.350000
6472.949431,296.276000,-50.620000
6479.100090,296.330000,-184.370000
6485.248508,296.384000,-94.020000
6491.280888,296.437000,-27.060000
6497.424869,296.491000,-40.390000
6503.566612,296.545000,-14.870000
6509.706118,296.599000,-45.170000
6515.843390,296.653000,-28.820000
6521.978427,296.707000,14.310000
6528.111232,296.761000,-20.440000
6534.241805,296.815000,2.040000
6540.256681,296.868000,-14.040000
6546.382836,296.922000,-16.240000
6552.506763,296.976000,10.170000
6558.628464,297.030000,-31.130000
6564.747939,297.084000,-17.500000
6570.751928,297.137000,-7.430000
6576.866997,297.191000,6.640000
6582.979845,297.245000,33.310000
6589.090471,297.299000,5.610000
6595.085780,297.352000,4.190000
6601.192010,297.406000,8.350000
6607.296023,297.460000,27.600000
6613.397821,297.514000,-36.060000
6619.384468,297.567000,-26.030000
6625.481879,297.621000,-8.770000
6631.577077,297.675000,-23.850000
6637.557251,297.728000,38.150000
6643.648069,297.782000,12.380000
6649.623947,297.835000,-8.030000
6655.710390,297.889000,-21.460000
6661.794627,297.943000,-2.690000
6667.764048,297.996000,-6.390000
6673.843917,298.050000,26.010000
6679.809053,298.103000,-73.600000
6685.884559,298.157000,-61.040000
6691.957864,298.211000,9.800000
6697.916562,298.264000,-30.300000
6703.985510,298.318000,-49.720000
6709.939935,298.371000,2.450000
6716.004532,298.425000,32.680000
6721.954688,298.478000,-22.410000
6728.014938,298.532000,19.280000
6733.960830,298.585000,-49.490000
6739.904611,298.638000,-48.180000
6745.958369,298.692000,17.170000
6751.897893,298.745000,-15.900000
6757.947317,298.799000,9.990000
6763.882588,298.852000,8.230000
6769.927680,298.906000,168.370000
6775.858703,298.959000,22.520000
6781.787624,299.012000,-19.640000
6787.826249,299.066000,-38.920000
6793.750928,299.119000,-55.890000
6799.673508,299.172000,-78.590000
6805.705677,299.226000,28.640000
6811.624022,299.279000,7.930000
6817.540272,299.332000,-15.960000
6823.565994,299.386000,-13.310000
6829.478016,299.439000,-58.270000
6835.387945,299.492000,-57.250000
6841.407231,299.546000,-45.650000
6847.312940,299.599000,-18.200000
6853.216559,299.652000,-38.880000
6859.118090,299.705000,-61.250000
6865.017534,299.758000,-26.390000
6871.026143,299.812000,-59.960000
6876.921378,299.865000,-38.780000
6882.814529,299.918000,14.380000
6888.705597,299.971000,4.790000
6894.594584,300.024000,-78.630000
6900.592545,300.078000,0.330000
6906.477333,300.131000,-0.390000
6912.360044,300.184000,-77.130000
6918.240677,300.237000,-124.690000
6924.119235,300.290000,-9.740000
6929.995718,300.343000,45.970000
6935.870127,300.396000,112.750000
6941.742464,300.449000,10.250000
6947.612730,300.502000,-4.750000
6953.480925,300.555000,-5.170000
6959.347051,300.608000,16.350000
6965.211108,300.661000,-51.450000
6971.073099,300.714000,0.720000
6976.933024,300.767000,33.220000
6982.790884,300.820000,-29.170000
6988.646680,300.873000,-2.610000
6994.500413,300.926000,-11.380000
7000.352085,300.979000,9.040000
7006.201696,301.032000,-31.090000
7012.049248,301.085000,-14.770000
7017.894742,301.138000,-7.650000
7023.738178,301.191000,23.380000
7029.579559,301.244000,-20.250000
7035.418884,301.297000,-51.170000
7041.256155,301.350000,0.460000
7047.091373,301.403000,-62.860000
7052.924539,301.456000,3.350000
7058.645653,301.508000,-40.570000
7064.474758,301.561000,-4.470000
7070.301814,301.614000,-69.030000
7076.126822,301.667000,-161.600000
7081.949784,301.720000,-119.730000
7087.660892,301.772000,24.340000
7093.479803,301.825000,81.770000
7099.296670,301.878000,545.640000
7105.111496,301.931000,26.160000
7110.814624,301.983000,-44.720000
7116.625408,302.036000,-57.850000
7122.434152,302.089000,-19.320000
7128.240858,302.142000,-16.930000
7133.936024,302.194000,-66.150000
7139.738696,302.247000,-113.700000
7145.539334,302.300000,-360.770000
7151.228549,302.352000,-572.000000
7157.025159,302.405000,-596.000000
7162.819737,302.458000,-586.880000
7168.503010,302.510000,-598.460000
7174.293567,302.563000,-528.690000
7180.082095,302.616000,6.250000
7185.759436,302.668000,8.020000
7191.543949,302.721000,14.340000
7197.217352,302.773000,5.700000
7202.997854,302.826000,-1.960000
7208.667324,302.878000,-13.520000
7214.443819,302.931000,-30.310000
7220.109360,302.983000,20.620000
7225.881853,303.036000,42.070000
7231.543468,303.088000,-20.310000
7237.311962,303.141000,-63.670000
7242.969657,303.193000,-99.420000
7248.734156,303.246000,-67.150000
7254.387934,303.298000,-3.230000
7260.148443,303.351000,-15.270000
7265.798308,303.403000,-86.210000
7271.554831,303.456000,-203.000000
7277.200787,303.508000,-10.560000
7282.953328,303.561000,10.730000
7288.595379,303.613000,187.890000
7294.235498,303.665000,103.500000
7299.982093,303.718000,64.640000
7305.618313,303.770000,27.180000
7311.252604,303.822000,138.090000
7316.993262,303.875000,28.920000
7322.623660,303.927000,3.220000
7328.252131,303.979000,-10.850000
7333.986862,304.032000,-49.940000
7339.611446,304.084000,-84.120000
7345.234108,304.136000,-15.320000
7350.962920,304.189000,66.220000
7356.581700,304.241000,29.410000
7362.198561,304.293000,67.970000
7367.813502,304.345000,1.300000
7373.426525,304.397000,-2.930000
7379.145517,304.450000,-36.560000
7384.754669,304.502000,-32.900000
7390.361906,304.554000,-19.490000
7395.967228,304.606000,3.360000
7401.570637,304.658000,10.430000
7407.279836,304.711000,628.570000
7412.879384,304.763000,-24.160000
7418.477021,304.815000,20.480000
7424.072749,304.867000,22.980000
7429.666569,304.919000,-12.020000
7435.258480,304.971000,-15.720000
7440.848486,305.023000,-18.920000
7446.436585,305.075000,-35.340000
7452.022780,305.127000,-4.800000
7457.607071,305.179000,-8.700000
7463.296795,305.232000,14.310000
7468.877245,305.284000,-3.750000
7474.455794,305.336000,-5.490000
7480.032444,305.388000,1.690000
7485.607195,305.440000,-27.120000
7491.180048,305.492000,-37.620000
7496.751004,305.544000,24.440000
7502.212985,305.595000,139.750000
7507.780187,305.647000,27.480000
7513.345495,305.699000,-229.010000
7518.908909,305.751000,-149.780000
7524.470432,305.803000,-576.100000
7530.030064,305.855000,-613.660000
7535.587805,305.907000,-93.360000
7541.143658,305.959000,-57.670000
7546.697622,306.011000,-114.090000
7552.249699,306.063000,-7.100000
7557.693173,306.114000,-8.610000
7563.241514,306.166000,-5.110000
7568.787971,306.218000,2.070000
7574.332545,306.270000,16.810000
7579.875237,306.322000,41.730000
7585.416047,306.374000,57.820000
7590.848476,306.425000,43.140000
7596.385562,306.477000,15.940000
7601.920769,306.529000,-48.870000
7607.454098,306.581000,12.040000
7612.879195,306.632000,6.140000
7618.408808,306.684000,1.570000
7623.936546,306.736000,-10.110000
7629.462411,306.788000,4.200000
7634.880189,306.839000,-4.370000
7640.402345,306.891000,-49.220000
7645.922629,306.943000,-32.760000
7651.334938,306.994000,-232.970000
7656.851519,307.046000,-9.580000
7662.260197,307.097000,-28.810000
7667.773079,307.149000,9.000000
7673.284094,307.201000,32.310000
7678.687317,307.252000,13.980000
7684.194638,307.304000,-16.390000
7689.700096,307.356000,-12.460000
7695.097870,307.407000,38.810000
7700.599639,307.459000,-3.730000
7705.993798,307.510000,5.530000
7711.491883,307.562000,-83.390000
7716.882430,307.613000,-27.700000
7722.376833,307.665000,-2.290000
7727.763772,307.716000,-15.320000
7733.254498,307.768000,-15.720000
7738.637831,307.819000,21.740000
7744.124884,307.871000,8.240000
7749.504617,307.922000,42.720000
7754.988000,307.974000,27.760000
7760.364134,308.025000,-64.040000
7765.738489,308.076000,18.410000
7771.216392,308.128000,183.380000
7776.587155,308.179000,157.080000
7782.061397,308.231000,17.780000
7787.428571,308.282000,31.830000
7792.793970,308.333000,-46.030000
7798.262745,308.385000,5.090000
7803.624561,308.436000,8.290000
7808.984603,308.487000,75.660000
7814.447920,308.539000,10.360000
7819.804385,308.590000,22.070000
7825.159080,308.641000,14.670000
7830.616947,308.693000,28.590000
7835.968069,308.744000,-65.730000
7841.317424,308.795000,-11.950000
7846.665012,308.846000,4.080000
7852.115636,308.898000,7.050000
7857.459659,308.949000,-18.550000
7862.801917,309.000000,-50.670000
7868.142413,309.051000,-45.470000
7873.481146,309.102000,-2.530000
7878.922746,309.154000,-14.420000
7884.257923,309.205000,-2.810000
7889.591340,309.256000,-6.920000
7894.922998,309.307000,26.710000
7900.252898,309.358000,28.080000
7905.581041,309.409000,51.170000
7910.907428,309.460000,24.070000
7916.336447,309.512000,-10.790000
7921.659290,309.563000,0.070000
7926.980379,309.614000,-23.170000
7932.299715,309.665000,-12.540000
7937.617300,309.716000,13.120000
7942.933134,309.767000,30.090000
7948.247217,309.818000,-10.070000
7953.559551,309.869000,9.490000
7958.870137,309.920000,4.220000
7964.178976,309.971000,2.480000
7969.486068,310.022000,18.150000
7974.791414,310.073000,10.750000
7980.095015,310.124000,-36.570000
7985.396872,310.175000,-20.150000
7990.696985,310.226000,-9.750000
7995.995357,310.277000,-29.250000
8001.291987,310.328000,63.190000
8006.586876,310.379000,127.330000
8011.880026,310.430000,40.860000
8017.067700,310.480000,3.880000
8022.357406,310.531000,30.830000
8027.645376,310.582000,40.930000
8032.931609,310.633000,-47.450000
8038.216106,310.684000,-143.660000
8043.498869,310.735000,-130.860000
8048.779898,310.786000,-117.450000
8053.955695,310.836000,-7.850000
8059.233293,310.887000,15.320000
8064.509160,310.938000,-46.170000
8069.783296,310.989000,15.360000
8074.952339,311.039000,-20.610000
8080.223051,311.090000,-180.930000
8085.492035,311.141000,-83.270000
8090.759292,311.192000,-251.790000
8095.921594,311.242000,-175.350000
8101.185433,311.293000,-24.480000
8106.447548,311.344000,15.060000
8111.604811,311.394000,18.150000
8116.863513,311.445000,6.620000
8122.120493,311.496000,39.780000
8127.272724,311.546000,5.920000
8132.526297,311.597000,42.060000
8137.778150,311.648000,50.090000
8142.925357,311.698000,55.380000
8148.173807,311.749000,-17.600000
8153.420541,311.800000,-269.580000
8158.562731,311.850000,-231.440000
8163.806066,311.901000,-25.070000
8168.944927,311.951000,11.700000
8174.184869,312.002000,-23.240000
8179.320403,312.052000,-65.390000
8184.556953,312.103000,-14.220000
8189.689165,312.153000,-20.130000
8194.922327,312.204000,-95.050000
8200.051219,312.254000,-2.170000
8205.280996,312.305000,-16.830000
8210.406572,312.355000,54.510000
8215.632968,312.406000,120.730000
8220.755230,312.456000,36.230000
8225.978248,312.507000,-0.980000
8231.097200,312.557000,-9.370000
8236.316843,312.608000,-40.350000
8241.432488,312.658000,15.660000
8246.546497,312.708000,3.340000
8251.761101,312.759000,22.670000
8256.871808,312.809000,-8.990000
8261.980881,312.859000,-59.440000
8267.190453,312.910000,262.960000
8272.296229,312.960000,61.260000
8277.400373,313.010000,304.670000
8282.604921,313.061000,4.800000
8287.705773,313.111000,-35.800000
8292.804996,313.161000,-77.690000
8298.004526,313.212000,-18.510000
8303.100462,313.262000,-46.050000
8308.194770,313.312000,-9.730000
8313.287453,313.362000,-20.330000
8318.480316,313.413000,39.250000
8323.569717,313.463000,-8.260000
8328.657496,313.513000,-16.430000
8333.743651,313.563000,-25.300000
8338.828185,313.613000,-38.560000
8344.012739,313.664000,2.360000
8349.094000,313.714000,19.750000
8354.173640,313.764000,30.270000
8359.251662,313.814000,22.760000
8364.328066,313.864000,6.640000
8369.402853,313.914000,113.930000
8374.476024,313.964000,223.850000
8379.547579,314.014000,47.530000
8384.718901,314.065000,-11.710000
8389.787195,314.115000,-14.290000
8394.853876,314.165000,-83.210000
8399.918944,314.215000,-95.840000
8404.982400,314.265000,-15.060000
8410.044246,314.315000,-18.220000
8415.104481,314.365000,-40.730000
8420.163107,314.415000,-21.060000
8425.220124,314.465000,-16.150000
8430.275533,314.515000,-47.680000
8435.329336,314.565000,-10.210000
8440.381532,314.615000,18.030000
8445.432122,314.665000,2.010000
8450.481107,314.715000,34.310000
8455.528489,314.765000,-18.690000
8460.473367,314.814000,-8.340000
8465.517575,314.864000,48.480000
8470.560181,314.914000,0.400000
8475.601186,314.964000,-17.780000
8480.640590,315.014000,42.040000
8485.678395,315.064000,40.720000
8490.714602,315.114000,16.760000
8495.749210,315.164000,12.950000
8500.681577,315.213000,-20.930000
8505.713024,315.263000,18.400000
8510.742875,315.313000,11.770000
8515.771131,315.363000,15.780000
8520.797793,315.413000,25.600000
8525.722375,315.462000,-14.860000
8530.745883,315.512000,-36.490000
8535.767799,315.562000,-35.010000
8540.788124,315.612000,-0.250000
8545.706499,315.661000,-15.040000
8550.723675,315.711000,-9.740000
8555.739262,315.761000,10.530000
8560.652997,315.810000,17.730000
8565.665441,315.860000,16.820000
8570.676298,315.910000,46.200000
8575.585399,315.959000,55.790000
8580.593116,316.009000,9.860000
8585.599249,316.059000,-72.630000
8590.503723,316.108000,-58.550000
8595.506721,316.158000,-6.160000
8600.508137,316.208000,-2.570000
8605.407991,316.257000,-20.120000
8610.406276,316.307000,-44.120000
8615.303063,316.356000,-25.050000
8620.298221,316.406000,7.200000
8625.191944,316.455000,31.060000
8630.183977,316.505000,20.070000
8635.074640,316.554000,7.330000
8640.063551,316.604000,19.010000
8644.951156,316.653000,66.300000
8649.936949,316.703000,1.910000
8654.821499,316.752000,-165.690000
8659.804175,316.802000,-60.660000
8664.685673,316.851000,69.880000
8669.665237,316.901000,-3.560000
8674.543685,316.950000,249.670000
8679.520139,317.000000,563.530000
8684.395541,317.049000,497.110000
8689.269436,317.098000,262.980000
8694.241247,317.148000,228.980000
8699.112100,317.197000,566.600000
8703.981448,317.246000,29.370000
8708.948621,317.296000,13.740000
8713.814931,317.345000,3.700000
8718.779005,317.395000,8.130000
8723.642281,317.444000,8.400000
8728.504055,317.493000,-16.540000
8733.364329,317.542000,-22.440000
8738.322247,317.592000,0.160000
8743.179491,317.641000,3.880000
8748.035237,317.690000,37.000000
8752.889486,317.739000,17.540000
8757.841258,317.789000,53.530000
8762.692483,317.838000,60.930000
8767.542212,317.887000,-6.930000
8772.390446,317.936000,-68.380000
8777.336084,317.986000,-98.870000
8782.181300,318.035000,-114.240000
8787.025024,318.084000,-108.040000
8791.867255,318.133000,-98.630000
8796.707995,318.182000,-22.820000
8801.547244,318.231000,-4.480000
8806.385003,318.280000,11.070000
8811.319957,318.330000,9.910000
8816.154708,318.379000,-161.770000
8820.987971,318.428000,-171.400000
8825.819746,318.477000,9.790000
8830.650035,318.526000,51.750000
8835.478838,318.575000,175.990000
8840.306156,318.624000,-2.500000
8845.131990,318.673000,-31.310000
8849.956339,318.722000,-8.560000
8854.779206,318.771000,-10.530000
8859.600590,318.820000,17.630000
8864.420492,318.869000,-1.540000
8869.238913,318.918000,10.430000
8874.055854,318.967000,40.940000
8878.871314,319.016000,6.170000
8883.685296,319.065000,-40.200000
8888.497800,319.114000,-11.030000
8893.308826,319.163000,-4.680000
8898.118374,319.212000,95.770000
8902.926447,319.261000,73.120000
8907.634964,319.309000,68.460000
8912.440116,319.358000,65.960000
8917.243794,319.407000,-70.450000
8922.045998,319.456000,33.000000
8926.846729,319.505000,-26.650000
8931.645988,319.554000,-26.810000
8936.443775,319.603000,25.710000
8941.142222,319.651000,29.040000
8945.937098,319.700000,8.000000
8950.730504,319.749000,-102.900000
8955.522441,319.798000,-17.050000
8960.215161,319.846000,-63.470000
8965.004192,319.895000,-12.840000
8969.791757,319.944000,-29.330000
8974.577855,319.993000,-29.200000
8979.264858,320.041000,-1.750000
8984.048055,320.090000,-43.260000
8988.829789,320.139000,-7.820000
8993.512517,320.187000,-14.960000
8998.291355,320.236000,42.850000
9003.068730,320.285000,10.200000
9007.747190,320.333000,-38.650000
9012.521672,320.382000,-14.340000
9017.294694,320.431000,0.840000
9021.968893,320.479000,37.460000
9026.739026,320.528000,83.280000
9031.410396,320.576000,3.230000
9036.177644,320.625000,-3.490000
9040.943434,320.674000,-53.980000
9045.610552,320.722000,10.800000
9050.373460,320.771000,206.660000
9055.037756,320.819000,56.010000
9059.797784,320.868000,6.660000
9064.459261,320.916000,-13.580000
9069.216413,320.965000,47.430000
9073.875072,321.013000,15.390000
9078.629350,321.062000,20.010000
9083.285194,321.110000,-3.920000
9088.036601,321.159000,-11.360000
9092.689634,321.207000,-47.070000
9097.438171,321.256000,-13.380000
9102.088394,321.304000,106.770000
9106.737229,321.352000,22.660000
9111.481482,321.401000,-34.850000
9116.127511,321.449000,-0.310000
9120.868902,321.498000,-21.840000
9125.512128,321.546000,12.330000
9130.153968,321.594000,33.950000
9134.891085,321.643000,-16.520000
9139.530126,321.691000,-38.390000
9144.167783,321.739000,12.490000
9148.900630,321.788000,-4.890000
9153.535492,321.836000,9.240000
9158.168971,321.884000,12.660000
9162.801069,321.932000,12.420000
9167.528244,321.981000,194.990000
9172.157551,322.029000,80.980000
9176.785479,322.077000,14.410000
9181.412027,322.125000,-4.930000
9186.133540,322.174000,17.780000
9190.757302,322.222000,50.620000
9195.379688,322.270000,7.620000
9200.000697,322.318000,30.740000
9204.620330,322.366000,33.430000
9209.334786,322.415000,-0.410000
9213.951640,322.463000,4.930000
9218.567119,322.511000,-22.930000
9223.181225,322.559000,10.090000
9227.793957,322.607000,216.580000
9232.405318,322.655000,78.630000
9237.015306,322.703000,67.100000
9241.623923,322.751000,2.510000
9246.231170,322.799000,-40.160000
9250.932988,322.848000,-6.970000
9255.537466,322.896000,20.220000
9260.140576,322.944000,67.790000
9264.742318,322.992000,123.380000
9269.342693,323.040000,37.270000
9273.941700,323.088000,-2.910000
9278.539341,323.136000,47.170000
9283.135616,323.184000,55.750000
9287.730527,323.232000,53.610000
9292.324072,323.280000,55.200000
9296.916254,323.328000,-17.260000
9301.411445,323.375000,15.430000
9306.000929,323.423000,-21.670000
9310.589052,323.471000,6.010000
9315.175812,323.519000,29.420000
9319.761212,323.567000,-20.190000
9324.345252,323.615000,24.770000
9328.927932,323.663000,32.650000
9333.509253,323.711000,35.510000
9338.089216,323.759000,34.800000
9342.572447,323.806000,-16.520000
9347.149722,323.854000,-1.240000
9351.725642,323.902000,12.870000
9356.300205,323.950000,36.540000
9360.873412,323.998000,-25.650000
9365.350032,324.045000,-11.530000
9369.920559,324.093000,15.780000
9374.489732,324.141000,25.430000
9379.057552,324.189000,100.940000
9383.528899,324.236000,29.720000
9388.094043,324.284000,37.240000
9392.657836,324.332000,7.240000
9397.125241,324.379000,-91.620000
9401.686361,324.427000,-3.520000
9406.246132,324.475000,-1.660000
9410.804554,324.523000,-2.880000
9415.266702,324.570000,-55.460000
9419.822456,324.618000,-57.300000
9424.281993,324.665000,62.440000
9428.835082,324.713000,15.300000
9433.386824,324.761000,61.430000
9437.842435,324.808000,52.460000
9442.391516,324.856000,-109.890000
9446.844521,324.903000,12.550000
9451.390942,324.951000,22.750000
9455.936020,324.999000,1.800000
9460.385108,325.046000,23.130000
9464.927530,325.094000,44.600000
9469.374018,325.141000,49.540000
9473.913786,325.189000,48.760000
9478.357677,325.236000,100.400000
9482.894794,325.284000,80.180000
9487.336090,325.331000,79.590000
9491.870557,325.379000,561.980000
9496.309260,325.426000,212.000000
9500.746681,325.473000,15.900000
9505.277193,325.521000,-4.400000
9509.712024,325.568000,13.160000
9514.239893,325.616000,3.040000
9518.672137,325.663000,-13.860000
9523.103102,325.710000,-0.870000
9527.627024,325.758000,31.550000
9532.055405,325.805000,-20.860000
9536.576689,325.853000,-51.960000
9541.002489,325.900000,-25.760000
9545.427013,325.947000,-0.400000
9549.850260,325.994000,-4.140000
9554.366303,326.042000,-19.070000
9558.786974,326.089000,-17.920000
9563.206371,326.136000,-4.110000
9567.718482,326.184000,-79.850000
9572.135305,326.231000,-69.700000
9576.550855,326.278000,-53.290000
9580.965134,326.325000,-40.450000
9585.472021,326.373000,-26.940000
9589.883730,326.420000,14.340000
9594.294169,326.467000,-48.880000
9598.703338,326.514000,31.930000
9603.111238,326.561000,7.480000
9607.611614,326.609000,-51.540000
9612.016950,326.656000,-46.030000
9616.421019,326.703000,154.200000
9620.823821,326.750000,-40.360000
9625.225356,326.797000,22.800000
9629.625626,326.844000,143.460000
9634.024630,326.891000,9.030000
9638.422369,326.938000,-2.370000
9642.818845,326.985000,5.110000
9647.214056,327.032000,-43.560000
9651.701479,327.080000,-122.660000
9656.094138,327.127000,-37.530000
9660.485535,327.174000,-14.650000
9664.875670,327.221000,9.250000
9669.264544,327.268000,29.020000
9673.652158,327.315000,219.550000
9678.038512,327.362000,265.890000
9682.423607,327.409000,28.690000
9686.807443,327.456000,223.400000
9691.190021,327.503000,79.100000
9695.478134,327.549000,-3.280000
9699.858224,327.596000,63.380000
9704.237057,327.643000,-5.490000
9708.614633,327.690000,29.740000
9712.990955,327.737000,214.760000
9717.366021,327.784000,292.190000
9721.739833,327.831000,2.980000
9726.112390,327.878000,11.890000
9730.483695,327.925000,-39.660000
9734.760780,327.971000,-5.940000
9739.129606,328.018000,-27.060000
9743.497180,328.065000,11.520000
9747.863503,328.112000,4.430000
9752.228575,328.159000,-11.290000
9756.499562,328.205000,85.660000
9760.862161,328.252000,-0.050000
9765.223511,328.299000,12.260000
9769.583612,328.346000,-8.920000
9773.849737,328.392000,-0.700000
9778.207369,328.439000,16.380000
9782.563754,328.486000,19.840000
9786.918893,328.533000,-30.120000
9791.180163,328.579000,-43.650000
9795.532837,328.626000,10.260000
9799.884266,328.673000,55.950000
9804.141906,328.719000,48.500000
9808.490874,328.766000,132.070000
9812.838598,328.813000,97.290000
9817.092614,328.859000,-36.540000
9821.437879,328.906000,-17.390000
9825.689490,328.952000,-18.550000
9830.032299,328.999000,-36.970000
9834.373868,329.046000,-15.320000
9838.621862,329.092000,-18.830000
9842.960977,329.139000,111.380000
9847.206571,329.185000,-20.320000
9851.543235,329.232000,-64.470000
9855.786431,329.278000,-26.330000
9860.120646,329.325000,-0.120000
9864.361446,329.371000,-16.220000
9868.693214,329.418000,24.090000
9872.931619,329.464000,26.430000
9877.260942,329.511000,27.620000
9881.496956,329.557000,81.270000
9885.823836,329.604000,137.680000
9890.057460,329.650000,41.760000
9894.289903,329.696000,-11.100000
9898.613135,329.743000,-39.190000
9902.843191,329.789000,17.790000
9907.163985,329.836000,-4.250000
9911.391656,329.882000,60.640000
9915.618148,329.928000,18.100000
9919.935303,329.975000,34.460000
9924.159413,330.021000,14.290000
9928.382346,330.067000,-37.020000
9932.695866,330.114000,-48.420000
9936.916419,330.160000,-8.290000
9941.135797,330.206000,-27.960000
9945.445687,330.253000,3.860000
9949.662689,330.299000,10.670000
9953.878516,330.345000,1.340000
9958.093170,330.391000,-0.430000
9962.398234,330.438000,-18.300000
9966.610516,330.484000,-6.520000
9970.821625,330.530000,-5.330000
9975.031562,330.576000,31.250000
9979.240328,330.622000,-9.560000
9983.539380,330.669000,49.960000
9987.745778,330.715000,2.960000
9991.951007,330.761000,7.720000
9996.155067,330.807000,-21.190000
10000.357957,330.853000,30.050000
10004.559679,330.899000,56.580000
10008.760233,330.945000,-37.970000
10013.050897,330.992000,-195.160000
10017.249091,331.038000,-71.060000
10021.446118,331.084000,4.080000
10025.641979,331.130000,17.270000
10029.836675,331.176000,6.320000
10034.030205,331.222000,-20.010000
10038.222571,331.268000,-1.880000
10042.413773,331.314000,33.390000
10046.603811,331.360000,82.140000
10050.792686,331.406000,-0.190000
10054.980398,331.452000,-41.110000
10059.166948,331.498000,-26.140000
10063.352336,331.544000,21.370000
10067.536563,331.590000,2.220000
10071.719629,331.636000,-20.950000
10075.901535,331.682000,7.310000
10080.082281,331.728000,0.860000
10084.261868,331.774000,1.780000
10088.440296,331.820000,37.470000
10092.526768,331.865000,53.560000
10096.702905,331.911000,-16.780000
10100.877884,331.957000,-24.200000
10105.051707,332.003000,-13.430000
10109.224373,332.049000,-22.270000
10113.395884,332.095000,61.470000
10117.475591,332.140000,271.750000
10121.644816,332.186000,99.200000
10125.812886,332.232000,-4.400000
10129.979802,332.278000,5.980000
10134.145565,332.324000,27.530000
10138.219652,332.369000,28.790000
10142.383134,332.415000,113.860000
10146.545464,332.461000,-4.120000
10150.706643,332.507000,-15.340000
10154.776247,332.552000,18.460000
10158.935148,332.598000,-1.990000
10163.092900,332.644000,-8.400000
10167.159152,332.689000,23.840000
10171.314630,332.735000,5.120000
10175.468958,332.781000,28.710000
10179.531864,332.826000,27.370000
10183.683921,332.872000,-3.020000
10187.834831,332.918000,-17.890000
10191.894393,332.963000,11.900000
10196.043035,333.009000,16.540000
10200.190530,333.055000,22.020000
10204.246754,333.100000,37.060000
10208.391984,333.146000,-5.700000
10212.445992,333.191000,-0.270000
10216.588958,333.237000,-7.540000
10220.640753,333.282000,-34.480000
10224.781457,333.328000,-11.890000
10228.831039,333.373000,29.910000
10232.969483,333.419000,42.220000
10237.016856,333.464000,38.230000
10241.153042,333.510000,23.120000
10245.198206,333.555000,7.920000
10249.332135,333.601000,-37.640000
10253.375094,333.646000,-14.590000
10257.506768,333.692000,155.830000
10261.547522,333.737000,34.660000
10265.587186,333.782000,82.670000
10269.715494,333.828000,21.140000
10273.752956,333.873000,-5.710000
10277.879015,333.919000,-1.940000
10281.914277,333.964000,-41.010000
10285.948452,334.009000,-17.080000
10290.071151,334.055000,38.960000
10294.103128,334.100000,-10.620000
10298.134020,334.145000,13.720000
10302.253364,334.191000,43.250000
10306.282060,334.236000,-110.870000
10310.309672,334.281000,99.170000
10314.425666,334.327000,0.820000
10318.451085,334.372000,-30.090000
10322.475422,334.417000,-42.550000
10326.498675,334.462000,194.890000
10330.610215,334.508000,25.220000
10334.631280,334.553000,-6.300000
10338.651263,334.598000,-26.650000
10342.670165,334.643000,25.720000
10346.687987,334.688000,44.770000
10350.704728,334.733000,24.120000
10354.809614,334.779000,-14.780000
10358.824172,334.824000,-12.620000
10362.837651,334.869000,-94.300000
10366.850051,334.914000,-175.630000
10370.861373,334.959000,0.230000
10374.871618,335.004000,6.550000
10378.880786,335.049000,-20.340000
10382.888876,335.094000,-8.650000
10386.984923,335.140000,-20.600000
10390.990838,335.185000,127.970000
10394.995677,335.230000,166.270000
10398.999440,335.275000,216.430000
10403.002130,335.320000,-90.160000
10407.003745,335.365000,59.350000
10411.004286,335.410000,201.690000
10415.003755,335.455000,298.380000
10419.002150,335.500000,-226.000000
10422.999473,335.545000,-169.090000
10426.995723,335.590000,-32.230000
10430.990902,335.635000,-28.260000
10434.985010,335.680000,87.670000
10438.889325,335.724000,60.410000
10442.881316,335.769000,23.640000
10446.872237,335.814000,43.620000
10450.862088,335.859000,-5.810000
10454.850871,335.904000,-40.400000
10458.838585,335.949000,-4.250000
10462.825230,335.994000,69.350000
10466.810808,336.039000,12.710000
10470.706786,336.083000,30.460000
10474.690253,336.128000,78.740000
10478.672654,336.173000,352.660000
10482.653989,336.218000,124.640000
10486.634259,336.263000,7.730000
10490.525048,336.307000,3.950000
10494.503211,336.352000,14.770000
10498.480310,336.397000,40.490000
10502.456345,336.442000,-13.650000
10506.342995,336.486000,61.690000
10510.316927,336.531000,54.410000
10514.289797,336.576000,-19.640000
10518.261604,336.621000,-17.640000
10522.144122,336.665000,101.930000
10526.113830,336.710000,48.070000
10530.082477,336.755000,42.310000
10533.961906,336.799000,37.130000
10537.928455,336.844000,9.310000
10541.893946,336.889000,-29.210000
10545.770289,336.933000,21.220000
10549.733685,336.978000,-8.390000
10553.607982,337.022000,6.120000
10557.569284,337.067000,-12.730000
10561.529529,337.112000,28.620000
10565.400747,337.156000,7.710000
10569.358902,337.201000,12.080000
10573.228076,337.245000,9.560000
10577.184142,337.290000,45.030000
10581.051275,337.334000,82.960000
10585.005254,337.379000,64.370000
10588.870347,337.423000,6.140000
10592.822240,337.468000,29.870000
10596.685295,337.512000,40.050000
10600.635105,337.557000,60.030000
10604.496123,337.601000,172.560000
10608.443850,337.646000,88.990000
10612.302834,337.690000,114.870000
10616.160811,337.734000,145.190000
10620.105430,337.779000,151.830000
10623.961375,337.823000,252.850000
10627.903916,337.868000,179.000000
10631.757830,337.912000,215.630000
10635.610740,337.956000,345.170000
10639.550179,338.001000,445.810000
10643.401061,338.045000,481.240000
10647.250940,338.089000,465.900000
10651.187281,338.134000,480.730000
10655.035134,338.178000,559.060000
10658.881986,338.222000,500.840000
10662.815231,338.267000,573.960000
10666.660059,338.311000,548.530000
10670.503887,338.355000,514.870000
10674.346716,338.399000,525.400000
10678.275848,338.444000,570.400000
10682.116656,338.488000,607.890000
10685.956465,338.532000,540.870000
10689.795276,338.576000,520.830000
10693.633090,338.620000,537.200000
10697.557096,338.665000,482.300000
10701.392893,338.709000,486.500000
10705.227693,338.753000,503.550000
10709.061498,338.797000,512.020000
10712.894307,338.841000,514.390000
10716.726120,338.885000,457.190000
10720.556939,338.929000,517.800000
10724.386763,338.973000,560.340000
10728.302601,339.018000,535.770000
10732.130414,339.062000,528.070000
10735.957235,339.106000,468.060000
10739.783062,339.150000,256.610000
10743.607897,339.194000,131.820000
10747.431740,339.238000,282.410000
10751.254591,339.282000,478.630000
10755.076450,339.326000,517.660000
10758.897319,339.370000,505.130000
10762.717197,339.414000,525.740000
10766.536084,339.458000,517.480000
10770.353982,339.502000,543.500000
10774.170890,339.546000,594.470000
10777.986809,339.590000,528.880000
10781.801740,339.634000,504.070000
10785.615682,339.678000,493.650000
10789.341989,339.721000,500.380000
10793.153978,339.765000,487.060000
10796.964980,339.809000,544.340000
10800.774995,339.853000,518.640000
10804.584024,339.897000,500.900000
10808.392066,339.941000,487.940000
10812.199123,339.985000,525.670000
10816.005195,340.029000,527.920000
10819.723813,340.072000,719.560000
10823.527938,340.116000,557.850000
10827.331078,340.160000,553.130000
10831.133235,340.204000,576.390000
10834.848029,340.247000,537.900000
10838.648242,340.291000,532.910000
10842.447472,340.335000,512.070000
10846.245720,340.379000,514.790000
10849.956695,340.422000,540.810000
10853.753002,340.466000,804.090000
10857.548328,340.510000,536.300000
10861.342673,340.554000,525.770000
10865.049836,340.597000,515.460000
10868.842243,340.641000,283.520000
10872.633670,340.685000,497.110000
10876.337983,340.728000,548.990000
10880.127474,340.772000,603.130000
10883.829896,340.815000,622.180000
10887.617453,340.859000,546.900000
10891.404033,340.903000,508.390000
10895.103609,340.946000,517.140000
10898.888257,340.990000,432.450000
10902.585946,341.033000,483.920000
10906.368663,341.077000,529.320000
10910.150404,341.121000,518.700000
10913.845254,341.164000,548.910000
10917.625066,341.208000,505.740000
10921.318033,341.251000,468.940000
10925.095918,341.295000,413.110000
10928.787002,341.338000,406.390000
10932.562962,341.382000,506.140000
10936.252165,341.425000,716.400000
10939.940439,341.468000,645.040000
10943.713524,341.512000,574.630000
10947.399919,341.555000,539.540000
10951.171083,341.599000,481.050000
10954.855601,341.642000,450.350000
10958.624845,341.686000,433.490000
10962.307486,341.729000,497.610000
10965.989201,341.772000,494.890000
10969.755578,341.816000,531.540000
10973.435419,341.859000,550.870000
10977.114334,341.902000,536.250000
10980.877848,341.946000,537.380000
10984.554892,341.989000,521.650000
10988.231011,342.032000,511.910000
10991.991665,342.076000,502.250000
10995.665914,342.119000,531.120000
10999.339240,342.162000,540.320000
11003.011643,342.205000,508.240000
11006.768496,342.249000,603.700000
11010.439032,342.292000,560.770000
11014.108646,342.335000,475.320000
11017.777338,342.378000,446.010000
11021.530396,342.422000,432.500000
11025.197224,342.465000,485.950000
11028.863132,342.508000,486.060000
11032.528119,342.551000,365.190000
11036.192187,342.594000,-22.000000
11039.855335,342.637000,-63.020000
11043.602720,342.681000,468.100000
11047.264009,342.724000,456.030000
11050.924378,342.767000,468.730000
11054.583829,342.810000,465.730000
11058.242363,342.853000,511.780000
11061.899979,342.896000,448.630000
11065.556677,342.939000,447.450000
11069.212459,342.982000,447.250000
11072.867324,343.025000,409.990000
11076.521273,343.068000,494.630000
11080.174306,343.111000,447.370000
11083.826423,343.154000,512.080000
11087.477626,343.197000,475.500000
11091.127913,343.240000,484.440000
11094.777286,343.283000,507.350000
11098.425745,343.326000,494.170000
11102.073291,343.369000,501.790000
11105.719922,343.412000,547.630000
11109.365641,343.455000,487.880000
11113.010447,343.498000,507.360000
11116.654340,343.541000,524.650000
11120.297322,343.584000,532.740000
11123.939391,343.627000,548.900000
11127.580549,343.670000,536.430000
11131.220797,343.713000,523.870000
11134.775508,343.755000,543.390000
11138.413955,343.798000,673.720000
11142.051492,343.841000,540.860000
11145.688120,343.884000,495.410000
11149.323838,343.927000,498.250000
11152.958647,343.970000,474.120000
11156.508049,344.012000,481.040000
11160.141062,344.055000,443.170000
11163.773167,344.098000,501.980000
11167.404365,344.141000,395.760000
11170.950240,344.183000,467.170000
11174.579645,344.226000,517.610000
11178.208143,344.269000,512.640000
11181.751382,344.311000,503.950000
11185.378088,344.354000,494.130000
11189.003889,344.397000,522.760000
11192.628785,344.440000,428.820000
11196.168507,344.482000,374.320000
11199.791614,344.525000,464.780000
11203.413817,344.568000,461.850000
11206.950910,344.610000,501.270000
11210.571327,344.653000,516.130000
11214.106675,344.695000,500.340000
11217.725306,344.738000,493.350000
11221.343035,344.781000,407.620000
11224.875759,344.823000,531.800000
11228.491704,344.866000,480.110000
11232.022687,344.908000,479.900000
11235.636851,344.951000,493.840000
11239.166094,344.993000,478.280000
11242.778477,345.036000,19.740000
11246.305982,345.078000,43.190000
11249.916585,345.121000,260.960000
11253.442353,345.163000,615.650000
11257.051178,345.206000,395.650000
11260.575210,345.248000,549.060000
11264.182259,345.291000,495.290000
11267.704555,345.333000,383.760000
11271.309829,345.376000,462.570000
11274.830392,345.418000,467.920000
11278.350100,345.460000,467.830000
11281.952723,345.503000,465.340000
11285.470699,345.545000,473.420000
11288.987820,345.587000,464.300000
11292.587796,345.630000,492.790000
11296.103187,345.672000,439.240000
11299.701393,345.715000,474.530000
11303.215056,345.757000,368.460000
11306.727865,345.799000,445.600000
11310.239821,345.841000,462.240000
11313.834512,345.884000,502.770000
11317.344742,345.926000,505.560000
11320.854120,345.968000,567.670000
11324.446172,346.011000,563.900000
11327.953826,346.053000,479.980000
11331.460629,346.095000,502.280000
11334.966581,346.137000,469.930000
11338.471682,346.179000,490.340000
11342.059357,346.222000,446.470000
11345.562737,346.264000,421.310000
11349.065268,346.306000,469.190000
11352.566949,346.348000,513.730000
11356.067781,346.390000,470.020000
11359.567764,346.432000,312.360000
11363.150201,346.475000,447.290000
11366.648467,346.517000,277.710000
11370.145885,346.559000,428.690000
11373.642456,346.601000,465.260000
11377.138179,346.643000,458.010000
11380.633055,346.685000,436.400000
11384.127085,346.727000,463.350000
11387.620268,346.769000,480.540000
11391.112605,346.811000,491.140000
11394.604096,346.853000,449.940000
11398.094742,346.895000,262.100000
11401.584543,346.937000,498.580000
11405.073499,346.979000,465.990000
11408.561610,347.021000,437.910000
11412.048877,347.063000,329.980000
11415.535301,347.105000,325.640000
11419.020880,347.147000,516.560000
11422.505617,347.189000,606.670000
11425.989510,347.231000,485.730000
11429.472560,347.273000,443.520000
11432.954769,347.315000,397.870000
11436.436135,347.357000,474.410000
11439.916659,347.399000,550.970000
11443.313502,347.440000,560.700000
11446.792364,347.482000,535.480000
11450.270384,347.524000,500.660000
11453.747565,347.566000,850.620000
11457.223905,347.608000,579.000000
11460.699405,347.650000,500.500000
11464.091345,347.691000,498.240000
11467.565186,347.733000,532.660000
11471.038188,347.775000,469.170000
11474.510351,347.817000,440.030000
11477.981676,347.859000,476.370000
11481.369541,347.900000,384.150000
11484.839210,347.942000,465.320000
11488.308041,347.984000,489.260000
11491.693473,348.025000,473.910000
11495.160650,348.067000,487.490000
11498.626991,348.109000,510.190000
11502.092494,348.151000,542.140000
11505.474680,348.192000,565.180000
11508.938532,348.234000,514.820000
11512.401549,348.276000,503.440000
11515.781307,348.317000,603.200000
11519.242673,348.359000,486.120000
11522.620821,348.400000,354.460000
11526.080539,348.442000,62.290000
11529.539422,348.484000,440.740000
11532.915148,348.525000,369.210000
11536.372384,348.567000,510.720000
11539.746502,348.608000,517.670000
11543.202092,348.650000,470.020000
11546.574604,348.691000,464.570000
11550.028550,348.733000,479.610000
11553.399456,348.774000,482.700000
11556.851758,348.816000,579.580000
11560.221061,348.857000,610.420000
11563.671720,348.899000,553.210000
11567.039420,348.940000,418.620000
11570.488439,348.982000,478.200000
11573.854537,349.023000,527.880000
11577.301915,349.065000,474.540000
11580.666413,349.106000,464.990000
11584.030120,349.147000,483.760000
11587.475051,349.189000,575.590000
11590.837159,349.230000,463.810000
11594.280452,349.272000,459.600000
11597.640963,349.313000,533.860000
11601.000686,349.354000,337.490000
11604.441535,349.396000,145.970000
11607.799661,349.437000,292.540000
11611.157000,349.478000,310.610000
11614.595408,349.520000,427.530000
11617.951152,349.561000,454.580000
11621.306109,349.602000,480.340000
11624.660280,349.643000,455.740000
11628.095443,349.685000,429.220000
11631.448022,349.726000,428.730000
11634.799814,349.767000,452.710000
11638.150821,349.808000,782.190000
11641.582745,349.850000,519.920000
11644.932162,349.891000,484.430000
11648.280794,349.932000,450.880000
11651.628641,349.973000,462.170000
11654.975704,350.014000,473.810000
11658.403590,350.056000,465.410000
11661.749066,350.097000,444.580000
11665.093759,350.138000,501.020000
11668.437668,350.179000,492.630000
11671.780795,350.220000,458.710000
11675.123139,350.261000,455.780000
11678.464700,350.302000,447.990000
11681.805480,350.343000,567.930000
11685.145477,350.384000,490.020000
11688.484693,350.425000,478.110000
11691.904543,350.467000,436.100000
11695.242178,350.508000,439.090000
11698.579032,350.549000,426.030000
11701.915105,350.590000,428.250000
11705.250398,350.631000,457.660000
11708.584912,350.672000,448.780000
11711.918645,350.713000,428.190000
11715.251600,350.754000,431.490000
11718.502512,350.794000,583.990000
11721.833927,350.835000,462.690000
11725.164564,350.876000,435.750000
11728.494422,350.917000,444.720000
11731.823503,350.958000,414.600000
11735.151806,350.999000,233.510000
11738.479331,351.040000,268.250000
11741.806079,351.081000,396.320000
11745.132050,351.122000,433.200000
11748.457245,351.163000,439.150000
11751.700589,351.203000,364.200000
11755.024250,351.244000,176.180000
11758.347135,351.285000,359.660000
11761.669245,351.326000,406.880000
11764.990579,351.367000,463.950000
11768.230159,351.407000,548.510000
11771.549962,351.448000,582.380000
11774.868991,351.489000,469.350000
11778.187246,351.530000,413.420000
11781.423822,351.570000,434.060000
11784.740548,351.611000,454.100000
11788.056500,351.652000,344.990000
11791.371680,351.693000,455.370000
11794.605256,351.733000,437.210000
11797.918909,351.774000,504.520000
11801.231790,351.815000,465.530000
11804.463124,351.855000,467.700000
11807.774479,351.896000,443.800000
11811.085063,351.937000,495.150000
11814.314158,351.977000,441.560000
11817.623218,352.018000,410.980000
11820.850827,352.058000,444.550000
11824.158365,352.099000,486.330000
11827.465133,352.140000,333.380000
11830.690506,352.180000,402.150000
11833.995753,352.221000,256.490000
11837.219643,352.261000,295.060000
11840.523370,352.302000,275.350000
11843.745778,352.342000,441.970000
11847.047986,352.383000,474.190000
11850.268913,352.423000,438.460000
11853.569603,352.464000,441.700000
11856.789050,352.504000,431.680000
11860.088224,352.545000,514.710000
11863.306191,352.585000,345.490000
11866.603850,352.626000,382.300000
11869.820339,352.666000,475.960000
11873.116483,352.707000,443.990000
11876.331495,352.747000,367.820000
11879.545777,352.787000,-116.040000
11882.839661,352.828000,165.620000
11886.052468,352.868000,383.300000
11889.264547,352.908000,393.700000
11892.556173,352.949000,319.150000
11895.766777,352.989000,206.820000
11899.056892,353.030000,377.830000
11902.266024,353.070000,422.570000
11905.474429,353.110000,408.250000
11908.682107,353.150000,404.010000
11911.969223,353.191000,436.020000
11915.175430,353.231000,272.100000
11918.380911,353.271000,359.560000
11921.665775,353.312000,483.480000
11924.869787,353.352000,462.790000
11928.073073,353.392000,455.890000
11931.275634,353.432000,415.440000
11934.477470,353.472000,398.100000
11937.758600,353.513000,380.660000
11940.958969,353.553000,413.170000
11944.158614,353.593000,394.860000
11947.357536,353.633000,387.800000
11950.555733,353.673000,364.060000
11953.753208,353.713000,382.270000
11957.029868,353.754000,369.630000
11960.225879,353.794000,165.970000
11963.421166,353.834000,385.570000
11966.615732,353.874000,386.470000
11969.809575,353.914000,408.820000
11973.002696,353.954000,397.290000
11976.195096,353.994000,383.650000
11979.386774,354.034000,416.780000
11982.577731,354.074000,434.540000
11985.767968,354.114000,378.010000
11988.957483,354.154000,383.280000
11992.146279,354.194000,362.160000
11995.334354,354.234000,370.910000
11998.521709,354.274000,387.030000
12001.708345,354.314000,378.460000
12004.894261,354.354000,282.660000
12008.079458,354.394000,351.280000
12011.263936,354.434000,369.160000
12014.447695,354.474000,422.420000
12017.630736,354.514000,449.270000
12020.813059,354.554000,390.110000
12023.994663,354.594000,494.560000
12027.175550,354.634000,303.590000
12030.276224,354.673000,302.360000
12033.455694,354.713000,322.740000
12036.634448,354.753000,301.710000
12039.812484,354.793000,280.950000
12042.989804,354.833000,278.450000
12046.166408,354.873000,275.190000
12049.262907,354.912000,143.630000
12052.438097,354.952000,257.070000
12055.612571,354.992000,235.000000
12058.786330,355.032000,239.750000
12061.880056,355.071000,168.120000
12065.052403,355.111000,179.000000
12068.224035,355.151000,158.390000
12071.394953,355.191000,164.850000
12074.485910,355.230000,143.820000
12077.655418,355.270000,134.360000
12080.824212,355.310000,188.270000
12083.913100,355.349000,134.550000
12087.080485,355.389000,85.130000
12090.247158,355.429000,33.660000
12093.333977,355.468000,113.500000
12096.499242,355.508000,123.790000
12099.663795,355.548000,-5.840000
12102.748549,355.587000,0.780000
12105.911696,355.627000,0.470000
12108.995079,355.666000,3.430000
12112.156822,355.706000,0.580000
12115.317853,355.746000,1.690000
12118.399174,355.785000,2.790000
12121.558801,355.825000,0.190000
12124.638754,355.864000,2.940000
12127.796979,355.904000,0.920000
12130.875565,355.943000,-0.790000
12134.032389,355.983000,0.730000
12137.109608,356.022000,-1.070000
12140.265031,356.062000,2.540000
12143.340885,356.101000,-0.410000
12146.494908,356.141000,-1.590000
12149.569398,356.180000,0.610000
12152.643215,356.219000,-2.300000
12155.795149,356.259000,0.120000
12158.867603,356.298000,-0.530000
12162.018139,356.338000,-0.100000
12165.089231,356.377000,0.820000
12168.159651,356.416000,3.020000
12171.308101,356.456000,1.530000
12174.377160,356.495000,-0.600000
12177.445548,356.534000,1.910000
12180.591915,356.574000,-2.150000
12183.658943,356.613000,-1.480000
12186.725300,356.652000,-2.030000
12189.869585,356.692000,3.530000
12192.934585,356.731000,1.560000
12195.998914,356.770000,3.630000
12199.062573,356.809000,-3.220000
12202.204093,356.849000,3.750000
12205.266396,356.888000,1.340000
12208.328030,356.927000,0.180000
12211.388995,356.966000,3.210000
12214.527751,357.006000,0.910000
12217.587361,357.045000,0.920000
12220.646304,357.084000,-1.290000
12223.704578,357.123000,1.050000
12226.762184,357.162000,-2.150000
12229.819122,357.201000,1.170000
12232.953750,357.241000,3.280000
12236.009337,357.280000,-0.130000
12239.064257,357.319000,-1.960000
12242.118510,357.358000,-1.190000
12245.172096,357.397000,1.400000
12248.225016,357.436000,-0.810000
