raman_shift_cm-1,wavelength_nm,intensity
-311.444523,246.690000,0.000000
-300.766377,246.755000,0.000000
-290.093855,246.820000,-43.140000
-279.262891,246.886000,-79.440000
-268.601691,246.951000,-56.490000
-257.946101,247.016000,-85.390000
-247.296118,247.081000,-66.800000
-236.651737,247.146000,-64.400000
-226.012953,247.211000,-61.860000
-215.216219,247.277000,-45.610000
-204.588703,247.342000,-41.340000
-193.966771,247.407000,-64.450000
-183.350419,247.472000,-51.620000
-172.739643,247.537000,-54.810000
-162.134437,247.602000,-69.580000
-151.534799,247.667000,-69.170000
-140.940722,247.732000,-97.130000
-130.352203,247.797000,-86.840000
-119.769238,247.862000,-75.790000
-109.191822,247.927000,-62.630000
-98.619951,247.992000,-50.670000
-88.053621,248.057000,-39.290000
-77.655258,248.121000,-56.110000
-67.099910,248.186000,-103.040000
-56.550089,248.251000,-74.470000
-46.005792,248.316000,-50.050000
-35.467013,248.381000,-77.040000
-24.933749,248.446000,-60.140000
-14.405995,248.511000,-40.900000
-4.045586,248.575000,-37.380000
6.471245,248.640000,-63.900000
16.982580,248.705000,-76.730000
27.488421,248.770000,-52.450000
37.827271,248.834000,-56.360000
48.322224,248.899000,-54.810000
58.811696,248.964000,-51.850000
69.134442,249.028000,-81.540000
79.613052,249.093000,-72.840000
90.086194,249.158000,-78.630000
100.392873,249.222000,-94.410000
110.855177,249.287000,-57.510000
121.312027,249.352000,-61.770000
131.602677,249.416000,-77.670000
142.048715,249.481000,-64.240000
152.328727,249.545000,-96.680000
162.763968,249.610000,-77.480000
173.033359,249.674000,-80.270000
183.457821,249.739000,-82.960000
193.716607,249.803000,-32.810000
204.130307,249.868000,-59.170000
214.378504,249.932000,-3.310000
224.781458,249.997000,1.410000
235.019083,250.061000,-0.110000
245.411309,250.126000,8.050000
255.638378,250.190000,2.790000
265.860216,250.254000,11.470000
276.236420,250.319000,8.540000
286.447727,250.383000,7.130000
296.813243,250.448000,11.200000
307.014035,250.512000,8.510000
317.209616,250.576000,10.500000
327.399990,250.640000,11.800000
337.744263,250.705000,-2.560000
347.924154,250.769000,-10.160000
358.098850,250.833000,9.300000
368.268355,250.897000,17.690000
378.591450,250.962000,33.850000
388.750505,251.026000,17.780000
398.904381,251.090000,16.710000
409.053082,251.154000,16.860000
419.196612,251.218000,13.560000
429.334975,251.282000,13.920000
439.626466,251.347000,18.530000
449.754426,251.411000,23.750000
459.877231,251.475000,35.380000
469.994885,251.539000,54.130000
480.107392,251.603000,66.750000
490.214756,251.667000,82.810000
500.316980,251.731000,88.300000
510.414069,251.795000,87.370000
520.506026,251.859000,95.870000
530.592855,251.923000,104.730000
540.674561,251.987000,105.790000
550.751147,252.051000,87.110000
560.822617,252.115000,89.850000
570.888975,252.179000,93.620000
580.950225,252.243000,92.400000
590.849282,252.306000,99.490000
600.900407,252.370000,99.050000
610.946435,252.434000,100.540000
620.987371,252.498000,157.360000
631.023218,252.562000,288.230000
641.053980,252.626000,456.110000
650.923048,252.689000,537.570000
660.943731,252.753000,403.350000
670.959341,252.817000,270.980000
680.969880,252.881000,267.180000
690.819058,252.944000,302.900000
700.819549,253.008000,227.630000
710.814983,253.072000,200.290000
720.805362,253.136000,135.230000
730.634708,253.199000,117.560000
740.615069,253.263000,115.850000
750.434561,253.326000,123.400000
760.404919,253.390000,133.600000
770.370241,253.454000,140.190000
780.174941,253.517000,147.610000
790.130283,253.581000,144.480000
799.925166,253.644000,145.710000
809.870542,253.708000,153.400000
819.655623,253.771000,157.400000
829.591048,253.835000,150.230000
839.366341,253.898000,146.790000
849.291831,253.962000,140.760000
859.057350,254.025000,137.300000
868.972920,254.089000,128.530000
878.728681,254.152000,149.800000
888.634344,254.216000,132.150000
898.380361,254.279000,129.220000
908.121550,254.342000,119.190000
918.012421,254.406000,138.600000
927.743888,254.469000,142.800000
937.470538,254.532000,154.530000
947.346650,254.596000,169.250000
957.063600,254.659000,190.380000
966.775743,254.722000,187.160000
976.637128,254.786000,172.980000
986.339593,254.849000,186.430000
996.037261,254.912000,225.220000
1005.730138,254.975000,212.920000
1015.571966,255.039000,209.210000
1025.255192,255.102000,177.880000
1034.933637,255.165000,159.030000
1044.607304,255.228000,149.560000
1054.276196,255.291000,153.620000
1063.940318,255.354000,126.030000
1073.599672,255.417000,128.640000
1083.407471,255.481000,148.120000
1093.057225,255.544000,135.860000
1102.702223,255.607000,135.120000
1112.342467,255.670000,126.330000
1121.977961,255.733000,122.020000
1131.608710,255.796000,119.160000
1141.234715,255.859000,117.650000
1150.855981,255.922000,111.280000
1160.472512,255.985000,113.310000
1170.084310,256.048000,110.460000
1179.691379,256.111000,104.710000
1189.293724,256.174000,108.530000
1198.739040,256.236000,109.920000
1208.332019,256.299000,100.900000
1217.920283,256.362000,102.990000
1227.503835,256.425000,106.080000
1237.082680,256.488000,106.830000
1246.656820,256.551000,98.480000
1256.226260,256.614000,105.510000
1265.639217,256.676000,104.380000
1275.199339,256.739000,92.800000
1284.754770,256.802000,110.500000
1294.305515,256.865000,106.450000
1303.700087,256.927000,100.580000
1313.241541,256.990000,102.310000
1322.778319,257.053000,105.860000
1332.310423,257.116000,111.640000
1341.686664,257.178000,113.940000
1351.209505,257.241000,121.340000
1360.727683,257.304000,128.630000
1370.090229,257.366000,134.200000
1379.599165,257.429000,101.490000
1388.952622,257.491000,102.720000
1398.452329,257.554000,111.480000
1407.796710,257.616000,128.040000
1417.287202,257.679000,108.500000
1426.773053,257.742000,122.830000
1436.103810,257.804000,115.590000
1445.580466,257.867000,116.030000
1454.902179,257.929000,106.750000
1464.369654,257.992000,-178.770000
1473.682337,258.054000,-287.670000
1482.990547,258.116000,-245.170000
1492.444310,258.179000,23.030000
1501.743510,258.241000,99.410000
1511.188124,258.304000,108.970000
1520.478327,258.366000,112.040000
1529.764072,258.428000,114.350000
1539.195025,258.491000,127.390000
1548.471792,258.553000,129.490000
1557.744112,258.615000,140.930000
1567.161432,258.678000,150.310000
1576.424794,258.740000,160.520000
1585.683718,258.802000,178.090000
1594.938206,258.864000,182.880000
1604.337420,258.927000,186.880000
1613.582976,258.989000,163.760000
1622.824106,259.051000,145.950000
1632.060814,259.113000,143.540000
1641.293103,259.175000,139.230000
1650.669776,259.238000,128.050000
1659.893165,259.300000,120.960000
1669.112144,259.362000,110.490000
1678.326716,259.424000,99.780000
1687.536886,259.486000,102.580000
1696.742655,259.548000,102.080000
1705.944027,259.610000,99.570000
1715.141005,259.672000,97.290000
1724.333592,259.734000,85.500000
1733.521792,259.796000,47.020000
1742.705607,259.858000,77.790000
1751.885041,259.920000,85.160000
1761.060096,259.982000,92.550000
1770.230777,260.044000,90.330000
1779.397086,260.106000,85.280000
1788.559026,260.168000,91.140000
1797.716600,260.230000,88.180000
1806.869812,260.292000,92.770000
1816.018664,260.354000,85.250000
1825.163160,260.416000,85.020000
1834.155916,260.477000,87.530000
1843.291778,260.539000,83.200000
1852.423294,260.601000,85.910000
1861.550466,260.663000,88.410000
1870.673297,260.725000,78.300000
1879.644752,260.786000,89.570000
1888.758980,260.848000,81.170000
1897.868877,260.910000,83.810000
1906.974445,260.972000,81.830000
1915.928928,261.033000,84.150000
1925.025918,261.095000,67.810000
1934.118588,261.157000,79.740000
1943.060391,261.218000,89.920000
1952.144502,261.280000,115.010000
1961.224302,261.342000,114.280000
1970.153451,261.403000,87.480000
1979.224710,261.465000,142.470000
1988.145460,261.526000,121.440000
1997.208190,261.588000,91.030000
2006.120554,261.649000,90.980000
2015.174766,261.711000,82.380000
2024.078756,261.772000,83.230000
2033.124461,261.834000,82.100000
2042.020089,261.895000,69.680000
2051.057301,261.957000,109.000000
2059.944578,262.018000,244.940000
2068.973308,262.080000,126.510000
2077.852245,262.141000,78.390000
2086.872506,262.203000,75.780000
2095.743116,262.264000,79.350000
2104.609601,262.325000,77.020000
2113.617214,262.387000,79.990000
2122.475388,262.448000,79.070000
2131.329447,262.509000,75.850000
2140.324438,262.571000,78.060000
2149.170203,262.632000,27.400000
2158.011861,262.693000,66.970000
2166.994257,262.755000,75.210000
2175.827640,262.816000,78.820000
2184.656923,262.877000,95.690000
2193.482109,262.938000,70.420000
2202.303202,262.999000,76.290000
2211.264711,263.061000,74.610000
2220.077557,263.122000,76.300000
2228.886318,263.183000,90.790000
2237.690997,263.244000,69.920000
2246.491597,263.305000,75.320000
2255.288119,263.366000,75.840000
2264.080568,263.427000,78.210000
2272.868945,263.488000,84.610000
2281.653255,263.549000,78.240000
2290.577403,263.611000,75.550000
2299.353518,263.672000,79.040000
2308.125573,263.733000,84.880000
2316.893571,263.794000,79.160000
2325.657515,263.855000,60.690000
2334.273836,263.915000,74.230000
2343.029746,263.976000,75.800000
2351.781611,264.037000,80.600000
2360.529433,264.098000,77.760000
2369.273215,264.159000,81.200000
2378.012959,264.220000,75.650000
2386.748669,264.281000,76.280000
2395.480347,264.342000,71.170000
2404.207997,264.403000,77.110000
2412.788642,264.463000,76.540000
2421.508308,264.524000,81.430000
2430.223953,264.585000,70.480000
2438.935580,264.646000,78.740000
2447.643192,264.707000,10.130000
2456.204142,264.767000,56.570000
2464.903798,264.828000,68.600000
2473.599447,264.889000,58.640000
2482.148639,264.949000,197.460000
2490.836348,265.010000,77.460000
2499.520059,265.071000,88.550000
2508.057516,265.131000,79.300000
2516.733303,265.192000,73.090000
2525.405101,265.253000,77.600000
2533.930847,265.313000,86.760000
2542.594737,265.374000,75.480000
2551.112712,265.434000,74.120000
2559.768705,265.495000,66.460000
2568.278918,265.555000,65.380000
2576.927027,265.616000,73.680000
2585.571164,265.677000,76.710000
2594.069722,265.737000,76.030000
2602.564444,265.797000,74.590000
2611.196813,265.858000,62.740000
2619.683805,265.918000,71.760000
2628.308321,265.979000,72.640000
2636.787594,266.039000,77.030000
2645.404268,266.100000,70.920000
2653.875831,266.160000,82.530000
2662.343577,266.220000,74.150000
2670.948539,266.281000,77.560000
2679.408591,266.341000,106.220000
2687.864833,266.401000,70.490000
2696.458108,266.462000,82.590000
2704.906672,266.522000,94.260000
2713.351433,266.582000,78.870000
2721.792393,266.642000,82.080000
2730.370143,266.703000,81.280000
2738.803447,266.763000,73.460000
2747.232958,266.823000,71.790000
2755.658679,266.883000,73.390000
2764.220946,266.944000,73.980000
2772.639032,267.004000,72.440000
2781.053334,267.064000,69.050000
2789.463857,267.124000,65.890000
2797.870602,267.184000,74.830000
2806.273573,267.244000,65.890000
2814.672771,267.304000,76.500000
2823.068200,267.364000,67.200000
2831.459861,267.424000,78.490000
2839.847757,267.484000,79.540000
2848.231891,267.544000,72.860000
2856.612266,267.604000,75.720000
2864.988884,267.664000,69.850000
2873.361747,267.724000,78.890000
2881.730857,267.784000,88.150000
2890.096219,267.844000,69.860000
2898.457833,267.904000,33.720000
2906.815703,267.964000,98.320000
2915.169831,268.024000,128.150000
2923.520219,268.084000,64.040000
2931.866870,268.144000,66.890000
2940.209787,268.204000,93.050000
2948.410016,268.263000,72.220000
2956.745534,268.323000,74.930000
2965.077324,268.383000,70.440000
2973.405390,268.443000,58.800000
2981.729735,268.503000,33.340000
2989.911713,268.562000,45.300000
2998.228682,268.622000,77.460000
3006.541937,268.682000,68.200000
3014.851480,268.742000,68.070000
3023.018913,268.801000,71.650000
3031.321101,268.861000,73.280000
3039.619584,268.921000,72.950000
3047.776149,268.980000,73.090000
3056.067292,269.040000,74.720000
3064.216644,269.099000,69.580000
3072.500457,269.159000,68.430000
3080.780577,269.219000,55.430000
3088.919097,269.278000,26.550000
3097.191901,269.338000,44.070000
3105.323232,269.397000,45.220000
3113.588730,269.457000,38.700000
3121.712881,269.516000,41.990000
3129.971082,269.576000,73.260000
3138.088063,269.635000,70.160000
3146.338978,269.695000,72.060000
3154.448798,269.754000,71.060000
3162.692435,269.814000,74.120000
3170.795104,269.873000,73.680000
3178.894231,269.932000,46.310000
3187.127001,269.992000,25.910000
3195.218991,270.051000,83.650000
3203.307445,270.110000,103.570000
3211.529370,270.170000,76.410000
3219.610701,270.229000,74.370000
3227.688505,270.288000,74.380000
3235.899605,270.348000,74.340000
3243.970299,270.407000,69.370000
3252.037473,270.466000,75.210000
3260.101128,270.525000,79.880000
3268.297848,270.585000,105.700000
3276.354413,270.644000,102.120000
3284.407466,270.703000,89.430000
3292.457009,270.762000,81.950000
3300.503044,270.821000,75.290000
3308.545575,270.880000,67.280000
3316.720828,270.940000,68.110000
3324.756296,270.999000,66.620000
3332.788267,271.058000,64.280000
3340.816741,271.117000,68.390000
3348.841722,271.176000,69.460000
3356.863212,271.235000,59.110000
3364.881213,271.294000,63.570000
3372.895727,271.353000,65.340000
3380.906756,271.412000,64.430000
3388.914304,271.471000,71.880000
3396.918371,271.530000,60.460000
3404.918961,271.589000,56.050000
3412.916076,271.648000,64.160000
3420.909718,271.707000,67.420000
3428.899888,271.766000,62.500000
3436.886591,271.825000,60.840000
3444.734546,271.883000,64.020000
3452.714377,271.942000,69.510000
3460.690746,272.001000,63.840000
3468.663655,272.060000,67.870000
3476.633107,272.119000,67.210000
3484.599104,272.178000,34.630000
3492.426718,272.236000,63.890000
3500.385870,272.295000,69.050000
3508.341573,272.354000,79.910000
3516.293830,272.413000,76.510000
3524.107947,272.471000,93.620000
3532.053377,272.530000,65.760000
3539.995368,272.589000,64.780000
3547.799398,272.647000,67.070000
3555.734574,272.706000,63.410000
3563.666318,272.765000,61.460000
3571.460282,272.823000,70.040000
3579.385225,272.882000,77.590000
3587.306741,272.941000,76.310000
3595.090658,272.999000,76.190000
3603.005387,273.058000,92.340000
3610.782635,273.116000,63.390000
3618.690585,273.175000,64.330000
3626.461173,273.233000,64.310000
3634.362353,273.292000,62.930000
3642.126290,273.350000,68.050000
3650.020708,273.409000,67.060000
3657.778002,273.467000,68.280000
3665.665667,273.526000,63.380000
3673.416327,273.584000,66.710000
3681.163701,273.642000,68.100000
3689.041282,273.701000,68.810000
3696.782035,273.759000,68.230000
3704.652885,273.818000,62.190000
3712.387025,273.876000,67.320000
3720.117889,273.934000,62.670000
3727.845481,273.992000,59.110000
3735.702951,274.051000,62.500000
3743.423947,274.109000,60.550000
3751.141676,274.167000,62.790000
3758.989119,274.226000,61.010000
3766.700265,274.284000,66.050000
3774.408150,274.342000,64.520000
3782.112776,274.400000,62.360000
3789.814146,274.458000,67.670000
3797.644960,274.517000,63.710000
3805.339767,274.575000,64.460000
3813.031324,274.633000,63.600000
3820.719634,274.691000,74.560000
3828.404697,274.749000,67.680000
3836.086516,274.807000,61.410000
3843.765093,274.865000,66.910000
3851.440431,274.923000,61.270000
3859.112530,274.981000,74.950000
3866.781394,275.039000,58.030000
3874.447024,275.097000,60.450000
3882.109423,275.155000,60.330000
3889.768591,275.213000,60.900000
3897.424533,275.271000,63.940000
3905.077248,275.329000,69.090000
3912.726740,275.387000,51.250000
3920.373011,275.445000,67.210000
3928.016062,275.503000,65.570000
3935.655896,275.561000,61.180000
3943.292514,275.619000,95.780000
3950.925919,275.677000,61.830000
3958.424585,275.734000,66.680000
3966.051625,275.792000,60.620000
3973.675457,275.850000,64.550000
3981.296084,275.908000,60.810000
3988.913508,275.966000,68.440000
3996.396478,276.023000,70.650000
4004.007557,276.081000,69.930000
4011.615438,276.139000,70.200000
4019.220124,276.197000,84.530000
4026.690584,276.254000,64.400000
4034.288940,276.312000,62.540000
4041.884108,276.370000,63.960000
4049.345219,276.427000,68.060000
4056.934068,276.485000,66.380000
4064.519735,276.543000,56.880000
4071.971515,276.600000,62.960000
4079.550876,276.658000,67.010000
4086.996462,276.715000,65.740000
4094.569525,276.773000,63.500000
4102.008927,276.830000,66.260000
4109.575700,276.888000,64.670000
4117.008923,276.945000,65.230000
4124.569414,277.003000,65.300000
4131.996467,277.060000,66.030000
4139.550684,277.118000,65.420000
4146.971575,277.175000,62.070000
4154.519525,277.233000,61.200000
4161.934262,277.290000,68.680000
4169.475953,277.348000,78.210000
4228.011654,277.799000,75.300000
4235.396210,277.856000,61.440000
4242.907211,277.914000,63.640000
4250.415077,277.972000,60.880000
4257.790445,278.029000,81.730000
4265.292102,278.087000,64.240000
4272.790631,278.145000,37.760000
4280.156828,278.202000,56.470000
4287.649159,278.260000,62.240000
4295.138368,278.318000,55.540000
4302.495411,278.375000,69.220000
4309.978434,278.433000,67.570000
4317.329402,278.490000,63.700000
4324.806246,278.548000,49.690000
4332.151147,278.605000,52.200000
4339.621821,278.663000,74.510000
4346.960661,278.720000,70.220000
4354.425172,278.778000,74.160000
4361.757959,278.835000,48.250000
4369.216314,278.893000,80.880000
4376.543056,278.950000,85.930000
4383.995264,279.008000,72.110000
4391.315968,279.065000,57.430000
4398.762036,279.123000,66.260000
4406.076709,279.180000,66.330000
4413.516644,279.238000,65.640000
4420.825295,279.295000,95.060000
4428.130962,279.352000,84.210000
4435.561740,279.410000,71.010000
4442.861395,279.467000,69.980000
4450.158074,279.524000,72.250000
4457.579711,279.582000,71.620000
4464.870389,279.639000,57.220000
4472.158095,279.696000,51.720000
4479.570607,279.754000,67.290000
4486.852324,279.811000,63.120000
4494.131074,279.868000,74.680000
4501.534479,279.926000,74.530000
4508.807251,279.983000,69.480000
4516.077062,280.040000,73.530000
4523.343914,280.097000,75.740000
4530.735220,280.155000,67.970000
4537.996108,280.212000,77.370000
4545.254043,280.269000,88.860000
4552.509026,280.326000,68.140000
4559.888262,280.384000,76.480000
4567.137295,280.441000,66.400000
4574.383383,280.498000,64.200000
4581.626526,280.555000,67.900000
4588.866727,280.612000,63.080000
4596.103987,280.669000,68.170000
4603.338308,280.726000,69.990000
4610.696532,280.784000,65.000000
4617.924929,280.841000,68.700000
4625.150392,280.898000,67.080000
4632.372923,280.955000,64.260000
4639.592525,281.012000,69.100000
4646.809198,281.069000,42.000000
4654.022945,281.126000,-11.690000
4661.233767,281.183000,62.840000
4668.441666,281.240000,68.840000
4675.646644,281.297000,71.320000
4682.848703,281.354000,64.110000
4690.047844,281.411000,65.760000
4697.244070,281.468000,66.540000
4704.437381,281.525000,76.060000
4711.627780,281.582000,88.350000
4718.815269,281.639000,69.520000
4725.999849,281.696000,69.060000
4733.181522,281.753000,71.070000
4740.360290,281.810000,64.090000
4747.536154,281.867000,62.330000
4754.583300,281.923000,74.690000
4761.753414,281.980000,70.000000
4768.920629,282.037000,115.810000
4776.084949,282.094000,80.440000
4783.246373,282.151000,74.000000
4790.404904,282.208000,70.420000
4797.435032,282.264000,78.660000
4804.587834,282.321000,74.830000
4811.737748,282.378000,65.570000
4818.884776,282.435000,73.020000
4826.028920,282.492000,70.160000
4833.044920,282.548000,70.340000
4840.183352,282.605000,69.850000
4847.318904,282.662000,75.840000
4854.451579,282.719000,73.210000
4861.456319,282.775000,71.100000
4868.583295,282.832000,68.950000
4875.707399,282.889000,68.790000
4882.703723,282.945000,67.600000
4889.822139,283.002000,68.530000
4896.937687,283.059000,51.470000
4903.925611,283.115000,66.660000
4911.035481,283.172000,70.020000
4918.142490,283.229000,63.010000
4925.122029,283.285000,65.570000
4932.223369,283.342000,66.870000
4939.197342,283.398000,62.850000
4946.293021,283.455000,59.030000
4953.385847,283.512000,74.620000
4960.351460,283.568000,90.040000
4967.438635,283.625000,60.040000
4974.398699,283.681000,52.810000
4981.480229,283.738000,56.560000
4988.434752,283.794000,51.760000
4995.510644,283.851000,58.760000
5002.459631,283.907000,57.680000
5009.529893,283.964000,53.320000
5016.473351,284.020000,49.900000
5023.537988,284.077000,56.540000
5030.475924,284.133000,51.830000
5037.534943,284.190000,54.150000
5044.467363,284.246000,47.580000
5051.397052,284.302000,49.830000
5058.447683,284.359000,46.300000
5065.371866,284.415000,32.800000
5072.416896,284.472000,47.290000
5079.335580,284.528000,45.410000
5086.251541,284.584000,47.400000
5093.288207,284.641000,37.710000
5100.198678,284.697000,43.180000
5107.106432,284.753000,39.160000
5114.134748,284.810000,45.020000
5121.037022,284.866000,42.380000
5127.936582,284.922000,39.400000
5134.833431,284.978000,7.880000
5141.850655,285.035000,23.950000
5148.742037,285.091000,38.480000
5155.630712,285.147000,34.930000
5162.516682,285.203000,27.510000
5169.522840,285.260000,32.260000
5176.403356,285.316000,32.370000
5183.281172,285.372000,36.970000
5190.156289,285.428000,33.170000
5197.028709,285.484000,40.160000
5204.021082,285.541000,36.060000
5210.888064,285.597000,28.490000
5217.752353,285.653000,34.470000
5224.613952,285.709000,37.040000
5231.472862,285.765000,42.700000
5238.329083,285.821000,53.790000
5245.182619,285.877000,42.330000
5252.033470,285.933000,13.140000
5258.881638,285.989000,23.740000
5265.727125,286.045000,22.990000
5272.569932,286.101000,30.960000
5279.532182,286.158000,25.520000
5286.369586,286.214000,20.710000
5293.204315,286.270000,23.660000
5300.036371,286.326000,22.260000
5306.865755,286.382000,23.930000
5313.692468,286.438000,28.130000
5320.516513,286.494000,21.430000
5327.216104,286.549000,2.960000
5334.034863,286.605000,13.300000
5340.850958,286.661000,-20.830000
5347.664391,286.717000,-16.020000
5354.475163,286.773000,17.730000
5361.283275,286.829000,23.670000
5368.088729,286.885000,26.370000
5374.891528,286.941000,18.420000
5381.691671,286.997000,25.100000
5388.489161,287.053000,13.630000
5395.162686,287.108000,21.650000
5401.954922,287.164000,23.760000
5408.744509,287.220000,24.740000
5415.531448,287.276000,22.600000
5422.315743,287.332000,24.820000
5428.976316,287.387000,25.450000
5435.755371,287.443000,15.000000
5442.531785,287.499000,22.350000
5449.305560,287.555000,20.720000
5456.076697,287.611000,20.800000
5462.724355,287.666000,18.870000
5469.490268,287.722000,22.070000
5476.253548,287.778000,22.130000
5482.893494,287.833000,51.460000
5489.651559,287.889000,51.650000
5496.406995,287.945000,69.860000
5503.039242,288.000000,64.910000
5509.789473,288.056000,3.190000
5516.537079,288.112000,60.880000
5523.161640,288.167000,61.910000
5529.904050,288.223000,46.680000
5536.643840,288.279000,51.990000
5543.260729,288.334000,69.600000
5549.995332,288.390000,30.710000
5556.607128,288.445000,14.360000
5563.336549,288.501000,22.990000
5569.943259,288.556000,20.000000
5576.667504,288.612000,21.440000
5583.269134,288.667000,19.550000
5589.988209,288.723000,24.330000
5596.584764,288.778000,20.330000
5603.298676,288.834000,22.340000
5609.890162,288.889000,28.210000
5616.598916,288.945000,-50.440000
5623.185340,289.000000,-0.100000
5629.888941,289.056000,23.610000
5636.470308,289.111000,17.590000
5643.168763,289.167000,19.740000
5649.745079,289.222000,19.860000
5656.438394,289.278000,25.360000
5663.009664,289.333000,13.470000
5669.578437,289.388000,5.460000
5676.264076,289.444000,25.190000
5682.827812,289.499000,24.340000
5689.389054,289.554000,23.920000
5696.067030,289.610000,44.920000
5702.623244,289.665000,18.210000
5709.176969,289.720000,19.590000
5715.847296,289.776000,15.550000
5722.396001,289.831000,25.230000
5728.942221,289.886000,33.890000
5735.485958,289.941000,33.920000
5742.146122,289.997000,18.130000
5748.684850,290.052000,25.420000
5755.221100,290.107000,32.600000
5761.754871,290.162000,25.550000
5768.404894,290.218000,27.850000
5774.933669,290.273000,18.880000
5781.459971,290.328000,23.720000
5787.983800,290.383000,22.370000
5794.505158,290.438000,19.640000
5801.142550,290.494000,22.910000
5807.658926,290.549000,25.460000
5814.172835,290.604000,16.090000
5820.684279,290.659000,64.620000
5827.193260,290.714000,23.840000
5833.699778,290.769000,23.180000
5840.203835,290.824000,21.260000
5846.705432,290.879000,16.390000
5853.204572,290.934000,22.820000
5859.701254,290.989000,25.640000
5866.195481,291.044000,26.180000
5872.687254,291.099000,24.000000
5879.176574,291.154000,20.510000
5885.663444,291.209000,24.660000
5892.147863,291.264000,20.160000
5898.629834,291.319000,27.040000
5905.109357,291.374000,22.840000
5911.586435,291.429000,16.320000
5918.061069,291.484000,9.710000
5924.533260,291.539000,-5.210000
5931.003009,291.594000,-7.880000
5937.470318,291.649000,24.290000
5943.935188,291.704000,24.950000
5950.397621,291.759000,22.180000
5956.857618,291.814000,8.700000
5963.315180,291.869000,22.620000
5969.770309,291.924000,41.870000
5976.105706,291.978000,54.800000
5982.556017,292.033000,33.120000
5989.003898,292.088000,25.490000
5995.449352,292.143000,9.140000
6001.892379,292.198000,18.750000
6008.215901,292.252000,24.340000
6014.654123,292.307000,24.270000
6021.089923,292.362000,27.370000
6027.523303,292.417000,20.080000
6033.954262,292.472000,22.890000
6040.265942,292.526000,18.670000
6046.692111,292.581000,24.240000
6053.115864,292.636000,23.590000
6059.420472,292.690000,26.630000
6065.839442,292.745000,27.690000
6072.256000,292.800000,25.820000
6078.553548,292.854000,51.480000
6084.965331,292.909000,54.670000
6091.374707,292.964000,35.430000
6097.665207,293.018000,27.720000
6104.069816,293.073000,28.260000
6110.472021,293.128000,25.030000
6116.755485,293.182000,26.130000
6123.152931,293.237000,34.520000
6129.431725,293.291000,7.420000
6135.824417,293.346000,23.740000
6142.098547,293.400000,25.670000
6148.486490,293.455000,23.440000
6154.872040,293.510000,26.860000
6161.139160,293.564000,21.850000
6167.519969,293.619000,26.710000
6173.782438,293.673000,22.900000
6180.158512,293.728000,37.300000
6186.416334,293.782000,34.790000
6192.787678,293.837000,29.200000
6199.040859,293.891000,19.380000
6205.291742,293.945000,23.530000
6211.656022,294.000000,16.100000
6217.902272,294.054000,30.790000
6224.261835,294.109000,26.480000
6230.503456,294.163000,23.660000
6236.742786,294.217000,21.170000
6243.095305,294.272000,21.940000
6249.330014,294.326000,22.930000
6255.677829,294.381000,26.620000
6261.907923,294.435000,30.430000
6268.135731,294.489000,26.410000
6274.476522,294.544000,20.640000
6280.699722,294.598000,26.080000
6286.920642,294.652000,21.590000
6293.139281,294.706000,28.440000
6299.470739,294.761000,20.400000
6305.684781,294.815000,14.350000
6311.896546,294.869000,8.710000
6318.106037,294.923000,25.070000
6324.428182,294.978000,19.930000
6330.633085,295.032000,20.120000
6336.835717,295.086000,15.440000
6343.036080,295.140000,-20.630000
6349.234174,295.194000,-81.080000
6355.544717,295.249000,7.430000
6361.738236,295.303000,29.820000
6367.929490,295.357000,21.890000
6374.118480,295.411000,20.000000
6380.305209,295.465000,31.860000
6386.489676,295.519000,55.210000
6392.671884,295.573000,27.750000
6398.851833,295.627000,45.710000
6405.143905,295.682000,57.830000
6411.319300,295.736000,49.600000
6417.492439,295.790000,53.490000
6423.663325,295.844000,21.840000
6429.831958,295.898000,25.600000
6435.998340,295.952000,20.220000
6442.162473,296.006000,23.040000
6448.324357,296.060000,22.020000
6454.483993,296.114000,20.700000
6460.641384,296.168000,20.570000
6466.796529,296.222000,24.550000
6472.949431,296.276000,24.020000
6479.100090,296.330000,23.190000
6485.248508,296.384000,27.680000
6491.280888,296.437000,24.260000
6497.424869,296.491000,22.490000
6503.566612,296.545000,23.100000
6509.706118,296.599000,26.670000
6515.843390,296.653000,20.780000
6521.978427,296.707000,20.630000
6528.111232,296.761000,21.160000
6534.241805,296.815000,39.550000
6540.256681,296.868000,30.040000
6546.382836,296.922000,25.160000
6552.506763,296.976000,26.160000
6558.628464,297.030000,23.310000
6564.747939,297.084000,33.800000
6570.751928,297.137000,24.170000
6576.866997,297.191000,25.660000
6582.979845,297.245000,24.430000
6589.090471,297.299000,23.510000
6595.085780,297.352000,23.730000
6601.192010,297.406000,24.660000
6607.296023,297.460000,26.440000
6613.397821,297.514000,25.510000
6619.384468,297.567000,30.120000
6625.481879,297.621000,17.450000
6631.577077,297.675000,5.780000
6637.557251,297.728000,49.550000
6643.648069,297.782000,156.300000
6649.623947,297.835000,75.170000
6655.710390,297.889000,74.550000
6661.794627,297.943000,56.180000
6667.764048,297.996000,27.110000
6673.843917,298.050000,27.700000
6679.809053,298.103000,16.190000
6685.884559,298.157000,21.900000
6691.957864,298.211000,26.770000
6697.916562,298.264000,27.410000
6703.985510,298.318000,29.180000
6709.939935,298.371000,29.240000
6716.004532,298.425000,17.660000
6721.954688,298.478000,15.600000
6728.014938,298.532000,19.140000
6733.960830,298.585000,23.050000
6739.904611,298.638000,22.150000
6745.958369,298.692000,18.540000
6751.897893,298.745000,30.340000
6757.947317,298.799000,46.840000
6763.882588,298.852000,21.380000
6769.927680,298.906000,29.680000
6775.858703,298.959000,23.510000
6781.787624,299.012000,-10.240000
6787.826249,299.066000,8.000000
6793.750928,299.119000,11.820000
6799.673508,299.172000,10.070000
6805.705677,299.226000,23.490000
6811.624022,299.279000,17.830000
6817.540272,299.332000,20.930000
6823.565994,299.386000,27.220000
6829.478016,299.439000,21.610000
6835.387945,299.492000,25.810000
6841.407231,299.546000,23.930000
6847.312940,299.599000,23.240000
6853.216559,299.652000,29.630000
6859.118090,299.705000,21.960000
6865.017534,299.758000,24.550000
6871.026143,299.812000,25.560000
6876.921378,299.865000,-23.060000
6882.814529,299.918000,-48.640000
6888.705597,299.971000,0.490000
6894.594584,300.024000,25.390000
6900.592545,300.078000,25.970000
6906.477333,300.131000,21.140000
6912.360044,300.184000,22.880000
6918.240677,300.237000,35.170000
6924.119235,300.290000,115.640000
6929.995718,300.343000,24.960000
6935.870127,300.396000,28.400000
6941.742464,300.449000,21.410000
6947.612730,300.502000,20.780000
6953.480925,300.555000,21.120000
6959.347051,300.608000,21.770000
6965.211108,300.661000,-8.600000
6971.073099,300.714000,28.830000
6976.933024,300.767000,22.360000
6982.790884,300.820000,22.790000
6988.646680,300.873000,38.140000
6994.500413,300.926000,36.270000
7000.352085,300.979000,-29.210000
7006.201696,301.032000,19.230000
7012.049248,301.085000,11.490000
7017.894742,301.138000,37.190000
7023.738178,301.191000,23.980000
7029.579559,301.244000,22.290000
7035.418884,301.297000,23.810000
7041.256155,301.350000,19.770000
7047.091373,301.403000,21.690000
7052.924539,301.456000,26.050000
7058.645653,301.508000,26.640000
7064.474758,301.561000,25.000000
7070.301814,301.614000,20.990000
7076.126822,301.667000,20.520000
7081.949784,301.720000,24.300000
7087.660892,301.772000,21.540000
7093.479803,301.825000,22.250000
7099.296670,301.878000,27.830000
7105.111496,301.931000,23.390000
7110.814624,301.983000,24.000000
7116.625408,302.036000,30.010000
7122.434152,302.089000,24.030000
7128.240858,302.142000,26.910000
7133.936024,302.194000,20.450000
7139.738696,302.247000,20.510000
7145.539334,302.300000,22.280000
7151.228549,302.352000,12.160000
7157.025159,302.405000,7.010000
7162.819737,302.458000,20.480000
7168.503010,302.510000,17.870000
7174.293567,302.563000,21.100000
7180.082095,302.616000,20.210000
7185.759436,302.668000,23.510000
7191.543949,302.721000,18.680000
7197.217352,302.773000,18.060000
7202.997854,302.826000,22.620000
7208.667324,302.878000,20.350000
7214.443819,302.931000,20.800000
7220.109360,302.983000,24.270000
7225.881853,303.036000,34.990000
7231.543468,303.088000,269.760000
7237.311962,303.141000,48.490000
7242.969657,303.193000,32.500000
7248.734156,303.246000,19.160000
7254.387934,303.298000,21.210000
7260.148443,303.351000,25.190000
7265.798308,303.403000,23.790000
7271.554831,303.456000,20.950000
7277.200787,303.508000,22.620000
7282.953328,303.561000,21.050000
7288.595379,303.613000,27.070000
7294.235498,303.665000,25.710000
7299.982093,303.718000,28.570000
7305.618313,303.770000,18.580000
7311.252604,303.822000,41.320000
7316.993262,303.875000,35.720000
7322.623660,303.927000,21.300000
7328.252131,303.979000,16.440000
7333.986862,304.032000,12.960000
7339.611446,304.084000,19.690000
7345.234108,304.136000,16.090000
7350.962920,304.189000,19.970000
7356.581700,304.241000,26.980000
7362.198561,304.293000,25.670000
7367.813502,304.345000,21.860000
7373.426525,304.397000,25.360000
7379.145517,304.450000,27.800000
7384.754669,304.502000,25.800000
7390.361906,304.554000,21.910000
7395.967228,304.606000,22.410000
7401.570637,304.658000,21.370000
7407.279836,304.711000,23.780000
7412.879384,304.763000,26.880000
7418.477021,304.815000,19.960000
7424.072749,304.867000,17.010000
7429.666569,304.919000,27.070000
7435.258480,304.971000,24.050000
7440.848486,305.023000,26.450000
7446.436585,305.075000,24.420000
7452.022780,305.127000,21.530000
7457.607071,305.179000,23.650000
7463.296795,305.232000,45.570000
7468.877245,305.284000,57.730000
7474.455794,305.336000,18.940000
7480.032444,305.388000,23.310000
7485.607195,305.440000,9.090000
7491.180048,305.492000,40.320000
7496.751004,305.544000,28.830000
7502.212985,305.595000,8.440000
7507.780187,305.647000,8.460000
7513.345495,305.699000,24.680000
7518.908909,305.751000,22.970000
7524.470432,305.803000,24.260000
7530.030064,305.855000,20.210000
7535.587805,305.907000,23.720000
7541.143658,305.959000,57.560000
7546.697622,306.011000,17.330000
7552.249699,306.063000,16.700000
7557.693173,306.114000,23.340000
7563.241514,306.166000,19.220000
7568.787971,306.218000,20.220000
7574.332545,306.270000,24.940000
7579.875237,306.322000,20.270000
7585.416047,306.374000,24.160000
7590.848476,306.425000,17.590000
7596.385562,306.477000,18.430000
7601.920769,306.529000,16.270000
7607.454098,306.581000,15.550000
7612.879195,306.632000,-8.360000
7618.408808,306.684000,21.190000
7623.936546,306.736000,24.430000
7629.462411,306.788000,19.730000
7634.880189,306.839000,22.150000
7640.402345,306.891000,27.370000
7645.922629,306.943000,34.150000
7651.334938,306.994000,153.250000
7656.851519,307.046000,107.590000
7662.260197,307.097000,25.310000
7667.773079,307.149000,17.800000
7673.284094,307.201000,14.720000
7678.687317,307.252000,15.500000
7684.194638,307.304000,12.580000
7689.700096,307.356000,20.490000
7695.097870,307.407000,8.210000
7700.599639,307.459000,19.150000
7705.993798,307.510000,26.100000
7711.491883,307.562000,78.210000
7716.882430,307.613000,55.480000
7722.376833,307.665000,28.030000
7727.763772,307.716000,22.500000
7733.254498,307.768000,21.570000
7738.637831,307.819000,20.440000
7744.124884,307.871000,22.220000
7749.504617,307.922000,18.130000
7754.988000,307.974000,20.710000
7760.364134,308.025000,19.840000
7765.738489,308.076000,18.780000
7771.216392,308.128000,20.350000
7776.587155,308.179000,18.940000
7782.061397,308.231000,22.620000
7787.428571,308.282000,19.110000
7792.793970,308.333000,16.760000
7798.262745,308.385000,18.580000
7803.624561,308.436000,18.370000
7808.984603,308.487000,17.240000
7814.447920,308.539000,27.330000
7819.804385,308.590000,20.180000
7825.159080,308.641000,17.920000
7830.616947,308.693000,23.150000
7835.968069,308.744000,13.720000
7841.317424,308.795000,15.530000
7846.665012,308.846000,18.470000
7852.115636,308.898000,18.330000
7857.459659,308.949000,18.540000
7862.801917,309.000000,12.530000
7868.142413,309.051000,-1.470000
7873.481146,309.102000,12.710000
7878.922746,309.154000,18.270000
7884.257923,309.205000,23.350000
7889.591340,309.256000,18.980000
7894.922998,309.307000,19.370000
7900.252898,309.358000,17.330000
7905.581041,309.409000,19.260000
7910.907428,309.460000,35.810000
7916.336447,309.512000,24.380000
7921.659290,309.563000,8.440000
7926.980379,309.614000,2.200000
7932.299715,309.665000,24.170000
7937.617300,309.716000,34.940000
7942.933134,309.767000,24.450000
7948.247217,309.818000,18.770000
7953.559551,309.869000,19.020000
7958.870137,309.920000,10.110000
7964.178976,309.971000,15.020000
7969.486068,310.022000,17.580000
7974.791414,310.073000,20.640000
7980.095015,310.124000,17.340000
7985.396872,310.175000,18.190000
7990.696985,310.226000,21.110000
7995.995357,310.277000,20.740000
8001.291987,310.328000,125.060000
8006.586876,310.379000,131.640000
8011.880026,310.430000,20.540000
8017.067700,310.480000,9.990000
8022.357406,310.531000,16.700000
8027.645376,310.582000,17.920000
8032.931609,310.633000,14.920000
8038.216106,310.684000,12.010000
8043.498869,310.735000,-12.850000
8048.779898,310.786000,-17.170000
8053.955695,310.836000,-3.890000
8059.233293,310.887000,13.400000
8064.509160,310.938000,15.290000
8069.783296,310.989000,18.910000
8074.952339,311.039000,13.720000
8080.223051,311.090000,9.450000
8085.492035,311.141000,20.360000
8090.759292,311.192000,13.380000
8095.921594,311.242000,12.640000
8101.185433,311.293000,15.510000
8106.447548,311.344000,16.350000
8111.604811,311.394000,17.880000
8116.863513,311.445000,13.120000
8122.120493,311.496000,13.170000
8127.272724,311.546000,17.560000
8132.526297,311.597000,19.390000
8137.778150,311.648000,12.450000
8142.925357,311.698000,13.750000
8148.173807,311.749000,10.390000
8153.420541,311.800000,15.030000
8158.562731,311.850000,12.180000
8163.806066,311.901000,14.660000
8168.944927,311.951000,16.300000
8174.184869,312.002000,19.630000
8179.320403,312.052000,18.590000
8184.556953,312.103000,10.330000
8189.689165,312.153000,12.900000
8194.922327,312.204000,15.190000
8200.051219,312.254000,12.370000
8205.280996,312.305000,9.660000
8210.406572,312.355000,11.920000
8215.632968,312.406000,16.420000
8220.755230,312.456000,12.950000
8225.978248,312.507000,7.260000
8231.097200,312.557000,6.860000
8236.316843,312.608000,7.060000
8241.432488,312.658000,-2.130000
8246.546497,312.708000,14.040000
8251.761101,312.759000,6.480000
8256.871808,312.809000,2.170000
8261.980881,312.859000,11.190000
8267.190453,312.910000,12.320000
8272.296229,312.960000,10.410000
8277.400373,313.010000,10.370000
8282.604921,313.061000,10.590000
8287.705773,313.111000,14.320000
8292.804996,313.161000,9.840000
8298.004526,313.212000,9.780000
8303.100462,313.262000,19.010000
8308.194770,313.312000,13.870000
8313.287453,313.362000,17.190000
8318.480316,313.413000,25.470000
8323.569717,313.463000,28.610000
8328.657496,313.513000,19.860000
8333.743651,313.563000,11.770000
8338.828185,313.613000,10.440000
8344.012739,313.664000,12.340000
8349.094000,313.714000,9.830000
8354.173640,313.764000,8.580000
8359.251662,313.814000,13.720000
8364.328066,313.864000,7.890000
8369.402853,313.914000,4.830000
8374.476024,313.964000,22.710000
8379.547579,314.014000,13.600000
8384.718901,314.065000,6.130000
8389.787195,314.115000,5.910000
8394.853876,314.165000,8.270000
8399.918944,314.215000,10.330000
8404.982400,314.265000,-16.930000
8410.044246,314.315000,-212.080000
8415.104481,314.365000,-154.260000
8420.163107,314.415000,-3.250000
8425.220124,314.465000,2.000000
8430.275533,314.515000,5.460000
8435.329336,314.565000,9.700000
8440.381532,314.615000,3.380000
8445.432122,314.665000,5.910000
8450.481107,314.715000,4.320000
8455.528489,314.765000,5.280000
8460.473367,314.814000,7.970000
8465.517575,314.864000,9.740000
8470.560181,314.914000,9.320000
8475.601186,314.964000,8.440000
8480.640590,315.014000,7.090000
8485.678395,315.064000,10.430000
8490.714602,315.114000,7.550000
8495.749210,315.164000,9.100000
8500.681577,315.213000,-1.600000
8505.713024,315.263000,-5.100000
8510.742875,315.313000,-18.230000
8515.771131,315.363000,-16.080000
8520.797793,315.413000,-1.150000
8525.722375,315.462000,-7.520000
8530.745883,315.512000,8.220000
8535.767799,315.562000,3.850000
8540.788124,315.612000,-12.740000
8545.706499,315.661000,-10.520000
8550.723675,315.711000,3.140000
8555.739262,315.761000,0.920000
8560.652997,315.810000,5.570000
8565.665441,315.860000,16.190000
8570.676298,315.910000,5.890000
8575.585399,315.959000,9.750000
8580.593116,316.009000,19.880000
8585.599249,316.059000,10.740000
8590.503723,316.108000,70.560000
8595.506721,316.158000,21.440000
8600.508137,316.208000,20.770000
8605.407991,316.257000,30.800000
8610.406276,316.307000,61.330000
8615.303063,316.356000,5.810000
8620.298221,316.406000,6.710000
8625.191944,316.455000,4.570000
8630.183977,316.505000,1.520000
8635.074640,316.554000,2.150000
8640.063551,316.604000,1.520000
8644.951156,316.653000,6.220000
8649.936949,316.703000,3.500000
8654.821499,316.752000,0.300000
8659.804175,316.802000,3.830000
8664.685673,316.851000,3.450000
8669.665237,316.901000,0.110000
8674.543685,316.950000,6.130000
8679.520139,317.000000,3.050000
8684.395541,317.049000,4.660000
8689.269436,317.098000,-2.120000
8694.241247,317.148000,1.010000
8699.112100,317.197000,-1.370000
8703.981448,317.246000,-2.060000
8708.948621,317.296000,0.500000
8713.814931,317.345000,0.150000
8718.779005,317.395000,1.440000
8723.642281,317.444000,1.750000
8728.504055,317.493000,18.560000
8733.364329,317.542000,18.720000
8738.322247,317.592000,0.670000
8743.179491,317.641000,-10.610000
8748.035237,317.690000,-6.490000
8752.889486,317.739000,1.190000
8757.841258,317.789000,3.240000
8762.692483,317.838000,-2.980000
8767.542212,317.887000,0.090000
8772.390446,317.936000,-5.150000
8777.336084,317.986000,-0.850000
8782.181300,318.035000,0.140000
8787.025024,318.084000,6.690000
8791.867255,318.133000,-1.110000
8796.707995,318.182000,4.250000
8801.547244,318.231000,-1.340000
8806.385003,318.280000,1.240000
8811.319957,318.330000,-1.900000
8816.154708,318.379000,-1.860000
8820.987971,318.428000,-3.410000
8825.819746,318.477000,-1.190000
8830.650035,318.526000,-0.860000
8835.478838,318.575000,0.690000
8840.306156,318.624000,2.140000
8845.131990,318.673000,-2.710000
8849.956339,318.722000,0.740000
8854.779206,318.771000,-0.790000
8859.600590,318.820000,-6.410000
8864.420492,318.869000,-2.460000
8869.238913,318.918000,1.940000
8874.055854,318.967000,0.560000
8878.871314,319.016000,-0.760000
8883.685296,319.065000,0.330000
8888.497800,319.114000,1.250000
8893.308826,319.163000,0.550000
8898.118374,319.212000,2.100000
8902.926447,319.261000,4.260000
8907.634964,319.309000,2.370000
8912.440116,319.358000,-3.860000
8917.243794,319.407000,4.590000
8922.045998,319.456000,-1.200000
8926.846729,319.505000,-1.650000
8931.645988,319.554000,-1.110000
8936.443775,319.603000,6.570000
8941.142222,319.651000,2.290000
8945.937098,319.700000,4.490000
8950.730504,319.749000,-4.190000
8955.522441,319.798000,2.810000
8960.215161,319.846000,1.870000
8965.004192,319.895000,4.530000
8969.791757,319.944000,-3.490000
8974.577855,319.993000,-23.850000
8979.264858,320.041000,-31.620000
8984.048055,320.090000,-9.340000
8988.829789,320.139000,1.140000
8993.512517,320.187000,-1.270000
8998.291355,320.236000,1.760000
9003.068730,320.285000,-4.990000
9007.747190,320.333000,0.820000
9012.521672,320.382000,3.210000
9017.294694,320.431000,0.540000
9021.968893,320.479000,3.030000
9026.739026,320.528000,-4.510000
9031.410396,320.576000,8.120000
9036.177644,320.625000,-6.950000
9040.943434,320.674000,18.350000
9045.610552,320.722000,-1.930000
9050.373460,320.771000,1.710000
9055.037756,320.819000,-1.130000
9059.797784,320.868000,0.800000
9064.459261,320.916000,4.940000
9069.216413,320.965000,0.570000
9073.875072,321.013000,-5.050000
9078.629350,321.062000,-0.440000
9083.285194,321.110000,2.290000
9088.036601,321.159000,-6.180000
9092.689634,321.207000,-11.510000
9097.438171,321.256000,-2.320000
9102.088394,321.304000,-7.070000
9106.737229,321.352000,1.430000
9111.481482,321.401000,-0.080000
9116.127511,321.449000,0.400000
9120.868902,321.498000,1.440000
9125.512128,321.546000,-2.250000
9130.153968,321.594000,1.630000
9134.891085,321.643000,2.790000
9139.530126,321.691000,5.790000
9144.167783,321.739000,-2.620000
9148.900630,321.788000,4.810000
9153.535492,321.836000,3.110000
9158.168971,321.884000,-9.860000
9162.801069,321.932000,-9.540000
9167.528244,321.981000,0.720000
9172.157551,322.029000,6.080000
9176.785479,322.077000,-1.140000
9181.412027,322.125000,-0.130000
9186.133540,322.174000,0.330000
9190.757302,322.222000,-2.620000
9195.379688,322.270000,-5.090000
9200.000697,322.318000,-12.770000
9204.620330,322.366000,-31.500000
9209.334786,322.415000,2.970000
9213.951640,322.463000,9.910000
9218.567119,322.511000,-4.910000
9223.181225,322.559000,2.930000
9227.793957,322.607000,0.660000
9232.405318,322.655000,-1.580000
9237.015306,322.703000,-0.150000
9241.623923,322.751000,9.490000
9246.231170,322.799000,-1.980000
9250.932988,322.848000,-28.230000
9255.537466,322.896000,-14.770000
9260.140576,322.944000,1.150000
9264.742318,322.992000,-4.200000
9269.342693,323.040000,-1.580000
9273.941700,323.088000,-25.450000
9278.539341,323.136000,3.590000
9283.135616,323.184000,42.950000
9287.730527,323.232000,7.740000
9292.324072,323.280000,29.770000
9296.916254,323.328000,2.070000
9301.411445,323.375000,8.790000
9306.000929,323.423000,-8.540000
9310.589052,323.471000,1.920000
9315.175812,323.519000,-2.800000
9319.761212,323.567000,-2.610000
9324.345252,323.615000,-0.920000
9328.927932,323.663000,4.190000
9333.509253,323.711000,1.090000
9338.089216,323.759000,-3.170000
9342.572447,323.806000,-2.250000
9347.149722,323.854000,4.320000
9351.725642,323.902000,0.150000
9356.300205,323.950000,5.540000
9360.873412,323.998000,-1.620000
9365.350032,324.045000,-4.360000
9369.920559,324.093000,2.700000
9374.489732,324.141000,16.000000
9379.057552,324.189000,8.300000
9383.528899,324.236000,-5.920000
9388.094043,324.284000,2.620000
9392.657836,324.332000,-0.680000
9397.125241,324.379000,-1.780000
9401.686361,324.427000,-6.030000
9406.246132,324.475000,-155.630000
9410.804554,324.523000,-148.300000
9415.266702,324.570000,-67.520000
9419.822456,324.618000,-15.340000
9424.281993,324.665000,1.160000
9428.835082,324.713000,-0.480000
9433.386824,324.761000,-5.880000
9437.842435,324.808000,-2.200000
9442.391516,324.856000,-1.450000
9446.844521,324.903000,4.230000
9451.390942,324.951000,-1.280000
9455.936020,324.999000,-2.280000
9460.385108,325.046000,2.970000
9464.927530,325.094000,2.500000
9469.374018,325.141000,16.320000
9473.913786,325.189000,20.630000
9478.357677,325.236000,-3.600000
9482.894794,325.284000,-5.270000
9487.336090,325.331000,2.830000
9491.870557,325.379000,-6.990000
9496.309260,325.426000,-2.400000
9500.746681,325.473000,-1.120000
9505.277193,325.521000,2.790000
9509.712024,325.568000,-3.230000
9514.239893,325.616000,-4.140000
9518.672137,325.663000,-18.240000
9523.103102,325.710000,-0.700000
9527.627024,325.758000,-2.720000
9532.055405,325.805000,-0.470000
9536.576689,325.853000,0.690000
9541.002489,325.900000,-0.010000
9545.427013,325.947000,3.440000
9549.850260,325.994000,-4.410000
9554.366303,326.042000,16.280000
9558.786974,326.089000,0.010000
9563.206371,326.136000,-6.640000
9567.718482,326.184000,-25.690000
9572.135305,326.231000,5.100000
9576.550855,326.278000,-3.520000
9580.965134,326.325000,-12.180000
9585.472021,326.373000,-20.120000
9589.883730,326.420000,-31.350000
9594.294169,326.467000,-0.890000
9598.703338,326.514000,0.030000
9603.111238,326.561000,1.830000
9607.611614,326.609000,13.820000
9612.016950,326.656000,7.610000
9616.421019,326.703000,133.930000
9620.823821,326.750000,41.850000
9625.225356,326.797000,6.730000
9629.625626,326.844000,-1.890000
9634.024630,326.891000,2.300000
9638.422369,326.938000,-5.420000
9642.818845,326.985000,-1.540000
9647.214056,327.032000,-1.930000
9651.701479,327.080000,-0.580000
9656.094138,327.127000,1.520000
9660.485535,327.174000,0.450000
9664.875670,327.221000,6.890000
9669.264544,327.268000,-0.220000
9673.652158,327.315000,1.250000
9678.038512,327.362000,0.670000
9682.423607,327.409000,-1.900000
9686.807443,327.456000,0.690000
9691.190021,327.503000,-3.380000
9695.478134,327.549000,4.490000
9699.858224,327.596000,2.060000
9704.237057,327.643000,-1.650000
9708.614633,327.690000,1.720000
9712.990955,327.737000,0.710000
9717.366021,327.784000,-1.740000
9721.739833,327.831000,0.160000
9726.112390,327.878000,5.520000
9730.483695,327.925000,-0.150000
9734.760780,327.971000,4.790000
9739.129606,328.018000,1.830000
9743.497180,328.065000,-0.420000
9747.863503,328.112000,-0.500000
9752.228575,328.159000,-4.150000
9756.499562,328.205000,-2.250000
9760.862161,328.252000,1.110000
9765.223511,328.299000,-1.180000
9769.583612,328.346000,5.380000
9773.849737,328.392000,-1.100000
9778.207369,328.439000,3.770000
9782.563754,328.486000,-3.130000
9786.918893,328.533000,-10.590000
9791.180163,328.579000,0.460000
9795.532837,328.626000,0.450000
9799.884266,328.673000,1.960000
9804.141906,328.719000,2.110000
9808.490874,328.766000,2.560000
9812.838598,328.813000,-0.100000
9817.092614,328.859000,-5.140000
9821.437879,328.906000,0.910000
9825.689490,328.952000,-1.010000
9830.032299,328.999000,-6.560000
9834.373868,329.046000,-7.490000
9838.621862,329.092000,2.420000
9842.960977,329.139000,-2.550000
9847.206571,329.185000,-3.470000
9851.543235,329.232000,-7.390000
9855.786431,329.278000,-4.190000
9860.120646,329.325000,-4.700000
9864.361446,329.371000,-18.610000
9868.693214,329.418000,-54.430000
9872.931619,329.464000,-70.040000
9877.260942,329.511000,-62.160000
9881.496956,329.557000,-14.460000
9885.823836,329.604000,5.760000
9890.057460,329.650000,25.450000
9894.289903,329.696000,10.240000
9898.613135,329.743000,10.130000
9902.843191,329.789000,24.960000
9907.163985,329.836000,-0.520000
9911.391656,329.882000,-2.650000
9915.618148,329.928000,1.750000
9919.935303,329.975000,-2.730000
9924.159413,330.021000,-0.060000
9928.382346,330.067000,0.570000
9932.695866,330.114000,20.910000
9936.916419,330.160000,-0.510000
9941.135797,330.206000,2.530000
9945.445687,330.253000,-1.570000
9949.662689,330.299000,4.590000
9953.878516,330.345000,6.110000
9958.093170,330.391000,-7.270000
9962.398234,330.438000,-1.170000
9966.610516,330.484000,3.080000
9970.821625,330.530000,1.080000
9975.031562,330.576000,-2.410000
9979.240328,330.622000,2.550000
9983.539380,330.669000,-6.570000
9987.745778,330.715000,-12.190000
9991.951007,330.761000,1.610000
9996.155067,330.807000,1.720000
10000.357957,330.853000,1.680000
10004.559679,330.899000,5.360000
10008.760233,330.945000,0.340000
10013.050897,330.992000,2.720000
10017.249091,331.038000,-2.380000
10021.446118,331.084000,-7.580000
10025.641979,331.130000,-2.450000
10029.836675,331.176000,-1.610000
10034.030205,331.222000,4.290000
10038.222571,331.268000,1.950000
10042.413773,331.314000,0.090000
10046.603811,331.360000,1.860000
10050.792686,331.406000,0.810000
10054.980398,331.452000,-2.120000
10059.166948,331.498000,2.850000
10063.352336,331.544000,4.500000
10067.536563,331.590000,-3.570000
10071.719629,331.636000,9.320000
10075.901535,331.682000,11.310000
10080.082281,331.728000,1.590000
10084.261868,331.774000,2.950000
10088.440296,331.820000,1.660000
10092.526768,331.865000,-3.240000
10096.702905,331.911000,1.710000
10100.877884,331.957000,5.160000
10105.051707,332.003000,7.310000
10109.224373,332.049000,-3.690000
10113.395884,332.095000,3.190000
10117.475591,332.140000,19.180000
10121.644816,332.186000,93.850000
10125.812886,332.232000,1.270000
10129.979802,332.278000,2.800000
10134.145565,332.324000,2.060000
10138.219652,332.369000,1.000000
10142.383134,332.415000,2.120000
10146.545464,332.461000,-1.400000
10150.706643,332.507000,-8.490000
10154.776247,332.552000,-7.060000
10158.935148,332.598000,-0.920000
10163.092900,332.644000,-18.150000
10167.159152,332.689000,-13.310000
10171.314630,332.735000,-0.770000
10175.468958,332.781000,-7.150000
10179.531864,332.826000,0.250000
10183.683921,332.872000,1.720000
10187.834831,332.918000,-2.120000
10191.894393,332.963000,-5.990000
10196.043035,333.009000,-1.360000
10200.190530,333.055000,1.670000
10204.246754,333.100000,1.150000
10208.391984,333.146000,-3.690000
10212.445992,333.191000,-0.420000
10216.588958,333.237000,-1.920000
10220.640753,333.282000,-3.110000
10224.781457,333.328000,4.470000
10228.831039,333.373000,2.320000
10232.969483,333.419000,-9.830000
10237.016856,333.464000,-4.060000
10241.153042,333.510000,0.830000
10245.198206,333.555000,3.100000
10249.332135,333.601000,-2.880000
10253.375094,333.646000,-2.040000
10257.506768,333.692000,-3.630000
10261.547522,333.737000,-2.850000
10265.587186,333.782000,0.740000
10269.715494,333.828000,1.080000
10273.752956,333.873000,-2.130000
10277.879015,333.919000,-2.480000
10281.914277,333.964000,3.580000
10285.948452,334.009000,-0.130000
10290.071151,334.055000,-10.860000
10294.103128,334.100000,-119.930000
10298.134020,334.145000,-15.990000
10302.253364,334.191000,-14.200000
10306.282060,334.236000,-5.600000
10310.309672,334.281000,-0.200000
10314.425666,334.327000,-1.140000
10318.451085,334.372000,-1.640000
10322.475422,334.417000,-0.020000
10326.498675,334.462000,-1.250000
10330.610215,334.508000,-2.950000
10334.631280,334.553000,-0.170000
10338.651263,334.598000,0.700000
10342.670165,334.643000,4.330000
10346.687987,334.688000,-2.360000
10350.704728,334.733000,-0.470000
10354.809614,334.779000,2.120000
10358.824172,334.824000,-2.740000
10362.837651,334.869000,0.010000
10366.850051,334.914000,0.680000
10370.861373,334.959000,-0.170000
10374.871618,335.004000,-4.220000
10378.880786,335.049000,-1.680000
10382.888876,335.094000,0.800000
10386.984923,335.140000,0.040000
10390.990838,335.185000,-25.970000
10394.995677,335.230000,-3.090000
10398.999440,335.275000,2.610000
10403.002130,335.320000,1.190000
10407.003745,335.365000,-15.370000
10411.004286,335.410000,-10.280000
10415.003755,335.455000,-2.180000
10419.002150,335.500000,1.250000
10422.999473,335.545000,-0.250000
10426.995723,335.590000,5.500000
10430.990902,335.635000,-1.440000
10434.985010,335.680000,3.810000
10438.889325,335.724000,-0.270000
10442.881316,335.769000,-2.020000
10446.872237,335.814000,-162.980000
10450.862088,335.859000,-149.940000
10454.850871,335.904000,-28.650000
10458.838585,335.949000,-6.160000
10462.825230,335.994000,-14.450000
10466.810808,336.039000,0.580000
10470.706786,336.083000,-10.390000
10474.690253,336.128000,-1.930000
10478.672654,336.173000,4.020000
10482.653989,336.218000,-4.270000
10486.634259,336.263000,-6.290000
10490.525048,336.307000,-1.860000
10494.503211,336.352000,1.100000
10498.480310,336.397000,-4.310000
10502.456345,336.442000,-2.690000
10506.342995,336.486000,3.250000
10510.316927,336.531000,8.110000
10514.289797,336.576000,-5.950000
10518.261604,336.621000,-9.050000
10522.144122,336.665000,1.110000
10526.113830,336.710000,39.120000
10530.082477,336.755000,28.500000
10533.961906,336.799000,-0.050000
10537.928455,336.844000,5.960000
10541.893946,336.889000,14.000000
10545.770289,336.933000,2.680000
10549.733685,336.978000,0.200000
10553.607982,337.022000,-3.260000
10557.569284,337.067000,-1.750000
10561.529529,337.112000,-3.830000
10565.400747,337.156000,-42.840000
10569.358902,337.201000,-3.020000
10573.228076,337.245000,3.140000
10577.184142,337.290000,-0.420000
10581.051275,337.334000,-1.200000
10585.005254,337.379000,1.310000
10588.870347,337.423000,-2.410000
10592.822240,337.468000,-1.670000
10596.685295,337.512000,-2.670000
10600.635105,337.557000,-1.560000
10604.496123,337.601000,1.310000
10608.443850,337.646000,5.380000
10612.302834,337.690000,0.660000
10616.160811,337.734000,-2.720000
10620.105430,337.779000,-2.950000
10623.961375,337.823000,-3.270000
10627.903916,337.868000,0.960000
10631.757830,337.912000,-1.670000
10635.610740,337.956000,7.540000
10639.550179,338.001000,-1.240000
10643.401061,338.045000,4.920000
10647.250940,338.089000,-3.710000
10651.187281,338.134000,2.280000
10655.035134,338.178000,11.350000
10658.881986,338.222000,-2.030000
10662.815231,338.267000,-2.800000
10666.660059,338.311000,-1.720000
10670.503887,338.355000,-4.840000
10674.346716,338.399000,1.810000
10678.275848,338.444000,0.620000
10682.116656,338.488000,4.160000
10685.956465,338.532000,-2.960000
10689.795276,338.576000,11.280000
10693.633090,338.620000,3.460000
10697.557096,338.665000,-1.630000
10701.392893,338.709000,-1.710000
10705.227693,338.753000,-0.480000
10709.061498,338.797000,-40.580000
10712.894307,338.841000,-6.760000
10716.726120,338.885000,-1.520000
10720.556939,338.929000,-2.580000
10724.386763,338.973000,-0.290000
10728.302601,339.018000,-2.610000
10732.130414,339.062000,5.550000
10735.957235,339.106000,0.290000
10739.783062,339.150000,-3.110000
10743.607897,339.194000,2.810000
10747.431740,339.238000,-10.180000
10751.254591,339.282000,1.120000
10755.076450,339.326000,-4.100000
10758.897319,339.370000,-14.390000
10762.717197,339.414000,2.610000
10766.536084,339.458000,-1.370000
10770.353982,339.502000,-5.860000
10774.170890,339.546000,1.900000
10777.986809,339.590000,-0.430000
10781.801740,339.634000,-12.670000
10785.615682,339.678000,-70.640000
10789.341989,339.721000,-12.880000
10793.153978,339.765000,-12.000000
10796.964980,339.809000,-110.920000
10800.774995,339.853000,-16.850000
10804.584024,339.897000,0.110000
10808.392066,339.941000,1.620000
10812.199123,339.985000,0.190000
10816.005195,340.029000,-0.210000
10819.723813,340.072000,-8.960000
10823.527938,340.116000,-2.710000
10827.331078,340.160000,-23.140000
10831.133235,340.204000,18.970000
10834.848029,340.247000,5.710000
10838.648242,340.291000,-8.470000
10842.447472,340.335000,-11.170000
10846.245720,340.379000,-2.570000
10849.956695,340.422000,-3.960000
10853.753002,340.466000,0.950000
10857.548328,340.510000,-1.490000
10861.342673,340.554000,3.300000
10865.049836,340.597000,8.490000
10868.842243,340.641000,10.770000
10872.633670,340.685000,-0.300000
10876.337983,340.728000,1.760000
10880.127474,340.772000,3.480000
10883.829896,340.815000,1.860000
10887.617453,340.859000,1.520000
10891.404033,340.903000,-48.210000
10895.103609,340.946000,6.530000
10898.888257,340.990000,0.780000
10902.585946,341.033000,-3.130000
10906.368663,341.077000,-2.710000
10910.150404,341.121000,-2.440000
10913.845254,341.164000,-3.490000
10917.625066,341.208000,-2.110000
10921.318033,341.251000,0.760000
10925.095918,341.295000,-7.990000
10928.787002,341.338000,1.590000
10932.562962,341.382000,2.300000
10936.252165,341.425000,-0.620000
10939.940439,341.468000,2.870000
10943.713524,341.512000,0.970000
10947.399919,341.555000,0.880000
10951.171083,341.599000,-1.510000
10954.855601,341.642000,0.560000
10958.624845,341.686000,0.530000
10962.307486,341.729000,-0.470000
10965.989201,341.772000,-20.050000
10969.755578,341.816000,-4.220000
10973.435419,341.859000,8.080000
10977.114334,341.902000,47.170000
10980.877848,341.946000,25.480000
10984.554892,341.989000,3.670000
10988.231011,342.032000,-4.550000
10991.991665,342.076000,-0.810000
10995.665914,342.119000,2.400000
10999.339240,342.162000,0.110000
11003.011643,342.205000,1.690000
11006.768496,342.249000,0.100000
11010.439032,342.292000,-0.550000
11014.108646,342.335000,1.290000
11017.777338,342.378000,3.690000
11021.530396,342.422000,7.950000
11025.197224,342.465000,29.080000
11028.863132,342.508000,84.250000
11032.528119,342.551000,92.930000
11036.192187,342.594000,133.260000
11039.855335,342.637000,151.340000
11043.602720,342.681000,99.390000
11047.264009,342.724000,130.000000
11050.924378,342.767000,103.360000
11054.583829,342.810000,38.000000
11058.242363,342.853000,18.180000
11061.899979,342.896000,-3.880000
11065.556677,342.939000,-4.490000
11069.212459,342.982000,2.000000
11072.867324,343.025000,4.720000
11076.521273,343.068000,4.630000
11080.174306,343.111000,16.810000
11083.826423,343.154000,7.730000
11087.477626,343.197000,2.600000
11091.127913,343.240000,3.760000
11094.777286,343.283000,2.780000
11098.425745,343.326000,-3.730000
11102.073291,343.369000,-5.570000
11105.719922,343.412000,3.640000
11109.365641,343.455000,5.790000
11113.010447,343.498000,-0.850000
11116.654340,343.541000,-1.110000
11120.297322,343.584000,-2.710000
11123.939391,343.627000,6.390000
11127.580549,343.670000,-1.890000
11131.220797,343.713000,-0.600000
11134.775508,343.755000,5.490000
11138.413955,343.798000,-3.010000
11142.051492,343.841000,-1.880000
11145.688120,343.884000,-4.970000
11149.323838,343.927000,-10.780000
11152.958647,343.970000,-0.930000
11156.508049,344.012000,1.410000
11160.141062,344.055000,6.180000
11163.773167,344.098000,-0.950000
11167.404365,344.141000,-1.960000
11170.950240,344.183000,-3.140000
11174.579645,344.226000,-2.590000
11178.208143,344.269000,4.440000
11181.751382,344.311000,1.990000
11185.378088,344.354000,6.130000
11189.003889,344.397000,-1.810000
11192.628785,344.440000,3.690000
11196.168507,344.482000,3.470000
11199.791614,344.525000,-1.680000
11203.413817,344.568000,0.760000
11206.950910,344.610000,-5.480000
11210.571327,344.653000,3.540000
11214.106675,344.695000,0.600000
11217.725306,344.738000,-3.170000
11221.343035,344.781000,-1.910000
11224.875759,344.823000,-3.230000
11228.491704,344.866000,4.640000
11232.022687,344.908000,4.170000
11235.636851,344.951000,0.430000
11239.166094,344.993000,4.270000
11242.778477,345.036000,2.480000
11246.305982,345.078000,1.610000
11249.916585,345.121000,-7.810000
11253.442353,345.163000,-4.100000
11257.051178,345.206000,3.270000
11260.575210,345.248000,-2.390000
11264.182259,345.291000,-2.960000
11267.704555,345.333000,26.280000
11271.309829,345.376000,-2.070000
11274.830392,345.418000,-2.910000
11278.350100,345.460000,2.570000
11281.952723,345.503000,-0.260000
11285.470699,345.545000,-3.000000
11288.987820,345.587000,0.870000
11292.587796,345.630000,1.760000
11296.103187,345.672000,1.530000
11299.701393,345.715000,2.240000
11303.215056,345.757000,-7.180000
11306.727865,345.799000,-1.380000
11310.239821,345.841000,-0.980000
11313.834512,345.884000,18.860000
11317.344742,345.926000,32.690000
11320.854120,345.968000,-2.110000
11324.446172,346.011000,1.550000
11327.953826,346.053000,0.510000
11331.460629,346.095000,-1.160000
11334.966581,346.137000,-16.540000
11338.471682,346.179000,-0.120000
11342.059357,346.222000,1.510000
11345.562737,346.264000,8.680000
11349.065268,346.306000,-6.310000
11352.566949,346.348000,-2.160000
11356.067781,346.390000,-3.630000
11359.567764,346.432000,-0.180000
11363.150201,346.475000,-3.430000
11366.648467,346.517000,0.400000
11370.145885,346.559000,0.920000
11373.642456,346.601000,-1.950000
11377.138179,346.643000,-2.750000
11380.633055,346.685000,-10.910000
11384.127085,346.727000,0.590000
11387.620268,346.769000,0.930000
11391.112605,346.811000,7.290000
11394.604096,346.853000,1.670000
11398.094742,346.895000,-0.260000
11401.584543,346.937000,-3.990000
11405.073499,346.979000,-0.900000
11408.561610,347.021000,7.100000
11412.048877,347.063000,0.250000
11415.535301,347.105000,-0.770000
11419.020880,347.147000,11.030000
11422.505617,347.189000,-6.420000
11425.989510,347.231000,1.210000
11429.472560,347.273000,2.320000
11432.954769,347.315000,2.350000
11436.436135,347.357000,-1.710000
11439.916659,347.399000,-1.480000
11443.313502,347.440000,-1.920000
11446.792364,347.482000,3.250000
11450.270384,347.524000,1.690000
11453.747565,347.566000,-2.100000
11457.223905,347.608000,15.320000
11460.699405,347.650000,-9.890000
11464.091345,347.691000,1.750000
11467.565186,347.733000,-9.690000
11471.038188,347.775000,2.380000
11474.510351,347.817000,-1.990000
11477.981676,347.859000,-2.050000
11481.369541,347.900000,-2.910000
11484.839210,347.942000,4.840000
11488.308041,347.984000,21.330000
11491.693473,348.025000,-2.810000
11495.160650,348.067000,1.460000
11498.626991,348.109000,6.620000
11502.092494,348.151000,2.030000
11505.474680,348.192000,-1.150000
11508.938532,348.234000,-2.000000
11512.401549,348.276000,9.500000
11515.781307,348.317000,5.750000
11519.242673,348.359000,0.810000
11522.620821,348.400000,-2.430000
11526.080539,348.442000,-2.520000
11529.539422,348.484000,0.670000
11532.915148,348.525000,4.010000
11536.372384,348.567000,-0.120000
11539.746502,348.608000,-0.420000
11543.202092,348.650000,1.330000
11546.574604,348.691000,-2.610000
11550.028550,348.733000,0.330000
11553.399456,348.774000,2.850000
11556.851758,348.816000,-18.010000
11560.221061,348.857000,-36.280000
11563.671720,348.899000,-10.950000
11567.039420,348.940000,-6.380000
11570.488439,348.982000,11.990000
11573.854537,349.023000,-7.410000
11577.301915,349.065000,15.120000
11580.666413,349.106000,22.320000
11584.030120,349.147000,-1.570000
11587.475051,349.189000,2.430000
11590.837159,349.230000,-0.410000
11594.280452,349.272000,-1.740000
11597.640963,349.313000,-1.380000
11601.000686,349.354000,-3.790000
11604.441535,349.396000,-1.030000
11607.799661,349.437000,-3.090000
11611.157000,349.478000,3.510000
11614.595408,349.520000,-1.450000
11617.951152,349.561000,5.520000
11621.306109,349.602000,2.140000
11624.660280,349.643000,0.140000
11628.095443,349.685000,-0.070000
11631.448022,349.726000,1.050000
11634.799814,349.767000,-2.060000
11638.150821,349.808000,3.280000
11641.582745,349.850000,0.940000
11644.932162,349.891000,-9.760000
11648.280794,349.932000,2.900000
11651.628641,349.973000,-0.160000
11654.975704,350.014000,-1.390000
11658.403590,350.056000,6.080000
11661.749066,350.097000,-2.360000
11665.093759,350.138000,0.280000
11668.437668,350.179000,-4.020000
11671.780795,350.220000,-4.460000
11675.123139,350.261000,1.720000
11678.464700,350.302000,-0.980000
11681.805480,350.343000,-2.040000
11685.145477,350.384000,-1.650000
11688.484693,350.425000,2.210000
11691.904543,350.467000,-1.440000
11695.242178,350.508000,-5.540000
11698.579032,350.549000,-2.950000
11701.915105,350.590000,-1.920000
11705.250398,350.631000,0.390000
11708.584912,350.672000,0.050000
11711.918645,350.713000,-2.140000
11715.251600,350.754000,2.530000
11718.502512,350.794000,-4.330000
11721.833927,350.835000,2.430000
11725.164564,350.876000,-5.560000
11728.494422,350.917000,5.770000
11731.823503,350.958000,-5.910000
11735.151806,350.999000,2.250000
11738.479331,351.040000,0.140000
11741.806079,351.081000,15.370000
11745.132050,351.122000,-5.500000
11748.457245,351.163000,0.030000
11751.700589,351.203000,-10.790000
11755.024250,351.244000,2.530000
11758.347135,351.285000,4.960000
11761.669245,351.326000,-0.390000
11764.990579,351.367000,1.680000
11768.230159,351.407000,19.070000
11771.549962,351.448000,35.380000
11774.868991,351.489000,-1.870000
11778.187246,351.530000,1.700000
11781.423822,351.570000,-4.690000
11784.740548,351.611000,1.170000
11788.056500,351.652000,-1.120000
11791.371680,351.693000,-4.910000
11794.605256,351.733000,0.920000
11797.918909,351.774000,2.070000
11801.231790,351.815000,-2.150000
11804.463124,351.855000,0.690000
11807.774479,351.896000,2.890000
11811.085063,351.937000,-7.740000
11814.314158,351.977000,-40.950000
11817.623218,352.018000,49.040000
11820.850827,352.058000,88.070000
11824.158365,352.099000,42.090000
11827.465133,352.140000,-2.120000
11830.690506,352.180000,-133.690000
11833.995753,352.221000,-7.110000
11837.219643,352.261000,2.080000
11840.523370,352.302000,2.790000
11843.745778,352.342000,4.790000
11847.047986,352.383000,14.010000
11850.268913,352.423000,1.080000
11853.569603,352.464000,33.460000
11856.789050,352.504000,0.000000
11860.088224,352.545000,8.280000
11863.306191,352.585000,19.090000
11866.603850,352.626000,-6.440000
11869.820339,352.666000,-10.880000
11873.116483,352.707000,-1.440000
11876.331495,352.747000,-2.910000
11879.545777,352.787000,2.020000
11882.839661,352.828000,-1.820000
11886.052468,352.868000,-0.540000
11889.264547,352.908000,-0.580000
11892.556173,352.949000,-1.050000
11895.766777,352.989000,1.000000
11899.056892,353.030000,3.770000
11902.266024,353.070000,5.350000
11905.474429,353.110000,2.610000
11908.682107,353.150000,-0.370000
11911.969223,353.191000,-10.230000
11915.175430,353.231000,0.510000
11918.380911,353.271000,-3.340000
11921.665775,353.312000,-0.960000
11924.869787,353.352000,2.050000
11928.073073,353.392000,6.900000
11931.275634,353.432000,-7.610000
11934.477470,353.472000,-34.960000
11937.758600,353.513000,-5.150000
11940.958969,353.553000,4.660000
11944.158614,353.593000,46.730000
11947.357536,353.633000,1.550000
11950.555733,353.673000,0.180000
11953.753208,353.713000,-1.950000
11957.029868,353.754000,-43.500000
11960.225879,353.794000,0.390000
11963.421166,353.834000,-11.850000
11966.615732,353.874000,4.490000
11969.809575,353.914000,-0.960000
11973.002696,353.954000,5.050000
11976.195096,353.994000,-3.180000
11979.386774,354.034000,33.030000
11982.577731,354.074000,112.830000
11985.767968,354.114000,13.260000
11988.957483,354.154000,-1.740000
11992.146279,354.194000,-0.830000
11995.334354,354.234000,-0.300000
11998.521709,354.274000,-5.550000
12001.708345,354.314000,-1.370000
12004.894261,354.354000,1.930000
12008.079458,354.394000,3.130000
12011.263936,354.434000,9.340000
12014.447695,354.474000,-1.460000
12017.630736,354.514000,13.060000
12020.813059,354.554000,18.540000
12023.994663,354.594000,-1.490000
12027.175550,354.634000,-7.380000
12030.276224,354.673000,-0.350000
12033.455694,354.713000,-10.450000
12036.634448,354.753000,10.740000
12039.812484,354.793000,2.320000
12042.989804,354.833000,2.560000
12046.166408,354.873000,136.710000
12049.262907,354.912000,15.710000
12052.438097,354.952000,-8.550000
12055.612571,354.992000,-2.530000
12058.786330,355.032000,-6.330000
12061.880056,355.071000,-18.990000
12065.052403,355.111000,-3.880000
12068.224035,355.151000,-7.180000
12071.394953,355.191000,4.580000
12074.485910,355.230000,-2.130000
12077.655418,355.270000,3.280000
12080.824212,355.310000,-5.380000
12083.913100,355.349000,-0.530000
12087.080485,355.389000,13.500000
12090.247158,355.429000,157.210000
12093.333977,355.468000,62.100000
12096.499242,355.508000,-4.250000
12099.663795,355.548000,-72.400000
12102.748549,355.587000,-57.400000
12105.911696,355.627000,-33.730000
12108.995079,355.666000,-58.130000
12112.156822,355.706000,-54.600000
12115.317853,355.746000,-60.990000
12118.399174,355.785000,-75.680000
12121.558801,355.825000,-68.330000
12124.638754,355.864000,-84.410000
12127.796979,355.904000,-73.480000
12130.875565,355.943000,-73.980000
12134.032389,355.983000,-39.500000
12137.109608,356.022000,-64.810000
12140.265031,356.062000,-48.720000
12143.340885,356.101000,-90.240000
12146.494908,356.141000,-65.720000
12149.569398,356.180000,-46.060000
12152.643215,356.219000,-36.950000
12155.795149,356.259000,-55.730000
12158.867603,356.298000,-59.580000
12162.018139,356.338000,-52.890000
12165.089231,356.377000,-67.970000
12168.159651,356.416000,-74.740000
12171.308101,356.456000,-67.720000
12174.377160,356.495000,-54.850000
12177.445548,356.534000,-39.660000
12180.591915,356.574000,-53.440000
12183.658943,356.613000,-67.130000
12186.725300,356.652000,-54.090000
12189.869585,356.692000,-39.380000
12192.934585,356.731000,-109.220000
12195.998914,356.770000,-38.490000
12199.062573,356.809000,-76.310000
12202.204093,356.849000,-76.120000
12205.266396,356.888000,-54.140000
12208.328030,356.927000,-53.830000
12211.388995,356.966000,-37.090000
12214.527751,357.006000,-57.600000
12217.587361,357.045000,-43.270000
12220.646304,357.084000,-67.520000
12223.704578,357.123000,-87.010000
12226.762184,357.162000,-71.610000
12229.819122,357.201000,-79.510000
12232.953750,357.241000,-59.290000
12236.009337,357.280000,-57.780000
12239.064257,357.319000,-55.220000
12242.118510,357.358000,-60.610000
12245.172096,357.397000,-87.840000
12248.225016,357.436000,-45.720000
