raman_shift_cm-1,wavelength_nm,intensity
-311.444523,246.690000,0.000000
-300.766377,246.755000,0.000000
-290.093855,246.820000,-34.038227
-279.262891,246.886000,-96.098819
-268.601691,246.951000,-15.724992
-257.946101,247.016000,-73.619035
-247.296118,247.081000,-62.451474
-236.651737,247.146000,-53.383833
-226.012953,247.211000,-71.096468
-215.216219,247.277000,-40.225951
-204.588703,247.342000,-54.184944
-193.966771,247.407000,-54.220669
-183.350419,247.472000,-73.500240
-172.739643,247.537000,-70.533602
-162.134437,247.602000,-72.279354
-151.534799,247.667000,-64.367863
-140.940722,247.732000,-64.580694
-130.352203,247.797000,-53.446901
-119.769238,247.862000,-67.347561
-109.191822,247.927000,-37.327894
-98.619951,247.992000,-47.762092
-88.053621,248.057000,-61.630181
-77.655258,248.121000,-35.384063
-67.099910,248.186000,-61.509987
-56.550089,248.251000,-57.579289
-46.005792,248.316000,-42.519994
-35.467013,248.381000,-108.017191
-24.933749,248.446000,-58.220596
-14.405995,248.511000,-44.567396
-4.045586,248.575000,-35.783428
6.471245,248.640000,-88.712093
16.982580,248.705000,-49.235177
27.488421,248.770000,-54.612948
37.827271,248.834000,-58.113554
48.322224,248.899000,-51.112965
58.811696,248.964000,-58.829820
69.134442,249.028000,-82.749392
79.613052,249.093000,-57.453417
90.086194,249.158000,-55.269544
100.392873,249.222000,-63.082076
110.855177,249.287000,-56.409910
121.312027,249.352000,-83.287508
131.602677,249.416000,-57.650705
142.048715,249.481000,-57.006201
152.328727,249.545000,-75.363337
162.763968,249.610000,-59.663129
173.033359,249.674000,-65.219016
183.457821,249.739000,-108.640915
193.716607,249.803000,-82.321672
204.130307,249.868000,-26.094898
214.378504,249.932000,-10.127294
224.781458,249.997000,0.315551
235.019083,250.061000,2.536973
245.411309,250.126000,0.468489
255.638378,250.190000,-0.065669
265.860216,250.254000,3.982892
276.236420,250.319000,2.193142
286.447727,250.383000,2.455247
296.813243,250.448000,-2.207867
307.014035,250.512000,0.621628
317.209616,250.576000,-0.707503
327.399990,250.640000,8.180982
337.744263,250.705000,-1.495706
347.924154,250.769000,1.086183
358.098850,250.833000,-1.133213
368.268355,250.897000,2.564817
378.591450,250.962000,4.503726
388.750505,251.026000,2.408524
398.904381,251.090000,0.357314
409.053082,251.154000,1.919851
419.196612,251.218000,3.450052
429.334975,251.282000,0.470039
439.626466,251.347000,0.982130
449.754426,251.411000,2.149333
459.877231,251.475000,1.481635
469.994885,251.539000,6.214913
480.107392,251.603000,6.357927
490.214756,251.667000,7.183656
500.316980,251.731000,6.686287
510.414069,251.795000,4.311635
520.506026,251.859000,8.021326
530.592855,251.923000,10.757960
540.674561,251.987000,8.726643
550.751147,252.051000,12.373362
560.822617,252.115000,7.677150
570.888975,252.179000,6.483796
580.950225,252.243000,6.130596
590.849282,252.306000,9.067603
600.900407,252.370000,6.027717
610.946435,252.434000,9.806891
620.987371,252.498000,11.665483
631.023218,252.562000,27.959081
641.053980,252.626000,38.969969
650.923048,252.689000,51.286243
660.943731,252.753000,41.752616
670.959341,252.817000,21.919745
680.969880,252.881000,11.688601
690.819058,252.944000,11.757518
700.819549,253.008000,10.289823
710.814983,253.072000,9.685801
720.805362,253.136000,3.092186
730.634708,253.199000,-4.916472
740.615069,253.263000,1.039927
750.434561,253.326000,-3.583874
760.404919,253.390000,7.699970
770.370241,253.454000,3.219507
780.174941,253.517000,8.112529
790.130283,253.581000,11.077478
799.925166,253.644000,9.904042
809.870542,253.708000,13.206355
819.655623,253.771000,10.120344
829.591048,253.835000,13.961649
839.366341,253.898000,11.530387
849.291831,253.962000,11.044314
859.057350,254.025000,10.770501
868.972920,254.089000,6.499139
878.728681,254.152000,10.046306
888.634344,254.216000,8.649323
898.380361,254.279000,10.621765
908.121550,254.342000,8.030336
918.012421,254.406000,13.413448
927.743888,254.469000,11.814696
937.470538,254.532000,10.628735
947.346650,254.596000,14.655119
957.063600,254.659000,14.164556
966.775743,254.722000,8.162728
976.637128,254.786000,9.434101
986.339593,254.849000,16.184870
996.037261,254.912000,17.226012
1005.730138,254.975000,16.914825
1015.571966,255.039000,14.610594
1025.255192,255.102000,13.568905
1034.933637,255.165000,12.100510
1044.607304,255.228000,12.583343
1054.276196,255.291000,8.740198
1063.940318,255.354000,11.329575
1073.599672,255.417000,12.758988
1083.407471,255.481000,13.897446
1093.057225,255.544000,9.705338
1102.702223,255.607000,9.881458
1112.342467,255.670000,9.295826
1121.977961,255.733000,9.495050
1131.608710,255.796000,6.917538
1141.234715,255.859000,7.545114
1150.855981,255.922000,7.630913
1160.472512,255.985000,11.234190
1170.084310,256.048000,6.565996
1179.691379,256.111000,6.234518
1189.293724,256.174000,5.722796
1198.739040,256.236000,6.422486
1208.332019,256.299000,7.992844
1217.920283,256.362000,8.717090
1227.503835,256.425000,7.765655
1237.082680,256.488000,6.123400
1246.656820,256.551000,6.592787
1256.226260,256.614000,4.713525
1265.639217,256.676000,4.768054
1275.199339,256.739000,4.288934
1284.754770,256.802000,6.393004
1294.305515,256.865000,3.784863
1303.700087,256.927000,11.365560
1313.241541,256.990000,4.619527
1322.778319,257.053000,4.199002
1332.310423,257.116000,3.740344
1341.686664,257.178000,5.705854
1351.209505,257.241000,8.322359
1360.727683,257.304000,5.709147
1370.090229,257.366000,1.621633
1379.599165,257.429000,8.427694
1388.952622,257.491000,5.783430
1398.452329,257.554000,6.563145
1407.796710,257.616000,5.157167
1417.287202,257.679000,7.497623
1426.773053,257.742000,4.924309
1436.103810,257.804000,8.806500
1445.580466,257.867000,6.495847
1454.902179,257.929000,4.677146
1464.369654,257.992000,6.620782
1473.682337,258.054000,5.081133
1482.990547,258.116000,7.246330
1492.444310,258.179000,7.168133
1501.743510,258.241000,9.591962
1511.188124,258.304000,9.612282
1520.478327,258.366000,8.706845
1529.764072,258.428000,7.491968
1539.195025,258.491000,11.458124
1548.471792,258.553000,12.350572
1557.744112,258.615000,12.812587
1567.161432,258.678000,13.940762
1576.424794,258.740000,12.827814
1585.683718,258.802000,15.045965
1594.938206,258.864000,12.606320
1604.337420,258.927000,15.452106
1613.582976,258.989000,14.600617
1622.824106,259.051000,17.594381
1632.060814,259.113000,16.080022
1641.293103,259.175000,14.524893
1650.669776,259.238000,16.592792
1659.893165,259.300000,13.546465
1669.112144,259.362000,15.282255
1678.326716,259.424000,12.369606
1687.536886,259.486000,11.463531
1696.742655,259.548000,10.527565
1705.944027,259.610000,11.200160
1715.141005,259.672000,11.638073
1724.333592,259.734000,11.539828
1733.521792,259.796000,12.270573
1742.705607,259.858000,9.398246
1751.885041,259.920000,6.817664
1761.060096,259.982000,6.834188
1770.230777,260.044000,6.908309
1779.397086,260.106000,8.623711
1788.559026,260.168000,6.817139
1797.716600,260.230000,10.246819
1806.869812,260.292000,6.547268
1816.018664,260.354000,9.790519
1825.163160,260.416000,8.993457
1834.155916,260.477000,5.735496
1843.291778,260.539000,7.426172
1852.423294,260.601000,6.537185
1861.550466,260.663000,7.035539
1870.673297,260.725000,6.128117
1879.644752,260.786000,4.101771
1888.758980,260.848000,7.713596
1897.868877,260.910000,7.018982
1906.974445,260.972000,1.963554
1915.928928,261.033000,7.537123
1925.025918,261.095000,5.877747
1934.118588,261.157000,4.466056
1943.060391,261.218000,3.972977
1952.144502,261.280000,5.009012
1961.224302,261.342000,5.646148
1970.153451,261.403000,5.545762
1979.224710,261.465000,2.676211
1988.145460,261.526000,7.610811
1997.208190,261.588000,5.978750
2006.120554,261.649000,3.945439
2015.174766,261.711000,7.750826
2024.078756,261.772000,4.362809
2033.124461,261.834000,8.647348
2042.020089,261.895000,6.433472
2051.057301,261.957000,8.321895
2059.944578,262.018000,5.996951
2068.973308,262.080000,6.015336
2077.852245,262.141000,5.283731
2086.872506,262.203000,8.863796
2095.743116,262.264000,7.528869
2104.609601,262.325000,8.358660
2113.617214,262.387000,7.767747
2122.475388,262.448000,6.610755
2131.329447,262.509000,4.971498
2140.324438,262.571000,7.575770
2149.170203,262.632000,4.888358
2158.011861,262.693000,5.578886
2166.994257,262.755000,7.262899
2175.827640,262.816000,5.574120
2184.656923,262.877000,5.386086
2193.482109,262.938000,4.142839
2202.303202,262.999000,7.852144
2211.264711,263.061000,8.363054
2220.077557,263.122000,4.868306
2228.886318,263.183000,6.636397
2237.690997,263.244000,7.727707
2246.491597,263.305000,4.458777
2255.288119,263.366000,6.153518
2264.080568,263.427000,4.667745
2272.868945,263.488000,4.616433
2281.653255,263.549000,10.163711
2290.577403,263.611000,5.812529
2299.353518,263.672000,7.035385
2308.125573,263.733000,2.799677
2316.893571,263.794000,4.171220
2325.657515,263.855000,6.559961
2334.273836,263.915000,6.194911
2343.029746,263.976000,4.232238
2351.781611,264.037000,7.290079
2360.529433,264.098000,1.977917
2369.273215,264.159000,6.134277
2378.012959,264.220000,3.773875
2386.748669,264.281000,8.154117
2395.480347,264.342000,8.878424
2404.207997,264.403000,4.966867
2412.788642,264.463000,7.091483
2421.508308,264.524000,6.629147
2430.223953,264.585000,7.962361
2438.935580,264.646000,6.306828
2447.643192,264.707000,5.444245
2456.204142,264.767000,6.644383
2464.903798,264.828000,8.914176
2473.599447,264.889000,6.145531
2482.148639,264.949000,7.842760
2490.836348,265.010000,4.097345
2499.520059,265.071000,7.165298
2508.057516,265.131000,7.657911
2516.733303,265.192000,6.357621
2525.405101,265.253000,2.678283
2533.930847,265.313000,5.712664
2542.594737,265.374000,7.781544
2551.112712,265.434000,5.174791
2559.768705,265.495000,7.606740
2568.278918,265.555000,6.122258
2576.927027,265.616000,8.328678
2585.571164,265.677000,7.878876
2594.069722,265.737000,3.514495
2602.564444,265.797000,6.789993
2611.196813,265.858000,7.582198
2619.683805,265.918000,8.703487
2628.308321,265.979000,6.568609
2636.787594,266.039000,6.190341
2645.404268,266.100000,3.355610
2653.875831,266.160000,6.268140
2662.343577,266.220000,3.824118
2670.948539,266.281000,7.616851
2679.408591,266.341000,3.865728
2687.864833,266.401000,7.722914
2696.458108,266.462000,5.179997
2704.906672,266.522000,6.135779
2713.351433,266.582000,5.362512
2721.792393,266.642000,5.424159
2730.370143,266.703000,3.662807
2738.803447,266.763000,3.667186
2747.232958,266.823000,6.677590
2755.658679,266.883000,5.780971
2764.220946,266.944000,0.521857
2772.639032,267.004000,7.318211
2781.053334,267.064000,5.151477
2789.463857,267.124000,5.741329
2797.870602,267.184000,3.011232
2806.273573,267.244000,1.301446
2814.672771,267.304000,5.155982
2823.068200,267.364000,4.910422
2831.459861,267.424000,2.103015
2839.847757,267.484000,4.767260
2848.231891,267.544000,2.390824
2856.612266,267.604000,3.975313
2864.988884,267.664000,5.691667
2873.361747,267.724000,1.302500
2881.730857,267.784000,4.340284
2890.096219,267.844000,4.110998
2898.457833,267.904000,1.906811
2906.815703,267.964000,7.688640
2915.169831,268.024000,3.693955
2923.520219,268.084000,2.471382
2931.866870,268.144000,5.225427
2940.209787,268.204000,5.940789
2948.410016,268.263000,6.123396
2956.745534,268.323000,4.521671
2965.077324,268.383000,5.803904
2973.405390,268.443000,9.143314
2981.729735,268.503000,6.978846
2989.911713,268.562000,5.298602
2998.228682,268.622000,5.880171
3006.541937,268.682000,7.964176
3014.851480,268.742000,8.216783
3023.018913,268.801000,6.282303
3031.321101,268.861000,9.357164
3039.619584,268.921000,7.150093
3047.776149,268.980000,5.292391
3056.067292,269.040000,8.731218
3064.216644,269.099000,8.496948
3072.500457,269.159000,8.998215
3080.780577,269.219000,4.077369
3088.919097,269.278000,10.520491
3097.191901,269.338000,8.013106
3105.323232,269.397000,9.700278
3113.588730,269.457000,6.317488
3121.712881,269.516000,6.312890
3129.971082,269.576000,6.860790
3138.088063,269.635000,6.280652
3146.338978,269.695000,8.609106
3154.448798,269.754000,7.986550
3162.692435,269.814000,13.275130
3170.795104,269.873000,6.220642
3178.894231,269.932000,8.574948
3187.127001,269.992000,6.496812
3195.218991,270.051000,5.595868
3203.307445,270.110000,7.762175
3211.529370,270.170000,7.832846
3219.610701,270.229000,6.385493
3227.688505,270.288000,7.222752
3235.899605,270.348000,9.464775
3243.970299,270.407000,6.315456
3252.037473,270.466000,6.583658
3260.101128,270.525000,6.754696
3268.297848,270.585000,4.967471
3276.354413,270.644000,6.998575
3284.407466,270.703000,7.784735
3292.457009,270.762000,6.035262
3300.503044,270.821000,4.816763
3308.545575,270.880000,6.501168
3316.720828,270.940000,6.390077
3324.756296,270.999000,6.511856
3332.788267,271.058000,5.168745
3340.816741,271.117000,8.535810
3348.841722,271.176000,5.411612
3356.863212,271.235000,5.240489
3364.881213,271.294000,8.100899
3372.895727,271.353000,3.436062
3380.906756,271.412000,6.147710
3388.914304,271.471000,7.365155
3396.918371,271.530000,2.995950
3404.918961,271.589000,5.020659
3412.916076,271.648000,5.969642
3420.909718,271.707000,5.159089
3428.899888,271.766000,2.414766
3436.886591,271.825000,6.095530
3444.734546,271.883000,5.445372
3452.714377,271.942000,5.159684
3460.690746,272.001000,6.835787
3468.663655,272.060000,2.664951
3476.633107,272.119000,3.455523
3484.599104,272.178000,5.883540
3492.426718,272.236000,7.998380
3500.385870,272.295000,5.453713
3508.341573,272.354000,4.101195
3516.293830,272.413000,3.404174
3524.107947,272.471000,4.268705
3532.053377,272.530000,3.312687
3539.995368,272.589000,6.873235
3547.799398,272.647000,3.260339
3555.734574,272.706000,3.457242
3563.666318,272.765000,7.582499
3571.460282,272.823000,3.651755
3579.385225,272.882000,4.762546
3587.306741,272.941000,5.353489
3595.090658,272.999000,2.775021
3603.005387,273.058000,6.263368
3610.782635,273.116000,6.973216
3618.690585,273.175000,8.782693
3626.461173,273.233000,5.925255
3634.362353,273.292000,5.637457
3642.126290,273.350000,4.860012
3650.020708,273.409000,8.138544
3657.778002,273.467000,3.463247
3665.665667,273.526000,5.483910
3673.416327,273.584000,3.973258
3681.163701,273.642000,8.182756
3689.041282,273.701000,3.530931
3696.782035,273.759000,4.497500
3704.652885,273.818000,5.034176
3712.387025,273.876000,7.026387
3720.117889,273.934000,7.809428
3727.845481,273.992000,6.466645
3735.702951,274.051000,4.958147
3743.423947,274.109000,6.533168
3751.141676,274.167000,4.735063
3758.989119,274.226000,5.969360
3766.700265,274.284000,7.064589
3774.408150,274.342000,5.406709
3782.112776,274.400000,7.282626
3789.814146,274.458000,3.815208
3797.644960,274.517000,7.569385
3805.339767,274.575000,5.248188
3813.031324,274.633000,4.921130
3820.719634,274.691000,8.177322
3828.404697,274.749000,5.847110
3836.086516,274.807000,6.341677
3843.765093,274.865000,4.012182
3851.440431,274.923000,6.146593
3859.112530,274.981000,10.236487
3866.781394,275.039000,1.088279
3874.447024,275.097000,9.975816
3882.109423,275.155000,6.463734
3889.768591,275.213000,4.067176
3897.424533,275.271000,3.981360
3905.077248,275.329000,6.047204
3912.726740,275.387000,5.593557
3920.373011,275.445000,6.973258
3928.016062,275.503000,6.589712
3935.655896,275.561000,7.310961
3943.292514,275.619000,4.939953
3950.925919,275.677000,2.412569
3958.424585,275.734000,3.361821
3966.051625,275.792000,3.013779
3973.675457,275.850000,6.731549
3981.296084,275.908000,6.988754
3988.913508,275.966000,2.145877
3996.396478,276.023000,7.057120
4004.007557,276.081000,6.257891
4011.615438,276.139000,5.821743
4019.220124,276.197000,7.076985
4026.690584,276.254000,3.750742
4034.288940,276.312000,6.751988
4041.884108,276.370000,6.150513
4049.345219,276.427000,4.577391
4056.934068,276.485000,4.216468
4064.519735,276.543000,5.700847
4071.971515,276.600000,8.421839
4079.550876,276.658000,6.946771
4086.996462,276.715000,8.073590
4094.569525,276.773000,5.147569
4102.008927,276.830000,6.388831
4109.575700,276.888000,4.264401
4117.008923,276.945000,6.427394
4124.569414,277.003000,7.814835
4131.996467,277.060000,7.437578
4139.550684,277.118000,6.101553
4146.971575,277.175000,9.876069
4154.519525,277.233000,3.720023
4161.934262,277.290000,6.299066
4169.475953,277.348000,2.324685
4228.011654,277.799000,5.101356
4235.396210,277.856000,5.489782
4242.907211,277.914000,5.497791
4250.415077,277.972000,5.613890
4257.790445,278.029000,4.847049
4265.292102,278.087000,6.634964
4272.790631,278.145000,4.909426
4280.156828,278.202000,4.172225
4287.649159,278.260000,7.679647
4295.138368,278.318000,9.239788
4302.495411,278.375000,6.390305
4309.978434,278.433000,3.223454
4317.329402,278.490000,4.651164
4324.806246,278.548000,6.964465
4332.151147,278.605000,2.896473
4339.621821,278.663000,3.946722
4346.960661,278.720000,4.904059
4354.425172,278.778000,3.889132
4361.757959,278.835000,5.722848
4369.216314,278.893000,5.720353
4376.543056,278.950000,6.201764
4383.995264,279.008000,4.948940
4391.315968,279.065000,7.020805
4398.762036,279.123000,4.539846
4406.076709,279.180000,4.876229
4413.516644,279.238000,2.876559
4420.825295,279.295000,6.112221
4428.130962,279.352000,4.524617
4435.561740,279.410000,4.665360
4442.861395,279.467000,4.061865
4450.158074,279.524000,6.767915
4457.579711,279.582000,4.183281
4464.870389,279.639000,2.255319
4472.158095,279.696000,4.537323
4479.570607,279.754000,4.193851
4486.852324,279.811000,3.899460
4494.131074,279.868000,6.232173
4501.534479,279.926000,1.445005
4508.807251,279.983000,3.894723
4516.077062,280.040000,5.186934
4523.343914,280.097000,4.843360
4530.735220,280.155000,3.415066
4537.996108,280.212000,7.534698
4545.254043,280.269000,-0.059981
4552.509026,280.326000,6.495904
4559.888262,280.384000,4.526465
4567.137295,280.441000,1.847462
4574.383383,280.498000,0.874266
4581.626526,280.555000,4.105208
4588.866727,280.612000,3.991697
4596.103987,280.669000,4.924958
4603.338308,280.726000,4.747843
4610.696532,280.784000,4.334646
4617.924929,280.841000,3.127342
4625.150392,280.898000,7.799725
4632.372923,280.955000,3.551328
4639.592525,281.012000,7.009508
4646.809198,281.069000,5.185352
4654.022945,281.126000,5.626899
4661.233767,281.183000,3.854733
4668.441666,281.240000,2.483948
4675.646644,281.297000,6.116298
4682.848703,281.354000,5.990246
4690.047844,281.411000,2.945749
4697.244070,281.468000,2.920706
4704.437381,281.525000,5.249922
4711.627780,281.582000,5.139573
4718.815269,281.639000,5.979181
4725.999849,281.696000,4.485689
4733.181522,281.753000,7.192997
4740.360290,281.810000,5.332283
4747.536154,281.867000,5.333434
4754.583300,281.923000,4.782251
4761.753414,281.980000,7.902821
4768.920629,282.037000,7.600505
4776.084949,282.094000,7.875478
4783.246373,282.151000,6.495501
4790.404904,282.208000,7.571166
4797.435032,282.264000,8.848880
4804.587834,282.321000,7.164176
4811.737748,282.378000,8.028070
4818.884776,282.435000,7.525360
4826.028920,282.492000,7.587138
4833.044920,282.548000,6.624613
4840.183352,282.605000,7.144056
4847.318904,282.662000,7.021457
4854.451579,282.719000,8.886234
4861.456319,282.775000,5.475569
4868.583295,282.832000,7.807745
4875.707399,282.889000,7.714296
4882.703723,282.945000,6.765744
4889.822139,283.002000,7.586468
4896.937687,283.059000,5.998294
4903.925611,283.115000,7.467206
4911.035481,283.172000,5.712583
4918.142490,283.229000,6.202846
4925.122029,283.285000,9.517728
4932.223369,283.342000,5.566411
4939.197342,283.398000,4.629306
4946.293021,283.455000,8.816966
4953.385847,283.512000,5.704082
4960.351460,283.568000,8.432754
4967.438635,283.625000,6.151464
4974.398699,283.681000,6.418471
4981.480229,283.738000,6.594731
4988.434752,283.794000,7.313377
4995.510644,283.851000,8.733123
5002.459631,283.907000,3.069546
5009.529893,283.964000,4.814705
5016.473351,284.020000,4.630613
5023.537988,284.077000,5.159415
5030.475924,284.133000,5.375103
5037.534943,284.190000,5.490133
5044.467363,284.246000,6.344670
5051.397052,284.302000,5.059456
5058.447683,284.359000,6.314397
5065.371866,284.415000,5.929020
5072.416896,284.472000,3.184269
5079.335580,284.528000,1.868785
5086.251541,284.584000,2.212380
5093.288207,284.641000,1.890162
5100.198678,284.697000,3.711439
5107.106432,284.753000,1.269307
5114.134748,284.810000,3.100500
5121.037022,284.866000,3.791225
5127.936582,284.922000,0.765004
5134.833431,284.978000,2.549065
5141.850655,285.035000,3.017565
5148.742037,285.091000,1.666420
5155.630712,285.147000,2.387978
5162.516682,285.203000,2.556520
5169.522840,285.260000,2.913796
5176.403356,285.316000,4.646453
5183.281172,285.372000,1.390672
5190.156289,285.428000,-1.657211
5197.028709,285.484000,2.542368
5204.021082,285.541000,1.517592
5210.888064,285.597000,2.985410
5217.752353,285.653000,2.010504
5224.613952,285.709000,1.059577
5231.472862,285.765000,1.383817
5238.329083,285.821000,2.345185
5245.182619,285.877000,1.345965
5252.033470,285.933000,3.430326
5258.881638,285.989000,-0.191330
5265.727125,286.045000,3.379593
5272.569932,286.101000,0.599545
5279.532182,286.158000,3.410220
5286.369586,286.214000,-0.552441
5293.204315,286.270000,1.632404
5300.036371,286.326000,5.109800
5306.865755,286.382000,2.091383
5313.692468,286.438000,4.315626
5320.516513,286.494000,0.940127
5327.216104,286.549000,0.598763
5334.034863,286.605000,1.616836
5340.850958,286.661000,3.115481
5347.664391,286.717000,2.714643
5354.475163,286.773000,1.097642
5361.283275,286.829000,0.399918
5368.088729,286.885000,1.186324
5374.891528,286.941000,5.502807
5381.691671,286.997000,2.403218
5388.489161,287.053000,1.819036
5395.162686,287.108000,0.297518
5401.954922,287.164000,3.140811
5408.744509,287.220000,2.822282
5415.531448,287.276000,-0.723222
5422.315743,287.332000,1.835576
5428.976316,287.387000,5.091217
5435.755371,287.443000,0.219250
5442.531785,287.499000,4.243717
5449.305560,287.555000,2.196672
5456.076697,287.611000,3.639219
5462.724355,287.666000,5.430732
5469.490268,287.722000,2.347729
5476.253548,287.778000,1.028542
5482.893494,287.833000,3.623056
5489.651559,287.889000,1.334208
5496.406995,287.945000,2.060806
5503.039242,288.000000,1.665431
5509.789473,288.056000,2.635690
5516.537079,288.112000,2.513121
5523.161640,288.167000,-0.178543
5529.904050,288.223000,2.325246
5536.643840,288.279000,3.009485
5543.260729,288.334000,0.193345
5549.995332,288.390000,1.484248
5556.607128,288.445000,2.981454
5563.336549,288.501000,1.779404
5569.943259,288.556000,0.733600
5576.667504,288.612000,1.505151
5583.269134,288.667000,1.732055
5589.988209,288.723000,0.126715
5596.584764,288.778000,1.699282
5603.298676,288.834000,3.019484
5609.890162,288.889000,1.170004
5616.598916,288.945000,1.377096
5623.185340,289.000000,1.025697
5629.888941,289.056000,-0.052742
5636.470308,289.111000,1.867596
5643.168763,289.167000,2.378613
5649.745079,289.222000,1.447285
5656.438394,289.278000,3.928171
5663.009664,289.333000,3.302307
5669.578437,289.388000,0.614735
5676.264076,289.444000,1.504867
5682.827812,289.499000,5.262645
5689.389054,289.554000,0.040768
5696.067030,289.610000,1.692110
5702.623244,289.665000,2.940681
5709.176969,289.720000,2.833652
5715.847296,289.776000,2.571691
5722.396001,289.831000,3.702398
5728.942221,289.886000,2.335348
5735.485958,289.941000,2.598637
5742.146122,289.997000,1.690451
5748.684850,290.052000,1.072937
5755.221100,290.107000,0.201272
5761.754871,290.162000,2.488022
5768.404894,290.218000,1.882156
5774.933669,290.273000,4.126458
5781.459971,290.328000,-0.067620
5787.983800,290.383000,4.334522
5794.505158,290.438000,2.044715
5801.142550,290.494000,2.932786
5807.658926,290.549000,2.866612
5814.172835,290.604000,-1.983142
5820.684279,290.659000,0.383363
5827.193260,290.714000,1.260883
5833.699778,290.769000,0.238980
5840.203835,290.824000,-1.159667
5846.705432,290.879000,3.390549
5853.204572,290.934000,1.837708
5859.701254,290.989000,4.283426
5866.195481,291.044000,2.786400
5872.687254,291.099000,1.545110
5879.176574,291.154000,2.436332
5885.663444,291.209000,0.341104
5892.147863,291.264000,3.844181
5898.629834,291.319000,2.392258
5905.109357,291.374000,1.367171
5911.586435,291.429000,5.995899
5918.061069,291.484000,-4.175669
5924.533260,291.539000,7.329451
5931.003009,291.594000,-0.192760
5937.470318,291.649000,3.176483
5943.935188,291.704000,3.464924
5950.397621,291.759000,0.948673
5956.857618,291.814000,2.739154
5963.315180,291.869000,2.583268
5969.770309,291.924000,4.046412
5976.105706,291.978000,3.358492
5982.556017,292.033000,2.755238
5989.003898,292.088000,2.617566
5995.449352,292.143000,3.561438
6001.892379,292.198000,-0.131154
6008.215901,292.252000,2.022704
6014.654123,292.307000,0.760861
6021.089923,292.362000,1.054925
6027.523303,292.417000,3.206583
6033.954262,292.472000,0.605929
6040.265942,292.526000,1.722340
6046.692111,292.581000,2.514475
6053.115864,292.636000,-0.414201
6059.420472,292.690000,3.813276
6065.839442,292.745000,4.705880
6072.256000,292.800000,0.950481
6078.553548,292.854000,-2.286503
6084.965331,292.909000,3.561533
6091.374707,292.964000,0.642248
6097.665207,293.018000,2.608613
6104.069816,293.073000,4.441066
6110.472021,293.128000,3.389059
6116.755485,293.182000,3.458649
6123.152931,293.237000,2.907531
6129.431725,293.291000,2.562451
6135.824417,293.346000,1.627569
6142.098547,293.400000,-0.573526
6148.486490,293.455000,4.647294
6154.872040,293.510000,4.131152
6161.139160,293.564000,1.433951
6167.519969,293.619000,2.469817
6173.782438,293.673000,5.501207
6180.158512,293.728000,2.864210
6186.416334,293.782000,2.227541
6192.787678,293.837000,-1.339211
6199.040859,293.891000,6.051028
6205.291742,293.945000,3.062748
6211.656022,294.000000,0.704102
6217.902272,294.054000,-0.514476
6224.261835,294.109000,3.442800
6230.503456,294.163000,0.013974
6236.742786,294.217000,2.004309
6243.095305,294.272000,-1.241785
6249.330014,294.326000,0.867121
6255.677829,294.381000,0.379406
6261.907923,294.435000,1.206691
6268.135731,294.489000,3.474502
6274.476522,294.544000,3.743921
6280.699722,294.598000,-1.357508
6286.920642,294.652000,2.213161
6293.139281,294.706000,0.203598
6299.470739,294.761000,1.598857
6305.684781,294.815000,1.518678
6311.896546,294.869000,0.765887
6318.106037,294.923000,2.518398
6324.428182,294.978000,0.728459
6330.633085,295.032000,-0.606567
6336.835717,295.086000,-1.208657
6343.036080,295.140000,-1.805254
6349.234174,295.194000,1.914150
6355.544717,295.249000,0.390070
6361.738236,295.303000,1.244702
6367.929490,295.357000,3.735675
6374.118480,295.411000,1.136894
6380.305209,295.465000,0.102407
6386.489676,295.519000,3.439208
6392.671884,295.573000,1.381172
6398.851833,295.627000,3.393668
6405.143905,295.682000,0.882001
6411.319300,295.736000,1.760228
6417.492439,295.790000,1.426593
6423.663325,295.844000,1.791504
6429.831958,295.898000,2.116862
6435.998340,295.952000,2.693554
6442.162473,296.006000,-1.209285
6448.324357,296.060000,3.711640
6454.483993,296.114000,5.151984
6460.641384,296.168000,1.885794
6466.796529,296.222000,4.756658
6472.949431,296.276000,2.080611
6479.100090,296.330000,2.741323
6485.248508,296.384000,5.763785
6491.280888,296.437000,5.101826
6497.424869,296.491000,2.959600
6503.566612,296.545000,2.831656
6509.706118,296.599000,3.803262
6515.843390,296.653000,4.414531
6521.978427,296.707000,2.922734
6528.111232,296.761000,1.524468
6534.241805,296.815000,5.688311
6540.256681,296.868000,7.583005
6546.382836,296.922000,3.409473
6552.506763,296.976000,4.808770
6558.628464,297.030000,6.248512
6564.747939,297.084000,6.446738
6570.751928,297.137000,3.567522
6576.866997,297.191000,5.456049
6582.979845,297.245000,3.571451
6589.090471,297.299000,3.742473
6595.085780,297.352000,4.712043
6601.192010,297.406000,5.444986
6607.296023,297.460000,2.768492
6613.397821,297.514000,6.459873
6619.384468,297.567000,2.619048
6625.481879,297.621000,4.175454
6631.577077,297.675000,1.980284
6637.557251,297.728000,2.282867
6643.648069,297.782000,2.130711
6649.623947,297.835000,2.645846
6655.710390,297.889000,2.612616
6661.794627,297.943000,4.262870
6667.764048,297.996000,2.033002
6673.843917,298.050000,5.001266
6679.809053,298.103000,4.557478
6685.884559,298.157000,3.491093
6691.957864,298.211000,3.921519
6697.916562,298.264000,0.277064
6703.985510,298.318000,6.927336
6709.939935,298.371000,3.157613
6716.004532,298.425000,6.865542
6721.954688,298.478000,4.619348
6728.014938,298.532000,2.739979
6733.960830,298.585000,2.647944
6739.904611,298.638000,3.475846
6745.958369,298.692000,-0.009177
6751.897893,298.745000,3.887192
6757.947317,298.799000,4.158037
6763.882588,298.852000,4.683935
6769.927680,298.906000,4.560655
6775.858703,298.959000,3.490892
6781.787624,299.012000,2.891073
6787.826249,299.066000,2.377407
6793.750928,299.119000,0.127051
6799.673508,299.172000,0.465966
6805.705677,299.226000,5.866360
6811.624022,299.279000,1.245057
6817.540272,299.332000,3.404076
6823.565994,299.386000,1.789235
6829.478016,299.439000,1.155110
6835.387945,299.492000,0.994069
6841.407231,299.546000,1.392741
6847.312940,299.599000,-0.329231
6853.216559,299.652000,2.171806
6859.118090,299.705000,3.947167
6865.017534,299.758000,2.193674
6871.026143,299.812000,0.729029
6876.921378,299.865000,0.300928
6882.814529,299.918000,5.601230
6888.705597,299.971000,2.038622
6894.594584,300.024000,0.911528
6900.592545,300.078000,1.588339
6906.477333,300.131000,1.854903
6912.360044,300.184000,2.391606
6918.240677,300.237000,0.986789
6924.119235,300.290000,0.927208
6929.995718,300.343000,0.659840
6935.870127,300.396000,3.635912
6941.742464,300.449000,0.480692
6947.612730,300.502000,3.317246
6953.480925,300.555000,0.950209
6959.347051,300.608000,2.940471
6965.211108,300.661000,0.283364
6971.073099,300.714000,2.028029
6976.933024,300.767000,2.017393
6982.790884,300.820000,-1.828866
6988.646680,300.873000,1.783016
6994.500413,300.926000,0.817164
7000.352085,300.979000,1.045648
7006.201696,301.032000,-0.264664
7012.049248,301.085000,3.142479
7017.894742,301.138000,2.402883
7023.738178,301.191000,2.080182
7029.579559,301.244000,1.314240
7035.418884,301.297000,3.112249
7041.256155,301.350000,3.341024
7047.091373,301.403000,-0.077921
7052.924539,301.456000,1.445692
7058.645653,301.508000,-1.423338
7064.474758,301.561000,2.444015
7070.301814,301.614000,0.284950
7076.126822,301.667000,-2.774565
7081.949784,301.720000,1.062925
7087.660892,301.772000,1.976164
7093.479803,301.825000,0.975775
7099.296670,301.878000,1.480981
7105.111496,301.931000,2.567621
7110.814624,301.983000,3.351029
7116.625408,302.036000,7.508444
7122.434152,302.089000,0.617688
7128.240858,302.142000,2.476549
7133.936024,302.194000,3.882507
7139.738696,302.247000,0.369396
7145.539334,302.300000,1.724442
7151.228549,302.352000,2.116445
7157.025159,302.405000,4.195849
7162.819737,302.458000,3.445799
7168.503010,302.510000,-0.694128
7174.293567,302.563000,4.056383
7180.082095,302.616000,2.759958
7185.759436,302.668000,3.049194
7191.543949,302.721000,-0.845103
7197.217352,302.773000,1.311421
7202.997854,302.826000,5.540211
7208.667324,302.878000,0.470346
7214.443819,302.931000,0.666385
7220.109360,302.983000,3.079024
7225.881853,303.036000,2.266634
7231.543468,303.088000,1.548917
7237.311962,303.141000,5.327518
7242.969657,303.193000,0.950478
7248.734156,303.246000,-0.178714
7254.387934,303.298000,2.133059
7260.148443,303.351000,3.178829
7265.798308,303.403000,3.690758
7271.554831,303.456000,0.437506
7277.200787,303.508000,4.536913
7282.953328,303.561000,1.996215
7288.595379,303.613000,2.273249
7294.235498,303.665000,0.631615
7299.982093,303.718000,3.687790
7305.618313,303.770000,0.718573
7311.252604,303.822000,4.175316
7316.993262,303.875000,0.697864
7322.623660,303.927000,0.612962
7328.252131,303.979000,2.186893
7333.986862,304.032000,2.931705
7339.611446,304.084000,0.444529
7345.234108,304.136000,-1.107201
7350.962920,304.189000,0.212514
7356.581700,304.241000,2.575492
7362.198561,304.293000,3.274583
7367.813502,304.345000,1.954874
7373.426525,304.397000,1.697592
7379.145517,304.450000,3.831412
7384.754669,304.502000,1.242493
7390.361906,304.554000,1.621070
7395.967228,304.606000,4.291644
7401.570637,304.658000,2.952084
7407.279836,304.711000,2.164608
7412.879384,304.763000,0.703211
7418.477021,304.815000,2.246133
7424.072749,304.867000,1.572733
7429.666569,304.919000,3.343328
7435.258480,304.971000,-0.647323
7440.848486,305.023000,1.630547
7446.436585,305.075000,3.852251
7452.022780,305.127000,0.896265
7457.607071,305.179000,1.048636
7463.296795,305.232000,0.080654
7468.877245,305.284000,3.570982
7474.455794,305.336000,-0.620717
7480.032444,305.388000,-0.475133
7485.607195,305.440000,2.145002
7491.180048,305.492000,3.040933
7496.751004,305.544000,2.613512
7502.212985,305.595000,-0.409134
7507.780187,305.647000,-0.041648
7513.345495,305.699000,1.380356
7518.908909,305.751000,3.541674
7524.470432,305.803000,4.858225
7530.030064,305.855000,4.199522
7535.587805,305.907000,1.006823
7541.143658,305.959000,1.579946
7546.697622,306.011000,-0.215187
7552.249699,306.063000,3.705296
7557.693173,306.114000,2.327693
7563.241514,306.166000,-0.103852
7568.787971,306.218000,0.851742
7574.332545,306.270000,0.219168
7579.875237,306.322000,3.598677
7585.416047,306.374000,1.491424
7590.848476,306.425000,1.471056
7596.385562,306.477000,0.353488
7601.920769,306.529000,2.364932
7607.454098,306.581000,1.609473
7612.879195,306.632000,-0.105024
7618.408808,306.684000,2.117148
7623.936546,306.736000,4.490117
7629.462411,306.788000,3.194314
7634.880189,306.839000,1.641156
7640.402345,306.891000,1.618279
7645.922629,306.943000,0.985393
7651.334938,306.994000,2.932816
7656.851519,307.046000,2.324668
7662.260197,307.097000,1.686860
7667.773079,307.149000,-1.498542
7673.284094,307.201000,4.773056
7678.687317,307.252000,-2.420906
7684.194638,307.304000,3.861435
7689.700096,307.356000,4.484507
7695.097870,307.407000,0.515454
7700.599639,307.459000,2.370353
7705.993798,307.510000,2.885698
7711.491883,307.562000,4.554176
7716.882430,307.613000,1.975524
7722.376833,307.665000,0.709571
7727.763772,307.716000,0.293340
7733.254498,307.768000,-1.177677
7738.637831,307.819000,-0.633697
7744.124884,307.871000,-0.425732
7749.504617,307.922000,0.219985
7754.988000,307.974000,0.145320
7760.364134,308.025000,0.992343
7765.738489,308.076000,3.025074
7771.216392,308.128000,-0.387654
7776.587155,308.179000,1.339907
7782.061397,308.231000,0.654208
7787.428571,308.282000,0.683961
7792.793970,308.333000,1.606456
7798.262745,308.385000,2.944785
7803.624561,308.436000,0.242704
7808.984603,308.487000,3.335465
7814.447920,308.539000,5.324241
7819.804385,308.590000,-0.038340
7825.159080,308.641000,0.777202
7830.616947,308.693000,-1.393163
7835.968069,308.744000,2.961582
7841.317424,308.795000,0.525503
7846.665012,308.846000,1.699059
7852.115636,308.898000,1.912715
7857.459659,308.949000,-0.030854
7862.801917,309.000000,-0.804345
7868.142413,309.051000,1.094495
7873.481146,309.102000,3.114577
7878.922746,309.154000,1.018870
7884.257923,309.205000,0.460832
7889.591340,309.256000,1.537836
7894.922998,309.307000,2.058918
7900.252898,309.358000,3.040624
7905.581041,309.409000,-1.569238
7910.907428,309.460000,0.315744
7916.336447,309.512000,2.048835
7921.659290,309.563000,-0.692796
7926.980379,309.614000,3.342459
7932.299715,309.665000,-1.834538
7937.617300,309.716000,2.301519
7942.933134,309.767000,1.012199
7948.247217,309.818000,-1.363095
7953.559551,309.869000,2.107329
7958.870137,309.920000,2.567970
7964.178976,309.971000,2.159390
7969.486068,310.022000,2.797641
7974.791414,310.073000,1.525021
7980.095015,310.124000,0.351515
7985.396872,310.175000,1.311088
7990.696985,310.226000,0.820014
7995.995357,310.277000,0.135410
8001.291987,310.328000,0.196371
8006.586876,310.379000,-1.665082
8011.880026,310.430000,0.481535
8017.067700,310.480000,-1.868256
8022.357406,310.531000,-1.871269
8027.645376,310.582000,2.209203
8032.931609,310.633000,0.751059
8038.216106,310.684000,-1.139086
8043.498869,310.735000,-0.941054
8048.779898,310.786000,-0.055367
8053.955695,310.836000,1.290735
8059.233293,310.887000,-1.008911
8064.509160,310.938000,-0.248717
8069.783296,310.989000,-0.207810
8074.952339,311.039000,1.054640
8080.223051,311.090000,-0.377272
8085.492035,311.141000,-1.275497
8090.759292,311.192000,-0.586859
8095.921594,311.242000,-2.128785
8101.185433,311.293000,0.195257
8106.447548,311.344000,-1.571785
8111.604811,311.394000,-1.184036
8116.863513,311.445000,0.324466
8122.120493,311.496000,3.564309
8127.272724,311.546000,2.405314
8132.526297,311.597000,-1.636360
8137.778150,311.648000,1.710602
8142.925357,311.698000,-0.198195
8148.173807,311.749000,-0.520686
8153.420541,311.800000,1.848180
8158.562731,311.850000,-1.747383
8163.806066,311.901000,-0.621387
8168.944927,311.951000,-0.613018
8174.184869,312.002000,1.673050
8179.320403,312.052000,-0.561612
8184.556953,312.103000,-1.507378
8189.689165,312.153000,-3.289525
8194.922327,312.204000,-0.982416
8200.051219,312.254000,0.205015
8205.280996,312.305000,3.348818
8210.406572,312.355000,2.013147
8215.632968,312.406000,-1.037495
8220.755230,312.456000,-0.743241
8225.978248,312.507000,2.083856
8231.097200,312.557000,-0.178585
8236.316843,312.608000,3.708154
8241.432488,312.658000,2.389629
8246.546497,312.708000,1.745585
8251.761101,312.759000,1.727397
8256.871808,312.809000,4.203381
8261.980881,312.859000,2.375049
8267.190453,312.910000,2.505754
8272.296229,312.960000,2.331458
8277.400373,313.010000,1.588644
8282.604921,313.061000,3.306583
8287.705773,313.111000,2.329722
8292.804996,313.161000,0.618912
8298.004526,313.212000,2.710298
8303.100462,313.262000,2.030537
8308.194770,313.312000,2.239951
8313.287453,313.362000,-0.162720
8318.480316,313.413000,1.181248
8323.569717,313.463000,0.110316
8328.657496,313.513000,1.401160
8333.743651,313.563000,2.529244
8338.828185,313.613000,0.375364
8344.012739,313.664000,0.327154
8349.094000,313.714000,-0.364986
8354.173640,313.764000,2.113557
8359.251662,313.814000,2.538377
8364.328066,313.864000,0.209611
8369.402853,313.914000,1.355009
8374.476024,313.964000,2.807914
8379.547579,314.014000,2.642201
8384.718901,314.065000,0.233140
8389.787195,314.115000,1.951640
8394.853876,314.165000,3.670995
8399.918944,314.215000,2.992293
8404.982400,314.265000,3.278100
8410.044246,314.315000,1.806221
8415.104481,314.365000,-0.037882
8420.163107,314.415000,-0.007613
8425.220124,314.465000,3.841349
8430.275533,314.515000,0.164748
8435.329336,314.565000,0.043280
8440.381532,314.615000,2.316854
8445.432122,314.665000,1.117777
8450.481107,314.715000,3.440750
8455.528489,314.765000,2.813205
8460.473367,314.814000,2.262387
8465.517575,314.864000,1.172670
8470.560181,314.914000,2.596698
8475.601186,314.964000,3.166702
8480.640590,315.014000,2.292890
8485.678395,315.064000,0.714130
8490.714602,315.114000,1.950817
8495.749210,315.164000,-1.105964
8500.681577,315.213000,0.816688
8505.713024,315.263000,-0.166383
8510.742875,315.313000,-1.518184
8515.771131,315.363000,4.075859
8520.797793,315.413000,0.452453
8525.722375,315.462000,0.816338
8530.745883,315.512000,1.474533
8535.767799,315.562000,1.332677
8540.788124,315.612000,-0.698711
8545.706499,315.661000,1.388247
8550.723675,315.711000,-1.533647
8555.739262,315.761000,0.592965
8560.652997,315.810000,0.824643
8565.665441,315.860000,0.591984
8570.676298,315.910000,0.587049
8575.585399,315.959000,-1.315319
8580.593116,316.009000,-1.088873
8585.599249,316.059000,-0.665130
8590.503723,316.108000,-1.582042
8595.506721,316.158000,-0.939800
8600.508137,316.208000,0.730421
8605.407991,316.257000,3.117326
8610.406276,316.307000,-1.042966
8615.303063,316.356000,-1.143177
8620.298221,316.406000,-1.899928
8625.191944,316.455000,-4.213191
8630.183977,316.505000,-2.380336
8635.074640,316.554000,0.375615
8640.063551,316.604000,-0.757383
8644.951156,316.653000,-2.012783
8649.936949,316.703000,1.759483
8654.821499,316.752000,0.101730
8659.804175,316.802000,0.127806
8664.685673,316.851000,-0.494461
8669.665237,316.901000,-2.268819
8674.543685,316.950000,0.980176
8679.520139,317.000000,0.312563
8684.395541,317.049000,-4.022046
8689.269436,317.098000,-2.519972
8694.241247,317.148000,0.075177
8699.112100,317.197000,-0.433931
8703.981448,317.246000,-0.662904
8708.948621,317.296000,0.714994
8713.814931,317.345000,-0.606109
8718.779005,317.395000,-1.287816
8723.642281,317.444000,1.297340
8728.504055,317.493000,1.343252
8733.364329,317.542000,1.049576
8738.322247,317.592000,-1.277931
8743.179491,317.641000,-2.220238
8748.035237,317.690000,4.705526
8752.889486,317.739000,-0.529519
8757.841258,317.789000,-2.241463
8762.692483,317.838000,1.388124
8767.542212,317.887000,1.488430
8772.390446,317.936000,-2.442532
8777.336084,317.986000,-3.001193
8782.181300,318.035000,1.080191
8787.025024,318.084000,0.989446
8791.867255,318.133000,-2.657854
8796.707995,318.182000,-2.079977
8801.547244,318.231000,0.244315
8806.385003,318.280000,-0.230841
8811.319957,318.330000,-0.108738
8816.154708,318.379000,1.880336
8820.987971,318.428000,-0.426700
8825.819746,318.477000,1.241971
8830.650035,318.526000,-0.436124
8835.478838,318.575000,-1.053404
8840.306156,318.624000,1.003993
8845.131990,318.673000,1.022493
8849.956339,318.722000,-0.705817
8854.779206,318.771000,0.130230
8859.600590,318.820000,-0.417924
8864.420492,318.869000,1.446978
8869.238913,318.918000,-0.226318
8874.055854,318.967000,-1.490244
8878.871314,319.016000,1.536449
8883.685296,319.065000,-1.717822
8888.497800,319.114000,1.943558
8893.308826,319.163000,2.966442
8898.118374,319.212000,1.283868
8902.926447,319.261000,-0.777843
8907.634964,319.309000,-0.053054
8912.440116,319.358000,-0.872765
8917.243794,319.407000,-0.789144
8922.045998,319.456000,-2.305652
8926.846729,319.505000,-1.916249
8931.645988,319.554000,-2.130677
8936.443775,319.603000,-0.660139
8941.142222,319.651000,1.165413
8945.937098,319.700000,0.732083
8950.730504,319.749000,-1.840519
8955.522441,319.798000,0.213367
8960.215161,319.846000,0.564633
8965.004192,319.895000,0.788056
8969.791757,319.944000,-1.992158
8974.577855,319.993000,0.005103
8979.264858,320.041000,-1.930686
8984.048055,320.090000,0.424803
8988.829789,320.139000,-1.410124
8993.512517,320.187000,-1.266296
8998.291355,320.236000,-0.657691
9003.068730,320.285000,-2.858033
9007.747190,320.333000,1.239770
9012.521672,320.382000,0.148951
9017.294694,320.431000,-0.230750
9021.968893,320.479000,-0.020800
9026.739026,320.528000,1.429837
9031.410396,320.576000,0.679999
9036.177644,320.625000,-4.204807
9040.943434,320.674000,-0.776346
9045.610552,320.722000,1.782019
9050.373460,320.771000,-0.339875
9055.037756,320.819000,-1.733546
9059.797784,320.868000,0.393391
9064.459261,320.916000,0.154851
9069.216413,320.965000,1.015866
9073.875072,321.013000,0.314794
9078.629350,321.062000,-1.908498
9083.285194,321.110000,0.570601
9088.036601,321.159000,1.060110
9092.689634,321.207000,1.099857
9097.438171,321.256000,1.000739
9102.088394,321.304000,0.141610
9106.737229,321.352000,1.169006
9111.481482,321.401000,1.882276
9116.127511,321.449000,2.217518
9120.868902,321.498000,1.021823
9125.512128,321.546000,0.689965
9130.153968,321.594000,0.158459
9134.891085,321.643000,-2.508837
9139.530126,321.691000,1.146142
9144.167783,321.739000,-1.871502
9148.900630,321.788000,-2.374117
9153.535492,321.836000,-0.270956
9158.168971,321.884000,-1.053722
9162.801069,321.932000,-0.327438
9167.528244,321.981000,-0.935262
9172.157551,322.029000,0.282786
9176.785479,322.077000,-0.801951
9181.412027,322.125000,-1.282208
9186.133540,322.174000,0.428026
9190.757302,322.222000,0.723657
9195.379688,322.270000,-0.964000
9200.000697,322.318000,-1.174978
9204.620330,322.366000,0.905408
9209.334786,322.415000,-2.053394
9213.951640,322.463000,1.095485
9218.567119,322.511000,-1.398384
9223.181225,322.559000,-2.521147
9227.793957,322.607000,-1.286849
9232.405318,322.655000,0.478701
9237.015306,322.703000,-0.741662
9241.623923,322.751000,0.517544
9246.231170,322.799000,1.070948
9250.932988,322.848000,-1.742829
9255.537466,322.896000,1.095152
9260.140576,322.944000,-1.705574
9264.742318,322.992000,-1.064370
9269.342693,323.040000,1.381222
9273.941700,323.088000,3.110313
9278.539341,323.136000,-2.380627
9283.135616,323.184000,-0.458573
9287.730527,323.232000,-2.269320
9292.324072,323.280000,-1.755175
9296.916254,323.328000,-0.028654
9301.411445,323.375000,0.293063
9306.000929,323.423000,-1.796854
9310.589052,323.471000,-0.710879
9315.175812,323.519000,-1.311471
9319.761212,323.567000,0.756065
9324.345252,323.615000,-0.528038
9328.927932,323.663000,0.583363
9333.509253,323.711000,-3.564353
9338.089216,323.759000,-1.803027
9342.572447,323.806000,-1.121906
9347.149722,323.854000,-0.704804
9351.725642,323.902000,0.585066
9356.300205,323.950000,-0.614630
9360.873412,323.998000,0.710225
9365.350032,324.045000,-1.766643
9369.920559,324.093000,-4.111858
9374.489732,324.141000,-0.315998
9379.057552,324.189000,-1.081035
9383.528899,324.236000,-0.436769
9388.094043,324.284000,0.170326
9392.657836,324.332000,1.339312
9397.125241,324.379000,0.796451
9401.686361,324.427000,-2.354076
9406.246132,324.475000,-2.755429
9410.804554,324.523000,2.469015
9415.266702,324.570000,-0.037579
9419.822456,324.618000,-1.394130
9424.281993,324.665000,-2.707822
9428.835082,324.713000,1.823635
9433.386824,324.761000,-2.298309
9437.842435,324.808000,-0.853084
9442.391516,324.856000,2.360421
9446.844521,324.903000,0.632508
9451.390942,324.951000,0.161377
9455.936020,324.999000,-0.493672
9460.385108,325.046000,0.483272
9464.927530,325.094000,0.553011
9469.374018,325.141000,-0.215261
9473.913786,325.189000,-0.315393
9478.357677,325.236000,0.138119
9482.894794,325.284000,-2.359503
9487.336090,325.331000,-1.261088
9491.870557,325.379000,-0.130816
9496.309260,325.426000,1.061127
9500.746681,325.473000,-0.602754
9505.277193,325.521000,0.517042
9509.712024,325.568000,-1.332830
9514.239893,325.616000,1.400883
9518.672137,325.663000,-1.614012
9523.103102,325.710000,-2.608531
9527.627024,325.758000,1.072089
9532.055405,325.805000,-0.515313
9536.576689,325.853000,0.828731
9541.002489,325.900000,-0.477248
9545.427013,325.947000,1.422441
9549.850260,325.994000,-1.821555
9554.366303,326.042000,-0.246867
9558.786974,326.089000,-0.210621
9563.206371,326.136000,-1.914899
9567.718482,326.184000,-1.679499
9572.135305,326.231000,-0.462973
9576.550855,326.278000,-2.033328
9580.965134,326.325000,-4.681465
9585.472021,326.373000,-0.138546
9589.883730,326.420000,2.218557
9594.294169,326.467000,0.667066
9598.703338,326.514000,-0.571767
9603.111238,326.561000,-0.099272
9607.611614,326.609000,-0.444237
9612.016950,326.656000,2.490475
9616.421019,326.703000,-2.584289
9620.823821,326.750000,0.757325
9625.225356,326.797000,1.608468
9629.625626,326.844000,-1.416183
9634.024630,326.891000,0.155915
9638.422369,326.938000,-1.669434
9642.818845,326.985000,-2.091368
9647.214056,327.032000,-1.489348
9651.701479,327.080000,-0.599998
9656.094138,327.127000,-2.266691
9660.485535,327.174000,-1.633258
9664.875670,327.221000,-2.296728
9669.264544,327.268000,0.382505
9673.652158,327.315000,-0.764796
9678.038512,327.362000,-0.754144
9682.423607,327.409000,-0.250461
9686.807443,327.456000,-3.521603
9691.190021,327.503000,-1.314731
9695.478134,327.549000,0.980284
9699.858224,327.596000,-0.350158
9704.237057,327.643000,-2.422574
9708.614633,327.690000,-0.857295
9712.990955,327.737000,-0.171931
9717.366021,327.784000,-3.321249
9721.739833,327.831000,0.049130
9726.112390,327.878000,0.941495
9730.483695,327.925000,0.917125
9734.760780,327.971000,-2.639933
9739.129606,328.018000,1.631468
9743.497180,328.065000,-0.484079
9747.863503,328.112000,1.315796
9752.228575,328.159000,0.921355
9756.499562,328.205000,-1.397549
9760.862161,328.252000,-1.371560
9765.223511,328.299000,-0.595946
9769.583612,328.346000,-0.183827
9773.849737,328.392000,-0.667559
9778.207369,328.439000,0.267492
9782.563754,328.486000,-1.818918
9786.918893,328.533000,1.468035
9791.180163,328.579000,-1.151998
9795.532837,328.626000,-0.056610
9799.884266,328.673000,1.725236
9804.141906,328.719000,-1.001870
9808.490874,328.766000,-1.282956
9812.838598,328.813000,0.815185
9817.092614,328.859000,-0.877521
9821.437879,328.906000,2.395023
9825.689490,328.952000,-0.744779
9830.032299,328.999000,-1.913796
9834.373868,329.046000,-1.956953
9838.621862,329.092000,-0.685262
9842.960977,329.139000,-0.772873
9847.206571,329.185000,2.522473
9851.543235,329.232000,1.178340
9855.786431,329.278000,1.631991
9860.120646,329.325000,0.097096
9864.361446,329.371000,-0.233125
9868.693214,329.418000,0.368097
9872.931619,329.464000,-1.659504
9877.260942,329.511000,0.368850
9881.496956,329.557000,0.940526
9885.823836,329.604000,0.132164
9890.057460,329.650000,1.222348
9894.289903,329.696000,1.322544
9898.613135,329.743000,-0.404117
9902.843191,329.789000,0.208488
9907.163985,329.836000,1.790447
9911.391656,329.882000,-1.688279
9915.618148,329.928000,0.602080
9919.935303,329.975000,-0.904293
9924.159413,330.021000,0.607018
9928.382346,330.067000,0.103970
9932.695866,330.114000,2.085228
9936.916419,330.160000,-1.955573
9941.135797,330.206000,-0.988055
9945.445687,330.253000,-1.008639
9949.662689,330.299000,-0.504265
9953.878516,330.345000,-1.569343
9958.093170,330.391000,-0.849283
9962.398234,330.438000,-1.722771
9966.610516,330.484000,3.314102
9970.821625,330.530000,-2.137439
9975.031562,330.576000,-1.310546
9979.240328,330.622000,1.529225
9983.539380,330.669000,0.807648
9987.745778,330.715000,-0.741117
9991.951007,330.761000,0.238156
9996.155067,330.807000,0.211316
10000.357957,330.853000,0.752948
10004.559679,330.899000,2.367137
10008.760233,330.945000,0.207886
10013.050897,330.992000,-1.839588
10017.249091,331.038000,0.951292
10021.446118,331.084000,-1.877411
10025.641979,331.130000,-1.463329
10029.836675,331.176000,1.712846
10034.030205,331.222000,-0.292389
10038.222571,331.268000,0.764298
10042.413773,331.314000,2.863907
10046.603811,331.360000,-1.549912
10050.792686,331.406000,-1.461468
10054.980398,331.452000,-0.414052
10059.166948,331.498000,-0.251808
10063.352336,331.544000,-2.150235
10067.536563,331.590000,4.651505
10071.719629,331.636000,2.178826
10075.901535,331.682000,-0.963684
10080.082281,331.728000,3.073542
10084.261868,331.774000,-2.440345
10088.440296,331.820000,0.946271
10092.526768,331.865000,1.334723
10096.702905,331.911000,1.486422
10100.877884,331.957000,1.247113
10105.051707,332.003000,-0.999257
10109.224373,332.049000,-0.206185
10113.395884,332.095000,2.101955
10117.475591,332.140000,-0.818158
10121.644816,332.186000,-0.849064
10125.812886,332.232000,0.842906
10129.979802,332.278000,0.373025
10134.145565,332.324000,-0.754453
10138.219652,332.369000,-0.724438
10142.383134,332.415000,0.914404
10146.545464,332.461000,0.475728
10150.706643,332.507000,1.765863
10154.776247,332.552000,-0.166535
10158.935148,332.598000,-0.679215
10163.092900,332.644000,0.157697
10167.159152,332.689000,-0.078843
10171.314630,332.735000,-1.814442
10175.468958,332.781000,0.182633
10179.531864,332.826000,0.278789
10183.683921,332.872000,0.865782
10187.834831,332.918000,1.190940
10191.894393,332.963000,-0.782130
10196.043035,333.009000,-0.156001
10200.190530,333.055000,2.293432
10204.246754,333.100000,2.972607
10208.391984,333.146000,-1.282319
10212.445992,333.191000,-0.875729
10216.588958,333.237000,-1.903360
10220.640753,333.282000,2.886117
10224.781457,333.328000,-1.817691
10228.831039,333.373000,-0.503819
10232.969483,333.419000,-0.015941
10237.016856,333.464000,-0.929343
10241.153042,333.510000,-0.700228
10245.198206,333.555000,-0.795071
10249.332135,333.601000,-0.164479
10253.375094,333.646000,-0.784832
10257.506768,333.692000,2.796114
10261.547522,333.737000,-1.961762
10265.587186,333.782000,0.066753
10269.715494,333.828000,-0.577156
10273.752956,333.873000,1.631305
10277.879015,333.919000,-2.953681
10281.914277,333.964000,-3.344654
10285.948452,334.009000,-1.588578
10290.071151,334.055000,0.542059
10294.103128,334.100000,0.029837
10298.134020,334.145000,-1.402738
10302.253364,334.191000,-0.059796
10306.282060,334.236000,0.352613
10310.309672,334.281000,1.819135
10314.425666,334.327000,-2.071853
10318.451085,334.372000,-0.191006
10322.475422,334.417000,2.662451
10326.498675,334.462000,1.436105
10330.610215,334.508000,0.832679
10334.631280,334.553000,1.422476
10338.651263,334.598000,-1.550127
10342.670165,334.643000,-0.751108
10346.687987,334.688000,-1.838491
10350.704728,334.733000,1.087201
10354.809614,334.779000,-1.082844
10358.824172,334.824000,0.133911
10362.837651,334.869000,0.297042
10366.850051,334.914000,-1.442379
10370.861373,334.959000,-1.666013
10374.871618,335.004000,1.056364
10378.880786,335.049000,0.756336
10382.888876,335.094000,0.023267
10386.984923,335.140000,0.156015
10390.990838,335.185000,-1.016215
10394.995677,335.230000,2.621141
10398.999440,335.275000,2.871488
10403.002130,335.320000,0.386381
10407.003745,335.365000,1.129423
10411.004286,335.410000,1.419707
10415.003755,335.455000,0.226273
10419.002150,335.500000,1.676735
10422.999473,335.545000,-3.096538
10426.995723,335.590000,-1.487003
10430.990902,335.635000,1.610242
10434.985010,335.680000,2.418989
10438.889325,335.724000,-0.586229
10442.881316,335.769000,0.412239
10446.872237,335.814000,2.430144
10450.862088,335.859000,1.994941
10454.850871,335.904000,-0.301826
10458.838585,335.949000,0.364475
10462.825230,335.994000,-0.439211
10466.810808,336.039000,0.125253
10470.706786,336.083000,-1.105610
10474.690253,336.128000,1.301632
10478.672654,336.173000,-2.218704
10482.653989,336.218000,1.495191
10486.634259,336.263000,0.480619
10490.525048,336.307000,-2.601927
10494.503211,336.352000,0.108248
10498.480310,336.397000,1.073975
10502.456345,336.442000,-1.761961
10506.342995,336.486000,0.757922
10510.316927,336.531000,2.497048
10514.289797,336.576000,-1.303769
10518.261604,336.621000,-1.030355
10522.144122,336.665000,-2.791998
10526.113830,336.710000,0.088748
10530.082477,336.755000,2.169245
10533.961906,336.799000,-1.979098
10537.928455,336.844000,-1.341829
10541.893946,336.889000,1.703704
10545.770289,336.933000,0.519573
10549.733685,336.978000,-1.247826
10553.607982,337.022000,1.848332
10557.569284,337.067000,1.551939
10561.529529,337.112000,-1.451721
10565.400747,337.156000,-0.156603
10569.358902,337.201000,-0.123863
10573.228076,337.245000,-0.127812
10577.184142,337.290000,-1.636378
10581.051275,337.334000,-2.381056
10585.005254,337.379000,-0.575939
10588.870347,337.423000,-0.614219
10592.822240,337.468000,0.657735
10596.685295,337.512000,-1.722342
10600.635105,337.557000,-0.173873
10604.496123,337.601000,-1.317822
10608.443850,337.646000,-2.227222
10612.302834,337.690000,1.623995
10616.160811,337.734000,-0.788469
10620.105430,337.779000,-0.544573
10623.961375,337.823000,-0.556130
10627.903916,337.868000,-0.092385
10631.757830,337.912000,-2.895625
10635.610740,337.956000,-3.061749
10639.550179,338.001000,-6.177596
10643.401061,338.045000,-0.704667
10647.250940,338.089000,1.910772
10651.187281,338.134000,-0.288906
10655.035134,338.178000,1.532933
10658.881986,338.222000,0.486407
10662.815231,338.267000,1.985105
10666.660059,338.311000,-2.028241
10670.503887,338.355000,-1.876008
10674.346716,338.399000,2.578380
10678.275848,338.444000,-1.736889
10682.116656,338.488000,0.386901
10685.956465,338.532000,-1.086755
10689.795276,338.576000,-1.060090
10693.633090,338.620000,-1.980164
10697.557096,338.665000,1.039504
10701.392893,338.709000,-3.365170
10705.227693,338.753000,-2.584431
10709.061498,338.797000,1.431498
10712.894307,338.841000,-2.351436
10716.726120,338.885000,-2.842670
10720.556939,338.929000,-0.756111
10724.386763,338.973000,-0.082254
10728.302601,339.018000,-0.342302
10732.130414,339.062000,0.811946
10735.957235,339.106000,-3.336706
10739.783062,339.150000,1.558577
10743.607897,339.194000,-2.035795
10747.431740,339.238000,-3.319692
10751.254591,339.282000,-1.004086
10755.076450,339.326000,-2.939731
10758.897319,339.370000,-1.546475
10762.717197,339.414000,-2.543002
10766.536084,339.458000,0.074087
10770.353982,339.502000,-3.231743
10774.170890,339.546000,-1.594742
10777.986809,339.590000,-3.108646
10781.801740,339.634000,0.997479
10785.615682,339.678000,-0.724424
10789.341989,339.721000,0.739620
10793.153978,339.765000,-3.348708
10796.964980,339.809000,-0.742777
10800.774995,339.853000,-1.777633
10804.584024,339.897000,2.190488
10808.392066,339.941000,0.422639
10812.199123,339.985000,-1.630897
10816.005195,340.029000,3.855351
10819.723813,340.072000,4.200746
10823.527938,340.116000,-1.365827
10827.331078,340.160000,-2.559232
10831.133235,340.204000,2.214042
10834.848029,340.247000,0.048317
10838.648242,340.291000,-1.177792
10842.447472,340.335000,0.862905
10846.245720,340.379000,-1.313267
10849.956695,340.422000,-0.390339
10853.753002,340.466000,0.996924
10857.548328,340.510000,2.842396
10861.342673,340.554000,3.770188
10865.049836,340.597000,-1.573158
10868.842243,340.641000,0.157363
10872.633670,340.685000,-0.417667
10876.337983,340.728000,0.581120
10880.127474,340.772000,0.174935
10883.829896,340.815000,0.536489
10887.617453,340.859000,2.739535
10891.404033,340.903000,0.099558
10895.103609,340.946000,-0.849924
10898.888257,340.990000,3.253395
10902.585946,341.033000,-2.643271
10906.368663,341.077000,-0.165141
10910.150404,341.121000,-1.701928
10913.845254,341.164000,-3.659818
10917.625066,341.208000,0.957094
10921.318033,341.251000,-0.116506
10925.095918,341.295000,0.028454
10928.787002,341.338000,-3.342149
10932.562962,341.382000,-0.119242
10936.252165,341.425000,0.036223
10939.940439,341.468000,0.394620
10943.713524,341.512000,0.741347
10947.399919,341.555000,-0.998477
10951.171083,341.599000,1.981898
10954.855601,341.642000,-0.562935
10958.624845,341.686000,0.043998
10962.307486,341.729000,3.158479
10965.989201,341.772000,-0.242206
10969.755578,341.816000,-1.886979
10973.435419,341.859000,2.795015
10977.114334,341.902000,-2.081753
10980.877848,341.946000,-2.332130
10984.554892,341.989000,1.304833
10988.231011,342.032000,1.958212
10991.991665,342.076000,0.947032
10995.665914,342.119000,-2.500498
10999.339240,342.162000,-0.644225
11003.011643,342.205000,-0.434664
11006.768496,342.249000,-1.729894
11010.439032,342.292000,1.504612
11014.108646,342.335000,0.881354
11017.777338,342.378000,0.389823
11021.530396,342.422000,0.691946
11025.197224,342.465000,-0.046572
11028.863132,342.508000,-1.308619
11032.528119,342.551000,1.008351
11036.192187,342.594000,0.899890
11039.855335,342.637000,-1.367049
11043.602720,342.681000,-2.111381
11047.264009,342.724000,0.488577
11050.924378,342.767000,0.057441
11054.583829,342.810000,1.781713
11058.242363,342.853000,1.829387
11061.899979,342.896000,0.267481
11065.556677,342.939000,-1.854537
11069.212459,342.982000,-1.339500
11072.867324,343.025000,-0.211634
11076.521273,343.068000,0.369604
11080.174306,343.111000,0.350779
11083.826423,343.154000,2.845380
11087.477626,343.197000,0.271067
11091.127913,343.240000,0.173151
11094.777286,343.283000,0.565348
11098.425745,343.326000,-2.746011
11102.073291,343.369000,-4.171995
11105.719922,343.412000,0.752046
11109.365641,343.455000,-0.007124
11113.010447,343.498000,2.420110
11116.654340,343.541000,-1.032664
11120.297322,343.584000,1.370023
11123.939391,343.627000,-2.703090
11127.580549,343.670000,0.096381
11131.220797,343.713000,-2.212301
11134.775508,343.755000,-2.265367
11138.413955,343.798000,2.902973
11142.051492,343.841000,-1.233823
11145.688120,343.884000,0.016903
11149.323838,343.927000,0.737326
11152.958647,343.970000,-0.031035
11156.508049,344.012000,1.733588
11160.141062,344.055000,1.995552
11163.773167,344.098000,-1.248873
11167.404365,344.141000,-1.290882
11170.950240,344.183000,2.103781
11174.579645,344.226000,0.486111
11178.208143,344.269000,0.256754
11181.751382,344.311000,0.947292
11185.378088,344.354000,0.474415
11189.003889,344.397000,1.403757
11192.628785,344.440000,3.135638
11196.168507,344.482000,-0.913769
11199.791614,344.525000,1.064075
11203.413817,344.568000,-0.346310
11206.950910,344.610000,0.789988
11210.571327,344.653000,-1.465626
11214.106675,344.695000,1.187616
11217.725306,344.738000,2.084296
11221.343035,344.781000,-0.422516
11224.875759,344.823000,1.389883
11228.491704,344.866000,1.764273
11232.022687,344.908000,-1.046886
11235.636851,344.951000,-1.085711
11239.166094,344.993000,-0.695578
11242.778477,345.036000,0.967113
11246.305982,345.078000,-1.520459
11249.916585,345.121000,-0.725258
11253.442353,345.163000,-1.120113
11257.051178,345.206000,0.651879
11260.575210,345.248000,-1.432850
11264.182259,345.291000,-1.459529
11267.704555,345.333000,0.364833
11271.309829,345.376000,-0.376586
11274.830392,345.418000,-1.083713
11278.350100,345.460000,0.675980
11281.952723,345.503000,-2.275354
11285.470699,345.545000,0.477436
11288.987820,345.587000,-0.582899
11292.587796,345.630000,-0.386631
11296.103187,345.672000,-2.259064
11299.701393,345.715000,-2.621073
11303.215056,345.757000,-3.422969
11306.727865,345.799000,1.177081
11310.239821,345.841000,-2.719166
11313.834512,345.884000,-1.287592
11317.344742,345.926000,2.205629
11320.854120,345.968000,-2.210816
11324.446172,346.011000,-4.409697
11327.953826,346.053000,-1.233140
11331.460629,346.095000,-3.123024
11334.966581,346.137000,-2.250816
11338.471682,346.179000,-1.035075
11342.059357,346.222000,-0.645901
11345.562737,346.264000,-2.328721
11349.065268,346.306000,-0.465494
11352.566949,346.348000,0.243360
11356.067781,346.390000,-0.787867
11359.567764,346.432000,3.770177
11363.150201,346.475000,-2.794957
11366.648467,346.517000,0.650535
11370.145885,346.559000,-2.401948
11373.642456,346.601000,0.149085
11377.138179,346.643000,0.603238
11380.633055,346.685000,0.386893
11384.127085,346.727000,1.350106
11387.620268,346.769000,0.979337
11391.112605,346.811000,-2.812005
11394.604096,346.853000,0.164312
11398.094742,346.895000,-3.533100
11401.584543,346.937000,-0.055477
11405.073499,346.979000,-2.188669
11408.561610,347.021000,0.486899
11412.048877,347.063000,-0.161696
11415.535301,347.105000,1.997083
11419.020880,347.147000,0.449431
11422.505617,347.189000,0.723363
11425.989510,347.231000,1.513900
11429.472560,347.273000,0.990833
11432.954769,347.315000,0.606288
11436.436135,347.357000,0.624139
11439.916659,347.399000,1.652190
11443.313502,347.440000,-1.773321
11446.792364,347.482000,-3.971664
11450.270384,347.524000,-1.963950
11453.747565,347.566000,1.332666
11457.223905,347.608000,-1.498534
11460.699405,347.650000,-0.749180
11464.091345,347.691000,-0.207233
11467.565186,347.733000,-0.704958
11471.038188,347.775000,-1.760225
11474.510351,347.817000,-2.190230
11477.981676,347.859000,1.473778
11481.369541,347.900000,-1.301654
11484.839210,347.942000,0.436653
11488.308041,347.984000,-4.016289
11491.693473,348.025000,0.595769
11495.160650,348.067000,-1.648706
11498.626991,348.109000,1.863687
11502.092494,348.151000,-1.487063
11505.474680,348.192000,-0.980107
11508.938532,348.234000,1.627269
11512.401549,348.276000,-0.720377
11515.781307,348.317000,0.678988
11519.242673,348.359000,1.691292
11522.620821,348.400000,-0.360846
11526.080539,348.442000,1.403868
11529.539422,348.484000,0.218316
11532.915148,348.525000,-1.222194
11536.372384,348.567000,-1.590329
11539.746502,348.608000,-0.154179
11543.202092,348.650000,0.239850
11546.574604,348.691000,-0.881604
11550.028550,348.733000,-0.381083
11553.399456,348.774000,-2.241605
11556.851758,348.816000,2.704075
11560.221061,348.857000,-0.455176
11563.671720,348.899000,1.979606
11567.039420,348.940000,0.271633
11570.488439,348.982000,1.084478
11573.854537,349.023000,-1.406600
11577.301915,349.065000,0.827221
11580.666413,349.106000,2.272617
11584.030120,349.147000,-0.742720
11587.475051,349.189000,-2.111664
11590.837159,349.230000,-1.377207
11594.280452,349.272000,1.713577
11597.640963,349.313000,1.715438
11601.000686,349.354000,-0.341254
11604.441535,349.396000,-1.121898
11607.799661,349.437000,2.130468
11611.157000,349.478000,-0.809595
11614.595408,349.520000,1.417799
11617.951152,349.561000,-0.934657
11621.306109,349.602000,2.651720
11624.660280,349.643000,0.458144
11628.095443,349.685000,-2.989130
11631.448022,349.726000,-0.791805
11634.799814,349.767000,0.991353
11638.150821,349.808000,1.099327
11641.582745,349.850000,-0.649022
11644.932162,349.891000,0.368383
11648.280794,349.932000,-4.705566
11651.628641,349.973000,0.436672
11654.975704,350.014000,-1.151900
11658.403590,350.056000,-0.246794
11661.749066,350.097000,0.218656
11665.093759,350.138000,0.276995
11668.437668,350.179000,-1.692716
11671.780795,350.220000,-0.594329
11675.123139,350.261000,-3.497674
11678.464700,350.302000,-1.799840
11681.805480,350.343000,-1.315962
11685.145477,350.384000,-0.288262
11688.484693,350.425000,-0.689745
11691.904543,350.467000,-3.260782
11695.242178,350.508000,-1.837398
11698.579032,350.549000,-0.757602
11701.915105,350.590000,-1.589463
11705.250398,350.631000,-1.360189
11708.584912,350.672000,-0.494859
11711.918645,350.713000,-1.636208
11715.251600,350.754000,0.188864
11718.502512,350.794000,-3.246758
11721.833927,350.835000,-0.817449
11725.164564,350.876000,-0.039343
11728.494422,350.917000,-1.400211
11731.823503,350.958000,1.653869
11735.151806,350.999000,1.106334
11738.479331,351.040000,-0.409640
11741.806079,351.081000,0.837445
11745.132050,351.122000,0.328163
11748.457245,351.163000,-0.352654
11751.700589,351.203000,0.190411
11755.024250,351.244000,0.954762
11758.347135,351.285000,-0.974472
11761.669245,351.326000,-0.700247
11764.990579,351.367000,0.085417
11768.230159,351.407000,-1.480708
11771.549962,351.448000,0.488961
11774.868991,351.489000,-2.105191
11778.187246,351.530000,0.448474
11781.423822,351.570000,0.302572
11784.740548,351.611000,-1.066160
11788.056500,351.652000,0.471852
11791.371680,351.693000,-3.008532
11794.605256,351.733000,0.659853
11797.918909,351.774000,-0.080099
11801.231790,351.815000,-2.616610
11804.463124,351.855000,1.311539
11807.774479,351.896000,-3.598649
11811.085063,351.937000,2.863898
11814.314158,351.977000,0.876986
11817.623218,352.018000,0.433132
11820.850827,352.058000,0.723931
11824.158365,352.099000,-1.231356
11827.465133,352.140000,1.327552
11830.690506,352.180000,0.957610
11833.995753,352.221000,-0.223961
11837.219643,352.261000,1.280419
11840.523370,352.302000,-1.114887
11843.745778,352.342000,-3.176341
11847.047986,352.383000,0.478891
11850.268913,352.423000,0.262301
11853.569603,352.464000,-0.016559
11856.789050,352.504000,-1.741403
11860.088224,352.545000,-1.189334
11863.306191,352.585000,-1.353553
11866.603850,352.626000,-2.615172
11869.820339,352.666000,-4.743062
11873.116483,352.707000,-0.749127
11876.331495,352.747000,-0.203846
11879.545777,352.787000,2.654592
11882.839661,352.828000,-1.028318
11886.052468,352.868000,1.844117
11889.264547,352.908000,-0.803843
11892.556173,352.949000,1.809355
11895.766777,352.989000,0.286035
11899.056892,353.030000,-5.870275
11902.266024,353.070000,1.281839
11905.474429,353.110000,-1.399312
11908.682107,353.150000,1.514643
11911.969223,353.191000,-1.330049
11915.175430,353.231000,-0.867122
11918.380911,353.271000,-1.523402
11921.665775,353.312000,1.196419
11924.869787,353.352000,-1.480848
11928.073073,353.392000,-3.053312
11931.275634,353.432000,0.499575
11934.477470,353.472000,-3.058198
11937.758600,353.513000,-1.373374
11940.958969,353.553000,1.240716
11944.158614,353.593000,-1.686880
11947.357536,353.633000,1.219568
11950.555733,353.673000,-0.328309
11953.753208,353.713000,0.609606
11957.029868,353.754000,-1.042789
11960.225879,353.794000,-0.346955
11963.421166,353.834000,0.724751
11966.615732,353.874000,-0.584392
11969.809575,353.914000,-0.771370
11973.002696,353.954000,0.516659
11976.195096,353.994000,-3.479609
11979.386774,354.034000,-0.231576
11982.577731,354.074000,1.444913
11985.767968,354.114000,0.708510
11988.957483,354.154000,-0.182226
11992.146279,354.194000,0.631113
11995.334354,354.234000,-1.842456
11998.521709,354.274000,-0.043744
12001.708345,354.314000,-0.008210
12004.894261,354.354000,-0.566095
12008.079458,354.394000,-0.930924
12011.263936,354.434000,-2.764428
12014.447695,354.474000,-0.730682
12017.630736,354.514000,-0.524823
12020.813059,354.554000,-0.616498
12023.994663,354.594000,1.961370
12027.175550,354.634000,-2.122327
12030.276224,354.673000,0.107813
12033.455694,354.713000,-1.571604
12036.634448,354.753000,-0.905618
12039.812484,354.793000,0.184123
12042.989804,354.833000,1.598422
12046.166408,354.873000,-4.062239
12049.262907,354.912000,-3.100664
12052.438097,354.952000,-0.816986
12055.612571,354.992000,0.436671
12058.786330,355.032000,2.128310
12061.880056,355.071000,0.525368
12065.052403,355.111000,-0.343323
12068.224035,355.151000,-0.361245
12071.394953,355.191000,0.292980
12074.485910,355.230000,-0.910480
12077.655418,355.270000,-1.277934
12080.824212,355.310000,-2.063987
12083.913100,355.349000,-0.368820
12087.080485,355.389000,-1.414893
12090.247158,355.429000,-1.293941
12093.333977,355.468000,-1.993086
12096.499242,355.508000,0.484954
12099.663795,355.548000,-46.384059
12102.748549,355.587000,-124.210761
12105.911696,355.627000,-66.442243
12108.995079,355.666000,-119.969723
12112.156822,355.706000,-54.697104
12115.317853,355.746000,-21.190548
12118.399174,355.785000,-61.596566
12121.558801,355.825000,-30.211080
12124.638754,355.864000,-77.101317
12127.796979,355.904000,-76.839917
12130.875565,355.943000,-71.466457
12134.032389,355.983000,-64.408078
12137.109608,356.022000,-48.384525
12140.265031,356.062000,-46.844929
12143.340885,356.101000,-104.375988
12146.494908,356.141000,-51.758492
12149.569398,356.180000,-46.757597
12152.643215,356.219000,-69.702760
12155.795149,356.259000,-74.186363
12158.867603,356.298000,-13.207401
12162.018139,356.338000,-92.613481
12165.089231,356.377000,-38.569015
12168.159651,356.416000,-31.471991
12171.308101,356.456000,-92.875640
12174.377160,356.495000,-93.101171
12177.445548,356.534000,-19.393971
12180.591915,356.574000,-42.656897
12183.658943,356.613000,-65.076433
12186.725300,356.652000,-36.974948
12189.869585,356.692000,-39.539754
12192.934585,356.731000,-55.867253
12195.998914,356.770000,-59.457995
12199.062573,356.809000,-91.032658
12202.204093,356.849000,-77.765545
12205.266396,356.888000,-56.128257
12208.328030,356.927000,-66.227231
12211.388995,356.966000,-30.164868
12214.527751,357.006000,-64.487679
12217.587361,357.045000,-37.905127
12220.646304,357.084000,-78.169068
12223.704578,357.123000,-42.445250
12226.762184,357.162000,-71.123208
12229.819122,357.201000,-76.361751
12232.953750,357.241000,-84.307007
12236.009337,357.280000,-37.547219
12239.064257,357.319000,-24.847068
12242.118510,357.358000,-61.354971
12245.172096,357.397000,-49.160964
12248.225016,357.436000,-64.013148
