raman_shift_cm-1,wavelength_nm,intensity
-323.608033,246.616000,0.000000
-312.759145,246.682000,0.000000
-301.916061,246.748000,0.000000
-291.078776,246.814000,0.000000
-280.083216,246.881000,-0.008836
-269.257603,246.947000,-0.004329
-258.437774,247.013000,-0.040275
-247.623726,247.079000,0.080990
-236.815454,247.145000,-0.844208
-226.012953,247.211000,1.238833
-215.216219,247.277000,0.720647
-204.425246,247.343000,0.356493
-193.640031,247.409000,0.100899
-182.860568,247.475000,0.112140
-172.086854,247.541000,-0.044961
-161.318883,247.607000,0.132516
-150.556651,247.673000,0.431273
-139.800153,247.739000,0.161005
-129.049385,247.805000,0.278811
-118.467103,247.870000,1.287772
-107.727694,247.936000,-0.281169
-96.994001,248.002000,0.015608
-86.266020,248.068000,0.193671
-75.543746,248.134000,-0.892050
-64.827174,248.200000,0.614773
-54.278543,248.265000,0.149570
-43.573277,248.331000,1.108744
-32.873698,248.397000,1.431120
-22.179805,248.463000,-0.827443
-11.653491,248.528000,-0.045633
-0.970866,248.594000,-0.505956
9.706087,248.660000,-0.386561
20.377375,248.726000,-0.116544
30.881442,248.791000,0.366289
41.541497,248.857000,0.057860
52.195898,248.923000,0.043881
62.683348,248.988000,-0.072218
73.326542,249.054000,-0.786998
83.802964,249.119000,0.020219
94.434970,249.185000,0.416617
104.900381,249.250000,0.891809
115.521215,249.316000,1.078778
125.975632,249.381000,0.025470
136.585313,249.447000,-0.131147
147.028754,249.512000,1.500700
157.627298,249.578000,0.489106
168.059780,249.643000,0.145482
178.647205,249.709000,-0.159978
189.068746,249.774000,0.073916
199.645070,249.840000,0.062336
210.055686,249.905000,-0.859177
220.620926,249.971000,1.589792
231.020635,250.036000,-0.182806
241.414938,250.101000,-0.595082
251.963627,250.167000,0.734402
262.347049,250.232000,1.093925
272.725077,250.297000,-2.565133
283.097717,250.362000,0.656407
293.624427,250.428000,4.137681
303.986219,250.493000,-0.946438
314.342635,250.558000,-0.701781
324.693679,250.623000,2.589106
335.198478,250.689000,2.413475
345.538708,250.754000,-0.152296
355.873579,250.819000,2.677008
366.203095,250.884000,0.334721
376.527259,250.949000,2.518204
386.846077,251.014000,0.121177
397.318179,251.080000,-0.627821
407.626234,251.145000,-3.775455
417.928954,251.210000,-5.622390
428.226343,251.275000,-5.562728
438.518407,251.340000,-2.205235
448.805149,251.405000,3.527269
459.086573,251.470000,-2.493427
469.362683,251.535000,0.033765
479.633483,251.600000,0.542753
489.898978,251.665000,2.508627
500.159172,251.730000,1.424038
510.414069,251.795000,-2.448957
520.663672,251.860000,-0.223379
530.907986,251.925000,4.521618
541.147015,251.990000,1.655725
551.223361,252.054000,0.323885
561.451914,252.119000,-0.986171
571.675194,252.184000,1.544046
581.893205,252.249000,-2.478469
592.105952,252.314000,-3.529654
602.313438,252.379000,-4.637227
612.358750,252.443000,-1.156995
622.555807,252.508000,-3.943285
632.747617,252.573000,1.154397
642.934182,252.638000,-0.208566
652.958910,252.702000,-3.413102
663.135079,252.767000,-0.669701
673.306016,252.832000,1.115209
683.315368,252.896000,1.125977
693.475932,252.961000,-0.471927
703.631276,253.026000,-3.036478
713.625287,253.090000,0.029569
723.770283,253.155000,0.120792
733.910070,253.220000,0.117572
743.888776,253.284000,-0.918676
754.018238,253.349000,0.522341
763.986786,253.413000,0.786753
774.105940,253.478000,-3.276136
784.064345,253.542000,-0.624314
794.173206,253.607000,-3.087624
804.121484,253.671000,-0.126860
814.220067,253.736000,-1.796173
824.158233,253.800000,1.243563
834.246555,253.865000,2.428251
844.174625,253.929000,-4.843380
854.252700,253.994000,5.230110
864.170690,254.058000,-3.034335
874.083683,254.122000,4.448789
884.146458,254.187000,-1.645318
894.049394,254.251000,-0.457308
903.947346,254.315000,-0.810567
913.994855,254.380000,4.099836
923.882772,254.444000,-4.066710
933.765716,254.508000,-0.215012
943.797994,254.573000,-2.141531
953.670926,254.637000,3.465221
963.538895,254.701000,-4.436693
973.401907,254.765000,-1.007765
983.259965,254.829000,2.493629
993.266988,254.894000,-1.058475
1003.115071,254.958000,3.057738
1012.958212,255.022000,-0.524343
1022.796413,255.086000,-2.222808
1032.629679,255.150000,1.476319
1042.458013,255.214000,-4.205664
1052.281419,255.278000,-4.595505
1062.253275,255.343000,-1.780282
1072.066759,255.407000,6.676164
1081.875326,255.471000,-2.161015
1091.678980,255.535000,3.430056
1101.477725,255.599000,0.378919
1111.271563,255.663000,-2.535770
1121.060500,255.727000,-4.026458
1130.844538,255.791000,-0.305924
1140.623681,255.855000,1.090818
1150.397933,255.919000,1.584684
1160.014689,255.982000,5.735563
1169.779246,256.046000,0.070424
1179.538923,256.110000,2.348008
1189.293724,256.174000,1.723607
1199.043651,256.238000,-2.500238
1208.788709,256.302000,-3.119999
1218.528902,256.366000,-1.733296
1228.112156,256.429000,-0.296159
1237.842704,256.493000,2.968434
1247.568398,256.557000,2.800696
1257.289241,256.621000,0.957853
1267.005236,256.685000,-1.419071
1276.564688,256.748000,4.816465
1286.271074,256.812000,-1.593959
1295.972624,256.876000,4.629335
1305.517867,256.939000,-6.205453
1315.209831,257.003000,4.244549
1324.896968,257.067000,6.778851
1334.428034,257.130000,-0.300271
1344.105605,257.194000,-5.084911
1353.778362,257.258000,0.473060
1363.295282,257.321000,-1.417966
1372.958494,257.385000,-5.406946
1382.466026,257.448000,1.460836
1392.119708,257.512000,-0.107264
1401.617865,257.575000,-2.186096
1411.262031,257.639000,4.400595
1420.750828,257.702000,-2.971629
1430.385491,257.766000,1.668958
1439.864942,257.829000,0.635032
1449.490117,257.893000,1.350456
1458.960235,257.956000,2.115274
1468.575936,258.020000,3.820704
1478.036734,258.083000,0.322730
1487.492915,258.146000,-1.367480
1497.094468,258.210000,-2.085104
1506.541350,258.273000,-1.927625
1516.133465,258.337000,-1.167742
1525.571062,258.400000,-3.663140
1535.004058,258.463000,-1.042011
1544.432457,258.526000,2.303370
1554.005809,258.590000,-2.429461
1563.424950,258.653000,0.038946
1572.839503,258.716000,-0.046477
1582.249473,258.779000,-2.692651
1591.804117,258.843000,1.227260
1601.204857,258.906000,-1.224238
1610.601022,258.969000,0.349280
1619.992617,259.032000,0.048518
1629.379645,259.095000,2.632413
1638.911000,259.159000,3.348681
1648.288831,259.222000,-3.439880
1657.662104,259.285000,1.427975
1667.030824,259.348000,-5.167801
1676.394994,259.411000,4.688627
1685.754616,259.474000,-1.245073
1695.109694,259.537000,3.151069
1704.460232,259.600000,-0.715322
1713.806232,259.663000,-1.136285
1723.147698,259.726000,2.438897
1732.484634,259.789000,-3.808515
1741.817042,259.852000,-4.195694
1751.144926,259.915000,-1.225571
1760.468289,259.978000,2.613511
1769.787135,260.041000,-1.644838
1779.101467,260.104000,0.319012
1788.411287,260.167000,0.828731
1797.568932,260.229000,1.978630
1806.869812,260.292000,0.887275
1816.166190,260.355000,-5.470599
1825.458071,260.418000,5.918106
1834.745457,260.481000,1.579665
1844.028352,260.544000,-5.509147
1853.159517,260.606000,1.227393
1862.433510,260.669000,-5.019760
1871.703021,260.732000,2.200341
1880.968054,260.795000,-1.340471
1890.081653,260.857000,-3.297656
1899.337809,260.920000,-3.747742
1908.589497,260.983000,0.318238
1917.689973,261.045000,-1.467167
1926.932803,261.108000,-1.341215
1936.171175,261.171000,-2.343349
1945.258555,261.233000,2.262841
1954.488088,261.296000,-0.781341
1963.566777,261.358000,0.943100
1972.787485,261.421000,-0.235228
1982.003751,261.484000,-1.915079
1991.069391,261.546000,2.452280
2000.276850,261.609000,-2.264976
2009.333830,261.671000,-1.362668
2018.532495,261.734000,-0.473343
2027.580827,261.796000,-2.093086
2036.770712,261.859000,1.116292
2045.810408,261.921000,-2.179730
2054.845827,261.983000,-3.050670
2064.022598,262.046000,1.208737
2073.049399,262.108000,1.388127
2082.217420,262.171000,0.861415
2091.235617,262.233000,-2.011289
2100.249550,262.295000,-1.082292
2109.404505,262.358000,0.913052
2118.409852,262.420000,-0.624466
2127.410945,262.482000,-2.370375
2136.552862,262.545000,1.657031
2145.545387,262.607000,2.979638
2154.533666,262.669000,-4.573204
2163.517703,262.731000,-3.258667
2172.642302,262.794000,0.643462
2181.617796,262.856000,1.650340
2190.589057,262.918000,1.871976
2199.556087,262.980000,0.678532
2208.518891,263.042000,2.731219
2217.621929,263.105000,0.123463
2226.576219,263.167000,-1.798514
2235.526291,263.229000,-2.585566
2244.472147,263.291000,0.404819
2253.413792,263.353000,-1.029890
2262.351228,263.415000,0.655587
2271.284457,263.477000,-3.213400
2280.213483,263.539000,-3.395770
2289.138308,263.601000,2.767591
2298.058937,263.663000,-1.781066
2306.975371,263.725000,1.059120
2315.887613,263.787000,2.838627
2324.795667,263.849000,5.271137
2333.699536,263.911000,-2.416218
2342.599222,263.973000,1.145306
2351.494729,264.035000,0.160869
2360.386059,264.097000,0.517357
2369.273215,264.159000,-0.684981
2378.156200,264.221000,2.494277
2386.891844,264.282000,-0.230167
2395.766564,264.344000,-1.682031
2404.637121,264.406000,0.461004
2413.503520,264.468000,5.994169
2422.365762,264.530000,0.123011
2431.081012,264.591000,0.767415
2439.935018,264.653000,1.637346
2448.784876,264.715000,-2.253533
2457.630590,264.777000,-5.035633
2466.329589,264.838000,0.831945
2475.167089,264.900000,4.475284
2484.000453,264.962000,-0.239863
2492.687310,265.023000,0.974613
2501.512478,265.085000,0.287745
2510.333519,265.147000,-0.169032
2519.008259,265.208000,0.838144
2527.821120,265.270000,-3.394948
2536.487819,265.331000,3.149640
2545.292512,265.393000,2.210050
2554.093093,265.455000,-0.940761
2562.747717,265.516000,1.694519
2571.540147,265.578000,5.289173
2580.186758,265.639000,-1.449950
2588.971048,265.701000,-4.215072
2597.609655,265.762000,-0.793745
2606.385817,265.824000,0.721383
2615.016433,265.885000,5.590476
2623.643091,265.946000,-5.836139
2632.407114,266.008000,-1.189512
2641.025796,266.069000,-2.328186
2649.781719,266.131000,-1.906373
2658.392437,266.192000,-2.654645
2666.999210,266.253000,2.741898
2675.743037,266.315000,-3.699506
2684.341862,266.376000,2.969142
2692.936750,266.437000,-1.348505
2701.668505,266.499000,0.079729
2710.255462,266.560000,-0.584902
2718.838489,266.621000,-6.014758
2727.417590,266.682000,-1.187582
2736.133311,266.744000,5.025483
2744.704503,266.805000,4.187575
2753.271776,266.866000,2.474471
2761.835134,266.927000,-0.143016
2770.394579,266.988000,1.789942
2778.950113,267.049000,-4.999128
2787.641898,267.111000,-6.329775
2796.189555,267.172000,-2.174602
2804.733311,267.233000,-0.788488
2813.273167,267.294000,-0.326698
2821.809126,267.355000,-2.696563
2830.341190,267.416000,-1.800650
2838.869363,267.477000,-0.883753
2847.393647,267.538000,2.520632
2855.914045,267.599000,-3.971955
2864.430559,267.660000,-0.288819
2872.943193,267.721000,-1.473019
2881.451948,267.782000,-4.258263
2889.956827,267.843000,-1.275299
2898.457833,267.904000,-4.570113
2906.954969,267.965000,1.293210
2915.448237,268.026000,-0.843942
2923.937640,268.087000,-0.849391
2932.284105,268.147000,-4.104025
2940.765849,268.208000,-4.727447
2949.243736,268.269000,-6.560521
2957.717768,268.330000,-0.361044
2966.187948,268.391000,1.547129
2974.515518,268.451000,0.425375
2982.978065,268.512000,-5.225226
2991.436768,268.573000,-1.549924
2999.891630,268.634000,0.198315
3008.204142,268.694000,0.950728
3016.651392,268.755000,1.122460
3025.094807,268.816000,0.545675
3033.396069,268.876000,-1.925956
3041.831888,268.937000,0.727716
3050.263881,268.998000,-2.758751
3058.553914,269.058000,-1.280527
3066.978326,269.119000,-5.849296
3075.398919,269.180000,-3.402701
3083.677747,269.240000,-3.225542
3092.090774,269.301000,2.006204
3100.362165,269.361000,1.608600
3108.767637,269.422000,1.366250
3117.031601,269.482000,4.930758
3125.429526,269.543000,-2.564340
3133.686074,269.603000,2.400666
3142.076464,269.664000,-1.307958
3150.325604,269.724000,1.134835
3158.708468,269.785000,-3.840904
3166.950211,269.845000,3.041093
3175.325561,269.906000,3.264922
3183.559917,269.966000,3.148934
3191.790613,270.026000,-2.049994
3200.154739,270.087000,-2.321510
3208.378064,270.147000,4.382642
3216.597736,270.207000,-0.131589
3224.950662,270.268000,0.851524
3233.162976,270.328000,2.932838
3241.371647,270.388000,0.447047
3249.576675,270.448000,4.600139
3257.914722,270.509000,2.895708
3266.112412,270.569000,-0.034093
3274.306467,270.629000,-2.182616
3282.496889,270.689000,-2.168093
3290.820098,270.750000,3.067715
3299.003202,270.810000,-1.291196
3307.182681,270.870000,-5.027594
3315.358537,270.930000,3.361475
3323.530773,270.990000,-0.139840
3331.699391,271.050000,-0.105961
3339.864393,271.110000,2.344504
3348.025782,271.170000,-1.680691
3356.319492,271.231000,-1.769885
3364.473602,271.291000,-4.172614
3372.624105,271.351000,-0.791779
3380.771005,271.411000,7.108322
3388.914304,271.471000,-3.208684
3397.054004,271.531000,-1.783867
3405.190107,271.591000,-0.409037
3413.322616,271.651000,0.902292
3421.316081,271.710000,-3.069480
3429.441469,271.770000,3.168716
3437.563270,271.830000,-7.791358
3445.681487,271.890000,-2.388538
3453.796121,271.950000,-0.376927
3461.907176,272.010000,-3.237444
3470.014653,272.070000,-5.269159
3478.118555,272.130000,-1.128360
3486.083907,272.189000,2.430489
3494.180726,272.249000,0.817229
3502.273976,272.309000,-2.178913
3510.363660,272.369000,0.310172
3518.315042,272.428000,0.147231
3526.397661,272.488000,8.566900
3534.476722,272.548000,-0.273846
3542.552226,272.608000,3.698179
3550.489673,272.667000,3.851885
3558.558131,272.727000,-1.809914
3566.623039,272.787000,2.710024
3574.550074,272.846000,1.973129
3582.607950,272.906000,-1.424525
3590.528073,272.965000,-5.468573
3598.578926,273.025000,-0.495649
3606.626241,273.085000,2.434644
3614.535986,273.144000,-3.782162
3622.576291,273.204000,1.380263
3630.479148,273.263000,1.079572
3638.512453,273.323000,-4.776317
3646.408431,273.382000,-2.296098
3654.434744,273.442000,-2.479447
3662.323852,273.501000,2.432673
3670.343183,273.561000,-4.686030
3678.225429,273.620000,-4.484840
3686.237787,273.680000,-0.286985
3694.113181,273.739000,-1.359770
3701.985180,273.798000,0.157008
3709.987125,273.858000,1.658011
3717.852286,273.917000,-3.330124
3725.714059,273.976000,-2.869125
3733.705610,274.036000,3.542285
3741.560558,274.095000,-1.717465
3749.412124,274.154000,0.684194
3757.393303,274.214000,0.568230
3765.238057,274.273000,-1.977782
3773.079437,274.332000,-0.109995
3780.917444,274.391000,-0.761704
3788.884843,274.451000,2.382614
3796.716056,274.510000,-0.362410
3804.543903,274.569000,-1.643723
3812.368387,274.628000,-0.999326
3820.189510,274.687000,-2.768971
3828.007273,274.746000,0.450218
3835.821680,274.805000,5.032492
3843.765093,274.865000,1.040324
3851.572736,274.924000,0.341019
3859.377028,274.983000,-2.105110
3867.177971,275.042000,3.170317
3874.975569,275.101000,-3.400947
3882.769823,275.160000,2.117720
3890.560735,275.219000,0.136008
3898.348307,275.278000,-1.935926
3906.132542,275.337000,0.765409
3913.913442,275.396000,-2.862437
3921.691008,275.455000,-3.551890
3929.465243,275.514000,1.523965
3937.236150,275.573000,2.299995
3944.872103,275.631000,-0.681538
3952.636414,275.690000,-0.146131
3960.397403,275.749000,-1.748684
3968.155071,275.808000,2.425717
3975.909421,275.867000,4.570039
3983.660455,275.926000,0.779519
3991.408175,275.985000,0.167162
3999.021349,276.043000,5.842671
4006.762504,276.102000,-3.779517
4014.500350,276.161000,-0.967773
4022.234891,276.220000,2.843300
4029.835118,276.278000,-0.117319
4037.563110,276.337000,-3.256243
4045.287803,276.396000,0.821364
4052.878355,276.454000,0.165113
4060.596512,276.513000,-4.291635
4068.311375,276.572000,-3.798846
4075.892271,276.630000,4.034549
4083.600610,276.689000,4.453882
4091.305663,276.748000,1.521117
4098.876921,276.806000,0.973294
4106.575462,276.865000,0.242667
4114.140322,276.923000,1.262424
4121.832361,276.982000,-4.370904
4129.390832,277.040000,2.077810
4137.076375,277.099000,-3.184542
4144.628466,277.157000,0.459799
4152.307522,277.216000,1.682691
4159.853240,277.274000,1.295703
4167.525818,277.333000,-0.322052
4175.065171,277.391000,2.259444
4182.731279,277.450000,4.974912
4190.264275,277.508000,-2.138211
4197.794123,277.566000,2.176735
4205.450568,277.625000,1.400458
4212.974072,277.683000,-2.526083
4220.494433,277.741000,-0.852550
4228.011654,277.799000,1.348101
4235.396210,277.856000,-1.857223
4242.907211,277.914000,3.736498
4250.415077,277.972000,0.956758
4257.790445,278.029000,0.440377
4265.292102,278.087000,1.445735
4272.790631,278.145000,1.631019
4280.156828,278.202000,-1.242602
4287.649159,278.260000,-1.329123
4295.138368,278.318000,0.667037
4302.495411,278.375000,-1.253335
4309.978434,278.433000,0.111701
4317.329402,278.490000,1.418190
4324.806246,278.548000,-2.206531
4332.151147,278.605000,0.405016
4339.621821,278.663000,1.416891
4346.960661,278.720000,-0.694889
4354.425172,278.778000,0.592441
4361.757959,278.835000,-1.393633
4369.216314,278.893000,-1.988362
4376.543056,278.950000,0.710265
4383.995264,279.008000,-2.822010
4391.315968,279.065000,5.682238
4398.762036,279.123000,3.593174
4406.076709,279.180000,-3.606333
4413.516644,279.238000,-1.011700
4420.825295,279.295000,-0.832223
4428.130962,279.352000,-0.849664
4435.561740,279.410000,-5.240306
4442.861395,279.467000,-2.027845
4450.158074,279.524000,-2.329780
4457.579711,279.582000,0.437917
4464.870389,279.639000,0.043457
4472.158095,279.696000,0.672825
4479.570607,279.754000,-4.438403
4486.852324,279.811000,1.985677
4494.131074,279.868000,-2.177618
4501.534479,279.926000,1.578991
4508.807251,279.983000,1.331568
4516.077062,280.040000,2.955342
4523.343914,280.097000,2.064278
4530.735220,280.155000,-1.424241
4537.996108,280.212000,-3.084762
4545.254043,280.269000,0.597596
4552.509026,280.326000,0.979958
4559.888262,280.384000,3.188564
4567.137295,280.441000,3.306362
4574.383383,280.498000,4.604922
4581.626526,280.555000,2.154172
4588.866727,280.612000,-1.990933
4596.103987,280.669000,1.997947
4603.338308,280.726000,-0.647373
4610.696532,280.784000,1.528244
4617.924929,280.841000,0.766792
4625.150392,280.898000,-2.923202
4632.372923,280.955000,-3.756303
4639.592525,281.012000,-2.460356
4646.809198,281.069000,-1.029590
4654.022945,281.126000,0.710495
4661.233767,281.183000,-3.788319
4668.441666,281.240000,-0.679347
4675.646644,281.297000,-0.089955
4682.848703,281.354000,-2.105101
4690.047844,281.411000,0.923671
4697.244070,281.468000,-1.667779
4704.437381,281.525000,-0.110214
4711.627780,281.582000,5.242532
4718.815269,281.639000,0.578586
4725.999849,281.696000,0.178318
4733.181522,281.753000,-1.031892
4740.360290,281.810000,1.333606
4747.536154,281.867000,0.529791
4754.583300,281.923000,4.294594
4761.753414,281.980000,-0.274496
4768.920629,282.037000,1.077095
4776.084949,282.094000,4.307650
4783.246373,282.151000,-0.216926
4790.404904,282.208000,0.525983
4797.435032,282.264000,3.957375
4804.587834,282.321000,-1.852813
4811.737748,282.378000,-1.449863
4818.884776,282.435000,1.327404
4826.028920,282.492000,3.907376
4833.044920,282.548000,1.922843
4840.183352,282.605000,-2.133421
4847.318904,282.662000,3.611399
4854.451579,282.719000,-4.021265
4861.456319,282.775000,-0.173245
4868.583295,282.832000,-0.545799
4875.707399,282.889000,-3.008737
4882.703723,282.945000,-2.640607
4889.822139,283.002000,-1.633176
4896.937687,283.059000,-0.135100
4903.925611,283.115000,2.234854
4911.035481,283.172000,-2.262098
4918.142490,283.229000,2.599490
4925.122029,283.285000,3.261838
4932.223369,283.342000,-2.116657
4939.197342,283.398000,-1.319088
4946.293021,283.455000,1.080255
4953.385847,283.512000,5.905947
4960.351460,283.568000,4.036774
4967.438635,283.625000,-2.768153
4974.398699,283.681000,-2.517920
4981.480229,283.738000,1.707354
4988.434752,283.794000,-2.955825
4995.510644,283.851000,-0.823140
5002.459631,283.907000,0.012830
5009.529893,283.964000,1.447846
5016.473351,284.020000,1.851985
5023.537988,284.077000,-2.942747
5030.475924,284.133000,-2.956666
5037.534943,284.190000,0.167069
5044.467363,284.246000,0.108242
5051.397052,284.302000,0.419844
5058.447683,284.359000,0.662492
5065.371866,284.415000,1.368114
5072.416896,284.472000,2.144836
5079.335580,284.528000,-0.725127
5086.251541,284.584000,0.710333
5093.288207,284.641000,-0.019367
5100.198678,284.697000,-4.106427
5107.106432,284.753000,-0.162012
5114.134748,284.810000,4.311211
5121.037022,284.866000,-0.867863
5127.936582,284.922000,-0.036456
5134.833431,284.978000,4.897866
5141.850655,285.035000,4.377921
5148.742037,285.091000,-1.725784
5155.630712,285.147000,1.456922
5162.516682,285.203000,0.247002
5169.522840,285.260000,3.953833
5176.403356,285.316000,-2.733865
5183.281172,285.372000,-0.267418
5190.156289,285.428000,1.182676
5197.028709,285.484000,-1.528419
5204.021082,285.541000,-2.024571
5210.888064,285.597000,-1.906610
5217.752353,285.653000,0.327951
5224.613952,285.709000,3.367085
5231.472862,285.765000,1.799323
5238.329083,285.821000,2.038466
5245.182619,285.877000,2.766849
5252.033470,285.933000,0.411421
5258.881638,285.989000,1.084653
5265.727125,286.045000,1.769627
5272.569932,286.101000,-2.154322
5279.532182,286.158000,0.812006
5286.369586,286.214000,-0.732221
5293.204315,286.270000,1.656880
5300.036371,286.326000,1.548014
5306.865755,286.382000,0.158042
5313.692468,286.438000,2.653557
5320.516513,286.494000,-1.255893
5327.216104,286.549000,2.611278
5334.034863,286.605000,4.520036
5340.850958,286.661000,3.105374
5347.664391,286.717000,-0.184938
5354.475163,286.773000,-1.340383
5361.283275,286.829000,-2.967772
5368.088729,286.885000,0.674633
5374.891528,286.941000,1.642824
5381.691671,286.997000,-0.776637
5388.489161,287.053000,-1.484664
5395.162686,287.108000,2.547539
5401.954922,287.164000,-0.998780
5408.744509,287.220000,3.777107
5415.531448,287.276000,0.645665
5422.315743,287.332000,-0.782248
5428.976316,287.387000,-3.243908
5435.755371,287.443000,2.613070
5442.531785,287.499000,-0.868214
5449.305560,287.555000,-1.221930
5456.076697,287.611000,2.541128
5462.724355,287.666000,1.998509
5469.490268,287.722000,-3.211845
5476.253548,287.778000,2.632921
5482.893494,287.833000,2.922076
5489.651559,287.889000,5.027421
5496.406995,287.945000,1.866370
5503.039242,288.000000,-1.891811
5509.789473,288.056000,-0.893720
5516.537079,288.112000,-0.306621
5523.161640,288.167000,-3.237776
5529.904050,288.223000,3.411630
5536.643840,288.279000,0.012934
5543.260729,288.334000,1.756866
5549.995332,288.390000,-1.024644
5556.607128,288.445000,-4.497763
5563.336549,288.501000,-0.761710
5569.943259,288.556000,0.349163
5576.667504,288.612000,-4.263224
5583.269134,288.667000,1.269735
5589.988209,288.723000,-2.435862
5596.584764,288.778000,-0.762995
5603.298676,288.834000,-2.797627
5609.890162,288.889000,0.070483
5616.598916,288.945000,3.092032
5623.185340,289.000000,-1.352060
5629.888941,289.056000,-1.219410
5636.470308,289.111000,-0.090563
5643.168763,289.167000,-0.460279
5649.745079,289.222000,-1.039701
5656.438394,289.278000,1.997681
5663.009664,289.333000,0.216049
5669.578437,289.388000,1.656563
5676.264076,289.444000,2.320909
5682.827812,289.499000,-4.559325
5689.389054,289.554000,1.193526
5696.067030,289.610000,1.935701
5702.623244,289.665000,3.352577
5709.176969,289.720000,-0.710095
5715.847296,289.776000,0.152397
5722.396001,289.831000,0.958559
5728.942221,289.886000,0.476759
5735.485958,289.941000,6.053066
5742.146122,289.997000,-2.468659
5748.684850,290.052000,-2.092657
5755.221100,290.107000,-2.631778
5761.754871,290.162000,3.154320
5768.404894,290.218000,-1.414198
5774.933669,290.273000,-1.751312
5781.459971,290.328000,1.528729
5787.983800,290.383000,1.780837
5794.505158,290.438000,0.863216
5801.142550,290.494000,-0.540664
5807.658926,290.549000,2.064806
5814.172835,290.604000,-0.625364
5820.684279,290.659000,-1.615013
5827.193260,290.714000,2.115090
5833.699778,290.769000,-2.342586
5840.203835,290.824000,3.013823
5846.705432,290.879000,-1.182096
5853.204572,290.934000,1.847676
5859.701254,290.989000,-4.225205
5866.195481,291.044000,0.776914
5872.687254,291.099000,-2.358852
5879.176574,291.154000,0.472143
5885.663444,291.209000,0.614488
5892.147863,291.264000,1.547370
5898.629834,291.319000,-2.504833
5905.109357,291.374000,2.472370
5911.586435,291.429000,-0.471519
5918.061069,291.484000,4.248552
5924.533260,291.539000,1.915496
5931.003009,291.594000,-6.127981
5937.470318,291.649000,0.687155
5943.935188,291.704000,3.854415
5950.397621,291.759000,3.900701
5956.857618,291.814000,-5.765066
5963.315180,291.869000,-2.166654
5969.770309,291.924000,0.560712
5976.105706,291.978000,-0.091624
5982.556017,292.033000,-1.859395
5989.003898,292.088000,-0.489586
5995.449352,292.143000,0.774681
6001.892379,292.198000,1.469970
6008.215901,292.252000,-2.410671
6014.654123,292.307000,3.011983
6021.089923,292.362000,-1.156964
6027.523303,292.417000,-1.675390
6033.954262,292.472000,2.166252
6040.265942,292.526000,-0.764163
6046.692111,292.581000,0.067446
6053.115864,292.636000,1.028754
6059.420472,292.690000,0.561128
6065.839442,292.745000,0.904929
6072.256000,292.800000,2.094367
6078.553548,292.854000,-2.503231
6084.965331,292.909000,1.661519
6091.374707,292.964000,4.532215
6097.665207,293.018000,5.146275
6104.069816,293.073000,2.433664
6110.472021,293.128000,6.598514
6116.755485,293.182000,-2.428636
6123.152931,293.237000,-3.082335
6129.431725,293.291000,-1.332090
6135.824417,293.346000,-0.355117
6142.098547,293.400000,-2.685539
6148.486490,293.455000,-0.859200
6154.872040,293.510000,-0.400458
6161.139160,293.564000,0.552900
6167.519969,293.619000,2.114291
6173.782438,293.673000,-3.295177
6180.158512,293.728000,-1.653855
6186.416334,293.782000,-0.477386
6192.787678,293.837000,-1.095419
6199.040859,293.891000,-1.933915
6205.291742,293.945000,-0.337815
6211.656022,294.000000,-1.065750
6217.902272,294.054000,7.053715
6224.261835,294.109000,-1.623839
6230.503456,294.163000,3.445531
6236.742786,294.217000,-2.944374
6243.095305,294.272000,0.502070
6249.330014,294.326000,-0.219756
6255.677829,294.381000,-4.281302
6261.907923,294.435000,0.898055
6268.135731,294.489000,-4.199422
6274.476522,294.544000,2.449201
6280.699722,294.598000,1.167196
6286.920642,294.652000,1.083971
6293.139281,294.706000,0.415466
6299.470739,294.761000,-0.633443
6305.684781,294.815000,-2.079754
6311.896546,294.869000,-3.221867
6318.106037,294.923000,0.568561
6324.428182,294.978000,-0.141502
6330.633085,295.032000,2.882285
6336.835717,295.086000,-0.030091
6343.036080,295.140000,4.826342
6349.234174,295.194000,-2.115219
6355.544717,295.249000,1.799207
6361.738236,295.303000,-1.699573
6367.929490,295.357000,1.756724
6374.118480,295.411000,2.587336
6380.305209,295.465000,1.193134
6386.489676,295.519000,-3.411137
6392.671884,295.573000,1.729177
6398.851833,295.627000,-2.004486
6405.143905,295.682000,-3.709875
6411.319300,295.736000,-3.586928
6417.492439,295.790000,-0.537004
6423.663325,295.844000,-0.793119
6429.831958,295.898000,-3.675984
6435.998340,295.952000,3.714367
6442.162473,296.006000,-4.737601
6448.324357,296.060000,1.696635
6454.483993,296.114000,1.001370
6460.641384,296.168000,-3.026431
6466.796529,296.222000,-0.281839
6472.949431,296.276000,1.982522
6479.100090,296.330000,-0.916370
6485.248508,296.384000,-0.239944
6491.280888,296.437000,2.854491
6497.424869,296.491000,2.315591
6503.566612,296.545000,-1.711843
6509.706118,296.599000,-3.418726
6515.843390,296.653000,-1.453015
6521.978427,296.707000,-1.120136
6528.111232,296.761000,-1.605494
6534.241805,296.815000,-1.998870
6540.256681,296.868000,0.620240
6546.382836,296.922000,2.342317
6552.506763,296.976000,1.980052
6558.628464,297.030000,-2.516363
6564.747939,297.084000,2.454294
6570.751928,297.137000,-0.754212
6576.866997,297.191000,4.039826
6582.979845,297.245000,-1.637886
6589.090471,297.299000,0.481278
6595.085780,297.352000,3.453558
6601.192010,297.406000,-2.239533
6607.296023,297.460000,1.149055
6613.397821,297.514000,-0.740543
6619.384468,297.567000,1.126147
6625.481879,297.621000,-0.976048
6631.577077,297.675000,-3.887654
6637.557251,297.728000,1.482116
6643.648069,297.782000,-3.033424
6649.623947,297.835000,1.400125
6655.710390,297.889000,3.120076
6661.794627,297.943000,-3.530704
6667.764048,297.996000,-0.342321
6673.843917,298.050000,2.165495
6679.809053,298.103000,2.637280
6685.884559,298.157000,-2.209994
6691.957864,298.211000,0.632028
6697.916562,298.264000,-3.912036
6703.985510,298.318000,2.066190
6709.939935,298.371000,1.174519
6716.004532,298.425000,2.125540
6721.954688,298.478000,-4.638326
6728.014938,298.532000,3.067108
6733.960830,298.585000,-3.756266
6739.904611,298.638000,-3.244171
6745.958369,298.692000,5.279903
6751.897893,298.745000,0.455713
6757.947317,298.799000,-0.020426
6763.882588,298.852000,-3.353137
6769.927680,298.906000,0.522491
6775.858703,298.959000,2.839154
6781.787624,299.012000,0.769512
6787.826249,299.066000,-1.480106
6793.750928,299.119000,-1.674721
6799.673508,299.172000,2.074238
6805.705677,299.226000,-2.419700
6811.624022,299.279000,-7.318698
6817.540272,299.332000,-1.299792
6823.565994,299.386000,0.252944
6829.478016,299.439000,3.136443
6835.387945,299.492000,0.274176
6841.407231,299.546000,-0.775711
6847.312940,299.599000,-2.095308
6853.216559,299.652000,-0.502860
6859.118090,299.705000,4.127279
6865.017534,299.758000,-1.799552
6871.026143,299.812000,3.564084
6876.921378,299.865000,-1.875194
6882.814529,299.918000,-1.597694
6888.705597,299.971000,-2.061175
6894.594584,300.024000,-0.522459
6900.592545,300.078000,1.870072
6906.477333,300.131000,-4.357373
6912.360044,300.184000,-1.868877
6918.240677,300.237000,1.693191
6924.119235,300.290000,-2.306107
6929.995718,300.343000,0.620355
6935.870127,300.396000,-0.256682
6941.742464,300.449000,0.977852
6947.612730,300.502000,-0.441981
6953.480925,300.555000,-6.282247
6959.347051,300.608000,-2.101532
6965.211108,300.661000,-1.365442
6971.073099,300.714000,-3.441011
6976.933024,300.767000,-1.779671
6982.790884,300.820000,-2.180765
6988.646680,300.873000,0.308497
6994.500413,300.926000,-1.202211
7000.352085,300.979000,-6.205115
7006.201696,301.032000,0.998505
7012.049248,301.085000,3.253022
7017.894742,301.138000,2.920333
7023.738178,301.191000,-1.068945
7029.579559,301.244000,-8.820193
7035.418884,301.297000,-1.899869
7041.256155,301.350000,-1.334245
7047.091373,301.403000,-2.214745
7052.924539,301.456000,-2.288806
7058.645653,301.508000,1.086436
7064.474758,301.561000,-4.843932
7070.301814,301.614000,-0.724891
7076.126822,301.667000,-2.984729
7081.949784,301.720000,-4.308736
7087.660892,301.772000,-4.283297
7093.479803,301.825000,-0.248502
7099.296670,301.878000,0.680087
7105.111496,301.931000,-5.426331
7110.814624,301.983000,-0.122498
7116.625408,302.036000,-5.059656
7122.434152,302.089000,-1.300319
7128.240858,302.142000,-3.711669
7133.936024,302.194000,-3.173154
7139.738696,302.247000,-2.065923
7145.539334,302.300000,-4.847475
7151.228549,302.352000,-8.148381
7157.025159,302.405000,-3.822373
7162.819737,302.458000,1.464079
7168.503010,302.510000,1.474572
7174.293567,302.563000,1.725906
7180.082095,302.616000,2.741914
7185.759436,302.668000,4.532124
7191.543949,302.721000,3.817968
7197.217352,302.773000,-4.808156
7202.997854,302.826000,5.682736
7208.667324,302.878000,-1.195339
7214.443819,302.931000,1.708542
7220.109360,302.983000,-1.263527
7225.881853,303.036000,0.317525
7231.543468,303.088000,3.312394
7237.311962,303.141000,1.391289
7242.969657,303.193000,-0.093458
7248.734156,303.246000,-1.701389
7254.387934,303.298000,-0.224191
7260.148443,303.351000,-1.923483
7265.798308,303.403000,0.156078
7271.554831,303.456000,-3.015931
7277.200787,303.508000,1.120937
7282.953328,303.561000,4.913401
7288.595379,303.613000,-0.061490
7294.235498,303.665000,-5.800731
7299.982093,303.718000,0.422776
7305.618313,303.770000,-1.393552
7311.252604,303.822000,2.262331
7316.993262,303.875000,2.044165
7322.623660,303.927000,-1.547350
7328.252131,303.979000,1.322370
7333.986862,304.032000,-1.271845
7339.611446,304.084000,4.902939
7345.234108,304.136000,1.827559
7350.962920,304.189000,-0.370284
7356.581700,304.241000,2.687703
7362.198561,304.293000,-1.986452
7367.813502,304.345000,-1.320590
7373.426525,304.397000,1.990039
7379.145517,304.450000,4.237613
7384.754669,304.502000,-1.959376
7390.361906,304.554000,9.506677
7395.967228,304.606000,3.321887
7401.570637,304.658000,4.714441
7407.279836,304.711000,1.955670
7412.879384,304.763000,-4.942242
7418.477021,304.815000,3.062496
7424.072749,304.867000,1.334288
7429.666569,304.919000,-1.323681
7435.258480,304.971000,-2.976661
7440.848486,305.023000,6.179583
7446.436585,305.075000,-0.177149
7452.022780,305.127000,7.148142
7457.607071,305.179000,-3.843437
7463.296795,305.232000,1.478674
7468.877245,305.284000,-0.652026
7474.455794,305.336000,3.809287
7480.032444,305.388000,0.203934
7485.607195,305.440000,4.292797
7491.180048,305.492000,1.188642
7496.751004,305.544000,2.014256
7502.212985,305.595000,-0.206629
7507.780187,305.647000,1.295830
7513.345495,305.699000,-1.183835
7518.908909,305.751000,1.720998
7524.470432,305.803000,-1.049350
7530.030064,305.855000,-0.243949
7535.587805,305.907000,0.621712
7541.143658,305.959000,0.612606
7546.697622,306.011000,-0.937464
7552.249699,306.063000,0.324384
7557.693173,306.114000,4.692313
7563.241514,306.166000,0.999153
7568.787971,306.218000,4.373019
7574.332545,306.270000,-3.398576
7579.875237,306.322000,2.501562
7585.416047,306.374000,0.700630
7590.848476,306.425000,-0.548437
7596.385562,306.477000,-0.845297
7601.920769,306.529000,-2.416389
7607.454098,306.581000,-0.971101
7612.879195,306.632000,-2.234136
7618.408808,306.684000,-0.806245
7623.936546,306.736000,-3.481143
7629.462411,306.788000,-1.236136
7634.880189,306.839000,0.478249
7640.402345,306.891000,-3.330666
7645.922629,306.943000,0.955970
7651.334938,306.994000,-0.613829
7656.851519,307.046000,4.638405
7662.260197,307.097000,0.361319
7667.773079,307.149000,0.094673
7673.284094,307.201000,-3.672409
7678.687317,307.252000,-2.867150
7684.194638,307.304000,1.247285
7689.700096,307.356000,-1.372666
7695.097870,307.407000,1.810519
7700.599639,307.459000,0.400638
7705.993798,307.510000,-4.088583
7711.491883,307.562000,-2.310201
7716.882430,307.613000,3.981971
7722.376833,307.665000,0.861627
7727.763772,307.716000,-1.420984
7733.254498,307.768000,-0.155081
7738.637831,307.819000,3.022669
7744.124884,307.871000,-0.536289
7749.504617,307.922000,-3.586924
7754.988000,307.974000,-0.173700
7760.364134,308.025000,-1.391554
7765.738489,308.076000,-3.132740
7771.216392,308.128000,-5.339099
7776.587155,308.179000,0.449673
7782.061397,308.231000,3.349245
7787.428571,308.282000,2.194729
7792.793970,308.333000,-0.310617
7798.262745,308.385000,0.269847
7803.624561,308.436000,-2.011772
7808.984603,308.487000,-0.076459
7814.447920,308.539000,-2.249825
7819.804385,308.590000,1.558710
7825.159080,308.641000,0.223708
7830.616947,308.693000,-6.735779
7835.968069,308.744000,-1.331441
7841.317424,308.795000,-1.401085
7846.665012,308.846000,-3.322313
7852.115636,308.898000,-2.043129
7857.459659,308.949000,0.520363
7862.801917,309.000000,1.533505
7868.142413,309.051000,1.523225
7873.481146,309.102000,-4.308569
7878.922746,309.154000,-2.487579
7884.257923,309.205000,5.321840
7889.591340,309.256000,2.151863
7894.922998,309.307000,3.204836
7900.252898,309.358000,-2.988586
7905.581041,309.409000,-1.830031
7910.907428,309.460000,-2.591353
7916.336447,309.512000,0.718165
7921.659290,309.563000,-1.780530
7926.980379,309.614000,-0.665120
7932.299715,309.665000,-1.419222
7937.617300,309.716000,0.325722
7942.933134,309.767000,-3.180619
7948.247217,309.818000,2.534128
7953.559551,309.869000,-1.003627
7958.870137,309.920000,2.127780
7964.178976,309.971000,0.360007
7969.486068,310.022000,-2.389594
7974.791414,310.073000,-0.598211
7980.095015,310.124000,1.344053
7985.396872,310.175000,4.225295
7990.696985,310.226000,0.364235
7995.995357,310.277000,-0.417231
8001.291987,310.328000,1.555852
8006.586876,310.379000,-1.051296
8011.880026,310.430000,-0.189907
8017.067700,310.480000,3.242615
8022.357406,310.531000,3.042296
8027.645376,310.582000,-1.169336
8032.931609,310.633000,-1.926880
8038.216106,310.684000,-1.529863
8043.498869,310.735000,0.035551
8048.779898,310.786000,-0.453886
8053.955695,310.836000,2.480342
8059.233293,310.887000,-4.147335
8064.509160,310.938000,-2.428221
8069.783296,310.989000,-1.577367
8074.952339,311.039000,5.135047
8080.223051,311.090000,1.032853
8085.492035,311.141000,-2.859513
8090.759292,311.192000,2.774123
8095.921594,311.242000,0.604461
8101.185433,311.293000,1.805351
8106.447548,311.344000,3.127943
8111.604811,311.394000,-2.865996
8116.863513,311.445000,2.590773
8122.120493,311.496000,2.512570
8127.272724,311.546000,0.140180
8132.526297,311.597000,2.589159
8137.778150,311.648000,-0.113183
8142.925357,311.698000,1.449119
8148.173807,311.749000,0.433325
8153.420541,311.800000,3.243667
8158.562731,311.850000,-3.230492
8163.806066,311.901000,-1.228334
8168.944927,311.951000,-1.624504
8174.184869,312.002000,4.573500
8179.320403,312.052000,2.537337
8184.556953,312.103000,-4.340603
8189.689165,312.153000,5.184850
8194.922327,312.204000,-0.775613
8200.051219,312.254000,-1.207702
8205.280996,312.305000,2.607797
8210.406572,312.355000,2.807975
8215.632968,312.406000,-0.412505
8220.755230,312.456000,-0.028685
8225.978248,312.507000,-1.329261
8231.097200,312.557000,-1.704170
8236.316843,312.608000,-2.006516
8241.432488,312.658000,0.131751
8246.546497,312.708000,-0.126089
8251.761101,312.759000,1.719187
8256.871808,312.809000,2.463671
8261.980881,312.859000,-0.062704
8267.190453,312.910000,-4.643385
8272.296229,312.960000,-4.773057
8277.400373,313.010000,0.337537
8282.604921,313.061000,-0.271615
8287.705773,313.111000,0.617203
8292.804996,313.161000,-1.890933
8298.004526,313.212000,2.121167
8303.100462,313.262000,-1.785319
8308.194770,313.312000,-2.975848
8313.287453,313.362000,-0.524858
8318.480316,313.413000,3.104569
8323.569717,313.463000,0.139382
8328.657496,313.513000,-1.652547
8333.743651,313.563000,-5.072490
8338.828185,313.613000,0.407894
8344.012739,313.664000,4.120235
8349.094000,313.714000,-1.402131
8354.173640,313.764000,0.397448
8359.251662,313.814000,4.945968
8364.328066,313.864000,2.298550
8369.402853,313.914000,1.645038
8374.476024,313.964000,0.041758
8379.547579,314.014000,-0.281818
8384.718901,314.065000,0.603743
8389.787195,314.115000,-1.518299
8394.853876,314.165000,4.538683
8399.918944,314.215000,0.697352
8404.982400,314.265000,2.570160
8410.044246,314.315000,0.304418
8415.104481,314.365000,-3.474645
8420.163107,314.415000,-4.101130
8425.220124,314.465000,0.716149
8430.275533,314.515000,0.241770
8435.329336,314.565000,-8.602192
8440.381532,314.615000,0.056694
8445.432122,314.665000,2.347727
8450.481107,314.715000,4.061015
8455.528489,314.765000,-2.078461
8460.473367,314.814000,1.916623
8465.517575,314.864000,-4.003708
8470.560181,314.914000,-3.676023
8475.601186,314.964000,-1.038768
8480.640590,315.014000,-0.754918
8485.678395,315.064000,0.948742
8490.714602,315.114000,1.990383
8495.749210,315.164000,1.931224
8500.681577,315.213000,0.923461
8505.713024,315.263000,0.188600
8510.742875,315.313000,-6.688591
8515.771131,315.363000,1.860802
8520.797793,315.413000,2.326877
8525.722375,315.462000,-2.357275
8530.745883,315.512000,-0.821103
8535.767799,315.562000,-1.514276
8540.788124,315.612000,-1.736446
8545.706499,315.661000,0.610030
8550.723675,315.711000,0.456958
8555.739262,315.761000,-0.871868
8560.652997,315.810000,-1.721959
8565.665441,315.860000,-3.476811
8570.676298,315.910000,-6.551449
8575.585399,315.959000,-1.282886
8580.593116,316.009000,-1.748575
8585.599249,316.059000,2.970962
8590.503723,316.108000,-0.688367
8595.506721,316.158000,-1.834475
8600.508137,316.208000,0.657164
8605.407991,316.257000,-3.363475
8610.406276,316.307000,-3.922757
8615.303063,316.356000,1.612825
8620.298221,316.406000,0.336629
8625.191944,316.455000,0.332934
8630.183977,316.505000,3.470650
8635.074640,316.554000,1.314586
8640.063551,316.604000,-3.724086
8644.951156,316.653000,-0.466637
8649.936949,316.703000,-1.453491
8654.821499,316.752000,-2.142468
8659.804175,316.802000,-0.196228
8664.685673,316.851000,-4.065858
8669.665237,316.901000,5.224415
8674.543685,316.950000,-0.886583
8679.520139,317.000000,-1.205810
8684.395541,317.049000,-1.006596
8689.269436,317.098000,-1.828351
8694.241247,317.148000,-1.960569
8699.112100,317.197000,-0.053756
8703.981448,317.246000,0.345360
8708.948621,317.296000,1.593354
8713.814931,317.345000,-0.927471
8718.779005,317.395000,-3.697020
8723.642281,317.444000,0.987613
8728.504055,317.493000,0.653741
8733.364329,317.542000,-2.576415
8738.322247,317.592000,0.155750
8743.179491,317.641000,3.465120
8748.035237,317.690000,-2.670135
8752.889486,317.739000,-2.817715
8757.841258,317.789000,0.908032
8762.692483,317.838000,-2.066975
8767.542212,317.887000,-3.224225
8772.390446,317.936000,-5.638086
8777.336084,317.986000,-2.718718
8782.181300,318.035000,-2.999612
8787.025024,318.084000,-3.095430
8791.867255,318.133000,1.515720
8796.707995,318.182000,-2.654978
8801.547244,318.231000,0.671639
8806.385003,318.280000,-0.413668
8811.319957,318.330000,-2.547181
8816.154708,318.379000,1.318394
8820.987971,318.428000,-2.737255
8825.819746,318.477000,-0.280688
8830.650035,318.526000,-2.580844
8835.478838,318.575000,-1.992093
8840.306156,318.624000,-1.994950
8845.131990,318.673000,3.064510
8849.956339,318.722000,-3.824820
8854.779206,318.771000,-1.171091
8859.600590,318.820000,-0.499386
8864.420492,318.869000,1.623439
8869.238913,318.918000,-1.499569
8874.055854,318.967000,0.844877
8878.871314,319.016000,-2.357765
8883.685296,319.065000,1.583485
8888.497800,319.114000,1.809668
8893.308826,319.163000,-2.197439
8898.118374,319.212000,-2.665860
8902.926447,319.261000,-0.538209
8907.634964,319.309000,2.123493
8912.440116,319.358000,1.019168
8917.243794,319.407000,-4.839259
8922.045998,319.456000,-1.964403
8926.846729,319.505000,2.832976
8931.645988,319.554000,3.245967
8936.443775,319.603000,0.019030
8941.142222,319.651000,-2.538582
8945.937098,319.700000,-0.380487
8950.730504,319.749000,1.160725
8955.522441,319.798000,0.099293
8960.215161,319.846000,-1.696201
8965.004192,319.895000,-1.711299
8969.791757,319.944000,-2.009608
8974.577855,319.993000,1.392398
8979.264858,320.041000,-0.695678
8984.048055,320.090000,-0.344694
8988.829789,320.139000,0.329228
8993.512517,320.187000,-0.360863
8998.291355,320.236000,-5.764139
9003.068730,320.285000,-0.593114
9007.747190,320.333000,-1.910738
9012.521672,320.382000,-1.054837
9017.294694,320.431000,0.317418
9021.968893,320.479000,2.425626
9026.739026,320.528000,-1.475548
9031.410396,320.576000,-1.686295
9036.177644,320.625000,2.083115
9040.943434,320.674000,-0.166441
9045.610552,320.722000,-2.874096
9050.373460,320.771000,0.083467
9055.037756,320.819000,-1.396890
9059.797784,320.868000,0.294170
9064.459261,320.916000,3.749939
9069.216413,320.965000,-1.367343
9073.875072,321.013000,1.402005
9078.629350,321.062000,2.498846
9083.285194,321.110000,0.916792
9088.036601,321.159000,-0.398653
9092.689634,321.207000,3.431729
9097.438171,321.256000,-0.539536
9102.088394,321.304000,4.449728
9106.737229,321.352000,1.588593
9111.481482,321.401000,1.639130
9116.127511,321.449000,-4.695083
9120.868902,321.498000,-1.742771
9125.512128,321.546000,-3.510234
9130.153968,321.594000,-0.191256
9134.891085,321.643000,3.003574
9139.530126,321.691000,-4.983965
9144.167783,321.739000,1.035906
9148.900630,321.788000,-1.470457
9153.535492,321.836000,-7.031847
9158.168971,321.884000,1.815570
9162.801069,321.932000,-0.748697
9167.528244,321.981000,0.728643
9172.157551,322.029000,-1.966144
9176.785479,322.077000,0.647793
9181.412027,322.125000,3.663652
9186.133540,322.174000,1.766487
9190.757302,322.222000,1.866182
9195.379688,322.270000,1.066596
9200.000697,322.318000,1.348326
9204.620330,322.366000,-0.440852
9209.334786,322.415000,2.634174
9213.951640,322.463000,2.274333
9218.567119,322.511000,3.716058
9223.181225,322.559000,0.400806
9227.793957,322.607000,0.931020
9232.405318,322.655000,0.694002
9237.015306,322.703000,3.728884
9241.623923,322.751000,1.822302
9246.231170,322.799000,0.347742
9250.932988,322.848000,-1.700197
9255.537466,322.896000,3.925573
9260.140576,322.944000,1.679288
9264.742318,322.992000,1.677502
9269.342693,323.040000,-0.177615
9273.941700,323.088000,-3.267900
9278.539341,323.136000,-2.694708
9283.135616,323.184000,-1.601209
9287.730527,323.232000,-0.176111
9292.324072,323.280000,-1.283042
9296.916254,323.328000,-2.204933
9301.411445,323.375000,-1.176410
9306.000929,323.423000,1.279279
9310.589052,323.471000,-0.189353
9315.175812,323.519000,-3.330422
9319.761212,323.567000,-0.539830
9324.345252,323.615000,-2.267304
9328.927932,323.663000,0.315152
9333.509253,323.711000,-3.572119
9338.089216,323.759000,-0.765796
9342.572447,323.806000,-0.360169
9347.149722,323.854000,0.747880
9351.725642,323.902000,2.122500
9356.300205,323.950000,-1.215477
9360.873412,323.998000,2.458573
9365.350032,324.045000,1.784601
9369.920559,324.093000,3.746960
9374.489732,324.141000,-2.144191
9379.057552,324.189000,1.804777
9383.528899,324.236000,1.165698
9388.094043,324.284000,1.117975
9392.657836,324.332000,-2.062313
9397.125241,324.379000,-3.670794
9401.686361,324.427000,-1.701942
9406.246132,324.475000,-3.466944
9410.804554,324.523000,-0.356901
9415.266702,324.570000,-2.970377
9419.822456,324.618000,-1.964002
9424.281993,324.665000,0.292942
9428.835082,324.713000,1.069766
9433.386824,324.761000,-0.231249
9437.842435,324.808000,0.509383
9442.391516,324.856000,-0.654975
9446.844521,324.903000,0.812840
9451.390942,324.951000,-3.109905
9455.936020,324.999000,-1.887737
9460.385108,325.046000,-0.228609
9464.927530,325.094000,-5.264488
9469.374018,325.141000,0.507059
9473.913786,325.189000,-1.651678
9478.357677,325.236000,0.337729
9482.894794,325.284000,-2.889936
9487.336090,325.331000,-0.956135
9491.870557,325.379000,-0.373391
9496.309260,325.426000,-1.356380
9500.746681,325.473000,1.345083
9505.277193,325.521000,0.643334
9509.712024,325.568000,1.340057
9514.239893,325.616000,0.835916
9518.672137,325.663000,-3.413722
9523.103102,325.710000,-3.770424
9527.627024,325.758000,1.821469
9532.055405,325.805000,-3.928741
9536.576689,325.853000,-0.516743
9541.002489,325.900000,-2.317637
9545.427013,325.947000,-0.642996
9549.850260,325.994000,7.229114
9554.366303,326.042000,4.711053
9558.786974,326.089000,-1.453518
9563.206371,326.136000,0.571279
9567.718482,326.184000,3.326762
9572.135305,326.231000,-0.379979
9576.550855,326.278000,2.474225
9580.965134,326.325000,2.537535
9585.472021,326.373000,3.671512
9589.883730,326.420000,1.801285
9594.294169,326.467000,2.139779
9598.703338,326.514000,-0.043129
9603.111238,326.561000,-0.686136
9607.611614,326.609000,-1.812539
9612.016950,326.656000,-1.781867
9616.421019,326.703000,-2.861092
9620.823821,326.750000,0.244439
9625.225356,326.797000,2.441031
9629.625626,326.844000,2.738223
9634.024630,326.891000,-4.281379
9638.422369,326.938000,-0.446162
9642.818845,326.985000,-0.791650
9647.214056,327.032000,0.094289
9651.701479,327.080000,1.014906
9656.094138,327.127000,3.814104
9660.485535,327.174000,-2.412513
9664.875670,327.221000,-1.874265
9669.264544,327.268000,0.359896
9673.652158,327.315000,3.303696
9678.038512,327.362000,-0.851513
9682.423607,327.409000,3.587066
9686.807443,327.456000,-3.272949
9691.190021,327.503000,-0.912923
9695.478134,327.549000,-1.033608
9699.858224,327.596000,0.524274
9704.237057,327.643000,2.259977
9708.614633,327.690000,1.705260
9712.990955,327.737000,-2.155796
9717.366021,327.784000,-2.531593
9721.739833,327.831000,2.240238
9726.112390,327.878000,-1.083418
9730.483695,327.925000,4.511863
9734.760780,327.971000,0.601148
9739.129606,328.018000,-1.668296
9743.497180,328.065000,-1.560126
9747.863503,328.112000,-1.203479
9752.228575,328.159000,-1.638480
9756.499562,328.205000,1.101342
9760.862161,328.252000,0.499996
9765.223511,328.299000,1.768254
9769.583612,328.346000,1.793770
9773.849737,328.392000,1.038228
9778.207369,328.439000,1.361866
9782.563754,328.486000,0.029299
9786.918893,328.533000,-0.671099
9791.180163,328.579000,-0.332636
9795.532837,328.626000,3.488323
9799.884266,328.673000,-3.605649
9804.141906,328.719000,-2.005390
9808.490874,328.766000,0.319236
9812.838598,328.813000,4.135680
9817.092614,328.859000,-0.086756
9821.437879,328.906000,-2.142802
9825.689490,328.952000,0.095859
9830.032299,328.999000,1.611268
9834.373868,329.046000,-0.760955
9838.621862,329.092000,-3.744182
9842.960977,329.139000,-1.273197
9847.206571,329.185000,-2.857423
9851.543235,329.232000,-3.347137
9855.786431,329.278000,-1.713055
9860.120646,329.325000,1.597601
9864.361446,329.371000,1.752170
9868.693214,329.418000,-2.760838
9872.931619,329.464000,2.035841
9877.260942,329.511000,3.934708
9881.496956,329.557000,-3.271887
9885.823836,329.604000,-3.325015
9890.057460,329.650000,-7.389393
9894.289903,329.696000,-2.716917
9898.613135,329.743000,-0.024049
9902.843191,329.789000,-0.890188
9907.163985,329.836000,-1.031877
9911.391656,329.882000,-0.983165
9915.618148,329.928000,0.462433
9919.935303,329.975000,-1.573861
9924.159413,330.021000,-2.349130
9928.382346,330.067000,3.395007
9932.695866,330.114000,4.336774
9936.916419,330.160000,-3.222532
9941.135797,330.206000,-0.023850
9945.445687,330.253000,2.918292
9949.662689,330.299000,-4.389651
9953.878516,330.345000,0.672420
9958.093170,330.391000,-0.970512
9962.398234,330.438000,-0.286971
9966.610516,330.484000,1.320063
9970.821625,330.530000,-3.389983
9975.031562,330.576000,-3.564793
9979.240328,330.622000,-2.776758
9983.539380,330.669000,-2.082618
9987.745778,330.715000,-2.553059
9991.951007,330.761000,-2.685066
9996.155067,330.807000,7.094403
10000.357957,330.853000,4.198602
10004.559679,330.899000,-3.413127
10008.760233,330.945000,-5.429666
10013.050897,330.992000,-0.473444
10017.249091,331.038000,-4.176340
10021.446118,331.084000,0.922775
10025.641979,331.130000,2.753323
10029.836675,331.176000,1.137485
10034.030205,331.222000,1.284088
10038.222571,331.268000,-3.316022
10042.413773,331.314000,-0.613022
10046.603811,331.360000,-1.615103
10050.792686,331.406000,-1.030559
10054.980398,331.452000,0.457007
10059.166948,331.498000,-2.380844
10063.352336,331.544000,0.589441
10067.536563,331.590000,1.374008
10071.719629,331.636000,-3.453333
10075.901535,331.682000,0.638153
10080.082281,331.728000,0.673308
10084.261868,331.774000,0.910302
10088.440296,331.820000,1.962330
10092.526768,331.865000,0.930666
10096.702905,331.911000,-2.154340
10100.877884,331.957000,-0.912155
10105.051707,332.003000,2.104327
10109.224373,332.049000,0.624968
10113.395884,332.095000,-3.121414
10117.475591,332.140000,-2.304952
10121.644816,332.186000,2.485266
10125.812886,332.232000,-2.307539
10129.979802,332.278000,-0.886904
10134.145565,332.324000,-1.175387
10138.219652,332.369000,-3.153251
10142.383134,332.415000,-3.916566
10146.545464,332.461000,-2.146476
10150.706643,332.507000,-1.588119
10154.776247,332.552000,2.425607
10158.935148,332.598000,1.371922
10163.092900,332.644000,-1.284257
10167.159152,332.689000,3.305862
10171.314630,332.735000,2.536250
10175.468958,332.781000,-2.142042
10179.531864,332.826000,1.535839
10183.683921,332.872000,4.345142
10187.834831,332.918000,-6.344305
10191.894393,332.963000,0.793731
10196.043035,333.009000,-1.337803
10200.190530,333.055000,-1.747537
10204.246754,333.100000,-1.552696
10208.391984,333.146000,0.150410
10212.445992,333.191000,-2.872144
10216.588958,333.237000,-2.502823
10220.640753,333.282000,4.884292
10224.781457,333.328000,0.225299
10228.831039,333.373000,-0.781173
10232.969483,333.419000,5.131008
10237.016856,333.464000,-1.363552
10241.153042,333.510000,-0.118376
10245.198206,333.555000,0.156840
10249.332135,333.601000,-2.065637
10253.375094,333.646000,4.756704
10257.506768,333.692000,-0.006110
10261.547522,333.737000,0.315836
10265.587186,333.782000,-2.738647
10269.715494,333.828000,-0.201546
10273.752956,333.873000,1.149249
10277.879015,333.919000,-4.412249
10281.914277,333.964000,0.571060
10285.948452,334.009000,-0.122780
10290.071151,334.055000,3.052235
10294.103128,334.100000,-1.965015
10298.134020,334.145000,-2.147819
10302.253364,334.191000,-3.464136
10306.282060,334.236000,7.880940
10310.309672,334.281000,-1.073596
10314.425666,334.327000,-0.959003
10318.451085,334.372000,0.590033
10322.475422,334.417000,-4.347204
10326.498675,334.462000,3.428308
10330.610215,334.508000,-4.788910
10334.631280,334.553000,1.809620
10338.651263,334.598000,6.060424
10342.670165,334.643000,-1.480201
10346.687987,334.688000,-6.579808
10350.704728,334.733000,-1.310555
10354.809614,334.779000,3.626649
10358.824172,334.824000,-3.268422
10362.837651,334.869000,-0.368320
10366.850051,334.914000,-0.661558
10370.861373,334.959000,3.243927
10374.871618,335.004000,-1.990913
10378.880786,335.049000,-3.695212
10382.888876,335.094000,-4.360750
10386.984923,335.140000,-1.670197
10390.990838,335.185000,0.339204
10394.995677,335.230000,-1.179090
10398.999440,335.275000,-0.531694
10403.002130,335.320000,-0.349328
10407.003745,335.365000,-0.030391
10411.004286,335.410000,1.324260
10415.003755,335.455000,-0.402029
10419.002150,335.500000,2.970054
10422.999473,335.545000,-1.682081
10426.995723,335.590000,-5.659383
10430.990902,335.635000,2.025075
10434.985010,335.680000,3.155435
10438.889325,335.724000,0.404509
10442.881316,335.769000,0.391860
10446.872237,335.814000,0.794178
10450.862088,335.859000,-1.467494
10454.850871,335.904000,5.508089
10458.838585,335.949000,5.616988
10462.825230,335.994000,1.051291
10466.810808,336.039000,4.455332
10470.706786,336.083000,-0.377249
10474.690253,336.128000,0.685839
10478.672654,336.173000,2.111316
10482.653989,336.218000,-0.686047
10486.634259,336.263000,3.306822
10490.525048,336.307000,2.077176
10494.503211,336.352000,-0.465693
10498.480310,336.397000,1.261779
10502.456345,336.442000,-1.957459
10506.342995,336.486000,3.549656
10510.316927,336.531000,0.657219
10514.289797,336.576000,-4.227481
10518.261604,336.621000,-2.774174
10522.144122,336.665000,2.721204
10526.113830,336.710000,-2.243319
10530.082477,336.755000,1.420330
10533.961906,336.799000,-2.728272
10537.928455,336.844000,5.003127
10541.893946,336.889000,1.305197
10545.770289,336.933000,-1.318000
10549.733685,336.978000,-2.397302
10553.607982,337.022000,6.764856
10557.569284,337.067000,1.666914
10561.529529,337.112000,-3.218816
10565.400747,337.156000,-3.348093
10569.358902,337.201000,0.541804
10573.228076,337.245000,0.644122
10577.184142,337.290000,-0.544353
10581.051275,337.334000,-0.894836
10585.005254,337.379000,-2.096446
10588.870347,337.423000,-5.651069
10592.822240,337.468000,4.263615
10596.685295,337.512000,1.126433
10600.635105,337.557000,1.405915
10604.496123,337.601000,-2.370133
10608.443850,337.646000,2.003422
10612.302834,337.690000,-2.481689
10616.160811,337.734000,-1.428768
10620.105430,337.779000,-1.577541
10623.961375,337.823000,4.775536
10627.903916,337.868000,-0.403073
10631.757830,337.912000,7.504252
10635.610740,337.956000,2.685971
10639.550179,338.001000,2.716886
10643.401061,338.045000,6.653090
10647.250940,338.089000,2.504771
10651.187281,338.134000,1.509296
10655.035134,338.178000,2.185736
10658.881986,338.222000,4.474552
10662.815231,338.267000,3.366717
10666.660059,338.311000,3.690008
10670.503887,338.355000,9.208627
10674.346716,338.399000,3.296802
10678.275848,338.444000,7.475083
10682.116656,338.488000,3.058908
10685.956465,338.532000,5.350752
10689.795276,338.576000,4.107566
10693.633090,338.620000,9.232461
10697.557096,338.665000,7.346873
10701.392893,338.709000,3.327970
10705.227693,338.753000,2.682547
10709.061498,338.797000,7.601934
10712.894307,338.841000,3.954390
10716.726120,338.885000,3.602177
10720.556939,338.929000,8.564010
10724.386763,338.973000,10.020211
10728.302601,339.018000,5.598248
10732.130414,339.062000,5.504617
10735.957235,339.106000,0.206173
10739.783062,339.150000,2.116105
10743.607897,339.194000,4.971410
10747.431740,339.238000,4.131025
10751.254591,339.282000,7.033985
10755.076450,339.326000,8.105419
10758.897319,339.370000,4.034396
10762.717197,339.414000,10.369556
10766.536084,339.458000,7.231824
10770.353982,339.502000,5.081696
10774.170890,339.546000,-0.769826
10777.986809,339.590000,4.730779
10781.801740,339.634000,9.179330
10785.615682,339.678000,6.172373
10789.341989,339.721000,7.394101
10793.153978,339.765000,1.485184
10796.964980,339.809000,5.157605
10800.774995,339.853000,6.378457
10804.584024,339.897000,5.178890
10808.392066,339.941000,7.487955
10812.199123,339.985000,2.319407
10816.005195,340.029000,7.569498
10819.723813,340.072000,4.971400
10823.527938,340.116000,1.419292
10827.331078,340.160000,7.628931
10831.133235,340.204000,8.101946
10834.848029,340.247000,5.141056
10838.648242,340.291000,4.220881
10842.447472,340.335000,3.122167
10846.245720,340.379000,5.057278
10849.956695,340.422000,8.336444
10853.753002,340.466000,5.194477
10857.548328,340.510000,2.589275
10861.342673,340.554000,6.688270
10865.049836,340.597000,6.357251
10868.842243,340.641000,6.318261
10872.633670,340.685000,4.592391
10876.337983,340.728000,10.081979
10880.127474,340.772000,6.405362
10883.829896,340.815000,9.584624
10887.617453,340.859000,8.137735
10891.404033,340.903000,2.912732
10895.103609,340.946000,4.345993
10898.888257,340.990000,1.726152
10902.585946,341.033000,4.136324
10906.368663,341.077000,1.102623
10910.150404,341.121000,7.281523
10913.845254,341.164000,6.646390
10917.625066,341.208000,4.678378
10921.318033,341.251000,7.412154
10925.095918,341.295000,3.669372
10928.787002,341.338000,10.674461
10932.562962,341.382000,5.124737
10936.252165,341.425000,3.560666
10939.940439,341.468000,2.244543
10943.713524,341.512000,5.659047
10947.399919,341.555000,3.783340
10951.171083,341.599000,3.774719
10954.855601,341.642000,9.185973
10958.624845,341.686000,4.672263
10962.307486,341.729000,4.356292
10965.989201,341.772000,9.303365
10969.755578,341.816000,2.892885
10973.435419,341.859000,3.925868
10977.114334,341.902000,5.436556
10980.877848,341.946000,4.537998
10984.554892,341.989000,3.100747
10988.231011,342.032000,9.103671
10991.991665,342.076000,6.757015
10995.665914,342.119000,7.219325
10999.339240,342.162000,-0.815534
11003.011643,342.205000,4.732291
11006.768496,342.249000,5.449716
11010.439032,342.292000,9.337866
11014.108646,342.335000,7.051644
11017.777338,342.378000,7.198247
11021.530396,342.422000,3.959977
11025.197224,342.465000,2.528449
11028.863132,342.508000,4.350079
11032.528119,342.551000,2.996679
11036.192187,342.594000,5.534932
11039.855335,342.637000,5.627532
11043.602720,342.681000,13.023321
11047.264009,342.724000,5.507230
11050.924378,342.767000,4.834969
11054.583829,342.810000,2.435386
11058.242363,342.853000,2.913641
11061.899979,342.896000,6.418042
11065.556677,342.939000,9.256511
11069.212459,342.982000,6.196484
11072.867324,343.025000,9.409218
11076.521273,343.068000,2.457346
11080.174306,343.111000,11.316518
11083.826423,343.154000,2.640105
11087.477626,343.197000,3.350623
11091.127913,343.240000,4.243590
11094.777286,343.283000,7.923650
11098.425745,343.326000,2.561494
11102.073291,343.369000,7.514095
11105.719922,343.412000,7.583435
11109.365641,343.455000,10.464378
11113.010447,343.498000,4.700952
11116.654340,343.541000,7.535157
11120.297322,343.584000,5.299721
11123.939391,343.627000,5.097901
11127.580549,343.670000,2.117892
11131.220797,343.713000,5.987620
11134.775508,343.755000,3.314387
11138.413955,343.798000,7.115406
11142.051492,343.841000,6.238694
11145.688120,343.884000,7.859326
11149.323838,343.927000,5.395648
11152.958647,343.970000,11.069330
11156.508049,344.012000,10.051765
11160.141062,344.055000,5.812127
11163.773167,344.098000,14.885028
11167.404365,344.141000,8.122841
11170.950240,344.183000,5.938142
11174.579645,344.226000,6.096573
11178.208143,344.269000,8.381181
11181.751382,344.311000,7.274130
11185.378088,344.354000,2.777978
11189.003889,344.397000,5.167760
11192.628785,344.440000,8.739343
11196.168507,344.482000,-0.275753
11199.791614,344.525000,6.481292
11203.413817,344.568000,4.425411
11206.950910,344.610000,5.179881
11210.571327,344.653000,9.018438
11214.106675,344.695000,12.544771
11217.725306,344.738000,8.343326
11221.343035,344.781000,9.091728
11224.875759,344.823000,10.892953
11228.491704,344.866000,5.505256
11232.022687,344.908000,8.151383
11235.636851,344.951000,6.238169
11239.166094,344.993000,5.990160
11242.778477,345.036000,7.874372
11246.305982,345.078000,9.379880
11249.916585,345.121000,1.567780
11253.442353,345.163000,7.046287
11257.051178,345.206000,3.946965
11260.575210,345.248000,7.068594
11264.182259,345.291000,8.683109
11267.704555,345.333000,7.103584
11271.309829,345.376000,5.320828
11274.830392,345.418000,6.339353
11278.350100,345.460000,11.543534
11281.952723,345.503000,8.476769
11285.470699,345.545000,11.863669
11288.987820,345.587000,5.065516
11292.587796,345.630000,7.560468
11296.103187,345.672000,10.358755
11299.701393,345.715000,7.293547
11303.215056,345.757000,6.510001
11306.727865,345.799000,5.319273
11310.239821,345.841000,10.991747
11313.834512,345.884000,6.256105
11317.344742,345.926000,8.762220
11320.854120,345.968000,1.246301
11324.446172,346.011000,12.361586
11327.953826,346.053000,7.372566
11331.460629,346.095000,3.548996
11334.966581,346.137000,3.179014
11338.471682,346.179000,5.136193
11342.059357,346.222000,3.912551
11345.562737,346.264000,7.741846
11349.065268,346.306000,4.530231
11352.566949,346.348000,9.887309
11356.067781,346.390000,9.305822
11359.567764,346.432000,6.144988
11363.150201,346.475000,1.148938
11366.648467,346.517000,0.879231
11370.145885,346.559000,9.997290
11373.642456,346.601000,3.254611
11377.138179,346.643000,3.652154
11380.633055,346.685000,10.342401
11384.127085,346.727000,7.793410
11387.620268,346.769000,8.194103
11391.112605,346.811000,8.143115
11394.604096,346.853000,11.734388
11398.094742,346.895000,11.031303
11401.584543,346.937000,7.722167
11405.073499,346.979000,7.969678
11408.561610,347.021000,6.892617
11412.048877,347.063000,7.924084
11415.535301,347.105000,9.814084
11419.020880,347.147000,4.030566
11422.505617,347.189000,5.246011
11425.989510,347.231000,8.449255
11429.472560,347.273000,4.962479
11432.954769,347.315000,5.142726
11436.436135,347.357000,9.545623
11439.916659,347.399000,6.192532
11443.313502,347.440000,4.802030
11446.792364,347.482000,10.641659
11450.270384,347.524000,9.002532
11453.747565,347.566000,6.817501
11457.223905,347.608000,8.085223
11460.699405,347.650000,6.740351
11464.091345,347.691000,11.796283
11467.565186,347.733000,4.792077
11471.038188,347.775000,3.621784
11474.510351,347.817000,10.273759
11477.981676,347.859000,8.258535
11481.369541,347.900000,5.675999
11484.839210,347.942000,13.024838
11488.308041,347.984000,6.727353
11491.693473,348.025000,9.595966
11495.160650,348.067000,7.385779
11498.626991,348.109000,10.727494
11502.092494,348.151000,6.185578
11505.474680,348.192000,10.753792
11508.938532,348.234000,6.909880
11512.401549,348.276000,2.769118
11515.781307,348.317000,10.459249
11519.242673,348.359000,2.659667
11522.620821,348.400000,1.770464
11526.080539,348.442000,8.804382
11529.539422,348.484000,5.889483
11532.915148,348.525000,8.188235
11536.372384,348.567000,2.844166
11539.746502,348.608000,4.447056
11543.202092,348.650000,8.396404
11546.574604,348.691000,5.651817
11550.028550,348.733000,3.497785
11553.399456,348.774000,4.038794
11556.851758,348.816000,6.646313
11560.221061,348.857000,10.100164
11563.671720,348.899000,8.056527
11567.039420,348.940000,7.565654
11570.488439,348.982000,6.295297
11573.854537,349.023000,9.916187
11577.301915,349.065000,9.071823
11580.666413,349.106000,6.338498
11584.030120,349.147000,10.628773
11587.475051,349.189000,3.185967
11590.837159,349.230000,7.414042
11594.280452,349.272000,6.240214
11597.640963,349.313000,5.733475
11601.000686,349.354000,9.399042
11604.441535,349.396000,4.355010
11607.799661,349.437000,13.578874
11611.157000,349.478000,9.201522
11614.595408,349.520000,2.987588
11617.951152,349.561000,7.564331
11621.306109,349.602000,3.425568
11624.660280,349.643000,6.055387
11628.095443,349.685000,5.354820
11631.448022,349.726000,6.287573
11634.799814,349.767000,10.430481
11638.150821,349.808000,10.937009
11641.582745,349.850000,8.241683
11644.932162,349.891000,8.419181
11648.280794,349.932000,7.124960
11651.628641,349.973000,1.942451
11654.975704,350.014000,6.530732
11658.403590,350.056000,2.745718
11661.749066,350.097000,6.746001
11665.093759,350.138000,9.824675
11668.437668,350.179000,3.737376
11671.780795,350.220000,6.686878
11675.123139,350.261000,7.626463
11678.464700,350.302000,5.085752
11681.805480,350.343000,6.080219
11685.145477,350.384000,2.141771
11688.484693,350.425000,7.257374
11691.904543,350.467000,7.021689
11695.242178,350.508000,7.229489
11698.579032,350.549000,5.899444
11701.915105,350.590000,5.130853
11705.250398,350.631000,7.752289
11708.584912,350.672000,5.016397
11711.918645,350.713000,7.978043
11715.251600,350.754000,7.048871
11718.502512,350.794000,1.523817
11721.833927,350.835000,5.836733
11725.164564,350.876000,7.380393
11728.494422,350.917000,6.269079
11731.823503,350.958000,5.197695
11735.151806,350.999000,8.404106
11738.479331,351.040000,6.398031
11741.806079,351.081000,7.324326
11745.132050,351.122000,7.351566
11748.457245,351.163000,3.823685
11751.700589,351.203000,10.457118
11755.024250,351.244000,3.482151
11758.347135,351.285000,3.794039
11761.669245,351.326000,11.715806
11764.990579,351.367000,4.519662
11768.230159,351.407000,10.554407
11771.549962,351.448000,1.300718
11774.868991,351.489000,10.144630
11778.187246,351.530000,7.547599
11781.423822,351.570000,7.652255
11784.740548,351.611000,7.550812
11788.056500,351.652000,1.207137
11791.371680,351.693000,1.293925
11794.605256,351.733000,3.380962
11797.918909,351.774000,4.895402
11801.231790,351.815000,2.715532
11804.463124,351.855000,4.548444
11807.774479,351.896000,5.359741
11811.085063,351.937000,1.687455
11814.314158,351.977000,4.749727
11817.623218,352.018000,4.564541
11820.850827,352.058000,3.129315
11824.158365,352.099000,7.843927
11827.465133,352.140000,5.419959
11830.690506,352.180000,5.517560
11833.995753,352.221000,3.883873
11837.219643,352.261000,6.994768
11840.523370,352.302000,4.580034
11843.745778,352.342000,2.587976
11847.047986,352.383000,6.722126
11850.268913,352.423000,6.704613
11853.569603,352.464000,-1.015844
11856.789050,352.504000,7.052271
11860.088224,352.545000,2.991262
11863.306191,352.585000,9.797083
11866.603850,352.626000,5.699482
11869.820339,352.666000,7.700432
11873.116483,352.707000,8.086438
11876.331495,352.747000,7.064932
11879.545777,352.787000,3.677313
11882.839661,352.828000,8.572117
11886.052468,352.868000,2.277492
11889.264547,352.908000,5.746290
11892.556173,352.949000,7.763687
11895.766777,352.989000,10.489940
11899.056892,353.030000,9.277654
11902.266024,353.070000,-2.918246
11905.474429,353.110000,2.511471
11908.682107,353.150000,9.559334
11911.969223,353.191000,7.712296
11915.175430,353.231000,7.865917
11918.380911,353.271000,9.342019
11921.665775,353.312000,4.037631
11924.869787,353.352000,7.915637
11928.073073,353.392000,4.278904
11931.275634,353.432000,4.355765
11934.477470,353.472000,5.908490
11937.758600,353.513000,1.439824
11940.958969,353.553000,13.092049
11944.158614,353.593000,8.266751
11947.357536,353.633000,6.078371
11950.555733,353.673000,6.942777
11953.753208,353.713000,9.314966
11957.029868,353.754000,4.718363
11960.225879,353.794000,6.832393
11963.421166,353.834000,5.872859
11966.615732,353.874000,7.031513
11969.809575,353.914000,6.097656
11973.002696,353.954000,6.969056
11976.195096,353.994000,7.625488
11979.386774,354.034000,3.105813
11982.577731,354.074000,8.212659
11985.767968,354.114000,1.102017
11988.957483,354.154000,8.745587
11992.146279,354.194000,6.177921
11995.334354,354.234000,6.494035
11998.521709,354.274000,3.716222
12001.708345,354.314000,3.277578
12004.894261,354.354000,7.946259
12008.079458,354.394000,2.210143
12011.263936,354.434000,5.586275
12014.447695,354.474000,0.335405
12017.630736,354.514000,1.195987
12020.813059,354.554000,8.007556
12023.994663,354.594000,1.522654
12027.175550,354.634000,11.245755
12030.276224,354.673000,8.818211
12033.455694,354.713000,0.759601
12036.634448,354.753000,7.788241
12039.812484,354.793000,6.201868
12042.989804,354.833000,3.930414
12046.166408,354.873000,8.898525
12049.262907,354.912000,3.104012
12052.438097,354.952000,4.157052
12055.612571,354.992000,3.728734
12058.786330,355.032000,9.045998
12061.880056,355.071000,5.970717
12065.052403,355.111000,-3.144222
12068.224035,355.151000,2.468917
12071.394953,355.191000,3.835615
12074.485910,355.230000,2.222415
12077.655418,355.270000,8.195573
12080.824212,355.310000,4.323878
12083.913100,355.349000,3.455820
12087.080485,355.389000,-0.041910
12090.247158,355.429000,4.765579
12093.333977,355.468000,2.580688
12096.499242,355.508000,-1.205556
12099.663795,355.548000,-1.271089
12102.748549,355.587000,-1.116538
12105.911696,355.627000,0.689447
12108.995079,355.666000,-1.496820
12112.156822,355.706000,-1.077585
12115.317853,355.746000,0.901025
12118.399174,355.785000,2.535140
12121.558801,355.825000,0.820072
12124.638754,355.864000,-1.249610
12127.796979,355.904000,-0.825150
12130.875565,355.943000,-0.102239
12134.032389,355.983000,-0.496087
12137.109608,356.022000,-0.392174
12140.265031,356.062000,0.166966
12143.340885,356.101000,2.904478
12146.494908,356.141000,0.816383
12149.569398,356.180000,-1.245720
12152.643215,356.219000,-0.009151
12155.795149,356.259000,-0.838922
12158.867603,356.298000,-3.274301
12162.018139,356.338000,1.334296
12165.089231,356.377000,1.123279
12168.159651,356.416000,0.510226
12171.308101,356.456000,1.569904
12174.377160,356.495000,-0.217820
12177.445548,356.534000,1.078019
12180.591915,356.574000,-0.004126
12183.658943,356.613000,-0.698485
12186.725300,356.652000,0.208815
12189.869585,356.692000,1.064179
12192.934585,356.731000,0.722183
12195.998914,356.770000,0.310441
12199.062573,356.809000,-0.651886
12202.204093,356.849000,-0.296407
12205.266396,356.888000,-0.606519
12208.328030,356.927000,0.594258
12211.388995,356.966000,-3.909325
12214.527751,357.006000,-0.481762
12217.587361,357.045000,-0.092720
12220.646304,357.084000,-0.585416
12223.704578,357.123000,1.718797
12226.762184,357.162000,-1.192409
12229.819122,357.201000,1.932197
12232.953750,357.241000,1.560971
12236.009337,357.280000,1.175150
12239.064257,357.319000,0.995721
12242.118510,357.358000,0.568926
12245.172096,357.397000,0.362900
12248.225016,357.436000,-0.879868
