raman_shift_cm-1,wavelength_nm,intensity
-311.444523,246.690000,0.000000
-300.766377,246.755000,0.000000
-290.093855,246.820000,-116.169448
-279.262891,246.886000,-206.898949
-268.601691,246.951000,-72.992215
-257.946101,247.016000,-165.125640
-247.296118,247.081000,-165.210200
-236.651737,247.146000,-107.435794
-226.012953,247.211000,-157.286958
-215.216219,247.277000,-77.237350
-204.588703,247.342000,-113.581657
-193.966771,247.407000,-117.702586
-183.350419,247.472000,-146.222086
-172.739643,247.537000,-142.521373
-162.134437,247.602000,-154.659289
-151.534799,247.667000,-142.358099
-140.940722,247.732000,-141.557853
-130.352203,247.797000,-113.684904
-119.769238,247.862000,-148.554218
-109.191822,247.927000,-89.819384
-98.619951,247.992000,-107.740836
-88.053621,248.057000,-140.509971
-77.655258,248.121000,-85.458031
-67.099910,248.186000,-160.495802
-56.550089,248.251000,-155.869883
-46.005792,248.316000,-86.241986
-35.467013,248.381000,-208.012549
-24.933749,248.446000,-116.499478
-14.405995,248.511000,-95.620117
-4.045586,248.575000,-69.711525
6.471245,248.640000,-218.833214
16.982580,248.705000,-115.755142
27.488421,248.770000,-124.747619
37.827271,248.834000,-132.611748
48.322224,248.899000,-111.843663
58.811696,248.964000,-117.025394
69.134442,249.028000,-160.015184
79.613052,249.093000,-119.191813
90.086194,249.158000,-132.228958
100.392873,249.222000,-148.798971
110.855177,249.287000,-135.221704
121.312027,249.352000,-162.858205
131.602677,249.416000,-136.094064
142.048715,249.481000,-129.600007
152.328727,249.545000,-160.890797
162.763968,249.610000,-137.587182
173.033359,249.674000,-138.611086
183.457821,249.739000,-243.418442
193.716607,249.803000,-189.344775
204.130307,249.868000,-64.332417
214.378504,249.932000,-20.665063
224.781458,249.997000,1.710068
235.019083,250.061000,3.070134
245.411309,250.126000,1.772410
255.638378,250.190000,0.963388
265.860216,250.254000,1.492202
276.236420,250.319000,0.926860
286.447727,250.383000,2.918353
296.813243,250.448000,1.308136
307.014035,250.512000,-0.168374
317.209616,250.576000,-0.453971
327.399990,250.640000,3.092218
337.744263,250.705000,5.972877
347.924154,250.769000,0.157397
358.098850,250.833000,2.621580
368.268355,250.897000,2.222279
378.591450,250.962000,0.824877
388.750505,251.026000,0.517852
398.904381,251.090000,2.923792
409.053082,251.154000,0.200228
419.196612,251.218000,2.840245
429.334975,251.282000,0.580400
439.626466,251.347000,1.657162
449.754426,251.411000,4.068921
459.877231,251.475000,4.958603
469.994885,251.539000,4.104738
480.107392,251.603000,6.305556
490.214756,251.667000,8.236738
500.316980,251.731000,11.515406
510.414069,251.795000,10.237446
520.506026,251.859000,12.335356
530.592855,251.923000,11.122062
540.674561,251.987000,10.131221
550.751147,252.051000,12.170052
560.822617,252.115000,9.675421
570.888975,252.179000,12.795173
580.950225,252.243000,7.726374
590.849282,252.306000,10.627255
600.900407,252.370000,11.202932
610.946435,252.434000,10.405117
620.987371,252.498000,15.258950
631.023218,252.562000,30.701459
641.053980,252.626000,43.823297
650.923048,252.689000,58.429586
660.943731,252.753000,43.470509
670.959341,252.817000,29.298217
680.969880,252.881000,18.144233
690.819058,252.944000,21.606814
700.819549,253.008000,16.513162
710.814983,253.072000,17.893597
720.805362,253.136000,17.027529
730.634708,253.199000,15.166793
740.615069,253.263000,15.009268
750.434561,253.326000,17.035042
760.404919,253.390000,14.863305
770.370241,253.454000,12.806427
780.174941,253.517000,17.562650
790.130283,253.581000,19.369644
799.925166,253.644000,20.105527
809.870542,253.708000,17.527043
819.655623,253.771000,20.560702
829.591048,253.835000,18.700102
839.366341,253.898000,16.331468
849.291831,253.962000,18.466006
859.057350,254.025000,15.604915
868.972920,254.089000,14.634127
878.728681,254.152000,15.768613
888.634344,254.216000,15.071502
898.380361,254.279000,15.332674
908.121550,254.342000,14.256569
918.012421,254.406000,18.295826
927.743888,254.469000,14.931617
937.470538,254.532000,19.125982
947.346650,254.596000,19.830796
957.063600,254.659000,19.744045
966.775743,254.722000,13.031640
976.637128,254.786000,16.959174
986.339593,254.849000,21.268265
996.037261,254.912000,22.273337
1005.730138,254.975000,23.938255
1015.571966,255.039000,22.920051
1025.255192,255.102000,19.386302
1034.933637,255.165000,14.462182
1044.607304,255.228000,15.188011
1054.276196,255.291000,15.723748
1063.940318,255.354000,13.280171
1073.599672,255.417000,17.267474
1083.407471,255.481000,17.032238
1093.057225,255.544000,16.922106
1102.702223,255.607000,15.260889
1112.342467,255.670000,13.037258
1121.977961,255.733000,13.718396
1131.608710,255.796000,13.042735
1141.234715,255.859000,11.053332
1150.855981,255.922000,8.084038
1160.472512,255.985000,7.571159
1170.084310,256.048000,9.373806
1179.691379,256.111000,12.507201
1189.293724,256.174000,9.042181
1198.739040,256.236000,10.751748
1208.332019,256.299000,11.376593
1217.920283,256.362000,12.059260
1227.503835,256.425000,9.611169
1237.082680,256.488000,10.998805
1246.656820,256.551000,12.366002
1256.226260,256.614000,12.007039
1265.639217,256.676000,9.772981
1275.199339,256.739000,11.947940
1284.754770,256.802000,10.330018
1294.305515,256.865000,12.985080
1303.700087,256.927000,5.193873
1313.241541,256.990000,13.687426
1322.778319,257.053000,12.732775
1332.310423,257.116000,12.972093
1341.686664,257.178000,13.654305
1351.209505,257.241000,14.163014
1360.727683,257.304000,15.317914
1370.090229,257.366000,15.321469
1379.599165,257.429000,18.387323
1388.952622,257.491000,15.497221
1398.452329,257.554000,15.879915
1407.796710,257.616000,14.608978
1417.287202,257.679000,20.037272
1426.773053,257.742000,15.521050
1436.103810,257.804000,15.476597
1445.580466,257.867000,16.631494
1454.902179,257.929000,20.472897
1464.369654,257.992000,18.548627
1473.682337,258.054000,12.545188
1482.990547,258.116000,16.290579
1492.444310,258.179000,16.569534
1501.743510,258.241000,15.966413
1511.188124,258.304000,18.244904
1520.478327,258.366000,19.744779
1529.764072,258.428000,14.600128
1539.195025,258.491000,17.686201
1548.471792,258.553000,17.860509
1557.744112,258.615000,21.453499
1567.161432,258.678000,21.432542
1576.424794,258.740000,17.025711
1585.683718,258.802000,21.056259
1594.938206,258.864000,22.896133
1604.337420,258.927000,25.196567
1613.582976,258.989000,21.629427
1622.824106,259.051000,20.862606
1632.060814,259.113000,23.171198
1641.293103,259.175000,18.333965
1650.669776,259.238000,15.089496
1659.893165,259.300000,15.241630
1669.112144,259.362000,12.145326
1678.326716,259.424000,13.752191
1687.536886,259.486000,13.246067
1696.742655,259.548000,8.911849
1705.944027,259.610000,12.084695
1715.141005,259.672000,10.967050
1724.333592,259.734000,10.971140
1733.521792,259.796000,11.241570
1742.705607,259.858000,10.620198
1751.885041,259.920000,10.325159
1761.060096,259.982000,10.025253
1770.230777,260.044000,11.342908
1779.397086,260.106000,10.374046
1788.559026,260.168000,11.207153
1797.716600,260.230000,7.559367
1806.869812,260.292000,11.483750
1816.018664,260.354000,10.936090
1825.163160,260.416000,8.694054
1834.155916,260.477000,11.638762
1843.291778,260.539000,9.608199
1852.423294,260.601000,6.414427
1861.550466,260.663000,4.947704
1870.673297,260.725000,9.559764
1879.644752,260.786000,9.175923
1888.758980,260.848000,9.634911
1897.868877,260.910000,10.015735
1906.974445,260.972000,9.895400
1915.928928,261.033000,9.543986
1925.025918,261.095000,10.927373
1934.118588,261.157000,8.301904
1943.060391,261.218000,7.696715
1952.144502,261.280000,11.941941
1961.224302,261.342000,7.937967
1970.153451,261.403000,8.519421
1979.224710,261.465000,8.680386
1988.145460,261.526000,10.561093
1997.208190,261.588000,9.204612
2006.120554,261.649000,10.091496
2015.174766,261.711000,8.499204
2024.078756,261.772000,9.779380
2033.124461,261.834000,9.650992
2042.020089,261.895000,11.692762
2051.057301,261.957000,6.855506
2059.944578,262.018000,6.958092
2068.973308,262.080000,8.373782
2077.852245,262.141000,11.047894
2086.872506,262.203000,8.521200
2095.743116,262.264000,11.721252
2104.609601,262.325000,9.930269
2113.617214,262.387000,5.746049
2122.475388,262.448000,7.006486
2131.329447,262.509000,6.742387
2140.324438,262.571000,9.638113
2149.170203,262.632000,11.642157
2158.011861,262.693000,9.541730
2166.994257,262.755000,10.219052
2175.827640,262.816000,9.501375
2184.656923,262.877000,10.627688
2193.482109,262.938000,8.743724
2202.303202,262.999000,8.602380
2211.264711,263.061000,8.151402
2220.077557,263.122000,8.535118
2228.886318,263.183000,11.245918
2237.690997,263.244000,10.266811
2246.491597,263.305000,11.278485
2255.288119,263.366000,10.632176
2264.080568,263.427000,9.821342
2272.868945,263.488000,8.795985
2281.653255,263.549000,7.764342
2290.577403,263.611000,7.782858
2299.353518,263.672000,8.703338
2308.125573,263.733000,7.777735
2316.893571,263.794000,5.959728
2325.657515,263.855000,9.431412
2334.273836,263.915000,10.863394
2343.029746,263.976000,6.717829
2351.781611,264.037000,7.118823
2360.529433,264.098000,7.373644
2369.273215,264.159000,9.194492
2378.012959,264.220000,10.108896
2386.748669,264.281000,8.541872
2395.480347,264.342000,10.477140
2404.207997,264.403000,5.260255
2412.788642,264.463000,9.170419
2421.508308,264.524000,7.235942
2430.223953,264.585000,8.834750
2438.935580,264.646000,10.182938
2447.643192,264.707000,9.551388
2456.204142,264.767000,8.152802
2464.903798,264.828000,8.381357
2473.599447,264.889000,8.607794
2482.148639,264.949000,8.932287
2490.836348,265.010000,7.400148
2499.520059,265.071000,10.101183
2508.057516,265.131000,10.502427
2516.733303,265.192000,9.071860
2525.405101,265.253000,7.605684
2533.930847,265.313000,5.689251
2542.594737,265.374000,6.880715
2551.112712,265.434000,8.657075
2559.768705,265.495000,6.212699
2568.278918,265.555000,9.130197
2576.927027,265.616000,5.587059
2585.571164,265.677000,7.290744
2594.069722,265.737000,10.955326
2602.564444,265.797000,7.523257
2611.196813,265.858000,9.154255
2619.683805,265.918000,8.027032
2628.308321,265.979000,11.648809
2636.787594,266.039000,9.653318
2645.404268,266.100000,7.070100
2653.875831,266.160000,9.988833
2662.343577,266.220000,9.019825
2670.948539,266.281000,6.205258
2679.408591,266.341000,6.792002
2687.864833,266.401000,6.423130
2696.458108,266.462000,6.704263
2704.906672,266.522000,6.839340
2713.351433,266.582000,8.015871
2721.792393,266.642000,10.196692
2730.370143,266.703000,8.413646
2738.803447,266.763000,7.849103
2747.232958,266.823000,8.049479
2755.658679,266.883000,8.250489
2764.220946,266.944000,7.795945
2772.639032,267.004000,7.310540
2781.053334,267.064000,8.589632
2789.463857,267.124000,8.878049
2797.870602,267.184000,8.127735
2806.273573,267.244000,6.968387
2814.672771,267.304000,11.026529
2823.068200,267.364000,6.854424
2831.459861,267.424000,9.076806
2839.847757,267.484000,9.620917
2848.231891,267.544000,7.351344
2856.612266,267.604000,5.281998
2864.988884,267.664000,9.141506
2873.361747,267.724000,9.972104
2881.730857,267.784000,10.970479
2890.096219,267.844000,10.046637
2898.457833,267.904000,10.331676
2906.815703,267.964000,9.738935
2915.169831,268.024000,5.582208
2923.520219,268.084000,9.764970
2931.866870,268.144000,12.623826
2940.209787,268.204000,12.401002
2948.410016,268.263000,9.776562
2956.745534,268.323000,11.100273
2965.077324,268.383000,12.719577
2973.405390,268.443000,11.145760
2981.729735,268.503000,9.522596
2989.911713,268.562000,10.416405
2998.228682,268.622000,12.319167
3006.541937,268.682000,14.028416
3014.851480,268.742000,8.322141
3023.018913,268.801000,14.361958
3031.321101,268.861000,10.085076
3039.619584,268.921000,10.204999
3047.776149,268.980000,10.834380
3056.067292,269.040000,8.596950
3064.216644,269.099000,10.704253
3072.500457,269.159000,7.486086
3080.780577,269.219000,8.928776
3088.919097,269.278000,8.089117
3097.191901,269.338000,11.119991
3105.323232,269.397000,10.334568
3113.588730,269.457000,9.683840
3121.712881,269.516000,10.369763
3129.971082,269.576000,11.324113
3138.088063,269.635000,11.656691
3146.338978,269.695000,7.102074
3154.448798,269.754000,6.427873
3162.692435,269.814000,9.302100
3170.795104,269.873000,13.608668
3178.894231,269.932000,8.646998
3187.127001,269.992000,9.784089
3195.218991,270.051000,8.773507
3203.307445,270.110000,10.404981
3211.529370,270.170000,8.897127
3219.610701,270.229000,10.099722
3227.688505,270.288000,7.461242
3235.899605,270.348000,11.601997
3243.970299,270.407000,9.122005
3252.037473,270.466000,8.924265
3260.101128,270.525000,10.000867
3268.297848,270.585000,9.059364
3276.354413,270.644000,10.454347
3284.407466,270.703000,7.503043
3292.457009,270.762000,7.142022
3300.503044,270.821000,10.236215
3308.545575,270.880000,9.047294
3316.720828,270.940000,10.177579
3324.756296,270.999000,7.256777
3332.788267,271.058000,6.204604
3340.816741,271.117000,7.910410
3348.841722,271.176000,9.271145
3356.863212,271.235000,6.659095
3364.881213,271.294000,8.575080
3372.895727,271.353000,8.309552
3380.906756,271.412000,5.335664
3388.914304,271.471000,7.568321
3396.918371,271.530000,7.973816
3404.918961,271.589000,8.686271
3412.916076,271.648000,8.278799
3420.909718,271.707000,7.555813
3428.899888,271.766000,8.340741
3436.886591,271.825000,6.791022
3444.734546,271.883000,8.950063
3452.714377,271.942000,8.386899
3460.690746,272.001000,7.984162
3468.663655,272.060000,7.002519
3476.633107,272.119000,9.301532
3484.599104,272.178000,7.239867
3492.426718,272.236000,5.996571
3500.385870,272.295000,7.944551
3508.341573,272.354000,9.176197
3516.293830,272.413000,7.455988
3524.107947,272.471000,12.784633
3532.053377,272.530000,7.445191
3539.995368,272.589000,9.278431
3547.799398,272.647000,10.060559
3555.734574,272.706000,5.754766
3563.666318,272.765000,7.567481
3571.460282,272.823000,7.759268
3579.385225,272.882000,7.868482
3587.306741,272.941000,7.650770
3595.090658,272.999000,8.131721
3603.005387,273.058000,9.256178
3610.782635,273.116000,8.790179
3618.690585,273.175000,8.154366
3626.461173,273.233000,9.280691
3634.362353,273.292000,5.548145
3642.126290,273.350000,9.895055
3650.020708,273.409000,9.251514
3657.778002,273.467000,7.824953
3665.665667,273.526000,9.116996
3673.416327,273.584000,6.650251
3681.163701,273.642000,9.151461
3689.041282,273.701000,7.845027
3696.782035,273.759000,7.237069
3704.652885,273.818000,5.661818
3712.387025,273.876000,10.005519
3720.117889,273.934000,7.927156
3727.845481,273.992000,9.355644
3735.702951,274.051000,7.199650
3743.423947,274.109000,7.134692
3751.141676,274.167000,7.524649
3758.989119,274.226000,8.826843
3766.700265,274.284000,7.721643
3774.408150,274.342000,7.958738
3782.112776,274.400000,6.828755
3789.814146,274.458000,8.641009
3797.644960,274.517000,9.439576
3805.339767,274.575000,8.324956
3813.031324,274.633000,8.399959
3820.719634,274.691000,8.448615
3828.404697,274.749000,8.250658
3836.086516,274.807000,9.507801
3843.765093,274.865000,6.358818
3851.440431,274.923000,9.462175
3859.112530,274.981000,8.063258
3866.781394,275.039000,8.162772
3874.447024,275.097000,7.372410
3882.109423,275.155000,7.247342
3889.768591,275.213000,10.197363
3897.424533,275.271000,10.017383
3905.077248,275.329000,6.113150
3912.726740,275.387000,9.931262
3920.373011,275.445000,8.472690
3928.016062,275.503000,6.585925
3935.655896,275.561000,8.953222
3943.292514,275.619000,8.493745
3950.925919,275.677000,11.047117
3958.424585,275.734000,6.956173
3966.051625,275.792000,7.184376
3973.675457,275.850000,7.174233
3981.296084,275.908000,8.698909
3988.913508,275.966000,8.509590
3996.396478,276.023000,7.081042
4004.007557,276.081000,9.339142
4011.615438,276.139000,7.482274
4019.220124,276.197000,9.238907
4026.690584,276.254000,4.242538
4034.288940,276.312000,9.643229
4041.884108,276.370000,6.902525
4049.345219,276.427000,8.406947
4056.934068,276.485000,10.113793
4064.519735,276.543000,5.863571
4071.971515,276.600000,7.332306
4079.550876,276.658000,10.057387
4086.996462,276.715000,8.243959
4094.569525,276.773000,7.441691
4102.008927,276.830000,8.027360
4109.575700,276.888000,9.190039
4117.008923,276.945000,8.681085
4124.569414,277.003000,9.780000
4131.996467,277.060000,8.242977
4139.550684,277.118000,8.746247
4146.971575,277.175000,10.546050
4154.519525,277.233000,9.018650
4161.934262,277.290000,7.053891
4169.475953,277.348000,6.213306
4228.011654,277.799000,9.098745
4235.396210,277.856000,9.849976
4242.907211,277.914000,8.217046
4250.415077,277.972000,8.343799
4257.790445,278.029000,10.499749
4265.292102,278.087000,8.333843
4272.790631,278.145000,6.634781
4280.156828,278.202000,8.951995
4287.649159,278.260000,10.546389
4295.138368,278.318000,10.429663
4302.495411,278.375000,9.538809
4309.978434,278.433000,6.485233
4317.329402,278.490000,6.620541
4324.806246,278.548000,7.691705
4332.151147,278.605000,5.522244
4339.621821,278.663000,7.691453
4346.960661,278.720000,6.748329
4354.425172,278.778000,8.341685
4361.757959,278.835000,9.125022
4369.216314,278.893000,10.402860
4376.543056,278.950000,10.769326
4383.995264,279.008000,4.839224
4391.315968,279.065000,6.767098
4398.762036,279.123000,9.948613
4406.076709,279.180000,6.710117
4413.516644,279.238000,8.674722
4420.825295,279.295000,6.284160
4428.130962,279.352000,5.012024
4435.561740,279.410000,6.973800
4442.861395,279.467000,8.756158
4450.158074,279.524000,7.562188
4457.579711,279.582000,7.299637
4464.870389,279.639000,12.437168
4472.158095,279.696000,9.035699
4479.570607,279.754000,6.967363
4486.852324,279.811000,7.287002
4494.131074,279.868000,7.822542
4501.534479,279.926000,10.773481
4508.807251,279.983000,6.276072
4516.077062,280.040000,8.050369
4523.343914,280.097000,5.317201
4530.735220,280.155000,8.052710
4537.996108,280.212000,10.535042
4545.254043,280.269000,8.127849
4552.509026,280.326000,6.117496
4559.888262,280.384000,8.141119
4567.137295,280.441000,7.533990
4574.383383,280.498000,4.552442
4581.626526,280.555000,8.002338
4588.866727,280.612000,6.714867
4596.103987,280.669000,6.394677
4603.338308,280.726000,7.364666
4610.696532,280.784000,11.255914
4617.924929,280.841000,8.223169
4625.150392,280.898000,7.957287
4632.372923,280.955000,9.593192
4639.592525,281.012000,8.948107
4646.809198,281.069000,8.804506
4654.022945,281.126000,7.897637
4661.233767,281.183000,5.289156
4668.441666,281.240000,9.304224
4675.646644,281.297000,12.348176
4682.848703,281.354000,9.223389
4690.047844,281.411000,10.507128
4697.244070,281.468000,12.531396
4704.437381,281.525000,10.459637
4711.627780,281.582000,11.451801
4718.815269,281.639000,8.891742
4725.999849,281.696000,8.468258
4733.181522,281.753000,9.299133
4740.360290,281.810000,12.514793
4747.536154,281.867000,13.190467
4754.583300,281.923000,10.042490
4761.753414,281.980000,10.605978
4768.920629,282.037000,11.361156
4776.084949,282.094000,9.995914
4783.246373,282.151000,11.659802
4790.404904,282.208000,10.574937
4797.435032,282.264000,12.920615
4804.587834,282.321000,9.573006
4811.737748,282.378000,12.579939
4818.884776,282.435000,9.971677
4826.028920,282.492000,9.581686
4833.044920,282.548000,9.477093
4840.183352,282.605000,11.193715
4847.318904,282.662000,8.700576
4854.451579,282.719000,9.913350
4861.456319,282.775000,9.978860
4868.583295,282.832000,12.468525
4875.707399,282.889000,11.065177
4882.703723,282.945000,10.130703
4889.822139,283.002000,9.479273
4896.937687,283.059000,12.253730
4903.925611,283.115000,9.737059
4911.035481,283.172000,6.311559
4918.142490,283.229000,6.894131
4925.122029,283.285000,8.737725
4932.223369,283.342000,6.173741
4939.197342,283.398000,10.807708
4946.293021,283.455000,8.607112
4953.385847,283.512000,10.390520
4960.351460,283.568000,6.300457
4967.438635,283.625000,9.365674
4974.398699,283.681000,7.542444
4981.480229,283.738000,9.081309
4988.434752,283.794000,8.275262
4995.510644,283.851000,5.725063
5002.459631,283.907000,8.129973
5009.529893,283.964000,9.494119
5016.473351,284.020000,7.889316
5023.537988,284.077000,6.076432
5030.475924,284.133000,4.635271
5037.534943,284.190000,7.818885
5044.467363,284.246000,6.479240
5051.397052,284.302000,6.452497
5058.447683,284.359000,5.323288
5065.371866,284.415000,8.029351
5072.416896,284.472000,6.202284
5079.335580,284.528000,5.175535
5086.251541,284.584000,1.767769
5093.288207,284.641000,6.350559
5100.198678,284.697000,7.441149
5107.106432,284.753000,4.404360
5114.134748,284.810000,4.357441
5121.037022,284.866000,3.540439
5127.936582,284.922000,2.709251
5134.833431,284.978000,6.399177
5141.850655,285.035000,5.924573
5148.742037,285.091000,2.601356
5155.630712,285.147000,2.708706
5162.516682,285.203000,4.319707
5169.522840,285.260000,6.233140
5176.403356,285.316000,5.704853
5183.281172,285.372000,3.315347
5190.156289,285.428000,4.738316
5197.028709,285.484000,0.139703
5204.021082,285.541000,3.739509
5210.888064,285.597000,6.046694
5217.752353,285.653000,3.705144
5224.613952,285.709000,1.280352
5231.472862,285.765000,0.719831
5238.329083,285.821000,2.986958
5245.182619,285.877000,2.296964
5252.033470,285.933000,3.628471
5258.881638,285.989000,3.225397
5265.727125,286.045000,3.506228
5272.569932,286.101000,3.215890
5279.532182,286.158000,1.760332
5286.369586,286.214000,4.087995
5293.204315,286.270000,1.830677
5300.036371,286.326000,1.643473
5306.865755,286.382000,2.472984
5313.692468,286.438000,0.900156
5320.516513,286.494000,5.479424
5327.216104,286.549000,1.488154
5334.034863,286.605000,3.005007
5340.850958,286.661000,4.790978
5347.664391,286.717000,0.133029
5354.475163,286.773000,4.819181
5361.283275,286.829000,2.459454
5368.088729,286.885000,0.702684
5374.891528,286.941000,3.951888
5381.691671,286.997000,3.439321
5388.489161,287.053000,5.659325
5395.162686,287.108000,5.079405
5401.954922,287.164000,2.281664
5408.744509,287.220000,6.077400
5415.531448,287.276000,2.916816
5422.315743,287.332000,3.790988
5428.976316,287.387000,1.664070
5435.755371,287.443000,0.659623
5442.531785,287.499000,1.973243
5449.305560,287.555000,2.985793
5456.076697,287.611000,3.040410
5462.724355,287.666000,3.001968
5469.490268,287.722000,2.331938
5476.253548,287.778000,1.227678
5482.893494,287.833000,2.576319
5489.651559,287.889000,1.996554
5496.406995,287.945000,1.229848
5503.039242,288.000000,3.955833
5509.789473,288.056000,2.234372
5516.537079,288.112000,4.607699
5523.161640,288.167000,4.281552
5529.904050,288.223000,2.373187
5536.643840,288.279000,2.329097
5543.260729,288.334000,2.010983
5549.995332,288.390000,1.832853
5556.607128,288.445000,0.958891
5563.336549,288.501000,0.362327
5569.943259,288.556000,2.449624
5576.667504,288.612000,2.712197
5583.269134,288.667000,4.228894
5589.988209,288.723000,4.812496
5596.584764,288.778000,5.688703
5603.298676,288.834000,2.676438
5609.890162,288.889000,7.054592
5616.598916,288.945000,4.126016
5623.185340,289.000000,2.069708
5629.888941,289.056000,2.467391
5636.470308,289.111000,-1.000347
5643.168763,289.167000,1.364142
5649.745079,289.222000,2.783205
5656.438394,289.278000,3.126182
5663.009664,289.333000,2.880181
5669.578437,289.388000,3.606973
5676.264076,289.444000,2.213052
5682.827812,289.499000,2.585772
5689.389054,289.554000,2.959298
5696.067030,289.610000,2.194383
5702.623244,289.665000,4.019499
5709.176969,289.720000,2.547240
5715.847296,289.776000,7.416623
5722.396001,289.831000,0.331570
5728.942221,289.886000,1.555958
5735.485958,289.941000,5.138285
5742.146122,289.997000,1.667150
5748.684850,290.052000,3.313234
5755.221100,290.107000,3.214608
5761.754871,290.162000,1.479444
5768.404894,290.218000,1.767355
5774.933669,290.273000,0.890283
5781.459971,290.328000,2.303091
5787.983800,290.383000,2.780297
5794.505158,290.438000,4.013606
5801.142550,290.494000,-0.293253
5807.658926,290.549000,4.276142
5814.172835,290.604000,1.361245
5820.684279,290.659000,4.539897
5827.193260,290.714000,3.318666
5833.699778,290.769000,2.681894
5840.203835,290.824000,4.391623
5846.705432,290.879000,0.517087
5853.204572,290.934000,5.002821
5859.701254,290.989000,4.067419
5866.195481,291.044000,6.489451
5872.687254,291.099000,2.222128
5879.176574,291.154000,4.235739
5885.663444,291.209000,3.083355
5892.147863,291.264000,3.135981
5898.629834,291.319000,3.318427
5905.109357,291.374000,1.504290
5911.586435,291.429000,1.295640
5918.061069,291.484000,5.074265
5924.533260,291.539000,-0.296801
5931.003009,291.594000,3.284450
5937.470318,291.649000,1.557348
5943.935188,291.704000,2.780958
5950.397621,291.759000,2.407157
5956.857618,291.814000,5.401015
5963.315180,291.869000,2.627063
5969.770309,291.924000,2.982351
5976.105706,291.978000,2.702299
5982.556017,292.033000,1.183879
5989.003898,292.088000,3.183138
5995.449352,292.143000,-0.032728
6001.892379,292.198000,4.112758
6008.215901,292.252000,1.425181
6014.654123,292.307000,1.386245
6021.089923,292.362000,-0.374650
6027.523303,292.417000,2.032620
6033.954262,292.472000,2.037558
6040.265942,292.526000,2.697932
6046.692111,292.581000,4.541383
6053.115864,292.636000,1.262813
6059.420472,292.690000,2.782870
6065.839442,292.745000,1.452312
6072.256000,292.800000,-0.207747
6078.553548,292.854000,2.858068
6084.965331,292.909000,1.708300
6091.374707,292.964000,4.333959
6097.665207,293.018000,2.252237
6104.069816,293.073000,2.394209
6110.472021,293.128000,3.346861
6116.755485,293.182000,2.526579
6123.152931,293.237000,2.453219
6129.431725,293.291000,5.429265
6135.824417,293.346000,2.332705
6142.098547,293.400000,1.271904
6148.486490,293.455000,3.779318
6154.872040,293.510000,0.417890
6161.139160,293.564000,3.796374
6167.519969,293.619000,6.068549
6173.782438,293.673000,2.290456
6180.158512,293.728000,2.773677
6186.416334,293.782000,2.483297
6192.787678,293.837000,-0.273261
6199.040859,293.891000,3.538762
6205.291742,293.945000,2.871404
6211.656022,294.000000,2.598359
6217.902272,294.054000,1.409127
6224.261835,294.109000,-0.634733
6230.503456,294.163000,4.059839
6236.742786,294.217000,-1.746163
6243.095305,294.272000,2.758285
6249.330014,294.326000,1.154822
6255.677829,294.381000,2.168977
6261.907923,294.435000,0.445905
6268.135731,294.489000,0.267864
6274.476522,294.544000,-0.056700
6280.699722,294.598000,2.074432
6286.920642,294.652000,-0.135518
6293.139281,294.706000,-0.084465
6299.470739,294.761000,3.420140
6305.684781,294.815000,2.609084
6311.896546,294.869000,2.667985
6318.106037,294.923000,1.721064
6324.428182,294.978000,2.494363
6330.633085,295.032000,4.713796
6336.835717,295.086000,3.356408
6343.036080,295.140000,0.503288
6349.234174,295.194000,1.881985
6355.544717,295.249000,1.161958
6361.738236,295.303000,1.833421
6367.929490,295.357000,3.351705
6374.118480,295.411000,2.392546
6380.305209,295.465000,1.092770
6386.489676,295.519000,0.871627
6392.671884,295.573000,0.928107
6398.851833,295.627000,4.338554
6405.143905,295.682000,3.196775
6411.319300,295.736000,2.433674
6417.492439,295.790000,1.939684
6423.663325,295.844000,2.091266
6429.831958,295.898000,3.474243
6435.998340,295.952000,4.695267
6442.162473,296.006000,-0.161857
6448.324357,296.060000,2.665217
6454.483993,296.114000,7.131792
6460.641384,296.168000,3.385959
6466.796529,296.222000,0.343411
6472.949431,296.276000,4.190171
6479.100090,296.330000,5.340612
6485.248508,296.384000,1.674616
6491.280888,296.437000,2.011582
6497.424869,296.491000,4.758156
6503.566612,296.545000,2.248296
6509.706118,296.599000,6.733269
6515.843390,296.653000,4.633288
6521.978427,296.707000,7.241739
6528.111232,296.761000,4.288924
6534.241805,296.815000,1.499988
6540.256681,296.868000,3.580843
6546.382836,296.922000,2.956385
6552.506763,296.976000,3.589309
6558.628464,297.030000,4.548853
6564.747939,297.084000,4.388792
6570.751928,297.137000,4.455910
6576.866997,297.191000,2.996725
6582.979845,297.245000,1.806181
6589.090471,297.299000,1.673198
6595.085780,297.352000,3.780168
6601.192010,297.406000,4.473630
6607.296023,297.460000,5.217186
6613.397821,297.514000,4.715716
6619.384468,297.567000,7.320273
6625.481879,297.621000,6.310403
6631.577077,297.675000,3.920323
6637.557251,297.728000,5.276469
6643.648069,297.782000,5.459539
6649.623947,297.835000,5.265377
6655.710390,297.889000,3.460577
6661.794627,297.943000,6.765938
6667.764048,297.996000,6.033729
6673.843917,298.050000,2.636808
6679.809053,298.103000,3.073792
6685.884559,298.157000,4.117906
6691.957864,298.211000,2.502488
6697.916562,298.264000,1.539501
6703.985510,298.318000,2.744116
6709.939935,298.371000,3.834812
6716.004532,298.425000,3.187903
6721.954688,298.478000,8.566408
6728.014938,298.532000,1.186876
6733.960830,298.585000,1.991633
6739.904611,298.638000,1.318775
6745.958369,298.692000,3.494800
6751.897893,298.745000,2.110266
6757.947317,298.799000,4.155917
6763.882588,298.852000,5.371948
6769.927680,298.906000,4.201396
6775.858703,298.959000,2.212647
6781.787624,299.012000,2.214244
6787.826249,299.066000,-0.120205
6793.750928,299.119000,2.979059
6799.673508,299.172000,2.520046
6805.705677,299.226000,2.617427
6811.624022,299.279000,1.826707
6817.540272,299.332000,0.895173
6823.565994,299.386000,3.502975
6829.478016,299.439000,2.130779
6835.387945,299.492000,2.522006
6841.407231,299.546000,2.511775
6847.312940,299.599000,1.236232
6853.216559,299.652000,3.208113
6859.118090,299.705000,4.815215
6865.017534,299.758000,2.911059
6871.026143,299.812000,2.358731
6876.921378,299.865000,3.464543
6882.814529,299.918000,3.236773
6888.705597,299.971000,1.335570
6894.594584,300.024000,2.587471
6900.592545,300.078000,1.972198
6906.477333,300.131000,0.211977
6912.360044,300.184000,-0.358756
6918.240677,300.237000,2.763498
6924.119235,300.290000,1.555383
6929.995718,300.343000,2.139575
6935.870127,300.396000,0.627245
6941.742464,300.449000,0.354333
6947.612730,300.502000,2.466100
6953.480925,300.555000,3.315144
6959.347051,300.608000,-0.071335
6965.211108,300.661000,2.351400
6971.073099,300.714000,-0.860907
6976.933024,300.767000,1.728859
6982.790884,300.820000,3.131974
6988.646680,300.873000,0.604405
6994.500413,300.926000,4.720334
7000.352085,300.979000,-2.473887
7006.201696,301.032000,3.218184
7012.049248,301.085000,3.181571
7017.894742,301.138000,2.116612
7023.738178,301.191000,3.230997
7029.579559,301.244000,4.070701
7035.418884,301.297000,1.100431
7041.256155,301.350000,1.995058
7047.091373,301.403000,3.637296
7052.924539,301.456000,1.202618
7058.645653,301.508000,3.583585
7064.474758,301.561000,1.505514
7070.301814,301.614000,3.052605
7076.126822,301.667000,2.825265
7081.949784,301.720000,0.850154
7087.660892,301.772000,2.974788
7093.479803,301.825000,5.325361
7099.296670,301.878000,0.006756
7105.111496,301.931000,4.062600
7110.814624,301.983000,1.363916
7116.625408,302.036000,1.864592
7122.434152,302.089000,3.102937
7128.240858,302.142000,2.892209
7133.936024,302.194000,2.376546
7139.738696,302.247000,-1.232570
7145.539334,302.300000,3.500174
7151.228549,302.352000,5.457341
7157.025159,302.405000,1.867248
7162.819737,302.458000,1.386884
7168.503010,302.510000,2.088400
7174.293567,302.563000,2.251534
7180.082095,302.616000,2.346851
7185.759436,302.668000,1.589846
7191.543949,302.721000,4.756245
7197.217352,302.773000,5.459687
7202.997854,302.826000,4.937802
7208.667324,302.878000,5.286471
7214.443819,302.931000,0.392904
7220.109360,302.983000,2.394848
7225.881853,303.036000,2.705092
7231.543468,303.088000,0.052859
7237.311962,303.141000,1.825107
7242.969657,303.193000,1.593816
7248.734156,303.246000,2.490254
7254.387934,303.298000,3.695003
7260.148443,303.351000,2.488562
7265.798308,303.403000,2.408450
7271.554831,303.456000,1.607505
7277.200787,303.508000,4.593066
7282.953328,303.561000,2.594256
7288.595379,303.613000,3.279201
7294.235498,303.665000,2.064701
7299.982093,303.718000,2.318511
7305.618313,303.770000,5.073231
7311.252604,303.822000,1.602269
7316.993262,303.875000,4.400922
7322.623660,303.927000,3.126348
7328.252131,303.979000,4.792906
7333.986862,304.032000,3.097367
7339.611446,304.084000,0.557910
7345.234108,304.136000,2.610325
7350.962920,304.189000,0.801883
7356.581700,304.241000,1.822664
7362.198561,304.293000,5.215654
7367.813502,304.345000,-0.559804
7373.426525,304.397000,2.554902
7379.145517,304.450000,1.359118
7384.754669,304.502000,3.983184
7390.361906,304.554000,1.244532
7395.967228,304.606000,5.264168
7401.570637,304.658000,3.246925
7407.279836,304.711000,0.365648
7412.879384,304.763000,2.490948
7418.477021,304.815000,3.467576
7424.072749,304.867000,2.038343
7429.666569,304.919000,6.677449
7435.258480,304.971000,2.830099
7440.848486,305.023000,1.227650
7446.436585,305.075000,-0.424461
7452.022780,305.127000,1.514263
7457.607071,305.179000,1.873799
7463.296795,305.232000,3.594521
7468.877245,305.284000,2.200423
7474.455794,305.336000,3.082445
7480.032444,305.388000,2.162388
7485.607195,305.440000,1.538397
7491.180048,305.492000,3.344736
7496.751004,305.544000,3.598600
7502.212985,305.595000,1.661900
7507.780187,305.647000,2.961954
7513.345495,305.699000,1.164134
7518.908909,305.751000,0.742533
7524.470432,305.803000,1.819728
7530.030064,305.855000,4.374000
7535.587805,305.907000,2.424194
7541.143658,305.959000,0.735193
7546.697622,306.011000,-0.648492
7552.249699,306.063000,3.035178
7557.693173,306.114000,-0.176092
7563.241514,306.166000,3.448292
7568.787971,306.218000,4.963820
7574.332545,306.270000,1.539980
7579.875237,306.322000,1.412901
7585.416047,306.374000,2.917190
7590.848476,306.425000,2.826692
7596.385562,306.477000,1.656844
7601.920769,306.529000,5.327451
7607.454098,306.581000,2.664905
7612.879195,306.632000,3.695086
7618.408808,306.684000,3.683825
7623.936546,306.736000,2.899263
7629.462411,306.788000,2.017059
7634.880189,306.839000,2.646127
7640.402345,306.891000,1.995271
7645.922629,306.943000,2.444360
7651.334938,306.994000,0.924947
7656.851519,307.046000,4.655408
7662.260197,307.097000,2.447249
7667.773079,307.149000,2.927756
7673.284094,307.201000,3.434948
7678.687317,307.252000,5.304600
7684.194638,307.304000,4.719592
7689.700096,307.356000,3.418012
7695.097870,307.407000,2.072772
7700.599639,307.459000,-0.614709
7705.993798,307.510000,1.532459
7711.491883,307.562000,2.772054
7716.882430,307.613000,3.933368
7722.376833,307.665000,0.320561
7727.763772,307.716000,2.780670
7733.254498,307.768000,4.030785
7738.637831,307.819000,3.018287
7744.124884,307.871000,3.126660
7749.504617,307.922000,2.706921
7754.988000,307.974000,3.429580
7760.364134,308.025000,0.187595
7765.738489,308.076000,4.678465
7771.216392,308.128000,0.395980
7776.587155,308.179000,1.318691
7782.061397,308.231000,4.040147
7787.428571,308.282000,2.726414
7792.793970,308.333000,-0.016255
7798.262745,308.385000,1.605505
7803.624561,308.436000,3.910637
7808.984603,308.487000,1.946388
7814.447920,308.539000,1.015552
7819.804385,308.590000,3.032689
7825.159080,308.641000,1.943388
7830.616947,308.693000,-0.066517
7835.968069,308.744000,0.819730
7841.317424,308.795000,2.093796
7846.665012,308.846000,5.154848
7852.115636,308.898000,3.296498
7857.459659,308.949000,3.470408
7862.801917,309.000000,1.539573
7868.142413,309.051000,2.283965
7873.481146,309.102000,0.756925
7878.922746,309.154000,1.980694
7884.257923,309.205000,1.881485
7889.591340,309.256000,0.880446
7894.922998,309.307000,2.460626
7900.252898,309.358000,2.383318
7905.581041,309.409000,1.262777
7910.907428,309.460000,-0.788561
7916.336447,309.512000,0.709739
7921.659290,309.563000,-1.276222
7926.980379,309.614000,2.892569
7932.299715,309.665000,2.600061
7937.617300,309.716000,1.259518
7942.933134,309.767000,1.994054
7948.247217,309.818000,4.071424
7953.559551,309.869000,-0.677209
7958.870137,309.920000,-0.096919
7964.178976,309.971000,1.591883
7969.486068,310.022000,0.634892
7974.791414,310.073000,-0.630886
7980.095015,310.124000,1.921958
7985.396872,310.175000,3.306738
7990.696985,310.226000,0.048900
7995.995357,310.277000,-1.821255
8001.291987,310.328000,2.398596
8006.586876,310.379000,-0.206763
8011.880026,310.430000,-2.533576
8017.067700,310.480000,3.464595
8022.357406,310.531000,1.389795
8027.645376,310.582000,3.044276
8032.931609,310.633000,3.144677
8038.216106,310.684000,0.639177
8043.498869,310.735000,0.814450
8048.779898,310.786000,1.443308
8053.955695,310.836000,0.622997
8059.233293,310.887000,1.538221
8064.509160,310.938000,-1.511780
8069.783296,310.989000,-2.437948
8074.952339,311.039000,0.477977
8080.223051,311.090000,0.330571
8085.492035,311.141000,1.305593
8090.759292,311.192000,2.306562
8095.921594,311.242000,-0.501937
8101.185433,311.293000,-1.017110
8106.447548,311.344000,-0.137373
8111.604811,311.394000,0.471194
8116.863513,311.445000,-2.654920
8122.120493,311.496000,-1.295892
8127.272724,311.546000,-1.194596
8132.526297,311.597000,2.904828
8137.778150,311.648000,-0.972701
8142.925357,311.698000,-1.342863
8148.173807,311.749000,1.871248
8153.420541,311.800000,-0.365069
8158.562731,311.850000,0.148195
8163.806066,311.901000,0.298269
8168.944927,311.951000,-1.911972
8174.184869,312.002000,1.036128
8179.320403,312.052000,2.114306
8184.556953,312.103000,1.345772
8189.689165,312.153000,1.254756
8194.922327,312.204000,-0.123204
8200.051219,312.254000,2.179083
8205.280996,312.305000,0.721978
8210.406572,312.355000,-0.270520
8215.632968,312.406000,-0.327597
8220.755230,312.456000,4.864167
8225.978248,312.507000,-0.307600
8231.097200,312.557000,-0.101486
8236.316843,312.608000,5.722193
8241.432488,312.658000,0.542782
8246.546497,312.708000,0.409522
8251.761101,312.759000,3.265084
8256.871808,312.809000,4.799975
8261.980881,312.859000,0.619393
8267.190453,312.910000,3.038505
8272.296229,312.960000,3.172814
8277.400373,313.010000,1.378948
8282.604921,313.061000,0.298367
8287.705773,313.111000,3.138691
8292.804996,313.161000,3.137575
8298.004526,313.212000,-0.600454
8303.100462,313.262000,4.115446
8308.194770,313.312000,-0.351049
8313.287453,313.362000,3.397137
8318.480316,313.413000,3.704159
8323.569717,313.463000,-0.163075
8328.657496,313.513000,0.026848
8333.743651,313.563000,3.639090
8338.828185,313.613000,1.521839
8344.012739,313.664000,2.782018
8349.094000,313.714000,1.298078
8354.173640,313.764000,0.111625
8359.251662,313.814000,3.145103
8364.328066,313.864000,3.291122
8369.402853,313.914000,-0.394169
8374.476024,313.964000,1.921634
8379.547579,314.014000,2.962864
8384.718901,314.065000,1.425391
8389.787195,314.115000,2.373466
8394.853876,314.165000,1.978163
8399.918944,314.215000,0.909023
8404.982400,314.265000,0.394986
8410.044246,314.315000,0.718029
8415.104481,314.365000,2.652397
8420.163107,314.415000,0.630055
8425.220124,314.465000,1.102875
8430.275533,314.515000,0.282722
8435.329336,314.565000,-0.519811
8440.381532,314.615000,2.986263
8445.432122,314.665000,0.581623
8450.481107,314.715000,-0.860231
8455.528489,314.765000,5.012946
8460.473367,314.814000,-0.913792
8465.517575,314.864000,2.301470
8470.560181,314.914000,1.394451
8475.601186,314.964000,0.405452
8480.640590,315.014000,-0.423647
8485.678395,315.064000,4.425925
8490.714602,315.114000,1.018265
8495.749210,315.164000,0.166542
8500.681577,315.213000,4.381577
8505.713024,315.263000,0.251648
8510.742875,315.313000,0.803910
8515.771131,315.363000,0.113691
8520.797793,315.413000,1.805995
8525.722375,315.462000,0.611800
8530.745883,315.512000,1.755926
8535.767799,315.562000,-2.419699
8540.788124,315.612000,2.052972
8545.706499,315.661000,-0.495688
8550.723675,315.711000,-0.622241
8555.739262,315.761000,-1.256721
8560.652997,315.810000,1.433410
8565.665441,315.860000,-0.611880
8570.676298,315.910000,-1.736792
8575.585399,315.959000,2.080242
8580.593116,316.009000,-0.079323
8585.599249,316.059000,1.308984
8590.503723,316.108000,-3.365910
8595.506721,316.158000,-2.057083
8600.508137,316.208000,-1.192791
8605.407991,316.257000,-0.522846
8610.406276,316.307000,-0.839738
8615.303063,316.356000,-4.639888
8620.298221,316.406000,-1.974682
8625.191944,316.455000,-1.680910
8630.183977,316.505000,-3.479704
8635.074640,316.554000,2.897252
8640.063551,316.604000,0.714190
8644.951156,316.653000,-3.996338
8649.936949,316.703000,-1.037836
8654.821499,316.752000,-1.148367
8659.804175,316.802000,-0.384246
8664.685673,316.851000,1.153596
8669.665237,316.901000,2.175607
8674.543685,316.950000,1.853160
8679.520139,317.000000,-0.096941
8684.395541,317.049000,-4.189968
8689.269436,317.098000,-2.949954
8694.241247,317.148000,-0.391912
8699.112100,317.197000,2.372757
8703.981448,317.246000,1.835373
8708.948621,317.296000,2.572812
8713.814931,317.345000,1.043883
8718.779005,317.395000,-1.880452
8723.642281,317.444000,-1.655522
8728.504055,317.493000,-1.343170
8733.364329,317.542000,-0.264244
8738.322247,317.592000,2.461350
8743.179491,317.641000,-1.759958
8748.035237,317.690000,0.226134
8752.889486,317.739000,-1.434732
8757.841258,317.789000,-0.540018
8762.692483,317.838000,-2.578789
8767.542212,317.887000,2.377883
8772.390446,317.936000,0.339731
8777.336084,317.986000,1.290106
8782.181300,318.035000,-1.340923
8787.025024,318.084000,-2.455660
8791.867255,318.133000,-0.174300
8796.707995,318.182000,0.750582
8801.547244,318.231000,-2.146716
8806.385003,318.280000,1.530461
8811.319957,318.330000,0.822460
8816.154708,318.379000,0.421505
8820.987971,318.428000,-0.869199
8825.819746,318.477000,-2.798980
8830.650035,318.526000,-0.952972
8835.478838,318.575000,1.041056
8840.306156,318.624000,-1.047853
8845.131990,318.673000,-1.477300
8849.956339,318.722000,-0.872248
8854.779206,318.771000,-3.482665
8859.600590,318.820000,0.216547
8864.420492,318.869000,0.739046
8869.238913,318.918000,-0.733768
8874.055854,318.967000,0.807596
8878.871314,319.016000,0.849475
8883.685296,319.065000,-0.601782
8888.497800,319.114000,0.587242
8893.308826,319.163000,-1.714189
8898.118374,319.212000,-2.279995
8902.926447,319.261000,0.393431
8907.634964,319.309000,0.567167
8912.440116,319.358000,-0.428388
8917.243794,319.407000,-1.648212
8922.045998,319.456000,0.962304
8926.846729,319.505000,1.166290
8931.645988,319.554000,-2.154862
8936.443775,319.603000,0.889102
8941.142222,319.651000,-0.475765
8945.937098,319.700000,-2.828309
8950.730504,319.749000,-1.282535
8955.522441,319.798000,-0.008752
8960.215161,319.846000,-1.460434
8965.004192,319.895000,0.027618
8969.791757,319.944000,-1.522583
8974.577855,319.993000,-1.222303
8979.264858,320.041000,-1.961825
8984.048055,320.090000,-2.157197
8988.829789,320.139000,0.679981
8993.512517,320.187000,-3.104255
8998.291355,320.236000,-3.559441
9003.068730,320.285000,0.147558
9007.747190,320.333000,0.882577
9012.521672,320.382000,-0.429995
9017.294694,320.431000,-0.258380
9021.968893,320.479000,1.029869
9026.739026,320.528000,-0.611693
9031.410396,320.576000,1.150408
9036.177644,320.625000,-1.738699
9040.943434,320.674000,-3.114788
9045.610552,320.722000,-1.093592
9050.373460,320.771000,1.703979
9055.037756,320.819000,-2.445826
9059.797784,320.868000,2.379342
9064.459261,320.916000,-1.498934
9069.216413,320.965000,-2.106415
9073.875072,321.013000,-1.334143
9078.629350,321.062000,-0.653581
9083.285194,321.110000,-0.496013
9088.036601,321.159000,-0.701215
9092.689634,321.207000,-0.515015
9097.438171,321.256000,1.305934
9102.088394,321.304000,0.018792
9106.737229,321.352000,-0.131414
9111.481482,321.401000,-0.741309
9116.127511,321.449000,0.539941
9120.868902,321.498000,-2.331671
9125.512128,321.546000,0.691859
9130.153968,321.594000,0.600257
9134.891085,321.643000,-0.751120
9139.530126,321.691000,-3.732861
9144.167783,321.739000,-0.815171
9148.900630,321.788000,-1.829692
9153.535492,321.836000,-0.718013
9158.168971,321.884000,-2.809830
9162.801069,321.932000,-0.019472
9167.528244,321.981000,3.638803
9172.157551,322.029000,1.675917
9176.785479,322.077000,-2.625423
9181.412027,322.125000,1.081825
9186.133540,322.174000,-0.602720
9190.757302,322.222000,3.117792
9195.379688,322.270000,-0.610564
9200.000697,322.318000,2.084240
9204.620330,322.366000,0.059222
9209.334786,322.415000,0.138068
9213.951640,322.463000,-0.452620
9218.567119,322.511000,-0.260717
9223.181225,322.559000,0.277172
9227.793957,322.607000,0.797113
9232.405318,322.655000,-0.475552
9237.015306,322.703000,-1.033651
9241.623923,322.751000,-1.587992
9246.231170,322.799000,-0.944411
9250.932988,322.848000,1.886300
9255.537466,322.896000,2.289775
9260.140576,322.944000,-3.097398
9264.742318,322.992000,-1.489960
9269.342693,323.040000,-0.043509
9273.941700,323.088000,0.579387
9278.539341,323.136000,-2.814863
9283.135616,323.184000,-0.561446
9287.730527,323.232000,0.789362
9292.324072,323.280000,-3.008934
9296.916254,323.328000,-2.706390
9301.411445,323.375000,0.361187
9306.000929,323.423000,-3.736951
9310.589052,323.471000,-2.244226
9315.175812,323.519000,0.756383
9319.761212,323.567000,-0.362033
9324.345252,323.615000,-1.428984
9328.927932,323.663000,0.971258
9333.509253,323.711000,1.336146
9338.089216,323.759000,1.800858
9342.572447,323.806000,0.300840
9347.149722,323.854000,-3.123671
9351.725642,323.902000,0.889522
9356.300205,323.950000,1.985284
9360.873412,323.998000,-2.654320
9365.350032,324.045000,-0.388912
9369.920559,324.093000,-0.967812
9374.489732,324.141000,-1.380041
9379.057552,324.189000,0.920344
9383.528899,324.236000,-1.592710
9388.094043,324.284000,1.940235
9392.657836,324.332000,-1.210582
9397.125241,324.379000,0.106366
9401.686361,324.427000,0.771086
9406.246132,324.475000,-2.951678
9410.804554,324.523000,-2.540951
9415.266702,324.570000,-1.481824
9419.822456,324.618000,1.690904
9424.281993,324.665000,0.619960
9428.835082,324.713000,0.923181
9433.386824,324.761000,2.909215
9437.842435,324.808000,0.169992
9442.391516,324.856000,-0.748725
9446.844521,324.903000,-2.909587
9451.390942,324.951000,-0.424693
9455.936020,324.999000,-1.539507
9460.385108,325.046000,-1.316146
9464.927530,325.094000,-1.721115
9469.374018,325.141000,0.471048
9473.913786,325.189000,-2.565151
9478.357677,325.236000,-2.501157
9482.894794,325.284000,-2.958325
9487.336090,325.331000,0.403882
9491.870557,325.379000,-1.580090
9496.309260,325.426000,0.142309
9500.746681,325.473000,-3.106777
9505.277193,325.521000,2.295692
9509.712024,325.568000,-3.738741
9514.239893,325.616000,-2.473120
9518.672137,325.663000,-3.279923
9523.103102,325.710000,-4.901640
9527.627024,325.758000,-0.249290
9532.055405,325.805000,-1.161434
9536.576689,325.853000,1.443912
9541.002489,325.900000,1.172336
9545.427013,325.947000,-2.758874
9549.850260,325.994000,-1.884339
9554.366303,326.042000,-0.074098
9558.786974,326.089000,-4.654430
9563.206371,326.136000,-0.579512
9567.718482,326.184000,-0.250783
9572.135305,326.231000,-3.370092
9576.550855,326.278000,-0.612708
9580.965134,326.325000,-2.527241
9585.472021,326.373000,0.192416
9589.883730,326.420000,-1.211292
9594.294169,326.467000,-0.166769
9598.703338,326.514000,-0.312616
9603.111238,326.561000,2.744465
9607.611614,326.609000,-0.703031
9612.016950,326.656000,-1.777709
9616.421019,326.703000,-2.644396
9620.823821,326.750000,-0.010794
9625.225356,326.797000,-0.644551
9629.625626,326.844000,1.195525
9634.024630,326.891000,-0.066984
9638.422369,326.938000,-1.069915
9642.818845,326.985000,0.584063
9647.214056,327.032000,-2.395235
9651.701479,327.080000,0.091802
9656.094138,327.127000,-1.575980
9660.485535,327.174000,0.284393
9664.875670,327.221000,-0.597591
9669.264544,327.268000,-1.187326
9673.652158,327.315000,-1.269700
9678.038512,327.362000,0.431603
9682.423607,327.409000,-1.306138
9686.807443,327.456000,-0.113931
9691.190021,327.503000,-1.930989
9695.478134,327.549000,0.936717
9699.858224,327.596000,-0.358827
9704.237057,327.643000,-1.265981
9708.614633,327.690000,-0.287301
9712.990955,327.737000,-3.275992
9717.366021,327.784000,0.868976
9721.739833,327.831000,1.270177
9726.112390,327.878000,-7.599714
9730.483695,327.925000,0.696828
9734.760780,327.971000,-0.182996
9739.129606,328.018000,-1.478587
9743.497180,328.065000,-1.642444
9747.863503,328.112000,-0.588377
9752.228575,328.159000,0.010799
9756.499562,328.205000,-1.155031
9760.862161,328.252000,-2.811817
9765.223511,328.299000,-2.332121
9769.583612,328.346000,-0.193275
9773.849737,328.392000,1.586191
9778.207369,328.439000,-3.350978
9782.563754,328.486000,-0.252474
9786.918893,328.533000,2.783576
9791.180163,328.579000,0.235323
9795.532837,328.626000,-3.263556
9799.884266,328.673000,-2.961780
9804.141906,328.719000,0.014777
9808.490874,328.766000,-2.321400
9812.838598,328.813000,-0.159455
9817.092614,328.859000,0.416450
9821.437879,328.906000,-2.312492
9825.689490,328.952000,0.141222
9830.032299,328.999000,-0.881606
9834.373868,329.046000,-2.295657
9838.621862,329.092000,-0.431611
9842.960977,329.139000,-1.918991
9847.206571,329.185000,4.088370
9851.543235,329.232000,-2.362600
9855.786431,329.278000,1.738458
9860.120646,329.325000,-0.091165
9864.361446,329.371000,-3.214620
9868.693214,329.418000,1.565893
9872.931619,329.464000,-0.409120
9877.260942,329.511000,-1.009139
9881.496956,329.557000,-3.289083
9885.823836,329.604000,-1.062671
9890.057460,329.650000,0.390081
9894.289903,329.696000,0.109640
9898.613135,329.743000,-0.486677
9902.843191,329.789000,0.452959
9907.163985,329.836000,3.178755
9911.391656,329.882000,-2.715965
9915.618148,329.928000,-2.778276
9919.935303,329.975000,2.965309
9924.159413,330.021000,-0.573499
9928.382346,330.067000,-0.422554
9932.695866,330.114000,1.460467
9936.916419,330.160000,-0.823044
9941.135797,330.206000,-1.814819
9945.445687,330.253000,-0.374076
9949.662689,330.299000,-1.464173
9953.878516,330.345000,-3.007849
9958.093170,330.391000,2.483711
9962.398234,330.438000,-1.350396
9966.610516,330.484000,-2.927245
9970.821625,330.530000,-0.898121
9975.031562,330.576000,0.625861
9979.240328,330.622000,-1.596806
9983.539380,330.669000,-2.628524
9987.745778,330.715000,-0.646103
9991.951007,330.761000,-0.155633
9996.155067,330.807000,-0.522279
10000.357957,330.853000,0.524649
10004.559679,330.899000,-1.091337
10008.760233,330.945000,1.939489
10013.050897,330.992000,-0.108827
10017.249091,331.038000,-0.569603
10021.446118,331.084000,-0.602832
10025.641979,331.130000,-2.190512
10029.836675,331.176000,-2.411082
10034.030205,331.222000,-2.898022
10038.222571,331.268000,0.287900
10042.413773,331.314000,0.143384
10046.603811,331.360000,-2.758765
10050.792686,331.406000,-0.484775
10054.980398,331.452000,-1.455569
10059.166948,331.498000,2.797898
10063.352336,331.544000,-0.465223
10067.536563,331.590000,-2.122639
10071.719629,331.636000,1.357157
10075.901535,331.682000,-0.707454
10080.082281,331.728000,-2.190728
10084.261868,331.774000,-1.806970
10088.440296,331.820000,-0.730138
10092.526768,331.865000,-0.986286
10096.702905,331.911000,0.059789
10100.877884,331.957000,-1.161843
10105.051707,332.003000,-0.667446
10109.224373,332.049000,-0.767515
10113.395884,332.095000,-2.236042
10117.475591,332.140000,-0.877978
10121.644816,332.186000,-0.077302
10125.812886,332.232000,-1.109921
10129.979802,332.278000,-0.126655
10134.145565,332.324000,-1.743492
10138.219652,332.369000,0.775343
10142.383134,332.415000,-0.403460
10146.545464,332.461000,0.285078
10150.706643,332.507000,-3.200409
10154.776247,332.552000,-0.086645
10158.935148,332.598000,-1.259839
10163.092900,332.644000,-1.080894
10167.159152,332.689000,-1.929607
10171.314630,332.735000,0.633610
10175.468958,332.781000,0.728792
10179.531864,332.826000,1.019467
10183.683921,332.872000,-3.035605
10187.834831,332.918000,2.974799
10191.894393,332.963000,-0.456631
10196.043035,333.009000,1.559217
10200.190530,333.055000,-0.798294
10204.246754,333.100000,-2.836549
10208.391984,333.146000,-0.155772
10212.445992,333.191000,-3.152608
10216.588958,333.237000,-0.447080
10220.640753,333.282000,0.788462
10224.781457,333.328000,-2.581823
10228.831039,333.373000,-3.302806
10232.969483,333.419000,1.521837
10237.016856,333.464000,0.744259
10241.153042,333.510000,0.801331
10245.198206,333.555000,0.246418
10249.332135,333.601000,-2.061035
10253.375094,333.646000,1.495191
10257.506768,333.692000,2.352840
10261.547522,333.737000,-2.221081
10265.587186,333.782000,-2.950878
10269.715494,333.828000,-0.059237
10273.752956,333.873000,1.454893
10277.879015,333.919000,0.411961
10281.914277,333.964000,-0.135961
10285.948452,334.009000,-0.103948
10290.071151,334.055000,-0.204447
10294.103128,334.100000,-0.668095
10298.134020,334.145000,0.232314
10302.253364,334.191000,-0.851027
10306.282060,334.236000,4.168705
10310.309672,334.281000,-4.028703
10314.425666,334.327000,0.213327
10318.451085,334.372000,-0.942183
10322.475422,334.417000,0.042008
10326.498675,334.462000,0.724692
10330.610215,334.508000,-0.550143
10334.631280,334.553000,-0.838224
10338.651263,334.598000,-0.764074
10342.670165,334.643000,-1.761983
10346.687987,334.688000,-0.908522
10350.704728,334.733000,0.896492
10354.809614,334.779000,0.143766
10358.824172,334.824000,0.073501
10362.837651,334.869000,-2.221418
10366.850051,334.914000,-1.878084
10370.861373,334.959000,-1.744221
10374.871618,335.004000,1.335667
10378.880786,335.049000,-1.841555
10382.888876,335.094000,-0.313553
10386.984923,335.140000,0.668856
10390.990838,335.185000,1.049079
10394.995677,335.230000,-3.031418
10398.999440,335.275000,-0.050172
10403.002130,335.320000,-0.611544
10407.003745,335.365000,-0.894508
10411.004286,335.410000,2.380444
10415.003755,335.455000,1.145423
10419.002150,335.500000,-2.292262
10422.999473,335.545000,-2.437725
10426.995723,335.590000,1.039567
10430.990902,335.635000,-2.456115
10434.985010,335.680000,0.401189
10438.889325,335.724000,-0.111256
10442.881316,335.769000,2.532593
10446.872237,335.814000,0.576106
10450.862088,335.859000,-2.349523
10454.850871,335.904000,1.546373
10458.838585,335.949000,-2.638560
10462.825230,335.994000,1.993956
10466.810808,336.039000,-1.246566
10470.706786,336.083000,-2.005127
10474.690253,336.128000,-0.361968
10478.672654,336.173000,-1.365418
10482.653989,336.218000,-0.057533
10486.634259,336.263000,-3.167738
10490.525048,336.307000,0.548054
10494.503211,336.352000,1.091527
10498.480310,336.397000,-0.467700
10502.456345,336.442000,-1.041106
10506.342995,336.486000,-1.350447
10510.316927,336.531000,0.590679
10514.289797,336.576000,1.178494
10518.261604,336.621000,-1.133355
10522.144122,336.665000,1.037915
10526.113830,336.710000,0.148424
10530.082477,336.755000,-2.120536
10533.961906,336.799000,-1.256484
10537.928455,336.844000,4.484374
10541.893946,336.889000,1.832216
10545.770289,336.933000,4.161944
10549.733685,336.978000,-1.164809
10553.607982,337.022000,0.567948
10557.569284,337.067000,0.092218
10561.529529,337.112000,1.090297
10565.400747,337.156000,-0.209175
10569.358902,337.201000,0.138271
10573.228076,337.245000,-1.066880
10577.184142,337.290000,0.812647
10581.051275,337.334000,-1.275830
10585.005254,337.379000,-0.212934
10588.870347,337.423000,-1.680371
10592.822240,337.468000,1.471864
10596.685295,337.512000,-1.718144
10600.635105,337.557000,0.704123
10604.496123,337.601000,0.625248
10608.443850,337.646000,-2.690408
10612.302834,337.690000,-0.206096
10616.160811,337.734000,-0.396523
10620.105430,337.779000,-1.372563
10623.961375,337.823000,1.823590
10627.903916,337.868000,-0.495451
10631.757830,337.912000,0.128204
10635.610740,337.956000,-1.785445
10639.550179,338.001000,2.562789
10643.401061,338.045000,-1.436954
10647.250940,338.089000,-0.002843
10651.187281,338.134000,-1.526328
10655.035134,338.178000,-0.700126
10658.881986,338.222000,0.042527
10662.815231,338.267000,-2.714462
10666.660059,338.311000,-0.737198
10670.503887,338.355000,-0.562689
10674.346716,338.399000,-4.534567
10678.275848,338.444000,-2.192238
10682.116656,338.488000,-1.755250
10685.956465,338.532000,-3.267187
10689.795276,338.576000,-4.248539
10693.633090,338.620000,-2.123883
10697.557096,338.665000,-0.854286
10701.392893,338.709000,-1.561313
10705.227693,338.753000,2.043747
10709.061498,338.797000,0.087547
10712.894307,338.841000,-1.518199
10716.726120,338.885000,-0.194478
10720.556939,338.929000,-0.669022
10724.386763,338.973000,-0.582378
10728.302601,339.018000,-1.752437
10732.130414,339.062000,-0.473118
10735.957235,339.106000,-3.420910
10739.783062,339.150000,1.329783
10743.607897,339.194000,-1.832422
10747.431740,339.238000,1.313625
10751.254591,339.282000,-0.500582
10755.076450,339.326000,-1.981668
10758.897319,339.370000,-1.227621
10762.717197,339.414000,-1.989049
10766.536084,339.458000,-0.228625
10770.353982,339.502000,1.115887
10774.170890,339.546000,-0.996698
10777.986809,339.590000,0.164568
10781.801740,339.634000,-0.405461
10785.615682,339.678000,-0.779344
10789.341989,339.721000,-2.372302
10793.153978,339.765000,-1.038799
10796.964980,339.809000,2.671493
10800.774995,339.853000,0.424680
10804.584024,339.897000,-0.701213
10808.392066,339.941000,1.448449
10812.199123,339.985000,1.035733
10816.005195,340.029000,-2.504519
10819.723813,340.072000,-0.746323
10823.527938,340.116000,1.376421
10827.331078,340.160000,-1.403564
10831.133235,340.204000,-1.195748
10834.848029,340.247000,-1.608607
10838.648242,340.291000,1.266735
10842.447472,340.335000,-0.437836
10846.245720,340.379000,0.982161
10849.956695,340.422000,-0.162606
10853.753002,340.466000,0.756347
10857.548328,340.510000,-1.859596
10861.342673,340.554000,-0.464644
10865.049836,340.597000,0.099207
10868.842243,340.641000,-2.214252
10872.633670,340.685000,-1.409910
10876.337983,340.728000,-0.670056
10880.127474,340.772000,-2.063359
10883.829896,340.815000,1.349783
10887.617453,340.859000,1.600194
10891.404033,340.903000,2.621593
10895.103609,340.946000,-2.535008
10898.888257,340.990000,0.262108
10902.585946,341.033000,0.028845
10906.368663,341.077000,1.520892
10910.150404,341.121000,-0.411021
10913.845254,341.164000,-3.298969
10917.625066,341.208000,-2.441133
10921.318033,341.251000,1.836257
10925.095918,341.295000,-0.720814
10928.787002,341.338000,-0.867167
10932.562962,341.382000,-0.837926
10936.252165,341.425000,-0.983373
10939.940439,341.468000,-1.432177
10943.713524,341.512000,-0.955112
10947.399919,341.555000,-0.668481
10951.171083,341.599000,2.216128
10954.855601,341.642000,2.186987
10958.624845,341.686000,-2.599765
10962.307486,341.729000,-2.094629
10965.989201,341.772000,0.547070
10969.755578,341.816000,0.537080
10973.435419,341.859000,1.981525
10977.114334,341.902000,-0.984852
10980.877848,341.946000,-1.712344
10984.554892,341.989000,-1.183613
10988.231011,342.032000,-0.065696
10991.991665,342.076000,-1.133871
10995.665914,342.119000,0.817574
10999.339240,342.162000,0.675240
11003.011643,342.205000,-1.417273
11006.768496,342.249000,-0.911666
11010.439032,342.292000,1.477525
11014.108646,342.335000,-1.449292
11017.777338,342.378000,-0.257319
11021.530396,342.422000,-0.569499
11025.197224,342.465000,0.800460
11028.863132,342.508000,-4.193228
11032.528119,342.551000,4.097631
11036.192187,342.594000,1.390109
11039.855335,342.637000,-0.343626
11043.602720,342.681000,1.731191
11047.264009,342.724000,1.156967
11050.924378,342.767000,0.288329
11054.583829,342.810000,-2.575441
11058.242363,342.853000,-4.022086
11061.899979,342.896000,-2.554005
11065.556677,342.939000,-0.542769
11069.212459,342.982000,-0.989427
11072.867324,343.025000,-0.240964
11076.521273,343.068000,0.857540
11080.174306,343.111000,-1.053471
11083.826423,343.154000,-0.735941
11087.477626,343.197000,0.414129
11091.127913,343.240000,-1.772776
11094.777286,343.283000,0.054774
11098.425745,343.326000,-3.406015
11102.073291,343.369000,-2.044326
11105.719922,343.412000,-0.600468
11109.365641,343.455000,-0.485502
11113.010447,343.498000,-0.081133
11116.654340,343.541000,2.266066
11120.297322,343.584000,0.992880
11123.939391,343.627000,3.485864
11127.580549,343.670000,-1.066093
11131.220797,343.713000,-0.373606
11134.775508,343.755000,-1.211044
11138.413955,343.798000,-1.304839
11142.051492,343.841000,-1.076699
11145.688120,343.884000,-0.903085
11149.323838,343.927000,2.589447
11152.958647,343.970000,0.474289
11156.508049,344.012000,1.293672
11160.141062,344.055000,0.672014
11163.773167,344.098000,1.228004
11167.404365,344.141000,-2.487609
11170.950240,344.183000,-2.934295
11174.579645,344.226000,1.478407
11178.208143,344.269000,-0.716856
11181.751382,344.311000,1.629863
11185.378088,344.354000,-1.847745
11189.003889,344.397000,0.721294
11192.628785,344.440000,-0.408296
11196.168507,344.482000,0.489765
11199.791614,344.525000,1.116125
11203.413817,344.568000,-1.704669
11206.950910,344.610000,0.208481
11210.571327,344.653000,-1.635460
11214.106675,344.695000,0.535803
11217.725306,344.738000,0.427076
11221.343035,344.781000,-1.761533
11224.875759,344.823000,0.418792
11228.491704,344.866000,-1.063650
11232.022687,344.908000,-1.794647
11235.636851,344.951000,-0.417092
11239.166094,344.993000,-0.926442
11242.778477,345.036000,-1.807631
11246.305982,345.078000,0.446478
11249.916585,345.121000,-1.248851
11253.442353,345.163000,1.632566
11257.051178,345.206000,0.616730
11260.575210,345.248000,1.151836
11264.182259,345.291000,-0.417848
11267.704555,345.333000,2.548537
11271.309829,345.376000,-0.708312
11274.830392,345.418000,-0.876450
11278.350100,345.460000,1.570031
11281.952723,345.503000,-1.548477
11285.470699,345.545000,0.523077
11288.987820,345.587000,1.326809
11292.587796,345.630000,-0.707665
11296.103187,345.672000,-2.997258
11299.701393,345.715000,0.029461
11303.215056,345.757000,-0.675628
11306.727865,345.799000,0.703218
11310.239821,345.841000,1.929380
11313.834512,345.884000,3.255448
11317.344742,345.926000,-0.290511
11320.854120,345.968000,-1.825164
11324.446172,346.011000,-2.432425
11327.953826,346.053000,2.354539
11331.460629,346.095000,-1.769635
11334.966581,346.137000,-0.366848
11338.471682,346.179000,-0.807158
11342.059357,346.222000,0.934982
11345.562737,346.264000,0.087793
11349.065268,346.306000,0.982357
11352.566949,346.348000,-2.054349
11356.067781,346.390000,1.277198
11359.567764,346.432000,-1.603858
11363.150201,346.475000,-1.022913
11366.648467,346.517000,2.385586
11370.145885,346.559000,-1.720796
11373.642456,346.601000,0.767407
11377.138179,346.643000,-0.900513
11380.633055,346.685000,1.557152
11384.127085,346.727000,-2.219091
11387.620268,346.769000,0.388354
11391.112605,346.811000,-3.394306
11394.604096,346.853000,-0.729716
11398.094742,346.895000,-0.433578
11401.584543,346.937000,-4.145134
11405.073499,346.979000,-0.827304
11408.561610,347.021000,0.619281
11412.048877,347.063000,-2.844171
11415.535301,347.105000,-0.885873
11419.020880,347.147000,2.529010
11422.505617,347.189000,0.854529
11425.989510,347.231000,-1.638621
11429.472560,347.273000,2.804915
11432.954769,347.315000,-0.988570
11436.436135,347.357000,0.839218
11439.916659,347.399000,-0.597282
11443.313502,347.440000,-1.698076
11446.792364,347.482000,-1.656903
11450.270384,347.524000,-1.170785
11453.747565,347.566000,0.769487
11457.223905,347.608000,-0.625175
11460.699405,347.650000,-2.427849
11464.091345,347.691000,-1.183270
11467.565186,347.733000,1.202461
11471.038188,347.775000,0.720486
11474.510351,347.817000,-1.527613
11477.981676,347.859000,1.527155
11481.369541,347.900000,0.376667
11484.839210,347.942000,-1.818782
11488.308041,347.984000,-3.401924
11491.693473,348.025000,-0.705962
11495.160650,348.067000,-0.907614
11498.626991,348.109000,-1.864539
11502.092494,348.151000,-1.671961
11505.474680,348.192000,-2.967757
11508.938532,348.234000,-0.795089
11512.401549,348.276000,-0.659300
11515.781307,348.317000,-3.030061
11519.242673,348.359000,-0.251325
11522.620821,348.400000,2.375869
11526.080539,348.442000,1.291435
11529.539422,348.484000,-1.139777
11532.915148,348.525000,-1.546644
11536.372384,348.567000,-2.716107
11539.746502,348.608000,-1.818909
11543.202092,348.650000,-2.273916
11546.574604,348.691000,-1.995981
11550.028550,348.733000,-1.735347
11553.399456,348.774000,-1.879848
11556.851758,348.816000,-2.518912
11560.221061,348.857000,-1.220872
11563.671720,348.899000,-2.029783
11567.039420,348.940000,3.069404
11570.488439,348.982000,-0.699523
11573.854537,349.023000,2.369076
11577.301915,349.065000,-0.811576
11580.666413,349.106000,-0.715725
11584.030120,349.147000,3.652804
11587.475051,349.189000,-0.690699
11590.837159,349.230000,2.714598
11594.280452,349.272000,-1.394883
11597.640963,349.313000,-1.798453
11601.000686,349.354000,-1.901032
11604.441535,349.396000,-3.520797
11607.799661,349.437000,-1.670427
11611.157000,349.478000,-2.041725
11614.595408,349.520000,0.427806
11617.951152,349.561000,-1.810844
11621.306109,349.602000,-0.689120
11624.660280,349.643000,-0.415123
11628.095443,349.685000,1.918525
11631.448022,349.726000,0.498301
11634.799814,349.767000,-0.567693
11638.150821,349.808000,-1.192439
11641.582745,349.850000,-0.826944
11644.932162,349.891000,0.942840
11648.280794,349.932000,2.104629
11651.628641,349.973000,0.974267
11654.975704,350.014000,-1.313014
11658.403590,350.056000,-2.479358
11661.749066,350.097000,-1.426304
11665.093759,350.138000,0.757404
11668.437668,350.179000,-2.765823
11671.780795,350.220000,-0.534151
11675.123139,350.261000,1.654712
11678.464700,350.302000,-0.952123
11681.805480,350.343000,-3.640317
11685.145477,350.384000,1.419641
11688.484693,350.425000,0.828716
11691.904543,350.467000,-0.217746
11695.242178,350.508000,0.230894
11698.579032,350.549000,-1.168671
11701.915105,350.590000,-0.019382
11705.250398,350.631000,0.071133
11708.584912,350.672000,-1.592954
11711.918645,350.713000,-0.935910
11715.251600,350.754000,1.868629
11718.502512,350.794000,-1.319907
11721.833927,350.835000,1.017755
11725.164564,350.876000,1.214741
11728.494422,350.917000,-1.977440
11731.823503,350.958000,-2.349860
11735.151806,350.999000,-2.365780
11738.479331,351.040000,-0.867272
11741.806079,351.081000,0.010752
11745.132050,351.122000,-1.110468
11748.457245,351.163000,1.650488
11751.700589,351.203000,0.678205
11755.024250,351.244000,1.936978
11758.347135,351.285000,0.163900
11761.669245,351.326000,-2.010169
11764.990579,351.367000,0.563231
11768.230159,351.407000,-1.634417
11771.549962,351.448000,-1.185204
11774.868991,351.489000,-0.171013
11778.187246,351.530000,-0.008952
11781.423822,351.570000,3.407907
11784.740548,351.611000,-0.861599
11788.056500,351.652000,-1.233030
11791.371680,351.693000,-1.638280
11794.605256,351.733000,-2.672601
11797.918909,351.774000,-4.845713
11801.231790,351.815000,-2.618978
11804.463124,351.855000,-0.277038
11807.774479,351.896000,0.794299
11811.085063,351.937000,-3.249941
11814.314158,351.977000,-3.076398
11817.623218,352.018000,0.886465
11820.850827,352.058000,-3.333688
11824.158365,352.099000,-2.804124
11827.465133,352.140000,-1.772067
11830.690506,352.180000,0.184431
11833.995753,352.221000,-0.846566
11837.219643,352.261000,-1.030796
11840.523370,352.302000,-3.391210
11843.745778,352.342000,-2.783877
11847.047986,352.383000,-1.624832
11850.268913,352.423000,-4.131045
11853.569603,352.464000,-1.342805
11856.789050,352.504000,-2.173128
11860.088224,352.545000,1.548647
11863.306191,352.585000,-4.384175
11866.603850,352.626000,-1.288709
11869.820339,352.666000,-2.266187
11873.116483,352.707000,1.139440
11876.331495,352.747000,-1.758142
11879.545777,352.787000,0.331000
11882.839661,352.828000,0.379448
11886.052468,352.868000,-2.276221
11889.264547,352.908000,0.573867
11892.556173,352.949000,1.260394
11895.766777,352.989000,-1.573955
11899.056892,353.030000,1.276215
11902.266024,353.070000,-0.536428
11905.474429,353.110000,-1.330083
11908.682107,353.150000,0.758750
11911.969223,353.191000,-3.114191
11915.175430,353.231000,-0.057917
11918.380911,353.271000,-0.958202
11921.665775,353.312000,-2.357379
11924.869787,353.352000,-0.981465
11928.073073,353.392000,-3.905305
11931.275634,353.432000,-2.240896
11934.477470,353.472000,-4.611679
11937.758600,353.513000,-4.098258
11940.958969,353.553000,0.340694
11944.158614,353.593000,-2.283721
11947.357536,353.633000,0.784917
11950.555733,353.673000,0.367262
11953.753208,353.713000,-2.181136
11957.029868,353.754000,0.198693
11960.225879,353.794000,-4.945858
11963.421166,353.834000,-1.527650
11966.615732,353.874000,0.228192
11969.809575,353.914000,1.561684
11973.002696,353.954000,0.332362
11976.195096,353.994000,-2.325104
11979.386774,354.034000,0.940324
11982.577731,354.074000,-0.030367
11985.767968,354.114000,-2.347558
11988.957483,354.154000,-0.739624
11992.146279,354.194000,0.780171
11995.334354,354.234000,1.811293
11998.521709,354.274000,0.428918
12001.708345,354.314000,-1.172017
12004.894261,354.354000,-0.258387
12008.079458,354.394000,-2.134164
12011.263936,354.434000,3.102400
12014.447695,354.474000,-0.271287
12017.630736,354.514000,1.745590
12020.813059,354.554000,-1.076703
12023.994663,354.594000,-0.820922
12027.175550,354.634000,-2.960124
12030.276224,354.673000,-0.979121
12033.455694,354.713000,-2.304612
12036.634448,354.753000,-3.397002
12039.812484,354.793000,-4.741512
12042.989804,354.833000,0.472470
12046.166408,354.873000,-0.141245
12049.262907,354.912000,1.087079
12052.438097,354.952000,-1.822376
12055.612571,354.992000,2.842801
12058.786330,355.032000,-2.365055
12061.880056,355.071000,-0.874482
12065.052403,355.111000,2.244684
12068.224035,355.151000,-1.023643
12071.394953,355.191000,-1.995311
12074.485910,355.230000,1.076073
12077.655418,355.270000,-0.831198
12080.824212,355.310000,-0.724738
12083.913100,355.349000,-0.735558
12087.080485,355.389000,-1.972051
12090.247158,355.429000,-2.514495
12093.333977,355.468000,0.651560
12096.499242,355.508000,-5.414550
12099.663795,355.548000,-118.863841
12102.748549,355.587000,-207.922934
12105.911696,355.627000,-118.494324
12108.995079,355.666000,-197.904029
12112.156822,355.706000,-124.696919
12115.317853,355.746000,-58.651629
12118.399174,355.785000,-150.752665
12121.558801,355.825000,-70.027734
12124.638754,355.864000,-191.954846
12127.796979,355.904000,-196.644309
12130.875565,355.943000,-161.251944
12134.032389,355.983000,-141.765843
12137.109608,356.022000,-127.559518
12140.265031,356.062000,-105.389174
12143.340885,356.101000,-238.224872
12146.494908,356.141000,-131.889624
12149.569398,356.180000,-111.931019
12152.643215,356.219000,-146.346826
12155.795149,356.259000,-150.542655
12158.867603,356.298000,-47.755454
12162.018139,356.338000,-218.550916
12165.089231,356.377000,-77.909803
12168.159651,356.416000,-88.818555
12171.308101,356.456000,-221.512565
12174.377160,356.495000,-200.948070
12177.445548,356.534000,-51.897022
12180.591915,356.574000,-97.012256
12183.658943,356.613000,-143.601421
12186.725300,356.652000,-94.196035
12189.869585,356.692000,-87.772890
12192.934585,356.731000,-138.870648
12195.998914,356.770000,-135.524203
12199.062573,356.809000,-204.174125
12202.204093,356.849000,-154.781843
12205.266396,356.888000,-122.342883
12208.328030,356.927000,-139.597377
12211.388995,356.966000,-61.242068
12214.527751,357.006000,-131.257358
12217.587361,357.045000,-76.348264
12220.646304,357.084000,-177.960907
12223.704578,357.123000,-90.777123
12226.762184,357.162000,-174.240682
12229.819122,357.201000,-175.318016
12232.953750,357.241000,-185.764461
12236.009337,357.280000,-92.419579
12239.064257,357.319000,-83.402788
12242.118510,357.358000,-129.624487
12245.172096,357.397000,-127.105000
12248.225016,357.436000,-148.320486
