raman_shift_cm-1,wavelength_nm,intensity
-311.444523,246.690000,0.000000
-300.766377,246.755000,0.000000
-290.093855,246.820000,0.000000
-279.262891,246.886000,0.000000
-268.601691,246.951000,0.433780
-257.946101,247.016000,1.225320
-247.296118,247.081000,3.829040
-236.651737,247.146000,-3.360360
-226.012953,247.211000,-2.753090
-215.216219,247.277000,-4.484710
-204.588703,247.342000,-6.811930
-193.966771,247.407000,-3.305420
-183.350419,247.472000,1.074320
-172.739643,247.537000,-1.582160
-162.134437,247.602000,-5.795900
-151.534799,247.667000,2.929510
-140.940722,247.732000,-8.326350
-130.352203,247.797000,3.426330
-119.769238,247.862000,6.088490
-109.191822,247.927000,-1.393350
-98.619951,247.992000,2.591730
-88.053621,248.057000,2.342420
-77.655258,248.121000,7.793980
-67.099910,248.186000,-6.743330
-56.550089,248.251000,0.111040
-46.005792,248.316000,-1.071810
-35.467013,248.381000,6.513950
-24.933749,248.446000,-1.544800
-14.405995,248.511000,-12.123810
-4.045586,248.575000,-3.261970
6.471245,248.640000,-2.232280
16.982580,248.705000,5.059110
27.488421,248.770000,-1.479030
37.827271,248.834000,0.902710
48.322224,248.899000,-0.893070
58.811696,248.964000,1.398570
69.134442,249.028000,-8.738920
79.613052,249.093000,-1.843810
90.086194,249.158000,-6.201920
100.392873,249.222000,-6.628230
110.855177,249.287000,-2.172790
121.312027,249.352000,6.041110
131.602677,249.416000,-5.518950
142.048715,249.481000,-1.069190
152.328727,249.545000,-2.616470
162.763968,249.610000,-0.017790
173.033359,249.674000,-0.386020
183.457821,249.739000,0.302240
193.716607,249.803000,14.295350
204.130307,249.868000,14.940440
214.378504,249.932000,36.426540
224.781458,249.997000,34.504450
235.019083,250.061000,49.319480
245.411309,250.126000,73.203780
255.638378,250.190000,58.356270
265.860216,250.254000,59.931350
276.236420,250.319000,9.094100
286.447727,250.383000,-71.546720
296.813243,250.448000,27.213810
307.014035,250.512000,-11.125070
317.209616,250.576000,11.116840
327.399990,250.640000,-18.574030
337.744263,250.705000,19.562840
347.924154,250.769000,-2.822320
358.098850,250.833000,46.779390
368.268355,250.897000,60.131690
378.591450,250.962000,1.030040
388.750505,251.026000,-1.930250
398.904381,251.090000,42.762140
409.053082,251.154000,-6.849260
419.196612,251.218000,-27.057250
429.334975,251.282000,-18.659300
439.626466,251.347000,10.935060
449.754426,251.411000,18.379030
459.877231,251.475000,-18.984920
469.994885,251.539000,59.297680
480.107392,251.603000,31.514570
490.214756,251.667000,21.874430
500.316980,251.731000,-17.102450
510.414069,251.795000,-19.329560
520.506026,251.859000,-2.932800
530.592855,251.923000,-13.730680
540.674561,251.987000,28.644750
550.751147,252.051000,15.977810
560.822617,252.115000,67.894940
570.888975,252.179000,-3.781750
580.950225,252.243000,-5.737400
590.849282,252.306000,-12.307220
600.900407,252.370000,-3.257500
610.946435,252.434000,56.361850
620.987371,252.498000,13.957030
631.023218,252.562000,20.079200
641.053980,252.626000,10.373070
650.923048,252.689000,-2.925620
660.943731,252.753000,-32.482490
670.959341,252.817000,95.011260
680.969880,252.881000,-18.763700
690.819058,252.944000,-8.379750
700.819549,253.008000,6.091700
710.814983,253.072000,-15.321110
720.805362,253.136000,-3.408870
730.634708,253.199000,-21.112890
740.615069,253.263000,14.262860
750.434561,253.326000,54.449190
760.404919,253.390000,67.866580
770.370241,253.454000,65.003950
780.174941,253.517000,-35.957330
790.130283,253.581000,4.545220
799.925166,253.644000,84.293210
809.870542,253.708000,57.765400
819.655623,253.771000,67.151580
829.591048,253.835000,53.318990
839.366341,253.898000,64.412240
849.291831,253.962000,19.008130
859.057350,254.025000,-47.250540
868.972920,254.089000,-52.968610
878.728681,254.152000,-1.655010
888.634344,254.216000,-80.834270
898.380361,254.279000,-44.772910
908.121550,254.342000,-9.344820
918.012421,254.406000,-13.178310
927.743888,254.469000,-5.842270
937.470538,254.532000,19.973290
947.346650,254.596000,49.509370
957.063600,254.659000,3.026370
966.775743,254.722000,46.289430
976.637128,254.786000,44.501180
986.339593,254.849000,-33.658910
996.037261,254.912000,124.655140
1005.730138,254.975000,72.607680
1015.571966,255.039000,13.206670
1025.255192,255.102000,46.462310
1034.933637,255.165000,64.935150
1044.607304,255.228000,-12.770490
1054.276196,255.291000,49.050800
1063.940318,255.354000,-19.548450
1073.599672,255.417000,-24.801710
1083.407471,255.481000,4.608990
1093.057225,255.544000,75.408050
1102.702223,255.607000,8.224010
1112.342467,255.670000,-2.436150
1121.977961,255.733000,-49.976860
1131.608710,255.796000,5.741140
1141.234715,255.859000,-19.255440
1150.855981,255.922000,-9.391490
1160.472512,255.985000,31.903180
1170.084310,256.048000,5.540830
1179.691379,256.111000,-17.973290
1189.293724,256.174000,37.729960
1198.739040,256.236000,-22.222760
1208.332019,256.299000,59.026760
1217.920283,256.362000,41.458270
1227.503835,256.425000,35.995550
1237.082680,256.488000,40.103270
1246.656820,256.551000,3.913800
1256.226260,256.614000,-2.715680
1265.639217,256.676000,42.596880
1275.199339,256.739000,82.821270
1284.754770,256.802000,74.038700
1294.305515,256.865000,134.382400
1303.700087,256.927000,141.381580
1313.241541,256.990000,53.593530
1322.778319,257.053000,62.400560
1332.310423,257.116000,84.532430
1341.686664,257.178000,50.057280
1351.209505,257.241000,87.133150
1360.727683,257.304000,59.847110
1370.090229,257.366000,3.143340
1379.599165,257.429000,55.168790
1388.952622,257.491000,48.582650
1398.452329,257.554000,-32.390610
1407.796710,257.616000,34.450220
1417.287202,257.679000,-35.850760
1426.773053,257.742000,23.469240
1436.103810,257.804000,11.255230
1445.580466,257.867000,5.401790
1454.902179,257.929000,102.995140
1464.369654,257.992000,45.210480
1473.682337,258.054000,21.186090
1482.990547,258.116000,-47.489510
1492.444310,258.179000,-2.469100
1501.743510,258.241000,13.989900
1511.188124,258.304000,44.622280
1520.478327,258.366000,-2.682490
1529.764072,258.428000,26.741430
1539.195025,258.491000,13.187810
1548.471792,258.553000,37.388970
1557.744112,258.615000,29.322940
1567.161432,258.678000,14.953810
1576.424794,258.740000,6.724880
1585.683718,258.802000,8.121290
1594.938206,258.864000,41.056930
1604.337420,258.927000,-10.510230
1613.582976,258.989000,46.719890
1622.824106,259.051000,71.488060
1632.060814,259.113000,24.038250
1641.293103,259.175000,32.893400
1650.669776,259.238000,-25.919620
1659.893165,259.300000,31.572060
1669.112144,259.362000,28.097970
1678.326716,259.424000,28.143080
1687.536886,259.486000,-19.627420
1696.742655,259.548000,35.584580
1705.944027,259.610000,46.620800
1715.141005,259.672000,-34.486180
1724.333592,259.734000,48.118690
1733.521792,259.796000,-14.550030
1742.705607,259.858000,64.473050
1751.885041,259.920000,33.345800
1761.060096,259.982000,42.877810
1770.230777,260.044000,45.114240
1779.397086,260.106000,107.288010
1788.559026,260.168000,60.795360
1797.716600,260.230000,67.928520
1806.869812,260.292000,86.017250
1816.018664,260.354000,66.622210
1825.163160,260.416000,36.751940
1834.155916,260.477000,67.483250
1843.291778,260.539000,19.033140
1852.423294,260.601000,-35.896130
1861.550466,260.663000,27.806760
1870.673297,260.725000,-2.095070
1879.644752,260.786000,9.381480
1888.758980,260.848000,15.649410
1897.868877,260.910000,3.909920
1906.974445,260.972000,-36.972920
1915.928928,261.033000,25.589560
1925.025918,261.095000,36.623000
1934.118588,261.157000,47.399010
1943.060391,261.218000,94.987030
1952.144502,261.280000,55.236100
1961.224302,261.342000,13.215530
1970.153451,261.403000,-5.807590
1979.224710,261.465000,-6.114720
1988.145460,261.526000,-49.972690
1997.208190,261.588000,43.628760
2006.120554,261.649000,-24.793020
2015.174766,261.711000,30.869560
2024.078756,261.772000,51.057280
2033.124461,261.834000,67.979460
2042.020089,261.895000,67.703410
2051.057301,261.957000,34.662380
2059.944578,262.018000,23.281950
2068.973308,262.080000,-8.494560
2077.852245,262.141000,-11.551220
2086.872506,262.203000,1.907520
2095.743116,262.264000,0.460920
2104.609601,262.325000,27.303940
2113.617214,262.387000,25.774860
2122.475388,262.448000,-10.933540
2131.329447,262.509000,15.377420
2140.324438,262.571000,26.227460
2149.170203,262.632000,26.048070
2158.011861,262.693000,49.939380
2166.994257,262.755000,-0.590590
2175.827640,262.816000,16.280720
2184.656923,262.877000,80.665460
2193.482109,262.938000,55.038390
2202.303202,262.999000,52.796770
2211.264711,263.061000,73.857710
2220.077557,263.122000,38.988680
2228.886318,263.183000,35.218760
2237.690997,263.244000,64.484180
2246.491597,263.305000,11.893750
2255.288119,263.366000,17.355210
2264.080568,263.427000,14.909090
2272.868945,263.488000,16.101320
2281.653255,263.549000,-5.903140
2290.577403,263.611000,10.662900
2299.353518,263.672000,-0.399460
2308.125573,263.733000,-40.506520
2316.893571,263.794000,7.359560
2325.657515,263.855000,78.122260
2334.273836,263.915000,92.315330
2343.029746,263.976000,142.729240
2351.781611,264.037000,109.454760
2360.529433,264.098000,101.393250
2369.273215,264.159000,172.742730
2378.012959,264.220000,107.940360
2386.748669,264.281000,72.436140
2395.480347,264.342000,59.033450
2404.207997,264.403000,-11.609790
2412.788642,264.463000,45.729940
2421.508308,264.524000,61.949230
2430.223953,264.585000,41.274320
2438.935580,264.646000,30.171000
2447.643192,264.707000,46.011160
2456.204142,264.767000,30.085210
2464.903798,264.828000,38.053730
2473.599447,264.889000,-1.486400
2482.148639,264.949000,-27.722210
2490.836348,265.010000,31.932660
2499.520059,265.071000,50.695900
2508.057516,265.131000,-14.920890
2516.733303,265.192000,-29.824550
2525.405101,265.253000,11.652750
2533.930847,265.313000,-60.608820
2542.594737,265.374000,-13.150330
2551.112712,265.434000,-6.035790
2559.768705,265.495000,-24.517300
2568.278918,265.555000,7.481080
2576.927027,265.616000,-16.714980
2585.571164,265.677000,37.418840
2594.069722,265.737000,5.153330
2602.564444,265.797000,59.053070
2611.196813,265.858000,2.125560
2619.683805,265.918000,-24.379800
2628.308321,265.979000,3.686810
2636.787594,266.039000,-2.253340
2645.404268,266.100000,36.598740
2653.875831,266.160000,59.191090
2662.343577,266.220000,25.859870
2670.948539,266.281000,22.545490
2679.408591,266.341000,2.341730
2687.864833,266.401000,3.828420
2696.458108,266.462000,-7.215890
2704.906672,266.522000,-7.170250
2713.351433,266.582000,-2.386150
2721.792393,266.642000,14.137860
2730.370143,266.703000,0.862940
2738.803447,266.763000,19.933450
2747.232958,266.823000,-37.334330
2755.658679,266.883000,-6.488160
2764.220946,266.944000,-12.738910
2772.639032,267.004000,-9.483660
2781.053334,267.064000,38.010560
2789.463857,267.124000,-101.913550
2797.870602,267.184000,82.547830
2806.273573,267.244000,35.244860
2814.672771,267.304000,64.518240
2823.068200,267.364000,7.653800
2831.459861,267.424000,36.540040
2839.847757,267.484000,36.788310
2848.231891,267.544000,30.766570
2856.612266,267.604000,41.518790
2864.988884,267.664000,14.276900
2873.361747,267.724000,26.230500
2881.730857,267.784000,42.715850
2890.096219,267.844000,19.654470
2898.457833,267.904000,10.121470
2906.815703,267.964000,35.526470
2915.169831,268.024000,31.558220
2923.520219,268.084000,41.857340
2931.866870,268.144000,13.940030
2940.209787,268.204000,-6.673270
2948.410016,268.263000,-34.313240
2956.745534,268.323000,-17.653830
2965.077324,268.383000,2.865640
2973.405390,268.443000,-33.718350
2981.729735,268.503000,-7.477160
2989.911713,268.562000,-22.636960
2998.228682,268.622000,5.703920
3006.541937,268.682000,-2.623760
3014.851480,268.742000,-75.599140
3023.018913,268.801000,-37.540500
3031.321101,268.861000,-47.841820
3039.619584,268.921000,-64.109770
3047.776149,268.980000,-83.000260
3056.067292,269.040000,-57.779570
3064.216644,269.099000,-19.138530
3072.500457,269.159000,23.844820
3080.780577,269.219000,17.347600
3088.919097,269.278000,57.194670
3097.191901,269.338000,-2.235550
3105.323232,269.397000,-23.680560
3113.588730,269.457000,53.898180
3121.712881,269.516000,33.310890
3129.971082,269.576000,28.921570
3138.088063,269.635000,42.488830
3146.338978,269.695000,27.055960
3154.448798,269.754000,11.556600
3162.692435,269.814000,33.240170
3170.795104,269.873000,16.219570
3178.894231,269.932000,18.402560
3187.127001,269.992000,9.367500
3195.218991,270.051000,-30.953950
3203.307445,270.110000,-0.914070
3211.529370,270.170000,14.889240
3219.610701,270.229000,-24.351210
3227.688505,270.288000,26.061990
3235.899605,270.348000,62.685530
3243.970299,270.407000,45.566830
3252.037473,270.466000,29.167730
3260.101128,270.525000,19.704350
3268.297848,270.585000,18.476100
3276.354413,270.644000,-11.746570
3284.407466,270.703000,34.172060
3292.457009,270.762000,114.540300
3300.503044,270.821000,44.483190
3308.545575,270.880000,-32.632770
3316.720828,270.940000,4.057450
3324.756296,270.999000,-3.465060
3332.788267,271.058000,-0.016310
3340.816741,271.117000,-0.319210
3348.841722,271.176000,35.505520
3356.863212,271.235000,-9.581650
3364.881213,271.294000,-49.160110
3372.895727,271.353000,54.090060
3380.906756,271.412000,54.122550
3388.914304,271.471000,-7.106080
3396.918371,271.530000,-6.605670
3404.918961,271.589000,15.896120
3412.916076,271.648000,4.497780
3420.909718,271.707000,13.632970
3428.899888,271.766000,-58.451180
3436.886591,271.825000,-13.047590
3444.734546,271.883000,52.885430
3452.714377,271.942000,21.679650
3460.690746,272.001000,-21.720340
3468.663655,272.060000,-22.580700
3476.633107,272.119000,-27.029360
3484.599104,272.178000,-64.973070
3492.426718,272.236000,-60.631080
3500.385870,272.295000,-21.932370
3508.341573,272.354000,-71.363620
3516.293830,272.413000,24.438380
3524.107947,272.471000,14.438010
3532.053377,272.530000,38.288800
3539.995368,272.589000,5.294170
3547.799398,272.647000,20.002470
3555.734574,272.706000,12.264350
3563.666318,272.765000,12.891760
3571.460282,272.823000,21.320860
3579.385225,272.882000,58.077230
3587.306741,272.941000,-11.269970
3595.090658,272.999000,-5.322010
3603.005387,273.058000,2.212670
3610.782635,273.116000,37.536900
3618.690585,273.175000,-4.074510
3626.461173,273.233000,13.284090
3634.362353,273.292000,35.628720
3642.126290,273.350000,45.658140
3650.020708,273.409000,41.138560
3657.778002,273.467000,6.580740
3665.665667,273.526000,35.666780
3673.416327,273.584000,16.008620
3681.163701,273.642000,17.039060
3689.041282,273.701000,-16.970500
3696.782035,273.759000,55.594900
3704.652885,273.818000,90.473100
3712.387025,273.876000,-7.545810
3720.117889,273.934000,6.860540
3727.845481,273.992000,0.040080
3735.702951,274.051000,-7.728730
3743.423947,274.109000,-55.912040
3751.141676,274.167000,-6.507540
3758.989119,274.226000,40.362690
3766.700265,274.284000,9.397340
3774.408150,274.342000,9.439320
3782.112776,274.400000,43.035010
3789.814146,274.458000,17.373670
3797.644960,274.517000,-62.310010
3805.339767,274.575000,13.846450
3813.031324,274.633000,24.728350
3820.719634,274.691000,74.647340
3828.404697,274.749000,3.539950
3836.086516,274.807000,58.041870
3843.765093,274.865000,9.999870
3851.440431,274.923000,30.744330
3859.112530,274.981000,28.962740
3866.781394,275.039000,-4.292920
3874.447024,275.097000,-0.000160
3882.109423,275.155000,6.409170
3889.768591,275.213000,22.070880
3897.424533,275.271000,-1.279600
3905.077248,275.329000,1.842910
3912.726740,275.387000,-49.944110
3920.373011,275.445000,-51.084350
3928.016062,275.503000,51.693120
3935.655896,275.561000,78.810580
3943.292514,275.619000,30.814170
3950.925919,275.677000,-2.547980
3958.424585,275.734000,43.621330
3966.051625,275.792000,36.158410
3973.675457,275.850000,56.006710
3981.296084,275.908000,85.945480
3988.913508,275.966000,50.679200
3996.396478,276.023000,54.766800
4004.007557,276.081000,16.077140
4011.615438,276.139000,16.372780
4019.220124,276.197000,28.075710
4026.690584,276.254000,10.020590
4034.288940,276.312000,-18.626000
4041.884108,276.370000,19.901580
4049.345219,276.427000,63.228490
4056.934068,276.485000,100.818160
4064.519735,276.543000,57.875990
4071.971515,276.600000,98.402860
4079.550876,276.658000,70.918080
4086.996462,276.715000,-37.418020
4094.569525,276.773000,10.066760
4102.008927,276.830000,28.816210
4109.575700,276.888000,47.396620
4117.008923,276.945000,51.937460
4124.569414,277.003000,37.242730
4131.996467,277.060000,43.366820
4139.550684,277.118000,12.124180
4146.971575,277.175000,4.713790
4154.519525,277.233000,9.475390
4161.934262,277.290000,53.504200
4169.475953,277.348000,25.801340
4228.011654,277.799000,19.423210
4235.396210,277.856000,57.376500
4242.907211,277.914000,10.006850
4250.415077,277.972000,0.317120
4257.790445,278.029000,-1.969630
4265.292102,278.087000,-16.314060
4272.790631,278.145000,19.193480
4280.156828,278.202000,61.656250
4287.649159,278.260000,18.500820
4295.138368,278.318000,55.080060
4302.495411,278.375000,-27.421400
4309.978434,278.433000,18.258800
4317.329402,278.490000,41.460310
4324.806246,278.548000,53.306300
4332.151147,278.605000,87.531590
4339.621821,278.663000,-13.559390
4346.960661,278.720000,27.473550
4354.425172,278.778000,10.937660
4361.757959,278.835000,73.967040
4369.216314,278.893000,44.332190
4376.543056,278.950000,18.225960
4383.995264,279.008000,-17.749390
4391.315968,279.065000,17.816310
4398.762036,279.123000,32.211690
4406.076709,279.180000,28.374960
4413.516644,279.238000,66.172050
4420.825295,279.295000,73.868790
4428.130962,279.352000,66.065350
4435.561740,279.410000,45.096700
4442.861395,279.467000,64.347500
4450.158074,279.524000,62.201210
4457.579711,279.582000,83.531510
4464.870389,279.639000,66.411920
4472.158095,279.696000,64.692060
4479.570607,279.754000,10.620040
4486.852324,279.811000,76.536890
4494.131074,279.868000,0.563450
4501.534479,279.926000,47.260490
4508.807251,279.983000,32.748090
4516.077062,280.040000,-34.521390
4523.343914,280.097000,-5.052570
4530.735220,280.155000,19.053200
4537.996108,280.212000,-33.607290
4545.254043,280.269000,7.418870
4552.509026,280.326000,6.673800
4559.888262,280.384000,-19.962280
4567.137295,280.441000,-28.827660
4574.383383,280.498000,13.319030
4581.626526,280.555000,25.937350
4588.866727,280.612000,24.486190
4596.103987,280.669000,15.621210
4603.338308,280.726000,-15.777880
4610.696532,280.784000,65.329760
4617.924929,280.841000,33.535530
4625.150392,280.898000,60.141110
4632.372923,280.955000,31.542110
4639.592525,281.012000,63.171180
4646.809198,281.069000,27.830780
4654.022945,281.126000,65.576540
4661.233767,281.183000,47.744900
4668.441666,281.240000,-10.317020
4675.646644,281.297000,11.882670
4682.848703,281.354000,8.993210
4690.047844,281.411000,30.129280
4697.244070,281.468000,15.105920
4704.437381,281.525000,29.005520
4711.627780,281.582000,-0.268870
4718.815269,281.639000,110.596620
4725.999849,281.696000,44.945700
4733.181522,281.753000,107.062180
4740.360290,281.810000,72.932430
4747.536154,281.867000,-35.931510
4754.583300,281.923000,94.032910
4761.753414,281.980000,81.879410
4768.920629,282.037000,-4.802860
4776.084949,282.094000,65.504710
4783.246373,282.151000,69.550170
4790.404904,282.208000,7.402610
4797.435032,282.264000,24.762550
4804.587834,282.321000,9.794340
4811.737748,282.378000,77.831520
4818.884776,282.435000,15.982320
4826.028920,282.492000,66.548590
4833.044920,282.548000,-3.975870
4840.183352,282.605000,27.142520
4847.318904,282.662000,9.918110
4854.451579,282.719000,0.278320
4861.456319,282.775000,-73.446290
4868.583295,282.832000,5.942070
4875.707399,282.889000,67.785840
4882.703723,282.945000,-0.039310
4889.822139,283.002000,43.443400
4896.937687,283.059000,79.337720
4903.925611,283.115000,1.471440
4911.035481,283.172000,6.455410
4918.142490,283.229000,43.746290
4925.122029,283.285000,52.656230
4932.223369,283.342000,-0.189290
4939.197342,283.398000,88.458340
4946.293021,283.455000,69.988260
4953.385847,283.512000,102.020910
4960.351460,283.568000,95.384030
4967.438635,283.625000,93.432730
4974.398699,283.681000,55.360820
4981.480229,283.738000,120.330880
4988.434752,283.794000,149.539140
4995.510644,283.851000,123.732690
5002.459631,283.907000,133.465390
5009.529893,283.964000,116.821950
5016.473351,284.020000,129.198440
5023.537988,284.077000,138.752570
5030.475924,284.133000,116.331470
5037.534943,284.190000,104.044540
5044.467363,284.246000,72.759260
5051.397052,284.302000,78.640350
5058.447683,284.359000,136.277130
5065.371866,284.415000,126.980960
5072.416896,284.472000,134.104110
5079.335580,284.528000,65.150860
5086.251541,284.584000,111.983590
5093.288207,284.641000,147.786310
5100.198678,284.697000,168.499910
5107.106432,284.753000,157.425350
5114.134748,284.810000,143.732520
5121.037022,284.866000,135.978520
5127.936582,284.922000,134.132000
5134.833431,284.978000,134.465600
5141.850655,285.035000,62.934360
5148.742037,285.091000,198.968260
5155.630712,285.147000,192.123080
5162.516682,285.203000,107.032960
5169.522840,285.260000,130.747260
5176.403356,285.316000,133.908670
5183.281172,285.372000,153.219350
5190.156289,285.428000,228.658300
5197.028709,285.484000,215.451470
5204.021082,285.541000,161.074880
5210.888064,285.597000,209.529340
5217.752353,285.653000,127.599910
5224.613952,285.709000,51.835810
5231.472862,285.765000,-17.892060
5238.329083,285.821000,181.615940
5245.182619,285.877000,151.155620
5252.033470,285.933000,147.354750
5258.881638,285.989000,145.545520
5265.727125,286.045000,85.141220
5272.569932,286.101000,192.118880
5279.532182,286.158000,200.701960
5286.369586,286.214000,152.880680
5293.204315,286.270000,87.790700
5300.036371,286.326000,167.330300
5306.865755,286.382000,232.709230
5313.692468,286.438000,185.951030
5320.516513,286.494000,135.678640
5327.216104,286.549000,153.839800
5334.034863,286.605000,161.488250
5340.850958,286.661000,23.518730
5347.664391,286.717000,154.323620
5354.475163,286.773000,144.962150
5361.283275,286.829000,146.485550
5368.088729,286.885000,190.764890
5374.891528,286.941000,155.577220
5381.691671,286.997000,177.748260
5388.489161,287.053000,96.180390
5395.162686,287.108000,150.854150
5401.954922,287.164000,182.076500
5408.744509,287.220000,67.022470
5415.531448,287.276000,189.073630
5422.315743,287.332000,158.801680
5428.976316,287.387000,185.630240
5435.755371,287.443000,202.816350
5442.531785,287.499000,189.282830
5449.305560,287.555000,183.270340
5456.076697,287.611000,178.677050
5462.724355,287.666000,176.138440
5469.490268,287.722000,167.844470
5476.253548,287.778000,204.327060
5482.893494,287.833000,161.261840
5489.651559,287.889000,194.218110
5496.406995,287.945000,174.700810
5503.039242,288.000000,183.350270
5509.789473,288.056000,129.992440
5516.537079,288.112000,118.812540
5523.161640,288.167000,86.881840
5529.904050,288.223000,151.613060
5536.643840,288.279000,146.584170
5543.260729,288.334000,181.873050
5549.995332,288.390000,197.401730
5556.607128,288.445000,181.542210
5563.336549,288.501000,218.395400
5569.943259,288.556000,176.540820
5576.667504,288.612000,179.204090
5583.269134,288.667000,99.510800
5589.988209,288.723000,119.922120
5596.584764,288.778000,83.719810
5603.298676,288.834000,111.760730
5609.890162,288.889000,150.480310
5616.598916,288.945000,212.585180
5623.185340,289.000000,173.759420
5629.888941,289.056000,120.937320
5636.470308,289.111000,98.088530
5643.168763,289.167000,149.680860
5649.745079,289.222000,127.664530
5656.438394,289.278000,180.722080
5663.009664,289.333000,177.430000
5669.578437,289.388000,203.510850
5676.264076,289.444000,214.876590
5682.827812,289.499000,260.722580
5689.389054,289.554000,258.857120
5696.067030,289.610000,212.640390
5702.623244,289.665000,258.719270
5709.176969,289.720000,190.716470
5715.847296,289.776000,238.449140
5722.396001,289.831000,175.999320
5728.942221,289.886000,229.231020
5735.485958,289.941000,164.205720
5742.146122,289.997000,249.574480
5748.684850,290.052000,196.840940
5755.221100,290.107000,186.171930
5761.754871,290.162000,165.050760
5768.404894,290.218000,135.071540
5774.933669,290.273000,263.980280
5781.459971,290.328000,246.493350
5787.983800,290.383000,262.738370
5794.505158,290.438000,234.445990
5801.142550,290.494000,239.937880
5807.658926,290.549000,209.819950
5814.172835,290.604000,261.997330
5820.684279,290.659000,241.873490
5827.193260,290.714000,249.649210
5833.699778,290.769000,224.551660
5840.203835,290.824000,229.379150
5846.705432,290.879000,161.609820
5853.204572,290.934000,155.468580
5859.701254,290.989000,110.178680
5866.195481,291.044000,273.101230
5872.687254,291.099000,222.351440
5879.176574,291.154000,184.795280
5885.663444,291.209000,206.750200
5892.147863,291.264000,165.445010
5898.629834,291.319000,211.661120
5905.109357,291.374000,183.910580
5911.586435,291.429000,245.913080
5918.061069,291.484000,237.471420
5924.533260,291.539000,191.002220
5931.003009,291.594000,297.554010
5937.470318,291.649000,173.659800
5943.935188,291.704000,247.936370
5950.397621,291.759000,152.700920
5956.857618,291.814000,194.394050
5963.315180,291.869000,173.500950
5969.770309,291.924000,322.188530
5976.105706,291.978000,234.680870
5982.556017,292.033000,224.096510
5989.003898,292.088000,234.821890
5995.449352,292.143000,210.067040
6001.892379,292.198000,172.916490
6008.215901,292.252000,197.113730
6014.654123,292.307000,161.617000
6021.089923,292.362000,211.504540
6027.523303,292.417000,220.132810
6033.954262,292.472000,263.248270
6040.265942,292.526000,253.912560
6046.692111,292.581000,292.211970
6053.115864,292.636000,253.999000
6059.420472,292.690000,259.994710
6065.839442,292.745000,377.288380
6072.256000,292.800000,261.579320
6078.553548,292.854000,260.619340
6084.965331,292.909000,318.475310
6091.374707,292.964000,241.805030
6097.665207,293.018000,225.551820
6104.069816,293.073000,202.754850
6110.472021,293.128000,248.527010
6116.755485,293.182000,247.023810
6123.152931,293.237000,196.379110
6129.431725,293.291000,254.990910
6135.824417,293.346000,239.643320
6142.098547,293.400000,267.645380
6148.486490,293.455000,299.462750
6154.872040,293.510000,236.243290
6161.139160,293.564000,235.516760
6167.519969,293.619000,273.239730
6173.782438,293.673000,282.035390
6180.158512,293.728000,234.085390
6186.416334,293.782000,223.717680
6192.787678,293.837000,241.888610
6199.040859,293.891000,171.621190
6205.291742,293.945000,296.908720
6211.656022,294.000000,244.993260
6217.902272,294.054000,278.861260
6224.261835,294.109000,285.600650
6230.503456,294.163000,239.476960
6236.742786,294.217000,282.313080
6243.095305,294.272000,311.097720
6249.330014,294.326000,294.842620
6255.677829,294.381000,342.931310
6261.907923,294.435000,286.690580
6268.135731,294.489000,264.822210
6274.476522,294.544000,241.154830
6280.699722,294.598000,268.243050
6286.920642,294.652000,251.241110
6293.139281,294.706000,266.515350
6299.470739,294.761000,274.862040
6305.684781,294.815000,298.412770
6311.896546,294.869000,302.590770
6318.106037,294.923000,296.251360
6324.428182,294.978000,262.983180
6330.633085,295.032000,290.519230
6336.835717,295.086000,221.519260
6343.036080,295.140000,243.099230
6349.234174,295.194000,153.007820
6355.544717,295.249000,293.781500
6361.738236,295.303000,253.324520
6367.929490,295.357000,221.404610
6374.118480,295.411000,168.308230
6380.305209,295.465000,185.033590
6386.489676,295.519000,261.190490
6392.671884,295.573000,288.186110
6398.851833,295.627000,303.543010
6405.143905,295.682000,256.689610
6411.319300,295.736000,313.130410
6417.492439,295.790000,233.150320
6423.663325,295.844000,257.101530
6429.831958,295.898000,226.460110
6435.998340,295.952000,243.553550
6442.162473,296.006000,207.010020
6448.324357,296.060000,287.928350
6454.483993,296.114000,260.790740
6460.641384,296.168000,262.531550
6466.796529,296.222000,301.849870
6472.949431,296.276000,252.787620
6479.100090,296.330000,209.171770
6485.248508,296.384000,250.683890
6491.280888,296.437000,171.219580
6497.424869,296.491000,211.487170
6503.566612,296.545000,215.527660
6509.706118,296.599000,199.202230
6515.843390,296.653000,83.169870
6521.978427,296.707000,235.810620
6528.111232,296.761000,311.222880
6534.241805,296.815000,278.676370
6540.256681,296.868000,278.046950
6546.382836,296.922000,219.712400
6552.506763,296.976000,236.648330
6558.628464,297.030000,236.154800
6564.747939,297.084000,232.323680
6570.751928,297.137000,239.571430
6576.866997,297.191000,221.423830
6582.979845,297.245000,277.974870
6589.090471,297.299000,278.998280
6595.085780,297.352000,242.274180
6601.192010,297.406000,256.538020
6607.296023,297.460000,240.465310
6613.397821,297.514000,247.850930
6619.384468,297.567000,256.601690
6625.481879,297.621000,259.609360
6631.577077,297.675000,286.712500
6637.557251,297.728000,266.056450
6643.648069,297.782000,251.855740
6649.623947,297.835000,432.783290
6655.710390,297.889000,241.240580
6661.794627,297.943000,229.359550
6667.764048,297.996000,326.679610
6673.843917,298.050000,276.579830
6679.809053,298.103000,293.667090
6685.884559,298.157000,264.960550
6691.957864,298.211000,285.895080
6697.916562,298.264000,308.990870
6703.985510,298.318000,295.726350
6709.939935,298.371000,327.271280
6716.004532,298.425000,388.426940
6721.954688,298.478000,336.217260
6728.014938,298.532000,283.443070
6733.960830,298.585000,179.888440
6739.904611,298.638000,312.550260
6745.958369,298.692000,288.549520
6751.897893,298.745000,278.546840
6757.947317,298.799000,239.851040
6763.882588,298.852000,277.785710
6769.927680,298.906000,255.659150
6775.858703,298.959000,280.570350
6781.787624,299.012000,252.573380
6787.826249,299.066000,280.421950
6793.750928,299.119000,306.898950
6799.673508,299.172000,281.500290
6805.705677,299.226000,230.079050
6811.624022,299.279000,289.879410
6817.540272,299.332000,280.805770
6823.565994,299.386000,262.944390
6829.478016,299.439000,292.767350
6835.387945,299.492000,257.932340
6841.407231,299.546000,311.556780
6847.312940,299.599000,216.603410
6853.216559,299.652000,268.577990
6859.118090,299.705000,308.418860
6865.017534,299.758000,315.254360
6871.026143,299.812000,265.108030
6876.921378,299.865000,276.907150
6882.814529,299.918000,221.405720
6888.705597,299.971000,275.515520
6894.594584,300.024000,313.415020
6900.592545,300.078000,307.973590
6906.477333,300.131000,294.213870
6912.360044,300.184000,301.248690
6918.240677,300.237000,319.929160
6924.119235,300.290000,249.259350
6929.995718,300.343000,309.062420
6935.870127,300.396000,321.535370
6941.742464,300.449000,304.122810
6947.612730,300.502000,363.756050
6953.480925,300.555000,310.017400
6959.347051,300.608000,286.112350
6965.211108,300.661000,245.488040
6971.073099,300.714000,366.154220
6976.933024,300.767000,304.990310
6982.790884,300.820000,291.182150
6988.646680,300.873000,309.077280
6994.500413,300.926000,348.698370
7000.352085,300.979000,301.400640
7006.201696,301.032000,300.369750
7012.049248,301.085000,331.021510
7017.894742,301.138000,255.193260
7023.738178,301.191000,342.739530
7029.579559,301.244000,244.163740
7035.418884,301.297000,275.055540
7041.256155,301.350000,271.258790
7047.091373,301.403000,329.140960
7052.924539,301.456000,283.166680
7058.645653,301.508000,296.657180
7064.474758,301.561000,337.288390
7070.301814,301.614000,287.037190
7076.126822,301.667000,347.896190
7081.949784,301.720000,322.903760
7087.660892,301.772000,250.448280
7093.479803,301.825000,332.431030
7099.296670,301.878000,320.304450
7105.111496,301.931000,251.348700
7110.814624,301.983000,276.985460
7116.625408,302.036000,354.309210
7122.434152,302.089000,290.145930
7128.240858,302.142000,351.542440
7133.936024,302.194000,300.637570
7139.738696,302.247000,308.100370
7145.539334,302.300000,304.627220
7151.228549,302.352000,313.323420
7157.025159,302.405000,314.295720
7162.819737,302.458000,292.404450
7168.503010,302.510000,287.423460
7174.293567,302.563000,286.679170
7180.082095,302.616000,232.474750
7185.759436,302.668000,257.882500
7191.543949,302.721000,274.837190
7197.217352,302.773000,231.978320
7202.997854,302.826000,290.358680
7208.667324,302.878000,264.906040
7214.443819,302.931000,417.687510
7220.109360,302.983000,252.954490
7225.881853,303.036000,347.435230
7231.543468,303.088000,285.677210
7237.311962,303.141000,293.867820
7242.969657,303.193000,369.003500
7248.734156,303.246000,328.397620
7254.387934,303.298000,304.793300
7260.148443,303.351000,300.611610
7265.798308,303.403000,372.717350
7271.554831,303.456000,456.606220
7277.200787,303.508000,344.024530
7282.953328,303.561000,283.117950
7288.595379,303.613000,284.398450
7294.235498,303.665000,302.019150
7299.982093,303.718000,232.004610
7305.618313,303.770000,312.396890
7311.252604,303.822000,315.318970
7316.993262,303.875000,234.758410
7322.623660,303.927000,353.152280
7328.252131,303.979000,382.297610
7333.986862,304.032000,305.298630
7339.611446,304.084000,348.394840
7345.234108,304.136000,338.954920
7350.962920,304.189000,294.085690
7356.581700,304.241000,323.188330
7362.198561,304.293000,337.417390
7367.813502,304.345000,327.399260
7373.426525,304.397000,333.147740
7379.145517,304.450000,407.426490
7384.754669,304.502000,317.011810
7390.361906,304.554000,355.804220
7395.967228,304.606000,348.714890
7401.570637,304.658000,349.048030
7407.279836,304.711000,309.535160
7412.879384,304.763000,276.749140
7418.477021,304.815000,274.908510
7424.072749,304.867000,321.992330
7429.666569,304.919000,285.288200
7435.258480,304.971000,352.898120
7440.848486,305.023000,330.626800
7446.436585,305.075000,387.513390
7452.022780,305.127000,355.328720
7457.607071,305.179000,349.635470
7463.296795,305.232000,339.834310
7468.877245,305.284000,327.646880
7474.455794,305.336000,377.115960
7480.032444,305.388000,289.847690
7485.607195,305.440000,381.594270
7491.180048,305.492000,363.310680
7496.751004,305.544000,303.554190
7502.212985,305.595000,369.704560
7507.780187,305.647000,344.648310
7513.345495,305.699000,263.397980
7518.908909,305.751000,394.080570
7524.470432,305.803000,320.468020
7530.030064,305.855000,395.337070
7535.587805,305.907000,339.523470
7541.143658,305.959000,322.604970
7546.697622,306.011000,326.452040
7552.249699,306.063000,367.285170
7557.693173,306.114000,367.938260
7563.241514,306.166000,346.087730
7568.787971,306.218000,315.711400
7574.332545,306.270000,419.838060
7579.875237,306.322000,445.025110
7585.416047,306.374000,377.952420
7590.848476,306.425000,340.763670
7596.385562,306.477000,288.083700
7601.920769,306.529000,173.919120
7607.454098,306.581000,295.861310
7612.879195,306.632000,340.917260
7618.408808,306.684000,296.921370
7623.936546,306.736000,294.140710
7629.462411,306.788000,365.318010
7634.880189,306.839000,347.034670
7640.402345,306.891000,350.657550
7645.922629,306.943000,316.856670
7651.334938,306.994000,277.017420
7656.851519,307.046000,335.852390
7662.260197,307.097000,323.741830
7667.773079,307.149000,353.399790
7673.284094,307.201000,322.154590
7678.687317,307.252000,306.092900
7684.194638,307.304000,347.662730
7689.700096,307.356000,430.121150
7695.097870,307.407000,381.507230
7700.599639,307.459000,435.640440
7705.993798,307.510000,353.005230
7711.491883,307.562000,383.537470
7716.882430,307.613000,302.221010
7722.376833,307.665000,371.061900
7727.763772,307.716000,371.873090
7733.254498,307.768000,344.701710
7738.637831,307.819000,354.165680
7744.124884,307.871000,348.167220
7749.504617,307.922000,389.298300
7754.988000,307.974000,370.888510
7760.364134,308.025000,350.811110
7765.738489,308.076000,341.475750
7771.216392,308.128000,321.380240
7776.587155,308.179000,335.071050
7782.061397,308.231000,383.010750
7787.428571,308.282000,370.743980
7792.793970,308.333000,322.865380
7798.262745,308.385000,359.309020
7803.624561,308.436000,372.457920
7808.984603,308.487000,346.450950
7814.447920,308.539000,356.073620
7819.804385,308.590000,437.163330
7825.159080,308.641000,362.184150
7830.616947,308.693000,372.859550
7835.968069,308.744000,391.383770
7841.317424,308.795000,344.090720
7846.665012,308.846000,376.292690
7852.115636,308.898000,376.616180
7857.459659,308.949000,380.015300
7862.801917,309.000000,361.865110
7868.142413,309.051000,369.523240
7873.481146,309.102000,318.384720
7878.922746,309.154000,387.199000
7884.257923,309.205000,333.608590
7889.591340,309.256000,358.454980
7894.922998,309.307000,360.253800
7900.252898,309.358000,374.906690
7905.581041,309.409000,367.455340
7910.907428,309.460000,357.600060
7916.336447,309.512000,374.706130
7921.659290,309.563000,443.429820
7926.980379,309.614000,326.009890
7932.299715,309.665000,303.410980
7937.617300,309.716000,412.411320
7942.933134,309.767000,377.230740
7948.247217,309.818000,402.875220
7953.559551,309.869000,392.384660
7958.870137,309.920000,352.204920
7964.178976,309.971000,386.627400
7969.486068,310.022000,347.735050
7974.791414,310.073000,367.086780
7980.095015,310.124000,353.045000
7985.396872,310.175000,332.728100
7990.696985,310.226000,315.289830
7995.995357,310.277000,364.634770
8001.291987,310.328000,349.789610
8006.586876,310.379000,385.097420
8011.880026,310.430000,328.190370
8017.067700,310.480000,381.772050
8022.357406,310.531000,409.171590
8027.645376,310.582000,391.331160
8032.931609,310.633000,406.678630
8038.216106,310.684000,377.240050
8043.498869,310.735000,375.360320
8048.779898,310.786000,358.302670
8053.955695,310.836000,346.943720
8059.233293,310.887000,421.838820
8064.509160,310.938000,412.078710
8069.783296,310.989000,310.975570
8074.952339,311.039000,389.841040
8080.223051,311.090000,354.556940
8085.492035,311.141000,400.765290
8090.759292,311.192000,378.690860
8095.921594,311.242000,368.567700
8101.185433,311.293000,388.765400
8106.447548,311.344000,342.919870
8111.604811,311.394000,334.800440
8116.863513,311.445000,361.528880
8122.120493,311.496000,368.734590
8127.272724,311.546000,438.376920
8132.526297,311.597000,409.629520
8137.778150,311.648000,426.940600
8142.925357,311.698000,439.139370
8148.173807,311.749000,466.078190
8153.420541,311.800000,437.417870
8158.562731,311.850000,433.370960
8163.806066,311.901000,364.132230
8168.944927,311.951000,413.569220
8174.184869,312.002000,412.259560
8179.320403,312.052000,493.556310
8184.556953,312.103000,370.836270
8189.689165,312.153000,324.014530
8194.922327,312.204000,421.793530
8200.051219,312.254000,390.715820
8205.280996,312.305000,370.793400
8210.406572,312.355000,399.348220
8215.632968,312.406000,434.931710
8220.755230,312.456000,403.306560
8225.978248,312.507000,475.823040
8231.097200,312.557000,343.261730
8236.316843,312.608000,315.522590
8241.432488,312.658000,336.243120
8246.546497,312.708000,393.798430
8251.761101,312.759000,369.497540
8256.871808,312.809000,383.616750
8261.980881,312.859000,426.123080
8267.190453,312.910000,476.567940
8272.296229,312.960000,393.214740
8277.400373,313.010000,437.482900
8282.604921,313.061000,414.708020
8287.705773,313.111000,435.617310
8292.804996,313.161000,439.444080
8298.004526,313.212000,415.111330
8303.100462,313.262000,437.388410
8308.194770,313.312000,474.155690
8313.287453,313.362000,355.149290
8318.480316,313.413000,396.447940
8323.569717,313.463000,503.309470
8328.657496,313.513000,435.860080
8333.743651,313.563000,422.527220
8338.828185,313.613000,442.466960
8344.012739,313.664000,479.871920
8349.094000,313.714000,485.302240
8354.173640,313.764000,440.989410
8359.251662,313.814000,369.881100
8364.328066,313.864000,419.961290
8369.402853,313.914000,362.631060
8374.476024,313.964000,431.173440
8379.547579,314.014000,354.124550
8384.718901,314.065000,429.204680
8389.787195,314.115000,360.609510
8394.853876,314.165000,348.910980
8399.918944,314.215000,370.747600
8404.982400,314.265000,390.648070
8410.044246,314.315000,401.886480
8415.104481,314.365000,451.445140
8420.163107,314.415000,461.169940
8425.220124,314.465000,508.494860
8430.275533,314.515000,512.300760
8435.329336,314.565000,445.179230
8440.381532,314.615000,490.333060
8445.432122,314.665000,464.693610
8450.481107,314.715000,451.813590
8455.528489,314.765000,515.839400
8460.473367,314.814000,468.493060
8465.517575,314.864000,444.103180
8470.560181,314.914000,537.067500
8475.601186,314.964000,438.990480
8480.640590,315.014000,454.187900
8485.678395,315.064000,445.661600
8490.714602,315.114000,487.129950
8495.749210,315.164000,455.762160
8500.681577,315.213000,471.406550
8505.713024,315.263000,442.874550
8510.742875,315.313000,467.076640
8515.771131,315.363000,528.358740
8520.797793,315.413000,507.654050
8525.722375,315.462000,470.434580
8530.745883,315.512000,459.387270
8535.767799,315.562000,413.986480
8540.788124,315.612000,474.030220
8545.706499,315.661000,482.950320
8550.723675,315.711000,434.147240
8555.739262,315.761000,413.258070
8560.652997,315.810000,449.964670
8565.665441,315.860000,463.928210
8570.676298,315.910000,502.785710
8575.585399,315.959000,445.539420
8580.593116,316.009000,387.775500
8585.599249,316.059000,499.414290
8590.503723,316.108000,461.469640
8595.506721,316.158000,465.453870
8600.508137,316.208000,507.239370
8605.407991,316.257000,529.513540
8610.406276,316.307000,527.229610
8615.303063,316.356000,616.594000
8620.298221,316.406000,558.197540
8625.191944,316.455000,405.530370
8630.183977,316.505000,449.862220
8635.074640,316.554000,524.823090
8640.063551,316.604000,499.127510
8644.951156,316.653000,481.136730
8649.936949,316.703000,475.814050
8654.821499,316.752000,531.822340
8659.804175,316.802000,516.488400
8664.685673,316.851000,516.865640
8669.665237,316.901000,391.330270
8674.543685,316.950000,548.022230
8679.520139,317.000000,479.946580
8684.395541,317.049000,506.132380
8689.269436,317.098000,456.923600
8694.241247,317.148000,487.989400
8699.112100,317.197000,463.275760
8703.981448,317.246000,521.447220
8708.948621,317.296000,542.998760
8713.814931,317.345000,529.840560
8718.779005,317.395000,572.922830
8723.642281,317.444000,552.244560
8728.504055,317.493000,563.615350
8733.364329,317.542000,549.852150
8738.322247,317.592000,512.399080
8743.179491,317.641000,573.793740
8748.035237,317.690000,508.130790
8752.889486,317.739000,566.865960
8757.841258,317.789000,528.772050
8762.692483,317.838000,490.362360
8767.542212,317.887000,615.685680
8772.390446,317.936000,535.670820
8777.336084,317.986000,513.143010
8782.181300,318.035000,546.557850
8787.025024,318.084000,569.135640
8791.867255,318.133000,592.184670
8796.707995,318.182000,496.186930
8801.547244,318.231000,483.919760
8806.385003,318.280000,597.009020
8811.319957,318.330000,553.762870
8816.154708,318.379000,568.036630
8820.987971,318.428000,580.655650
8825.819746,318.477000,621.104430
8830.650035,318.526000,535.064790
8835.478838,318.575000,552.855650
8840.306156,318.624000,546.890170
8845.131990,318.673000,566.876300
8849.956339,318.722000,467.137890
8854.779206,318.771000,567.356970
8859.600590,318.820000,604.997780
8864.420492,318.869000,621.587520
8869.238913,318.918000,570.092110
8874.055854,318.967000,584.343450
8878.871314,319.016000,618.627380
8883.685296,319.065000,664.507900
8888.497800,319.114000,589.213270
8893.308826,319.163000,678.121980
8898.118374,319.212000,607.227470
8902.926447,319.261000,552.275840
8907.634964,319.309000,613.518220
8912.440116,319.358000,672.462400
8917.243794,319.407000,655.419890
8922.045998,319.456000,613.567220
8926.846729,319.505000,620.035840
8931.645988,319.554000,633.892420
8936.443775,319.603000,616.310760
8941.142222,319.651000,653.090800
8945.937098,319.700000,570.462350
8950.730504,319.749000,667.522080
8955.522441,319.798000,629.018270
8960.215161,319.846000,641.507400
8965.004192,319.895000,637.706440
8969.791757,319.944000,647.510560
8974.577855,319.993000,692.084130
8979.264858,320.041000,663.302320
8984.048055,320.090000,588.472770
8988.829789,320.139000,660.135400
8993.512517,320.187000,643.713880
8998.291355,320.236000,677.002340
9003.068730,320.285000,697.571880
9007.747190,320.333000,645.048350
9012.521672,320.382000,649.020310
9017.294694,320.431000,686.528210
9021.968893,320.479000,666.468500
9026.739026,320.528000,653.137200
9031.410396,320.576000,672.189690
9036.177644,320.625000,669.771780
9040.943434,320.674000,649.078620
9045.610552,320.722000,638.577040
9050.373460,320.771000,594.809270
9055.037756,320.819000,652.061680
9059.797784,320.868000,662.395050
9064.459261,320.916000,630.284150
9069.216413,320.965000,636.314120
9073.875072,321.013000,686.146610
9078.629350,321.062000,698.818600
9083.285194,321.110000,623.631610
9088.036601,321.159000,695.006170
9092.689634,321.207000,716.526170
9097.438171,321.256000,672.269190
9102.088394,321.304000,687.754130
9106.737229,321.352000,754.771210
9111.481482,321.401000,654.665760
9116.127511,321.449000,721.968220
9120.868902,321.498000,774.126150
9125.512128,321.546000,797.363430
9130.153968,321.594000,668.703400
9134.891085,321.643000,710.112980
9139.530126,321.691000,779.766460
9144.167783,321.739000,638.670500
9148.900630,321.788000,654.534020
9153.535492,321.836000,648.841990
9158.168971,321.884000,673.770990
9162.801069,321.932000,717.180890
9167.528244,321.981000,744.327860
9172.157551,322.029000,730.162930
9176.785479,322.077000,793.400650
9181.412027,322.125000,723.998690
9186.133540,322.174000,744.214770
9190.757302,322.222000,796.209110
9195.379688,322.270000,789.866180
9200.000697,322.318000,740.699420
9204.620330,322.366000,769.457990
9209.334786,322.415000,726.132090
9213.951640,322.463000,730.159030
9218.567119,322.511000,779.086960
9223.181225,322.559000,782.167370
9227.793957,322.607000,766.796510
9232.405318,322.655000,741.068220
9237.015306,322.703000,819.566380
9241.623923,322.751000,803.823750
9246.231170,322.799000,840.399560
9250.932988,322.848000,779.621620
9255.537466,322.896000,796.956360
9260.140576,322.944000,792.925240
9264.742318,322.992000,764.565010
9269.342693,323.040000,804.359810
9273.941700,323.088000,813.324460
9278.539341,323.136000,746.239840
9283.135616,323.184000,765.498360
9287.730527,323.232000,778.940230
9292.324072,323.280000,772.406290
9296.916254,323.328000,700.659820
9301.411445,323.375000,787.482340
9306.000929,323.423000,802.059750
9310.589052,323.471000,790.988920
9315.175812,323.519000,791.422420
9319.761212,323.567000,754.631640
9324.345252,323.615000,787.308750
9328.927932,323.663000,821.316940
9333.509253,323.711000,815.725890
9338.089216,323.759000,906.040540
9342.572447,323.806000,836.276180
9347.149722,323.854000,852.470910
9351.725642,323.902000,836.328730
9356.300205,323.950000,790.477850
9360.873412,323.998000,867.912930
9365.350032,324.045000,864.011390
9369.920559,324.093000,863.424980
9374.489732,324.141000,780.248520
9379.057552,324.189000,816.379540
9383.528899,324.236000,820.698880
9388.094043,324.284000,823.698310
9392.657836,324.332000,838.215650
9397.125241,324.379000,834.660540
9401.686361,324.427000,826.309010
9406.246132,324.475000,870.590590
9410.804554,324.523000,909.067300
9415.266702,324.570000,761.920910
9419.822456,324.618000,834.942350
9424.281993,324.665000,839.143630
9428.835082,324.713000,837.926530
9433.386824,324.761000,824.458670
9437.842435,324.808000,902.505260
9442.391516,324.856000,890.676700
9446.844521,324.903000,913.217380
9451.390942,324.951000,911.870170
9455.936020,324.999000,942.746900
9460.385108,325.046000,876.123250
9464.927530,325.094000,914.967590
9469.374018,325.141000,826.623050
9473.913786,325.189000,789.059590
9478.357677,325.236000,871.189070
9482.894794,325.284000,959.628580
9487.336090,325.331000,922.240740
9491.870557,325.379000,943.575840
9496.309260,325.426000,920.267500
9500.746681,325.473000,918.792850
9505.277193,325.521000,910.951710
9509.712024,325.568000,993.264710
9514.239893,325.616000,1000.076840
9518.672137,325.663000,969.447370
9523.103102,325.710000,972.605530
9527.627024,325.758000,985.749170
9532.055405,325.805000,968.761950
9536.576689,325.853000,1020.800050
9541.002489,325.900000,975.699760
9545.427013,325.947000,952.976430
9549.850260,325.994000,967.822940
9554.366303,326.042000,942.182060
9558.786974,326.089000,987.506720
9563.206371,326.136000,943.817540
9567.718482,326.184000,974.598590
9572.135305,326.231000,918.258910
9576.550855,326.278000,1018.476510
9580.965134,326.325000,1035.934030
9585.472021,326.373000,948.859090
9589.883730,326.420000,990.029930
9594.294169,326.467000,1019.373050
9598.703338,326.514000,991.272120
9603.111238,326.561000,1041.878510
9607.611614,326.609000,979.705750
9612.016950,326.656000,1041.361660
9616.421019,326.703000,1049.656200
9620.823821,326.750000,1120.210040
9625.225356,326.797000,1044.164610
9629.625626,326.844000,1114.976970
9634.024630,326.891000,1065.702310
9638.422369,326.938000,1040.096220
9642.818845,326.985000,1055.374320
9647.214056,327.032000,1149.983190
9651.701479,327.080000,1089.080140
9656.094138,327.127000,1023.333240
9660.485535,327.174000,1078.647910
9664.875670,327.221000,1002.532610
9669.264544,327.268000,1085.152990
9673.652158,327.315000,1084.800460
9678.038512,327.362000,1025.357730
9682.423607,327.409000,1044.923540
9686.807443,327.456000,1079.653690
9691.190021,327.503000,1133.000270
9695.478134,327.549000,1116.050880
9699.858224,327.596000,1129.813040
9704.237057,327.643000,1110.311140
9708.614633,327.690000,1058.813290
9712.990955,327.737000,1091.509270
9717.366021,327.784000,1046.841260
9721.739833,327.831000,1102.684520
9726.112390,327.878000,1081.691530
9730.483695,327.925000,1115.939590
9734.760780,327.971000,1140.519380
9739.129606,328.018000,1102.899420
9743.497180,328.065000,1175.886670
9747.863503,328.112000,1073.650550
9752.228575,328.159000,1192.364320
9756.499562,328.205000,1096.247930
9760.862161,328.252000,1180.149550
9765.223511,328.299000,1141.609240
9769.583612,328.346000,1117.204110
9773.849737,328.392000,1166.864910
9778.207369,328.439000,1170.272240
9782.563754,328.486000,1098.399340
9786.918893,328.533000,1193.164200
9791.180163,328.579000,1171.399170
9795.532837,328.626000,1132.037570
9799.884266,328.673000,1167.482740
9804.141906,328.719000,1156.762780
9808.490874,328.766000,1138.156540
9812.838598,328.813000,1156.153310
9817.092614,328.859000,1159.848270
9821.437879,328.906000,1205.771510
9825.689490,328.952000,1202.189730
9830.032299,328.999000,1206.217840
9834.373868,329.046000,1166.646070
9838.621862,329.092000,1286.990650
9842.960977,329.139000,1283.263240
9847.206571,329.185000,1210.572270
9851.543235,329.232000,1254.211080
9855.786431,329.278000,1242.372780
9860.120646,329.325000,1200.150800
9864.361446,329.371000,1161.647060
9868.693214,329.418000,1236.723290
9872.931619,329.464000,1246.308440
9877.260942,329.511000,1256.436370
9881.496956,329.557000,1172.082480
9885.823836,329.604000,1290.702380
9890.057460,329.650000,1260.584850
9894.289903,329.696000,1316.030370
9898.613135,329.743000,1289.569620
9902.843191,329.789000,1340.295650
9907.163985,329.836000,1325.602820
9911.391656,329.882000,1303.648120
9915.618148,329.928000,1273.797640
9919.935303,329.975000,1304.341630
9924.159413,330.021000,1352.500390
9928.382346,330.067000,1177.145900
9932.695866,330.114000,1191.363610
9936.916419,330.160000,1329.410980
9941.135797,330.206000,1394.773440
9945.445687,330.253000,1331.846330
9949.662689,330.299000,1308.727650
9953.878516,330.345000,1292.888110
9958.093170,330.391000,1315.149690
9962.398234,330.438000,1332.964250
9966.610516,330.484000,1333.504480
9970.821625,330.530000,1326.307960
9975.031562,330.576000,1326.316040
9979.240328,330.622000,1383.493860
9983.539380,330.669000,1316.520310
9987.745778,330.715000,1361.346960
9991.951007,330.761000,1385.096830
9996.155067,330.807000,1434.689360
10000.357957,330.853000,1378.507020
10004.559679,330.899000,1287.405250
10008.760233,330.945000,1330.672420
10013.050897,330.992000,1368.162750
10017.249091,331.038000,1367.011360
10021.446118,331.084000,1386.834890
10025.641979,331.130000,1427.551850
10029.836675,331.176000,1383.259090
10034.030205,331.222000,1412.778880
10038.222571,331.268000,1389.465010
10042.413773,331.314000,1434.369260
10046.603811,331.360000,1408.879970
10050.792686,331.406000,1333.243050
10054.980398,331.452000,1322.886670
10059.166948,331.498000,1359.807700
10063.352336,331.544000,1369.651960
10067.536563,331.590000,1398.263260
10071.719629,331.636000,1396.702560
10075.901535,331.682000,1390.571490
10080.082281,331.728000,1353.333910
10084.261868,331.774000,1376.749930
10088.440296,331.820000,1356.589810
10092.526768,331.865000,1347.191490
10096.702905,331.911000,1419.245740
10100.877884,331.957000,1387.326700
10105.051707,332.003000,1384.861820
10109.224373,332.049000,1364.256940
10113.395884,332.095000,1418.843790
10117.475591,332.140000,1404.250740
10121.644816,332.186000,1379.752760
10125.812886,332.232000,1440.369520
10129.979802,332.278000,1376.751700
10134.145565,332.324000,1363.961210
10138.219652,332.369000,1430.670540
10142.383134,332.415000,1485.557660
10146.545464,332.461000,1409.998860
10150.706643,332.507000,1461.669130
10154.776247,332.552000,1364.452450
10158.935148,332.598000,1396.910710
10163.092900,332.644000,1443.776490
10167.159152,332.689000,1476.227590
10171.314630,332.735000,1447.902000
10175.468958,332.781000,1419.175980
10179.531864,332.826000,1417.175330
10183.683921,332.872000,1540.895150
10187.834831,332.918000,1491.376450
10191.894393,332.963000,1405.577120
10196.043035,333.009000,1410.493690
10200.190530,333.055000,1432.954670
10204.246754,333.100000,1451.989580
10208.391984,333.146000,1501.610200
10212.445992,333.191000,1464.474140
10216.588958,333.237000,1443.068610
10220.640753,333.282000,1451.541390
10224.781457,333.328000,1482.023200
10228.831039,333.373000,1470.875220
10232.969483,333.419000,1450.483270
10237.016856,333.464000,1450.564170
10241.153042,333.510000,1504.189240
10245.198206,333.555000,1570.236130
10249.332135,333.601000,1469.639340
10253.375094,333.646000,1454.326860
10257.506768,333.692000,1520.244590
10261.547522,333.737000,1520.554670
10265.587186,333.782000,1436.917850
10269.715494,333.828000,1402.944570
10273.752956,333.873000,1345.751620
10277.879015,333.919000,1539.800610
10281.914277,333.964000,1553.095970
10285.948452,334.009000,1490.955630
10290.071151,334.055000,1465.848200
10294.103128,334.100000,1557.508020
10298.134020,334.145000,1435.281460
10302.253364,334.191000,1473.288280
10306.282060,334.236000,1513.683650
10310.309672,334.281000,1484.038240
10314.425666,334.327000,1536.218690
10318.451085,334.372000,1464.132790
10322.475422,334.417000,1502.293720
10326.498675,334.462000,1408.051600
10330.610215,334.508000,1408.746360
10334.631280,334.553000,1399.861830
10338.651263,334.598000,1433.103010
10342.670165,334.643000,1498.472630
10346.687987,334.688000,1512.522790
10350.704728,334.733000,1482.649170
10354.809614,334.779000,1450.829450
10358.824172,334.824000,1522.441010
10362.837651,334.869000,1499.700350
10366.850051,334.914000,1487.761280
10370.861373,334.959000,1507.713730
10374.871618,335.004000,1504.194470
10378.880786,335.049000,1509.842710
10382.888876,335.094000,1515.728000
10386.984923,335.140000,1509.289030
10390.990838,335.185000,1477.470080
10394.995677,335.230000,1594.353030
10398.999440,335.275000,1604.944810
10403.002130,335.320000,1586.810940
10407.003745,335.365000,1619.233880
10411.004286,335.410000,1645.411860
10415.003755,335.455000,1614.691110
10419.002150,335.500000,1562.204430
10422.999473,335.545000,1626.981150
10426.995723,335.590000,1562.092200
10430.990902,335.635000,1531.977610
10434.985010,335.680000,1543.983740
10438.889325,335.724000,1535.363170
10442.881316,335.769000,1558.394490
10446.872237,335.814000,1517.957530
10450.862088,335.859000,1571.087550
10454.850871,335.904000,1573.335840
10458.838585,335.949000,1511.760360
10462.825230,335.994000,1498.939460
10466.810808,336.039000,1515.533810
10470.706786,336.083000,1581.570000
10474.690253,336.128000,1568.144290
10478.672654,336.173000,1577.150100
10482.653989,336.218000,1531.689260
10486.634259,336.263000,1517.091950
10490.525048,336.307000,1488.557310
10494.503211,336.352000,1443.441390
10498.480310,336.397000,1531.431610
10502.456345,336.442000,1515.062300
10506.342995,336.486000,1655.293190
10510.316927,336.531000,1553.442780
10514.289797,336.576000,1466.348560
10518.261604,336.621000,1502.609180
10522.144122,336.665000,1533.042790
10526.113830,336.710000,1476.860470
10530.082477,336.755000,1526.086460
10533.961906,336.799000,1498.823450
10537.928455,336.844000,1555.575580
10541.893946,336.889000,1484.616900
10545.770289,336.933000,1488.568660
10549.733685,336.978000,1525.690790
10553.607982,337.022000,1450.331250
10557.569284,337.067000,1435.838920
10561.529529,337.112000,1489.735070
10565.400747,337.156000,1494.958510
10569.358902,337.201000,1506.194560
10573.228076,337.245000,1510.817670
10577.184142,337.290000,1486.878050
10581.051275,337.334000,1520.274300
10585.005254,337.379000,1480.731740
10588.870347,337.423000,1464.606400
10592.822240,337.468000,1419.321650
10596.685295,337.512000,1382.379460
10600.635105,337.557000,1328.606010
10604.496123,337.601000,1370.306420
10608.443850,337.646000,1277.600110
10612.302834,337.690000,1222.578840
10616.160811,337.734000,1182.188050
10620.105430,337.779000,1141.376730
10623.961375,337.823000,986.904720
10627.903916,337.868000,960.044130
10631.757830,337.912000,894.295190
10635.610740,337.956000,803.398960
10639.550179,338.001000,752.404010
10643.401061,338.045000,621.843550
10647.250940,338.089000,488.848270
10651.187281,338.134000,423.286660
10655.035134,338.178000,281.566020
10658.881986,338.222000,222.312370
10662.815231,338.267000,281.583380
10666.660059,338.311000,157.659860
10670.503887,338.355000,164.478110
10674.346716,338.399000,185.250110
10678.275848,338.444000,188.271980
10682.116656,338.488000,199.453700
10685.956465,338.532000,173.112780
10689.795276,338.576000,216.629750
10693.633090,338.620000,237.024990
10697.557096,338.665000,186.040850
10701.392893,338.709000,214.960480
10705.227693,338.753000,197.194410
10709.061498,338.797000,198.832260
10712.894307,338.841000,269.689780
10716.726120,338.885000,175.598260
10720.556939,338.929000,165.568630
10724.386763,338.973000,191.400850
10728.302601,339.018000,136.140320
10732.130414,339.062000,188.707730
10735.957235,339.106000,197.261890
10739.783062,339.150000,93.012900
10743.607897,339.194000,151.517760
10747.431740,339.238000,122.262660
10751.254591,339.282000,167.917290
10755.076450,339.326000,190.344930
10758.897319,339.370000,161.926680
10762.717197,339.414000,120.360460
10766.536084,339.458000,73.750850
10770.353982,339.502000,175.364390
10774.170890,339.546000,162.707310
10777.986809,339.590000,189.092170
10781.801740,339.634000,170.777790
10785.615682,339.678000,180.062260
10789.341989,339.721000,172.933830
10793.153978,339.765000,137.992650
10796.964980,339.809000,182.494890
10800.774995,339.853000,178.014390
10804.584024,339.897000,89.445720
10808.392066,339.941000,167.016810
10812.199123,339.985000,85.091200
10816.005195,340.029000,143.929500
10819.723813,340.072000,93.368980
10823.527938,340.116000,126.230380
10827.331078,340.160000,130.753650
10831.133235,340.204000,112.268390
10834.848029,340.247000,144.148960
10838.648242,340.291000,165.437100
10842.447472,340.335000,159.974680
10846.245720,340.379000,103.531480
10849.956695,340.422000,96.521950
10853.753002,340.466000,172.546810
10857.548328,340.510000,85.531140
10861.342673,340.554000,108.283420
10865.049836,340.597000,86.166780
10868.842243,340.641000,151.090820
10872.633670,340.685000,125.769220
10876.337983,340.728000,124.734720
10880.127474,340.772000,113.414520
10883.829896,340.815000,109.739810
10887.617453,340.859000,116.949610
10891.404033,340.903000,99.016940
10895.103609,340.946000,116.021920
10898.888257,340.990000,110.399950
10902.585946,341.033000,67.567720
10906.368663,341.077000,135.250940
10910.150404,341.121000,279.819550
10913.845254,341.164000,7.353620
10917.625066,341.208000,80.717080
10921.318033,341.251000,105.721840
10925.095918,341.295000,136.736770
10928.787002,341.338000,120.014360
10932.562962,341.382000,87.393850
10936.252165,341.425000,124.773550
10939.940439,341.468000,158.801580
10943.713524,341.512000,118.847130
10947.399919,341.555000,100.068370
10951.171083,341.599000,145.991630
10954.855601,341.642000,55.675500
10958.624845,341.686000,78.897810
10962.307486,341.729000,81.170230
10965.989201,341.772000,32.267890
10969.755578,341.816000,80.662610
10973.435419,341.859000,84.063470
10977.114334,341.902000,56.572270
10980.877848,341.946000,140.917090
10984.554892,341.989000,109.250170
10988.231011,342.032000,108.730990
10991.991665,342.076000,110.217640
10995.665914,342.119000,78.056040
10999.339240,342.162000,111.813240
11003.011643,342.205000,166.488580
11006.768496,342.249000,78.361490
11010.439032,342.292000,59.459100
11014.108646,342.335000,73.152840
11017.777338,342.378000,162.090350
11021.530396,342.422000,149.413130
11025.197224,342.465000,73.819800
11028.863132,342.508000,46.358300
11032.528119,342.551000,52.399260
11036.192187,342.594000,55.138240
11039.855335,342.637000,101.334550
11043.602720,342.681000,59.252970
11047.264009,342.724000,85.406710
11050.924378,342.767000,62.253960
11054.583829,342.810000,116.934560
11058.242363,342.853000,94.226830
11061.899979,342.896000,73.532080
11065.556677,342.939000,65.405260
11069.212459,342.982000,51.131240
11072.867324,343.025000,44.808960
11076.521273,343.068000,91.107560
11080.174306,343.111000,56.189130
11083.826423,343.154000,69.075720
11087.477626,343.197000,120.963210
11091.127913,343.240000,86.198440
11094.777286,343.283000,83.973570
11098.425745,343.326000,82.533350
11102.073291,343.369000,70.049300
11105.719922,343.412000,87.590610
11109.365641,343.455000,97.556500
11113.010447,343.498000,52.196180
11116.654340,343.541000,24.270430
11120.297322,343.584000,90.930940
11123.939391,343.627000,18.539650
11127.580549,343.670000,88.485830
11131.220797,343.713000,43.624220
11134.775508,343.755000,110.664300
11138.413955,343.798000,51.885630
11142.051492,343.841000,97.735240
11145.688120,343.884000,40.778900
11149.323838,343.927000,62.187440
11152.958647,343.970000,45.765360
11156.508049,344.012000,33.064910
11160.141062,344.055000,75.806200
11163.773167,344.098000,105.900130
11167.404365,344.141000,78.810190
11170.950240,344.183000,85.814840
11174.579645,344.226000,100.742250
11178.208143,344.269000,13.745370
11181.751382,344.311000,47.349170
11185.378088,344.354000,62.617330
11189.003889,344.397000,56.338090
11192.628785,344.440000,5.646230
11196.168507,344.482000,63.038180
11199.791614,344.525000,55.762090
11203.413817,344.568000,91.985770
11206.950910,344.610000,36.506050
11210.571327,344.653000,13.501710
11214.106675,344.695000,84.938950
11217.725306,344.738000,81.708440
11221.343035,344.781000,43.748340
11224.875759,344.823000,51.771650
11228.491704,344.866000,65.026150
11232.022687,344.908000,17.816820
11235.636851,344.951000,100.238780
11239.166094,344.993000,48.337990
11242.778477,345.036000,74.556980
11246.305982,345.078000,38.114620
11249.916585,345.121000,95.371660
11253.442353,345.163000,55.402600
11257.051178,345.206000,49.776460
11260.575210,345.248000,62.264240
11264.182259,345.291000,96.773800
11267.704555,345.333000,64.192520
11271.309829,345.376000,112.184030
11274.830392,345.418000,86.237950
11278.350100,345.460000,124.212910
11281.952723,345.503000,78.197130
11285.470699,345.545000,6.909900
11288.987820,345.587000,15.887890
11292.587796,345.630000,65.289170
11296.103187,345.672000,1.360150
11299.701393,345.715000,-3.857190
11303.215056,345.757000,-3.111770
11306.727865,345.799000,23.464920
11310.239821,345.841000,34.394570
11313.834512,345.884000,40.605160
11317.344742,345.926000,76.919950
11320.854120,345.968000,82.508860
11324.446172,346.011000,36.828420
11327.953826,346.053000,23.590810
11331.460629,346.095000,43.365660
11334.966581,346.137000,40.575090
11338.471682,346.179000,16.294270
11342.059357,346.222000,47.577710
11345.562737,346.264000,106.703590
11349.065268,346.306000,61.105700
11352.566949,346.348000,8.733420
11356.067781,346.390000,40.355690
11359.567764,346.432000,20.397150
11363.150201,346.475000,26.109620
11366.648467,346.517000,43.327480
11370.145885,346.559000,28.178870
11373.642456,346.601000,-1.342760
11377.138179,346.643000,43.266490
11380.633055,346.685000,90.764100
11384.127085,346.727000,50.921540
11387.620268,346.769000,31.603440
11391.112605,346.811000,31.232820
11394.604096,346.853000,68.609390
11398.094742,346.895000,35.114670
11401.584543,346.937000,13.161560
11405.073499,346.979000,-65.830490
11408.561610,347.021000,58.055790
11412.048877,347.063000,23.632490
11415.535301,347.105000,-109.197830
11419.020880,347.147000,17.495370
11422.505617,347.189000,-26.892480
11425.989510,347.231000,39.860750
11429.472560,347.273000,17.849960
11432.954769,347.315000,42.829230
11436.436135,347.357000,50.054730
11439.916659,347.399000,54.253060
11443.313502,347.440000,14.815950
11446.792364,347.482000,54.416890
11450.270384,347.524000,12.503190
11453.747565,347.566000,73.717020
11457.223905,347.608000,20.836580
11460.699405,347.650000,-2.147990
11464.091345,347.691000,4.127890
11467.565186,347.733000,5.147750
11471.038188,347.775000,56.483130
11474.510351,347.817000,-31.040220
11477.981676,347.859000,8.856490
11481.369541,347.900000,-31.918870
11484.839210,347.942000,-21.049440
11488.308041,347.984000,-12.367720
11491.693473,348.025000,112.865030
11495.160650,348.067000,39.809720
11498.626991,348.109000,35.188440
11502.092494,348.151000,89.322300
11505.474680,348.192000,38.531300
11508.938532,348.234000,50.660350
11512.401549,348.276000,-2.498620
11515.781307,348.317000,42.459200
11519.242673,348.359000,37.412130
11522.620821,348.400000,46.324940
11526.080539,348.442000,35.315140
11529.539422,348.484000,13.990130
11532.915148,348.525000,99.837110
11536.372384,348.567000,-15.297640
11539.746502,348.608000,4.619970
11543.202092,348.650000,15.796540
11546.574604,348.691000,39.927090
11550.028550,348.733000,23.268920
11553.399456,348.774000,63.595790
11556.851758,348.816000,27.958070
11560.221061,348.857000,71.544590
11563.671720,348.899000,29.128710
11567.039420,348.940000,9.532750
11570.488439,348.982000,14.809020
11573.854537,349.023000,9.298190
11577.301915,349.065000,19.317540
11580.666413,349.106000,44.138940
11584.030120,349.147000,-2.376470
11587.475051,349.189000,12.225650
11590.837159,349.230000,16.441400
11594.280452,349.272000,-75.561350
11597.640963,349.313000,25.331390
11601.000686,349.354000,11.015120
11604.441535,349.396000,-48.238270
11607.799661,349.437000,11.095060
11611.157000,349.478000,25.128060
11614.595408,349.520000,84.578720
11617.951152,349.561000,22.065400
11621.306109,349.602000,23.750470
11624.660280,349.643000,35.690310
11628.095443,349.685000,93.761320
11631.448022,349.726000,54.642670
11634.799814,349.767000,77.222860
11638.150821,349.808000,38.537910
11641.582745,349.850000,8.727280
11644.932162,349.891000,0.011280
11648.280794,349.932000,15.840060
11651.628641,349.973000,26.821850
11654.975704,350.014000,-33.799150
11658.403590,350.056000,19.906950
11661.749066,350.097000,1.326900
11665.093759,350.138000,34.927480
11668.437668,350.179000,34.878150
11671.780795,350.220000,7.597600
11675.123139,350.261000,12.606100
11678.464700,350.302000,-7.937030
11681.805480,350.343000,53.129940
11685.145477,350.384000,-6.389960
11688.484693,350.425000,-28.966150
11691.904543,350.467000,58.943080
11695.242178,350.508000,-3.062090
11698.579032,350.549000,-3.081950
11701.915105,350.590000,59.527670
11705.250398,350.631000,18.237130
11708.584912,350.672000,20.153500
11711.918645,350.713000,35.000060
11715.251600,350.754000,-9.478720
11718.502512,350.794000,-31.542480
11721.833927,350.835000,-6.751410
11725.164564,350.876000,-44.380500
11728.494422,350.917000,-47.373300
11731.823503,350.958000,4.066970
11735.151806,350.999000,-25.999140
11738.479331,351.040000,-12.335320
11741.806079,351.081000,19.212870
11745.132050,351.122000,35.442770
11748.457245,351.163000,-7.753970
11751.700589,351.203000,-55.123820
11755.024250,351.244000,33.249480
11758.347135,351.285000,25.022270
11761.669245,351.326000,-1.022640
11764.990579,351.367000,44.709180
11768.230159,351.407000,27.731770
11771.549962,351.448000,-31.843070
11774.868991,351.489000,24.313870
11778.187246,351.530000,-77.152430
11781.423822,351.570000,-2.460680
11784.740548,351.611000,-33.222730
11788.056500,351.652000,-14.830020
11791.371680,351.693000,-1.573610
11794.605256,351.733000,-5.225390
11797.918909,351.774000,24.105390
11801.231790,351.815000,109.898680
11804.463124,351.855000,0.474760
11807.774479,351.896000,42.273420
11811.085063,351.937000,-17.508310
11814.314158,351.977000,97.614050
11817.623218,352.018000,69.624130
11820.850827,352.058000,65.552270
11824.158365,352.099000,55.819570
11827.465133,352.140000,47.537440
11830.690506,352.180000,112.944770
11833.995753,352.221000,76.792830
11837.219643,352.261000,75.115780
11840.523370,352.302000,73.151700
11843.745778,352.342000,93.078440
11847.047986,352.383000,59.200250
11850.268913,352.423000,75.943310
11853.569603,352.464000,94.046750
11856.789050,352.504000,61.572630
11860.088224,352.545000,52.544590
11863.306191,352.585000,74.857740
11866.603850,352.626000,-9.167140
11869.820339,352.666000,-0.426240
11873.116483,352.707000,-30.396470
11876.331495,352.747000,-0.010540
11879.545777,352.787000,1.957650
11882.839661,352.828000,27.982680
11886.052468,352.868000,11.116560
11889.264547,352.908000,30.901870
11892.556173,352.949000,-8.284760
11895.766777,352.989000,31.920670
11899.056892,353.030000,-39.172360
11902.266024,353.070000,37.178190
11905.474429,353.110000,-24.448380
11908.682107,353.150000,-23.281880
11911.969223,353.191000,-29.509100
11915.175430,353.231000,5.872010
11918.380911,353.271000,22.827060
11921.665775,353.312000,-23.270320
11924.869787,353.352000,2.981350
11928.073073,353.392000,70.960700
11931.275634,353.432000,4.565730
11934.477470,353.472000,-44.673580
11937.758600,353.513000,-104.450910
11940.958969,353.553000,-104.616480
11944.158614,353.593000,-32.670180
11947.357536,353.633000,-37.407070
11950.555733,353.673000,-35.222040
11953.753208,353.713000,100.528500
11957.029868,353.754000,52.050020
11960.225879,353.794000,7.765570
11963.421166,353.834000,-4.174950
11966.615732,353.874000,-41.295360
11969.809575,353.914000,-8.249080
11973.002696,353.954000,-32.192230
11976.195096,353.994000,10.647060
11979.386774,354.034000,8.638180
11982.577731,354.074000,26.683000
11985.767968,354.114000,18.183710
11988.957483,354.154000,6.921370
11992.146279,354.194000,19.167120
11995.334354,354.234000,39.677830
11998.521709,354.274000,-25.624730
12001.708345,354.314000,-37.941920
12004.894261,354.354000,-26.056820
12008.079458,354.394000,-5.821240
12011.263936,354.434000,-38.434620
12014.447695,354.474000,19.712780
12017.630736,354.514000,59.155170
12020.813059,354.554000,20.176360
12023.994663,354.594000,-5.995220
12027.175550,354.634000,-19.553830
12030.276224,354.673000,50.235190
12033.455694,354.713000,-6.759920
12036.634448,354.753000,-8.525610
12039.812484,354.793000,5.805480
12042.989804,354.833000,24.913740
12046.166408,354.873000,55.531480
12049.262907,354.912000,107.153340
12052.438097,354.952000,49.259400
12055.612571,354.992000,121.727870
12058.786330,355.032000,76.513630
12061.880056,355.071000,-3.949670
12065.052403,355.111000,-30.953250
12068.224035,355.151000,38.285870
12071.394953,355.191000,26.830520
12074.485910,355.230000,66.254310
12077.655418,355.270000,33.038900
12080.824212,355.310000,-10.095460
12083.913100,355.349000,-69.241630
12087.080485,355.389000,-43.634790
12090.247158,355.429000,33.068700
12093.333977,355.468000,-23.600080
12096.499242,355.508000,59.419180
12099.663795,355.548000,-2.544300
12102.748549,355.587000,-0.636030
12105.911696,355.627000,-1.011180
12108.995079,355.666000,3.904360
12112.156822,355.706000,-6.708700
12115.317853,355.746000,6.557400
12118.399174,355.785000,2.301320
12121.558801,355.825000,-9.884360
12124.638754,355.864000,2.422810
12127.796979,355.904000,4.246190
12130.875565,355.943000,-1.568780
12134.032389,355.983000,1.274480
12137.109608,356.022000,-9.302710
12140.265031,356.062000,2.652610
12143.340885,356.101000,4.081920
12146.494908,356.141000,0.148500
12149.569398,356.180000,-4.745380
12152.643215,356.219000,1.231510
12155.795149,356.259000,6.412480
12158.867603,356.298000,-6.609750
12162.018139,356.338000,3.926780
12165.089231,356.377000,-3.019330
12168.159651,356.416000,3.803040
12171.308101,356.456000,-3.365580
12174.377160,356.495000,4.399720
12177.445548,356.534000,-12.690510
12180.591915,356.574000,0.754290
12183.658943,356.613000,-4.040350
12186.725300,356.652000,-2.438140
12189.869585,356.692000,1.737560
12192.934585,356.731000,4.201520
12195.998914,356.770000,-0.159930
12199.062573,356.809000,-5.735590
12202.204093,356.849000,5.979830
12205.266396,356.888000,11.789030
12208.328030,356.927000,-3.128100
12211.388995,356.966000,0.002050
12214.527751,357.006000,5.677630
12217.587361,357.045000,-5.325560
12220.646304,357.084000,-1.765440
12223.704578,357.123000,-5.853910
12226.762184,357.162000,-3.585540
12229.819122,357.201000,-2.214690
12232.953750,357.241000,1.613990
12236.009337,357.280000,4.105080
12239.064257,357.319000,-3.498160
12242.118510,357.358000,1.525890
12245.172096,357.397000,5.013640
12248.225016,357.436000,2.270190
