raman_shift_cm-1,wavelength_nm,intensity
-323.608033,246.616000,0.000000
-312.759145,246.682000,0.000000
-301.916061,246.748000,-224.284000
-291.078776,246.814000,-582.969000
-280.083216,246.881000,-202.625000
-269.257603,246.947000,-396.921000
-258.437774,247.013000,-388.609500
-247.623726,247.079000,-270.133000
-236.815454,247.145000,-429.567500
-226.012953,247.211000,-218.146500
-215.216219,247.277000,-260.405000
-204.425246,247.343000,-280.244500
-193.640031,247.409000,-350.827000
-182.860568,247.475000,-309.061500
-172.086854,247.541000,-413.299500
-161.318883,247.607000,-373.640500
-150.556651,247.673000,-419.049500
-139.800153,247.739000,-294.525500
-129.049385,247.805000,-405.510000
-118.467103,247.870000,-250.780000
-107.727694,247.936000,-222.940000
-96.994001,248.002000,-301.606500
-86.266020,248.068000,-240.501500
-75.543746,248.134000,-546.328000
-64.827174,248.200000,-454.312000
-54.278543,248.265000,-196.784500
-43.573277,248.331000,-487.808000
-32.873698,248.397000,-318.944500
-22.179805,248.463000,-246.040000
-11.653491,248.528000,-160.505500
-0.970866,248.594000,-490.216000
9.706087,248.660000,-383.192500
20.377375,248.726000,-381.295500
30.881442,248.791000,-335.898000
41.541497,248.857000,-271.278500
52.195898,248.923000,-244.583500
62.683348,248.988000,-435.631000
73.326542,249.054000,-322.628000
83.802964,249.119000,-367.391000
94.434970,249.185000,-400.846500
104.900381,249.250000,-343.674500
115.521215,249.316000,-383.735000
125.975632,249.381000,-443.864500
136.585313,249.447000,-330.040500
147.028754,249.512000,-402.669000
157.627298,249.578000,-429.919500
168.059780,249.643000,-367.236500
178.647205,249.709000,-522.945000
189.068746,249.774000,-346.978500
199.645070,249.840000,-195.198000
210.055686,249.905000,-61.360000
220.620926,249.971000,0.225000
231.020635,250.036000,0.941000
241.414938,250.101000,0.030000
251.963627,250.167000,0.379500
262.347049,250.232000,0.277500
272.725077,250.297000,-0.281500
283.097717,250.362000,0.680500
293.624427,250.428000,0.110500
303.986219,250.493000,0.594000
314.342635,250.558000,-0.203000
324.693679,250.623000,0.185000
335.198478,250.689000,0.721500
345.538708,250.754000,-0.913500
355.873579,250.819000,-1.754000
366.203095,250.884000,0.359500
376.527259,250.949000,-0.022500
386.846077,251.014000,0.303500
397.318179,251.080000,0.108000
407.626234,251.145000,0.497500
417.928954,251.210000,-0.231000
428.226343,251.275000,0.927500
438.518407,251.340000,-0.180000
448.805149,251.405000,0.308000
459.086573,251.470000,0.301000
469.362683,251.535000,-1.046000
479.633483,251.600000,0.674000
489.898978,251.665000,1.142000
500.159172,251.730000,1.381000
510.414069,251.795000,1.989500
520.663672,251.860000,1.862500
530.907986,251.925000,2.159500
541.147015,251.990000,2.298500
551.223361,252.054000,3.295500
561.451914,252.119000,1.484000
571.675194,252.184000,2.417500
581.893205,252.249000,1.270000
592.105952,252.314000,1.978000
602.313438,252.379000,1.854500
612.358750,252.443000,3.068000
622.555807,252.508000,6.000000
632.747617,252.573000,9.487500
642.934182,252.638000,11.470500
652.958910,252.702000,13.522500
663.135079,252.767000,11.265500
673.306016,252.832000,8.489000
683.315368,252.896000,5.720000
693.475932,252.961000,9.556500
703.631276,253.026000,6.296500
713.625287,253.090000,5.157500
723.770283,253.155000,2.788500
733.910070,253.220000,2.141000
743.888776,253.284000,2.674500
754.018238,253.349000,2.390500
763.986786,253.413000,2.754000
774.105940,253.478000,2.795000
784.064345,253.542000,2.763000
794.173206,253.607000,3.498500
804.121484,253.671000,4.224500
814.220067,253.736000,2.922000
824.158233,253.800000,3.718500
834.246555,253.865000,3.362000
844.174625,253.929000,3.552500
854.252700,253.994000,3.425000
864.170690,254.058000,2.207000
874.083683,254.122000,3.688000
884.146458,254.187000,2.472500
894.049394,254.251000,4.123000
903.947346,254.315000,3.512500
913.994855,254.380000,2.488500
923.882772,254.444000,3.907500
933.765716,254.508000,3.112000
943.797994,254.573000,2.658500
953.670926,254.637000,3.115500
963.538895,254.701000,4.410000
973.401907,254.765000,4.196000
983.259965,254.829000,0.885000
993.266988,254.894000,4.115000
1003.115071,254.958000,5.218500
1012.958212,255.022000,4.676000
1022.796413,255.086000,4.586000
1032.629679,255.150000,3.883500
1042.458013,255.214000,3.961500
1052.281419,255.278000,2.885000
1062.253275,255.343000,3.164500
1072.066759,255.407000,4.780500
1081.875326,255.471000,5.605000
1091.678980,255.535000,4.263000
1101.477725,255.599000,3.714000
1111.271563,255.663000,2.850000
1121.060500,255.727000,2.458500
1130.844538,255.791000,4.838000
1140.623681,255.855000,3.142000
1150.397933,255.919000,3.898500
1160.014689,255.982000,3.153000
1169.779246,256.046000,5.310500
1179.538923,256.110000,3.301500
1189.293724,256.174000,4.384500
1199.043651,256.238000,2.464500
1208.788709,256.302000,4.568000
1218.528902,256.366000,2.158000
1228.112156,256.429000,2.602500
1237.842704,256.493000,2.787000
1247.568398,256.557000,2.038500
1257.289241,256.621000,4.044000
1267.005236,256.685000,2.391000
1276.564688,256.748000,2.635500
1286.271074,256.812000,3.828500
1295.972624,256.876000,4.098000
1305.517867,256.939000,2.819500
1315.209831,257.003000,3.372000
1324.896968,257.067000,4.302500
1334.428034,257.130000,2.320000
1344.105605,257.194000,3.961000
1353.778362,257.258000,4.589500
1363.295282,257.321000,2.998500
1372.958494,257.385000,3.439500
1382.466026,257.448000,4.076000
1392.119708,257.512000,4.697500
1401.617865,257.575000,3.627000
1411.262031,257.639000,3.629500
1420.750828,257.702000,3.691000
1430.385491,257.766000,-11.425500
1439.864942,257.829000,2.693000
1449.490117,257.893000,3.649000
1458.960235,257.956000,2.992000
1468.575936,258.020000,5.107000
1478.036734,258.083000,3.599500
1487.492915,258.146000,3.914000
1497.094468,258.210000,3.672000
1506.541350,258.273000,3.480000
1516.133465,258.337000,3.944000
1525.571062,258.400000,6.390500
1535.004058,258.463000,6.105000
1544.432457,258.526000,7.167500
1554.005809,258.590000,3.423000
1563.424950,258.653000,4.640000
1572.839503,258.716000,4.282500
1582.249473,258.779000,4.358000
1591.804117,258.843000,5.608500
1601.204857,258.906000,6.478500
1610.601022,258.969000,5.623000
1619.992617,259.032000,6.385000
1629.379645,259.095000,6.642000
1638.911000,259.159000,5.647500
1648.288831,259.222000,4.133000
1657.662104,259.285000,5.732000
1667.030824,259.348000,3.693000
1676.394994,259.411000,4.614500
1685.754616,259.474000,3.549500
1695.109694,259.537000,3.578000
1704.460232,259.600000,3.459000
1713.806232,259.663000,2.769500
1723.147698,259.726000,2.923000
1732.484634,259.789000,3.659000
1741.817042,259.852000,1.660500
1751.144926,259.915000,3.071000
1760.468289,259.978000,3.382000
1769.787135,260.041000,2.408000
1779.101467,260.104000,2.606000
1788.411287,260.167000,2.627500
1797.568932,260.229000,2.954000
1806.869812,260.292000,2.414000
1816.166190,260.355000,3.437500
1825.458071,260.418000,3.129500
1834.745457,260.481000,2.726000
1844.028352,260.544000,1.337000
1853.159517,260.606000,1.317000
1862.433510,260.669000,2.186000
1871.703021,260.732000,11.587500
1880.968054,260.795000,2.694500
1890.081653,260.857000,0.264000
1899.337809,260.920000,6.714500
1908.589497,260.983000,2.075500
1917.689973,261.045000,3.882500
1926.932803,261.108000,4.024500
1936.171175,261.171000,2.278500
1945.258555,261.233000,1.909000
1954.488088,261.296000,1.278500
1963.566777,261.358000,2.882000
1972.787485,261.421000,2.679000
1982.003751,261.484000,1.616500
1991.069391,261.546000,2.705000
2000.276850,261.609000,2.175000
2009.333830,261.671000,2.630500
2018.532495,261.734000,1.264000
2027.580827,261.796000,2.594500
2036.770712,261.859000,2.695000
2045.810408,261.921000,2.029500
2054.845827,261.983000,1.520500
2064.022598,262.046000,3.267000
2073.049399,262.108000,2.941000
2082.217420,262.171000,2.781500
2091.235617,262.233000,4.230000
2100.249550,262.295000,3.001500
2109.404505,262.358000,2.578000
2118.409852,262.420000,2.247500
2127.410945,262.482000,3.282500
2136.552862,262.545000,2.552000
2145.545387,262.607000,1.960000
2154.533666,262.669000,2.046500
2163.517703,262.731000,1.605500
2172.642302,262.794000,1.075500
2181.617796,262.856000,1.285000
2190.589057,262.918000,2.903000
2199.556087,262.980000,2.303000
2208.518891,263.042000,2.118000
2217.621929,263.105000,1.765500
2226.576219,263.167000,3.735000
2235.526291,263.229000,2.350000
2244.472147,263.291000,1.408000
2253.413792,263.353000,1.930500
2262.351228,263.415000,2.099500
2271.284457,263.477000,0.795500
2280.213483,263.539000,1.105000
2289.138308,263.601000,3.026500
2298.058937,263.663000,2.238500
2306.975371,263.725000,2.811000
2315.887613,263.787000,1.411500
2324.795667,263.849000,2.210000
2333.699536,263.911000,2.585500
2342.599222,263.973000,1.248500
2351.494729,264.035000,2.977000
2360.386059,264.097000,1.631000
2369.273215,264.159000,1.661000
2378.156200,264.221000,2.109500
2386.891844,264.282000,2.269500
2395.766564,264.344000,2.647000
2404.637121,264.406000,1.655500
2413.503520,264.468000,1.507500
2422.365762,264.530000,2.258500
2431.081012,264.591000,2.604000
2439.935018,264.653000,2.123500
2448.784876,264.715000,1.466000
2457.630590,264.777000,2.377000
2466.329589,264.838000,1.656000
2475.167089,264.900000,2.226000
2484.000453,264.962000,5.272500
2492.687310,265.023000,2.271500
2501.512478,265.085000,0.747500
2510.333519,265.147000,2.149500
2519.008259,265.208000,2.485000
2527.821120,265.270000,2.614000
2536.487819,265.331000,1.414500
2545.292512,265.393000,2.705500
2554.093093,265.455000,2.477500
2562.747717,265.516000,2.257500
2571.540147,265.578000,0.680500
2580.186758,265.639000,3.186500
2588.971048,265.701000,2.635500
2597.609655,265.762000,2.599500
2606.385817,265.824000,1.380000
2615.016433,265.885000,1.900000
2623.643091,265.946000,3.047000
2632.407114,266.008000,3.546000
2641.025796,266.069000,2.445000
2649.781719,266.131000,1.780000
2658.392437,266.192000,1.332000
2666.999210,266.253000,2.251500
2675.743037,266.315000,2.644500
2684.341862,266.376000,0.953500
2692.936750,266.437000,1.827500
2701.668505,266.499000,1.164500
2710.255462,266.560000,2.812500
2718.838489,266.621000,2.134000
2727.417590,266.682000,1.923500
2736.133311,266.744000,3.324000
2744.704503,266.805000,1.919000
2753.271776,266.866000,2.693500
2761.835134,266.927000,3.062500
2770.394579,266.988000,2.653000
2778.950113,267.049000,3.300000
2787.641898,267.111000,2.411500
2796.189555,267.172000,3.140500
2804.733311,267.233000,2.722500
2813.273167,267.294000,2.741500
2821.809126,267.355000,2.284000
2830.341190,267.416000,2.774000
2838.869363,267.477000,0.824500
2847.393647,267.538000,0.325000
2855.914045,267.599000,2.430500
2864.430559,267.660000,2.235000
2872.943193,267.721000,1.603000
2881.451948,267.782000,2.442000
2889.956827,267.843000,1.284000
2898.457833,267.904000,3.801000
2906.954969,267.965000,1.961000
2915.448237,268.026000,2.021500
2923.937640,268.087000,2.752500
2932.284105,268.147000,1.574500
2940.765849,268.208000,1.949000
2949.243736,268.269000,3.021500
2957.717768,268.330000,1.672500
2966.187948,268.391000,2.264000
2974.515518,268.451000,1.547000
2982.978065,268.512000,1.858500
2991.436768,268.573000,1.481500
2999.891630,268.634000,2.194000
3008.204142,268.694000,2.304000
3016.651392,268.755000,1.507500
3025.094807,268.816000,2.739000
3033.396069,268.876000,3.781500
3041.831888,268.937000,6.194500
3050.263881,268.998000,3.792500
3058.553914,269.058000,1.762500
3066.978326,269.119000,2.187000
3075.398919,269.180000,5.893000
3083.677747,269.240000,3.171000
3092.090774,269.301000,2.840500
3100.362165,269.361000,1.230500
3108.767637,269.422000,1.985000
3117.031601,269.482000,2.468500
3125.429526,269.543000,1.708500
3133.686074,269.603000,2.517500
3142.076464,269.664000,2.032000
3150.325604,269.724000,-0.910500
3158.708468,269.785000,2.176000
3166.950211,269.845000,2.478500
3175.325561,269.906000,1.240000
3183.559917,269.966000,2.548000
3191.790613,270.026000,0.524000
3200.154739,270.087000,3.244000
3208.378064,270.147000,3.069500
3216.597736,270.207000,1.145500
3224.950662,270.268000,2.468000
3233.162976,270.328000,2.179000
3241.371647,270.388000,9.630000
3249.576675,270.448000,3.450500
3257.914722,270.509000,3.109500
3266.112412,270.569000,3.431000
3274.306467,270.629000,0.994500
3282.496889,270.689000,2.708000
3290.820098,270.750000,2.235500
3299.003202,270.810000,2.962000
3307.182681,270.870000,2.970000
3315.358537,270.930000,1.898000
3323.530773,270.990000,1.693000
3331.699391,271.050000,0.350000
3339.864393,271.110000,2.518500
3348.025782,271.170000,2.537500
3356.319492,271.231000,1.755500
3364.473602,271.291000,1.967500
3372.624105,271.351000,1.065500
3380.771005,271.411000,1.650500
3388.914304,271.471000,3.112500
3397.054004,271.531000,1.070000
3405.190107,271.591000,3.297500
3413.322616,271.651000,1.737500
3421.316081,271.710000,3.440500
3429.441469,271.770000,2.156500
3437.563270,271.830000,3.876500
3445.681487,271.890000,1.749500
3453.796121,271.950000,2.424500
3461.907176,272.010000,1.160500
3470.014653,272.070000,2.153500
3478.118555,272.130000,2.260000
3486.083907,272.189000,0.693000
3494.180726,272.249000,1.602000
3502.273976,272.309000,2.360500
3510.363660,272.369000,2.148500
3518.315042,272.428000,1.755500
3526.397661,272.488000,2.405000
3534.476722,272.548000,2.409500
3542.552226,272.608000,1.263500
3550.489673,272.667000,1.593000
3558.558131,272.727000,1.898000
3566.623039,272.787000,1.139000
3574.550074,272.846000,3.407500
3582.607950,272.906000,2.683000
3590.528073,272.965000,2.387500
3598.578926,273.025000,1.019000
3606.626241,273.085000,0.629000
3614.535986,273.144000,3.628000
3622.576291,273.204000,30.117500
3630.479148,273.263000,3.784500
3638.512453,273.323000,2.148000
3646.408431,273.382000,2.760000
3654.434744,273.442000,0.997000
3662.323852,273.501000,2.307500
3670.343183,273.561000,1.709000
3678.225429,273.620000,2.758500
3686.237787,273.680000,2.525500
3694.113181,273.739000,4.357500
3701.985180,273.798000,5.327000
3709.987125,273.858000,2.893500
3717.852286,273.917000,2.619500
3725.714059,273.976000,0.310000
3733.705610,274.036000,2.623500
3741.560558,274.095000,2.094000
3749.412124,274.154000,1.876000
3757.393303,274.214000,2.439000
3765.238057,274.273000,1.601500
3773.079437,274.332000,2.129000
3780.917444,274.391000,2.498500
3788.884843,274.451000,2.707500
3796.716056,274.510000,2.874500
3804.543903,274.569000,1.665500
3812.368387,274.628000,2.347000
3820.189510,274.687000,0.951000
3828.007273,274.746000,2.881000
3835.821680,274.805000,0.864500
3843.765093,274.865000,3.031500
3851.572736,274.924000,2.603000
3859.377028,274.983000,1.006000
3867.177971,275.042000,1.003500
3874.975569,275.101000,1.581000
3882.769823,275.160000,1.717500
3890.560735,275.219000,2.313000
3898.348307,275.278000,2.005500
3906.132542,275.337000,2.313500
3913.913442,275.396000,1.841000
3921.691008,275.455000,0.938000
3929.465243,275.514000,1.784500
3937.236150,275.573000,1.955000
3944.872103,275.631000,1.206000
3952.636414,275.690000,2.337000
3960.397403,275.749000,4.114500
3968.155071,275.808000,2.258500
3975.909421,275.867000,1.375000
3983.660455,275.926000,2.622500
3991.408175,275.985000,1.974500
3999.021349,276.043000,1.451500
4006.762504,276.102000,1.923500
4014.500350,276.161000,1.373500
4022.234891,276.220000,2.935500
4029.835118,276.278000,1.813000
4037.563110,276.337000,2.571500
4045.287803,276.396000,11.035500
4052.878355,276.454000,1.097000
4060.596512,276.513000,2.345500
4068.311375,276.572000,1.257000
4075.892271,276.630000,1.922000
4083.600610,276.689000,1.381000
4091.305663,276.748000,0.804500
4098.876921,276.806000,2.598000
4106.575462,276.865000,1.298000
4114.140322,276.923000,1.203500
4121.832361,276.982000,0.410500
4129.390832,277.040000,-29.071000
4137.076375,277.099000,-13.696500
4144.628466,277.157000,0.220000
4152.307522,277.216000,2.338000
4159.853240,277.274000,0.487500
4167.525818,277.333000,1.659000
4175.065171,277.391000,-3.927000
4182.731279,277.450000,0.635000
4190.264275,277.508000,1.620000
4197.794123,277.566000,2.337000
4205.450568,277.625000,2.122500
4212.974072,277.683000,2.342000
4220.494433,277.741000,0.064000
4228.011654,277.799000,2.326000
4235.396210,277.856000,1.775000
4242.907211,277.914000,1.440000
4250.415077,277.972000,1.452000
4257.790445,278.029000,1.793000
4265.292102,278.087000,0.765000
4272.790631,278.145000,1.634500
4280.156828,278.202000,1.931000
4287.649159,278.260000,1.993500
4295.138368,278.318000,3.435500
4302.495411,278.375000,1.528500
4309.978434,278.433000,1.391000
4317.329402,278.490000,1.614000
4324.806246,278.548000,2.883500
4332.151147,278.605000,2.617000
4339.621821,278.663000,3.454000
4346.960661,278.720000,0.759500
4354.425172,278.778000,1.896500
4361.757959,278.835000,2.599000
4369.216314,278.893000,2.183500
4376.543056,278.950000,2.656000
4383.995264,279.008000,1.650500
4391.315968,279.065000,2.241500
4398.762036,279.123000,1.641500
4406.076709,279.180000,2.371000
4413.516644,279.238000,1.291500
4420.825295,279.295000,1.217000
4428.130962,279.352000,2.133500
4435.561740,279.410000,1.324000
4442.861395,279.467000,2.047000
4450.158074,279.524000,2.157500
4457.579711,279.582000,2.013000
4464.870389,279.639000,1.820000
4472.158095,279.696000,2.916000
4479.570607,279.754000,0.970000
4486.852324,279.811000,2.797500
4494.131074,279.868000,2.100500
4501.534479,279.926000,0.030000
4508.807251,279.983000,2.039000
4516.077062,280.040000,0.748000
4523.343914,280.097000,2.346500
4530.735220,280.155000,2.158000
4537.996108,280.212000,1.125500
4545.254043,280.269000,2.163500
4552.509026,280.326000,1.166500
4559.888262,280.384000,2.121500
4567.137295,280.441000,3.275500
4574.383383,280.498000,0.752000
4581.626526,280.555000,2.093500
4588.866727,280.612000,2.962000
4596.103987,280.669000,2.093500
4603.338308,280.726000,0.703500
4610.696532,280.784000,0.826500
4617.924929,280.841000,0.951500
4625.150392,280.898000,2.039500
4632.372923,280.955000,1.451000
4639.592525,281.012000,2.173000
4646.809198,281.069000,0.281500
4654.022945,281.126000,1.859500
4661.233767,281.183000,2.579500
4668.441666,281.240000,2.521000
4675.646644,281.297000,1.722000
4682.848703,281.354000,2.017500
4690.047844,281.411000,2.618000
4697.244070,281.468000,2.619500
4704.437381,281.525000,2.777500
4711.627780,281.582000,-0.068500
4718.815269,281.639000,2.461000
4725.999849,281.696000,2.140500
4733.181522,281.753000,1.512500
4740.360290,281.810000,2.379000
4747.536154,281.867000,2.094500
4754.583300,281.923000,2.138000
4761.753414,281.980000,1.943000
4768.920629,282.037000,3.450000
4776.084949,282.094000,2.471500
4783.246373,282.151000,2.570000
4790.404904,282.208000,1.581000
4797.435032,282.264000,2.838000
4804.587834,282.321000,3.315500
4811.737748,282.378000,2.130500
4818.884776,282.435000,2.410500
4826.028920,282.492000,1.072500
4833.044920,282.548000,1.817500
4840.183352,282.605000,2.849000
4847.318904,282.662000,3.083500
4854.451579,282.719000,3.149500
4861.456319,282.775000,2.239500
4868.583295,282.832000,3.462500
4875.707399,282.889000,3.376500
4882.703723,282.945000,3.278000
4889.822139,283.002000,2.982500
4896.937687,283.059000,2.778000
4903.925611,283.115000,1.944500
4911.035481,283.172000,2.116500
4918.142490,283.229000,2.437000
4925.122029,283.285000,3.167500
4932.223369,283.342000,2.391500
4939.197342,283.398000,3.197500
4946.293021,283.455000,3.562500
4953.385847,283.512000,3.743500
4960.351460,283.568000,2.217000
4967.438635,283.625000,2.072500
4974.398699,283.681000,3.126000
4981.480229,283.738000,3.242000
4988.434752,283.794000,2.092000
4995.510644,283.851000,0.916500
5002.459631,283.907000,0.990000
5009.529893,283.964000,1.677500
5016.473351,284.020000,1.504000
5023.537988,284.077000,1.372000
5030.475924,284.133000,1.678500
5037.534943,284.190000,1.858000
5044.467363,284.246000,2.108000
5051.397052,284.302000,1.593500
5058.447683,284.359000,0.960000
5065.371866,284.415000,2.957500
5072.416896,284.472000,1.743000
5079.335580,284.528000,1.350000
5086.251541,284.584000,2.381500
5093.288207,284.641000,0.824000
5100.198678,284.697000,2.993000
5107.106432,284.753000,3.105500
5114.134748,284.810000,2.336000
5121.037022,284.866000,0.855000
5127.936582,284.922000,2.015000
5134.833431,284.978000,1.334000
5141.850655,285.035000,1.581500
5148.742037,285.091000,2.119000
5155.630712,285.147000,1.546000
5162.516682,285.203000,1.327000
5169.522840,285.260000,1.546000
5176.403356,285.316000,-1.928000
5183.281172,285.372000,-0.015500
5190.156289,285.428000,0.042500
5197.028709,285.484000,2.088000
5204.021082,285.541000,0.311000
5210.888064,285.597000,1.904500
5217.752353,285.653000,2.320500
5224.613952,285.709000,0.268500
5231.472862,285.765000,0.179500
5238.329083,285.821000,2.020500
5245.182619,285.877000,0.663500
5252.033470,285.933000,0.926500
5258.881638,285.989000,-0.056500
5265.727125,286.045000,-0.310000
5272.569932,286.101000,0.986000
5279.532182,286.158000,0.224500
5286.369586,286.214000,-0.787000
5293.204315,286.270000,1.715500
5300.036371,286.326000,0.960000
5306.865755,286.382000,-0.220500
5313.692468,286.438000,0.873500
5320.516513,286.494000,-0.464000
5327.216104,286.549000,0.224500
5334.034863,286.605000,1.691500
5340.850958,286.661000,-0.505500
5347.664391,286.717000,0.119500
5354.475163,286.773000,1.243500
5361.283275,286.829000,0.384000
5368.088729,286.885000,0.739000
5374.891528,286.941000,0.687500
5381.691671,286.997000,0.886000
5388.489161,287.053000,-0.639000
5395.162686,287.108000,0.159000
5401.954922,287.164000,0.824500
5408.744509,287.220000,0.867500
5415.531448,287.276000,-0.028500
5422.315743,287.332000,0.308500
5428.976316,287.387000,0.628500
5435.755371,287.443000,1.297000
5442.531785,287.499000,1.206000
5449.305560,287.555000,0.506000
5456.076697,287.611000,-0.852500
5462.724355,287.666000,0.881000
5469.490268,287.722000,-0.238000
5476.253548,287.778000,0.058000
5482.893494,287.833000,0.524500
5489.651559,287.889000,-0.892500
5496.406995,287.945000,1.464000
5503.039242,288.000000,0.072500
5509.789473,288.056000,2.634000
5516.537079,288.112000,2.547500
5523.161640,288.167000,0.758500
5529.904050,288.223000,0.339500
5536.643840,288.279000,0.588500
5543.260729,288.334000,-1.683000
5549.995332,288.390000,1.267500
5556.607128,288.445000,0.675000
5563.336549,288.501000,1.363500
5569.943259,288.556000,0.245000
5576.667504,288.612000,0.898000
5583.269134,288.667000,-1.168000
5589.988209,288.723000,1.408500
5596.584764,288.778000,0.062500
5603.298676,288.834000,0.951000
5609.890162,288.889000,1.218500
5616.598916,288.945000,0.141000
5623.185340,289.000000,1.071000
5629.888941,289.056000,1.072500
5636.470308,289.111000,0.099500
5643.168763,289.167000,-0.525000
5649.745079,289.222000,0.906500
5656.438394,289.278000,-1.030000
5663.009664,289.333000,0.129000
5669.578437,289.388000,0.014500
5676.264076,289.444000,-0.322500
5682.827812,289.499000,-0.945500
5689.389054,289.554000,0.645000
5696.067030,289.610000,2.150500
5702.623244,289.665000,1.266500
5709.176969,289.720000,1.525500
5715.847296,289.776000,-0.216000
5722.396001,289.831000,-0.256500
5728.942221,289.886000,-0.707000
5735.485958,289.941000,0.865500
5742.146122,289.997000,0.481000
5748.684850,290.052000,0.466500
5755.221100,290.107000,-0.083500
5761.754871,290.162000,-0.427000
5768.404894,290.218000,-0.560000
5774.933669,290.273000,0.173500
5781.459971,290.328000,0.557000
5787.983800,290.383000,-0.061000
5794.505158,290.438000,0.536000
5801.142550,290.494000,1.222000
5807.658926,290.549000,1.650500
5814.172835,290.604000,1.754500
5820.684279,290.659000,-1.401000
5827.193260,290.714000,0.719500
5833.699778,290.769000,0.794000
5840.203835,290.824000,0.920500
5846.705432,290.879000,0.843500
5853.204572,290.934000,0.240000
5859.701254,290.989000,0.358000
5866.195481,291.044000,0.538500
5872.687254,291.099000,1.974000
5879.176574,291.154000,0.290000
5885.663444,291.209000,0.690000
5892.147863,291.264000,0.651000
5898.629834,291.319000,0.008000
5905.109357,291.374000,2.831000
5911.586435,291.429000,1.020500
5918.061069,291.484000,-0.513000
5924.533260,291.539000,-0.005000
5931.003009,291.594000,-0.457500
5937.470318,291.649000,-0.686500
5943.935188,291.704000,1.703000
5950.397621,291.759000,0.141000
5956.857618,291.814000,0.622500
5963.315180,291.869000,0.437500
5969.770309,291.924000,1.179000
5976.105706,291.978000,0.052500
5982.556017,292.033000,-1.213000
5989.003898,292.088000,0.626000
5995.449352,292.143000,-0.331000
6001.892379,292.198000,0.194500
6008.215901,292.252000,1.571500
6014.654123,292.307000,1.563000
6021.089923,292.362000,-0.456000
6027.523303,292.417000,-0.543500
6033.954262,292.472000,-0.346500
6040.265942,292.526000,0.329500
6046.692111,292.581000,0.099000
6053.115864,292.636000,1.180500
6059.420472,292.690000,0.218500
6065.839442,292.745000,0.460000
6072.256000,292.800000,0.853500
6078.553548,292.854000,-0.354000
6084.965331,292.909000,0.784500
6091.374707,292.964000,-1.463500
6097.665207,293.018000,0.525000
6104.069816,293.073000,-0.519000
6110.472021,293.128000,0.492000
6116.755485,293.182000,1.038500
6123.152931,293.237000,2.017000
6129.431725,293.291000,-0.684500
6135.824417,293.346000,-0.001500
6142.098547,293.400000,0.621000
6148.486490,293.455000,0.384000
6154.872040,293.510000,-0.047000
6161.139160,293.564000,0.157000
6167.519969,293.619000,0.126000
6173.782438,293.673000,0.916000
6180.158512,293.728000,0.755500
6186.416334,293.782000,1.133500
6192.787678,293.837000,-0.109000
6199.040859,293.891000,1.167000
6205.291742,293.945000,-0.301500
6211.656022,294.000000,1.862000
6217.902272,294.054000,1.506000
6224.261835,294.109000,0.344000
6230.503456,294.163000,-0.196000
6236.742786,294.217000,1.738500
6243.095305,294.272000,0.192000
6249.330014,294.326000,0.692000
6255.677829,294.381000,-0.013500
6261.907923,294.435000,1.309500
6268.135731,294.489000,0.795000
6274.476522,294.544000,0.565500
6280.699722,294.598000,0.945000
6286.920642,294.652000,0.807000
6293.139281,294.706000,1.047000
6299.470739,294.761000,-0.060500
6305.684781,294.815000,0.927500
6311.896546,294.869000,-0.105500
6318.106037,294.923000,0.571000
6324.428182,294.978000,1.710500
6330.633085,295.032000,-0.404000
6336.835717,295.086000,0.826500
6343.036080,295.140000,0.460500
6349.234174,295.194000,0.583500
6355.544717,295.249000,3.233500
6361.738236,295.303000,1.967500
6367.929490,295.357000,0.675500
6374.118480,295.411000,-1.267500
6380.305209,295.465000,-1.558500
6386.489676,295.519000,-0.593500
6392.671884,295.573000,0.024000
6398.851833,295.627000,-0.527000
6405.143905,295.682000,0.283000
6411.319300,295.736000,0.029500
6417.492439,295.790000,0.375000
6423.663325,295.844000,1.130500
6429.831958,295.898000,0.013500
6435.998340,295.952000,-1.186500
6442.162473,296.006000,1.039000
6448.324357,296.060000,0.837000
6454.483993,296.114000,-0.056000
6460.641384,296.168000,1.816000
6466.796529,296.222000,0.245500
6472.949431,296.276000,-0.667500
6479.100090,296.330000,0.264500
6485.248508,296.384000,1.860500
6491.280888,296.437000,0.215000
6497.424869,296.491000,1.124000
6503.566612,296.545000,0.149500
6509.706118,296.599000,1.046000
6515.843390,296.653000,1.926500
6521.978427,296.707000,-0.015000
6528.111232,296.761000,1.329500
6534.241805,296.815000,0.396500
6540.256681,296.868000,0.099000
6546.382836,296.922000,0.586000
6552.506763,296.976000,0.509500
6558.628464,297.030000,0.989500
6564.747939,297.084000,0.649000
6570.751928,297.137000,-0.681000
6576.866997,297.191000,-0.320500
6582.979845,297.245000,1.237000
6589.090471,297.299000,1.172000
6595.085780,297.352000,-0.024000
6601.192010,297.406000,1.318000
6607.296023,297.460000,-0.898000
6613.397821,297.514000,2.451500
6619.384468,297.567000,-0.389000
6625.481879,297.621000,1.287000
6631.577077,297.675000,0.860500
6637.557251,297.728000,-1.321000
6643.648069,297.782000,0.853500
6649.623947,297.835000,0.703000
6655.710390,297.889000,0.254000
6661.794627,297.943000,1.397500
6667.764048,297.996000,0.344000
6673.843917,298.050000,2.793000
6679.809053,298.103000,0.171000
6685.884559,298.157000,0.781500
6691.957864,298.211000,0.101000
6697.916562,298.264000,-0.335000
6703.985510,298.318000,-0.227000
6709.939935,298.371000,-0.376500
6716.004532,298.425000,-0.054000
6721.954688,298.478000,-0.250000
6728.014938,298.532000,0.842500
6733.960830,298.585000,0.214000
6739.904611,298.638000,1.767000
6745.958369,298.692000,-0.402000
6751.897893,298.745000,-1.194000
6757.947317,298.799000,-0.211500
6763.882588,298.852000,-1.265500
6769.927680,298.906000,0.239000
6775.858703,298.959000,0.348000
6781.787624,299.012000,1.105500
6787.826249,299.066000,0.175500
6793.750928,299.119000,-0.147000
6799.673508,299.172000,0.913000
6805.705677,299.226000,1.338000
6811.624022,299.279000,0.221500
6817.540272,299.332000,0.449500
6823.565994,299.386000,0.207500
6829.478016,299.439000,-0.084500
6835.387945,299.492000,0.040000
6841.407231,299.546000,0.498000
6847.312940,299.599000,-0.264000
6853.216559,299.652000,0.791500
6859.118090,299.705000,2.192000
6865.017534,299.758000,0.510000
6871.026143,299.812000,-0.163500
6876.921378,299.865000,0.841000
6882.814529,299.918000,-0.345000
6888.705597,299.971000,1.239000
6894.594584,300.024000,0.330500
6900.592545,300.078000,1.279000
6906.477333,300.131000,0.776000
6912.360044,300.184000,-0.898500
6918.240677,300.237000,0.858000
6924.119235,300.290000,-4.507500
6929.995718,300.343000,-9.921000
6935.870127,300.396000,-0.913500
6941.742464,300.449000,0.753000
6947.612730,300.502000,0.821500
6953.480925,300.555000,0.599000
6959.347051,300.608000,0.424500
6965.211108,300.661000,0.489500
6971.073099,300.714000,0.267000
6976.933024,300.767000,-0.208500
6982.790884,300.820000,-1.484000
6988.646680,300.873000,-0.161000
6994.500413,300.926000,0.176500
7000.352085,300.979000,0.997500
7006.201696,301.032000,-0.051000
7012.049248,301.085000,-0.589000
7017.894742,301.138000,-0.273000
7023.738178,301.191000,-0.851000
7029.579559,301.244000,-0.651000
7035.418884,301.297000,-0.463000
7041.256155,301.350000,0.926500
7047.091373,301.403000,0.270000
7052.924539,301.456000,0.446000
7058.645653,301.508000,-3.911500
7064.474758,301.561000,-10.962000
7070.301814,301.614000,-9.421500
7076.126822,301.667000,-4.534500
7081.949784,301.720000,-0.909500
7087.660892,301.772000,0.878000
7093.479803,301.825000,0.226500
7099.296670,301.878000,-0.378500
7105.111496,301.931000,-0.007000
7110.814624,301.983000,0.226000
7116.625408,302.036000,1.192000
7122.434152,302.089000,-0.284500
7128.240858,302.142000,0.187500
7133.936024,302.194000,-0.813500
7139.738696,302.247000,1.298000
7145.539334,302.300000,0.852500
7151.228549,302.352000,0.169500
7157.025159,302.405000,0.544000
7162.819737,302.458000,1.478000
7168.503010,302.510000,-0.211000
7174.293567,302.563000,-0.325500
7180.082095,302.616000,1.959000
7185.759436,302.668000,1.585500
7191.543949,302.721000,1.145000
7197.217352,302.773000,-1.321000
7202.997854,302.826000,-0.747000
7208.667324,302.878000,1.529500
7214.443819,302.931000,1.162000
7220.109360,302.983000,0.496000
7225.881853,303.036000,1.250500
7231.543468,303.088000,0.933000
7237.311962,303.141000,0.057000
7242.969657,303.193000,1.248500
7248.734156,303.246000,1.815500
7254.387934,303.298000,1.284000
7260.148443,303.351000,1.212500
7265.798308,303.403000,0.661500
7271.554831,303.456000,-0.695000
7277.200787,303.508000,-0.250500
7282.953328,303.561000,1.376500
7288.595379,303.613000,-0.081000
7294.235498,303.665000,0.460500
7299.982093,303.718000,0.275500
7305.618313,303.770000,0.741000
7311.252604,303.822000,-0.990000
7316.993262,303.875000,2.303500
7322.623660,303.927000,0.222000
7328.252131,303.979000,0.929000
7333.986862,304.032000,1.511000
7339.611446,304.084000,1.289000
7345.234108,304.136000,5.119000
7350.962920,304.189000,1.701500
7356.581700,304.241000,2.216500
7362.198561,304.293000,0.392000
7367.813502,304.345000,0.286500
7373.426525,304.397000,2.034500
7379.145517,304.450000,1.192000
7384.754669,304.502000,0.390500
7390.361906,304.554000,0.705000
7395.967228,304.606000,1.032000
7401.570637,304.658000,1.687500
7407.279836,304.711000,0.737500
7412.879384,304.763000,-0.792500
7418.477021,304.815000,0.804500
7424.072749,304.867000,-0.308500
7429.666569,304.919000,-1.813000
7435.258480,304.971000,-0.064000
7440.848486,305.023000,0.057000
7446.436585,305.075000,0.164000
7452.022780,305.127000,1.594000
7457.607071,305.179000,0.619500
7463.296795,305.232000,0.064000
7468.877245,305.284000,0.618000
7474.455794,305.336000,0.458000
7480.032444,305.388000,-0.024500
7485.607195,305.440000,0.076000
7491.180048,305.492000,0.252500
7496.751004,305.544000,0.346500
7502.212985,305.595000,0.589000
7507.780187,305.647000,2.915000
7513.345495,305.699000,-0.064000
7518.908909,305.751000,1.093500
7524.470432,305.803000,0.774500
7530.030064,305.855000,0.706000
7535.587805,305.907000,0.341000
7541.143658,305.959000,0.044500
7546.697622,306.011000,0.795500
7552.249699,306.063000,-0.157500
7557.693173,306.114000,-0.080000
7563.241514,306.166000,-1.487000
7568.787971,306.218000,0.242000
7574.332545,306.270000,1.186000
7579.875237,306.322000,1.290000
7585.416047,306.374000,2.183000
7590.848476,306.425000,0.692500
7596.385562,306.477000,0.534000
7601.920769,306.529000,0.173500
7607.454098,306.581000,-0.365000
7612.879195,306.632000,0.496000
7618.408808,306.684000,0.051500
7623.936546,306.736000,1.370500
7629.462411,306.788000,-0.468000
7634.880189,306.839000,1.286000
7640.402345,306.891000,-0.486000
7645.922629,306.943000,-0.922500
7651.334938,306.994000,1.353500
7656.851519,307.046000,0.553000
7662.260197,307.097000,0.174000
7667.773079,307.149000,0.700500
7673.284094,307.201000,-0.250000
7678.687317,307.252000,0.410000
7684.194638,307.304000,-0.387500
7689.700096,307.356000,0.025500
7695.097870,307.407000,0.921500
7700.599639,307.459000,-0.228500
7705.993798,307.510000,0.292500
7711.491883,307.562000,-0.044000
7716.882430,307.613000,0.547000
7722.376833,307.665000,0.398000
7727.763772,307.716000,-0.296000
7733.254498,307.768000,0.040000
7738.637831,307.819000,-0.969000
7744.124884,307.871000,0.186000
7749.504617,307.922000,0.044500
7754.988000,307.974000,-0.788000
7760.364134,308.025000,0.279500
7765.738489,308.076000,-0.091000
7771.216392,308.128000,7.842000
7776.587155,308.179000,22.504000
7782.061397,308.231000,-1.166500
7787.428571,308.282000,0.434000
7792.793970,308.333000,-1.494500
7798.262745,308.385000,0.300000
7803.624561,308.436000,-0.727500
7808.984603,308.487000,-0.070000
7814.447920,308.539000,3.041500
7819.804385,308.590000,-0.138500
7825.159080,308.641000,-0.262000
7830.616947,308.693000,0.798000
7835.968069,308.744000,0.329500
7841.317424,308.795000,0.250000
7846.665012,308.846000,-0.541500
7852.115636,308.898000,0.227500
7857.459659,308.949000,-0.079500
7862.801917,309.000000,0.362000
7868.142413,309.051000,0.652000
7873.481146,309.102000,0.784500
7878.922746,309.154000,-0.126500
7884.257923,309.205000,0.063500
7889.591340,309.256000,-0.040000
7894.922998,309.307000,0.677500
7900.252898,309.358000,0.218000
7905.581041,309.409000,-0.263000
7910.907428,309.460000,0.869000
7916.336447,309.512000,0.171500
7921.659290,309.563000,0.342500
7926.980379,309.614000,-0.256000
7932.299715,309.665000,0.847500
7937.617300,309.716000,0.202000
7942.933134,309.767000,0.541000
7948.247217,309.818000,0.153500
7953.559551,309.869000,-0.307500
7958.870137,309.920000,-0.554000
7964.178976,309.971000,0.803500
7969.486068,310.022000,0.163000
7974.791414,310.073000,0.353000
7980.095015,310.124000,-0.321000
7985.396872,310.175000,0.223000
7990.696985,310.226000,0.069500
7995.995357,310.277000,0.602000
8001.291987,310.328000,1.691500
8006.586876,310.379000,0.188000
8011.880026,310.430000,-1.081500
8017.067700,310.480000,-0.287000
8022.357406,310.531000,0.642000
8027.645376,310.582000,1.292000
8032.931609,310.633000,0.315500
8038.216106,310.684000,0.591500
8043.498869,310.735000,0.188500
8048.779898,310.786000,0.876500
8053.955695,310.836000,0.528500
8059.233293,310.887000,-0.549500
8064.509160,310.938000,0.072500
8069.783296,310.989000,0.022500
8074.952339,311.039000,-0.308000
8080.223051,311.090000,-1.465500
8085.492035,311.141000,1.164500
8090.759292,311.192000,0.095500
8095.921594,311.242000,-0.071000
8101.185433,311.293000,1.628500
8106.447548,311.344000,0.057500
8111.604811,311.394000,-0.898500
8116.863513,311.445000,0.644000
8122.120493,311.496000,0.375500
8127.272724,311.546000,-0.953000
8132.526297,311.597000,0.143500
8137.778150,311.648000,0.267000
8142.925357,311.698000,1.215500
8148.173807,311.749000,-0.264000
8153.420541,311.800000,0.157500
8158.562731,311.850000,1.437000
8163.806066,311.901000,0.134000
8168.944927,311.951000,1.107000
8174.184869,312.002000,0.226000
8179.320403,312.052000,-1.238500
8184.556953,312.103000,0.634500
8189.689165,312.153000,0.564000
8194.922327,312.204000,0.792000
8200.051219,312.254000,-0.323500
8205.280996,312.305000,-0.670500
8210.406572,312.355000,0.212000
8215.632968,312.406000,0.333500
8220.755230,312.456000,0.295500
8225.978248,312.507000,0.859000
8231.097200,312.557000,-0.092000
8236.316843,312.608000,-0.086000
8241.432488,312.658000,-0.210000
8246.546497,312.708000,-0.550000
8251.761101,312.759000,-0.687000
8256.871808,312.809000,-0.269500
8261.980881,312.859000,-1.287000
8267.190453,312.910000,-3.484500
8272.296229,312.960000,0.913500
8277.400373,313.010000,0.931000
8282.604921,313.061000,1.021500
8287.705773,313.111000,-0.244500
8292.804996,313.161000,0.687500
8298.004526,313.212000,-0.740000
8303.100462,313.262000,-0.157500
8308.194770,313.312000,0.744500
8313.287453,313.362000,-0.265500
8318.480316,313.413000,0.520000
8323.569717,313.463000,-0.626500
8328.657496,313.513000,-0.487000
8333.743651,313.563000,0.241000
8338.828185,313.613000,0.681500
8344.012739,313.664000,1.379000
8349.094000,313.714000,-0.184500
8354.173640,313.764000,0.354500
8359.251662,313.814000,-0.054000
8364.328066,313.864000,0.450500
8369.402853,313.914000,-0.167000
8374.476024,313.964000,-0.317500
8379.547579,314.014000,0.611000
8384.718901,314.065000,0.351000
8389.787195,314.115000,-1.378500
8394.853876,314.165000,-0.027500
8399.918944,314.215000,-0.855500
8404.982400,314.265000,-0.827000
8410.044246,314.315000,0.209500
8415.104481,314.365000,-1.357500
8420.163107,314.415000,-0.227500
8425.220124,314.465000,2.440500
8430.275533,314.515000,-0.648500
8435.329336,314.565000,0.086000
8440.381532,314.615000,0.044500
8445.432122,314.665000,0.036500
8450.481107,314.715000,0.563500
8455.528489,314.765000,0.628500
8460.473367,314.814000,-0.092500
8465.517575,314.864000,0.025000
8470.560181,314.914000,-0.022500
8475.601186,314.964000,0.726500
8480.640590,315.014000,0.709500
8485.678395,315.064000,1.826500
8490.714602,315.114000,1.334000
8495.749210,315.164000,1.472500
8500.681577,315.213000,1.587000
8505.713024,315.263000,2.123500
8510.742875,315.313000,1.498500
8515.771131,315.363000,1.788000
8520.797793,315.413000,1.993500
8525.722375,315.462000,1.400500
8530.745883,315.512000,1.208500
8535.767799,315.562000,-1.031500
8540.788124,315.612000,0.025500
8545.706499,315.661000,0.386000
8550.723675,315.711000,-0.226500
8555.739262,315.761000,0.291000
8560.652997,315.810000,-0.420000
8565.665441,315.860000,1.500500
8570.676298,315.910000,0.403000
8575.585399,315.959000,0.187500
8580.593116,316.009000,0.007500
8585.599249,316.059000,0.157500
8590.503723,316.108000,-0.528000
8595.506721,316.158000,-1.014500
8600.508137,316.208000,-1.173000
8605.407991,316.257000,0.055000
8610.406276,316.307000,0.058000
8615.303063,316.356000,-0.279500
8620.298221,316.406000,0.576500
8625.191944,316.455000,1.014000
8630.183977,316.505000,0.078000
8635.074640,316.554000,0.238000
8640.063551,316.604000,0.315000
8644.951156,316.653000,0.022500
8649.936949,316.703000,0.216000
8654.821499,316.752000,0.833500
8659.804175,316.802000,-0.227000
8664.685673,316.851000,-1.184000
8669.665237,316.901000,-0.130000
8674.543685,316.950000,-1.094000
8679.520139,317.000000,0.075500
8684.395541,317.049000,0.503000
8689.269436,317.098000,0.985500
8694.241247,317.148000,-0.028000
8699.112100,317.197000,-1.226500
8703.981448,317.246000,-0.448500
8708.948621,317.296000,0.044000
8713.814931,317.345000,0.422000
8718.779005,317.395000,0.968500
8723.642281,317.444000,0.436000
8728.504055,317.493000,-1.733000
8733.364329,317.542000,-0.483000
8738.322247,317.592000,-0.377500
8743.179491,317.641000,0.204500
8748.035237,317.690000,0.507500
8752.889486,317.739000,-1.284000
8757.841258,317.789000,0.030000
8762.692483,317.838000,-0.851000
8767.542212,317.887000,-1.154000
8772.390446,317.936000,0.468500
8777.336084,317.986000,0.113000
8782.181300,318.035000,1.351000
8787.025024,318.084000,-0.578000
8791.867255,318.133000,0.328500
8796.707995,318.182000,-1.014000
8801.547244,318.231000,0.507500
8806.385003,318.280000,-0.042500
8811.319957,318.330000,-0.446000
8816.154708,318.379000,-0.186500
8820.987971,318.428000,-0.071000
8825.819746,318.477000,0.172000
8830.650035,318.526000,-0.739500
8835.478838,318.575000,-1.433500
8840.306156,318.624000,-0.250000
8845.131990,318.673000,-1.508500
8849.956339,318.722000,-0.260500
8854.779206,318.771000,-0.149000
8859.600590,318.820000,0.093500
8864.420492,318.869000,-1.019000
8869.238913,318.918000,-1.047000
8874.055854,318.967000,1.314500
8878.871314,319.016000,0.055500
8883.685296,319.065000,-0.879500
8888.497800,319.114000,-0.882500
8893.308826,319.163000,-1.055500
8898.118374,319.212000,0.058000
8902.926447,319.261000,-0.723000
8907.634964,319.309000,-0.777000
8912.440116,319.358000,-0.347000
8917.243794,319.407000,-0.685500
8922.045998,319.456000,-0.201500
8926.846729,319.505000,0.669000
8931.645988,319.554000,0.852500
8936.443775,319.603000,0.093500
8941.142222,319.651000,-0.277000
8945.937098,319.700000,-0.114500
8950.730504,319.749000,1.677000
8955.522441,319.798000,-1.768500
8960.215161,319.846000,-4.225000
8965.004192,319.895000,-1.793000
8969.791757,319.944000,-0.354000
8974.577855,319.993000,-0.491500
8979.264858,320.041000,0.040500
8984.048055,320.090000,-0.646000
8988.829789,320.139000,1.983500
8993.512517,320.187000,0.070500
8998.291355,320.236000,0.125000
9003.068730,320.285000,0.138500
9007.747190,320.333000,-0.785500
9012.521672,320.382000,-1.296500
9017.294694,320.431000,-0.939500
9021.968893,320.479000,-0.525000
9026.739026,320.528000,-0.783000
9031.410396,320.576000,-1.017500
9036.177644,320.625000,-1.302500
9040.943434,320.674000,1.382500
9045.610552,320.722000,-1.711500
9050.373460,320.771000,0.263000
9055.037756,320.819000,-0.761500
9059.797784,320.868000,0.290500
9064.459261,320.916000,0.427000
9069.216413,320.965000,-1.038000
9073.875072,321.013000,-0.788500
9078.629350,321.062000,1.491000
9083.285194,321.110000,-0.052500
9088.036601,321.159000,-0.907500
9092.689634,321.207000,0.162500
9097.438171,321.256000,0.210500
9102.088394,321.304000,0.007500
9106.737229,321.352000,-1.167500
9111.481482,321.401000,0.907000
9116.127511,321.449000,0.385500
9120.868902,321.498000,0.451000
9125.512128,321.546000,0.277000
9130.153968,321.594000,-0.410500
9134.891085,321.643000,-1.099500
9139.530126,321.691000,-0.332500
9144.167783,321.739000,-0.180500
9148.900630,321.788000,-0.198000
9153.535492,321.836000,0.113000
9158.168971,321.884000,-0.439000
9162.801069,321.932000,-1.286000
9167.528244,321.981000,-1.437500
9172.157551,322.029000,-0.727500
9176.785479,322.077000,-0.227000
9181.412027,322.125000,0.479000
9186.133540,322.174000,-1.011000
9190.757302,322.222000,-2.054000
9195.379688,322.270000,-1.129000
9200.000697,322.318000,-1.077500
9204.620330,322.366000,-0.546000
9209.334786,322.415000,0.073500
9213.951640,322.463000,0.340000
9218.567119,322.511000,0.211000
9223.181225,322.559000,-0.584000
9227.793957,322.607000,-5.180500
9232.405318,322.655000,-2.505500
9237.015306,322.703000,-0.613500
9241.623923,322.751000,-0.172000
9246.231170,322.799000,-0.082000
9250.932988,322.848000,0.606500
9255.537466,322.896000,0.273000
9260.140576,322.944000,-1.900500
9264.742318,322.992000,0.435500
9269.342693,323.040000,-0.784500
9273.941700,323.088000,0.378500
9278.539341,323.136000,-0.944500
9283.135616,323.184000,-0.262500
9287.730527,323.232000,-0.173500
9292.324072,323.280000,-1.843500
9296.916254,323.328000,-1.841500
9301.411445,323.375000,0.004500
9306.000929,323.423000,-0.655000
9310.589052,323.471000,-0.726500
9315.175812,323.519000,-1.106500
9319.761212,323.567000,-0.933000
9324.345252,323.615000,-0.741000
9328.927932,323.663000,-1.366500
9333.509253,323.711000,-1.909000
9338.089216,323.759000,-0.326500
9342.572447,323.806000,0.117500
9347.149722,323.854000,-0.068000
9351.725642,323.902000,0.728000
9356.300205,323.950000,0.721000
9360.873412,323.998000,-0.364000
9365.350032,324.045000,0.037000
9369.920559,324.093000,0.746000
9374.489732,324.141000,-0.204000
9379.057552,324.189000,-2.452000
9383.528899,324.236000,-3.234000
9388.094043,324.284000,-0.636500
9392.657836,324.332000,0.342500
9397.125241,324.379000,-0.941500
9401.686361,324.427000,-0.655000
9406.246132,324.475000,0.634000
9410.804554,324.523000,-2.187000
9415.266702,324.570000,-0.206500
9419.822456,324.618000,-0.758500
9424.281993,324.665000,-1.071500
9428.835082,324.713000,-0.086000
9433.386824,324.761000,-1.366500
9437.842435,324.808000,0.247000
9442.391516,324.856000,-0.385500
9446.844521,324.903000,-0.675000
9451.390942,324.951000,0.841500
9455.936020,324.999000,-0.903500
9460.385108,325.046000,-1.054000
9464.927530,325.094000,0.846500
9469.374018,325.141000,0.140000
9473.913786,325.189000,0.138000
9478.357677,325.236000,-0.372000
9482.894794,325.284000,0.433000
9487.336090,325.331000,-0.334000
9491.870557,325.379000,1.464500
9496.309260,325.426000,-0.844000
9500.746681,325.473000,-0.043500
9505.277193,325.521000,-1.683500
9509.712024,325.568000,0.588000
9514.239893,325.616000,-0.609500
9518.672137,325.663000,-1.053000
9523.103102,325.710000,0.708500
9527.627024,325.758000,-0.721000
9532.055405,325.805000,-0.837500
9536.576689,325.853000,0.615000
9541.002489,325.900000,0.131000
9545.427013,325.947000,-2.320500
9549.850260,325.994000,-0.062500
9554.366303,326.042000,-0.108000
9558.786974,326.089000,-0.339500
9563.206371,326.136000,0.702000
9567.718482,326.184000,-0.805000
9572.135305,326.231000,-0.047500
9576.550855,326.278000,0.551500
9580.965134,326.325000,-0.849500
9585.472021,326.373000,-0.947500
9589.883730,326.420000,-0.862500
9594.294169,326.467000,-0.227000
9598.703338,326.514000,-0.373500
9603.111238,326.561000,-0.312000
9607.611614,326.609000,-0.615000
9612.016950,326.656000,-0.457000
9616.421019,326.703000,-1.464000
9620.823821,326.750000,-0.455000
9625.225356,326.797000,-0.331000
9629.625626,326.844000,0.613500
9634.024630,326.891000,1.001500
9638.422369,326.938000,0.015500
9642.818845,326.985000,-1.172000
9647.214056,327.032000,-0.095000
9651.701479,327.080000,-0.438500
9656.094138,327.127000,0.770000
9660.485535,327.174000,-0.563500
9664.875670,327.221000,0.018500
9669.264544,327.268000,-0.451500
9673.652158,327.315000,0.558500
9678.038512,327.362000,0.017500
9682.423607,327.409000,-0.319000
9686.807443,327.456000,-0.713000
9691.190021,327.503000,-0.154500
9695.478134,327.549000,-1.321000
9699.858224,327.596000,0.149000
9704.237057,327.643000,0.644500
9708.614633,327.690000,-0.143500
9712.990955,327.737000,-0.698500
9717.366021,327.784000,0.041000
9721.739833,327.831000,0.008000
9726.112390,327.878000,0.324000
9730.483695,327.925000,0.267500
9734.760780,327.971000,-0.931500
9739.129606,328.018000,0.059000
9743.497180,328.065000,-1.539500
9747.863503,328.112000,0.245000
9752.228575,328.159000,1.608000
9756.499562,328.205000,0.071500
9760.862161,328.252000,1.310500
9765.223511,328.299000,-0.503000
9769.583612,328.346000,-1.231500
9773.849737,328.392000,0.142000
9778.207369,328.439000,1.679000
9782.563754,328.486000,0.642000
9786.918893,328.533000,-1.141500
9791.180163,328.579000,0.615500
9795.532837,328.626000,0.238500
9799.884266,328.673000,2.219500
9804.141906,328.719000,1.564000
9808.490874,328.766000,3.442500
9812.838598,328.813000,0.564000
9817.092614,328.859000,4.772000
9821.437879,328.906000,-0.036000
9825.689490,328.952000,-0.743000
9830.032299,328.999000,0.817000
9834.373868,329.046000,0.866000
9838.621862,329.092000,0.160500
9842.960977,329.139000,0.432000
9847.206571,329.185000,-0.289500
9851.543235,329.232000,-1.420500
9855.786431,329.278000,-0.253500
9860.120646,329.325000,-1.347500
9864.361446,329.371000,-0.808500
9868.693214,329.418000,-1.612500
9872.931619,329.464000,-1.215500
9877.260942,329.511000,1.001500
9881.496956,329.557000,0.247000
9885.823836,329.604000,-1.032500
9890.057460,329.650000,-0.984000
9894.289903,329.696000,-0.820500
9898.613135,329.743000,-0.669000
9902.843191,329.789000,-1.467000
9907.163985,329.836000,-0.027500
9911.391656,329.882000,-0.856500
9915.618148,329.928000,-1.670500
9919.935303,329.975000,0.102500
9924.159413,330.021000,0.000000
9928.382346,330.067000,-1.444500
9932.695866,330.114000,-0.416500
9936.916419,330.160000,-0.911500
9941.135797,330.206000,-0.316000
9945.445687,330.253000,-0.462500
9949.662689,330.299000,-1.004000
9953.878516,330.345000,0.686500
9958.093170,330.391000,0.118000
9962.398234,330.438000,-0.941500
9966.610516,330.484000,-0.864000
9970.821625,330.530000,0.241000
9975.031562,330.576000,0.856000
9979.240328,330.622000,0.883000
9983.539380,330.669000,-0.540500
9987.745778,330.715000,0.619500
9991.951007,330.761000,0.196000
9996.155067,330.807000,-0.506500
10000.357957,330.853000,-1.309500
10004.559679,330.899000,-0.545500
10008.760233,330.945000,-1.863500
10013.050897,330.992000,0.745000
10017.249091,331.038000,0.018000
10021.446118,331.084000,-0.194500
10025.641979,331.130000,-0.446000
10029.836675,331.176000,-1.708000
10034.030205,331.222000,-0.268500
10038.222571,331.268000,0.229500
10042.413773,331.314000,-0.502500
10046.603811,331.360000,-1.459500
10050.792686,331.406000,-0.758500
10054.980398,331.452000,-0.499000
10059.166948,331.498000,-1.030000
10063.352336,331.544000,-0.507000
10067.536563,331.590000,0.967500
10071.719629,331.636000,0.158500
10075.901535,331.682000,-0.795500
10080.082281,331.728000,0.332500
10084.261868,331.774000,4.857500
10088.440296,331.820000,-0.157500
10092.526768,331.865000,0.109000
10096.702905,331.911000,0.036500
10100.877884,331.957000,-0.525500
10105.051707,332.003000,-0.531000
10109.224373,332.049000,0.323500
10113.395884,332.095000,-1.129500
10117.475591,332.140000,-0.401000
10121.644816,332.186000,-0.478500
10125.812886,332.232000,-0.016000
10129.979802,332.278000,0.148000
10134.145565,332.324000,0.412000
10138.219652,332.369000,-0.154000
10142.383134,332.415000,-0.058000
10146.545464,332.461000,0.396500
10150.706643,332.507000,-1.668000
10154.776247,332.552000,0.841000
10158.935148,332.598000,-0.383500
10163.092900,332.644000,-0.630000
10167.159152,332.689000,-1.647500
10171.314630,332.735000,-0.812000
10175.468958,332.781000,1.697500
10179.531864,332.826000,-0.498000
10183.683921,332.872000,-2.346000
10187.834831,332.918000,-1.385000
10191.894393,332.963000,-0.879000
10196.043035,333.009000,0.107000
10200.190530,333.055000,-0.145500
10204.246754,333.100000,0.319000
10208.391984,333.146000,-1.192000
10212.445992,333.191000,-0.254000
10216.588958,333.237000,0.134000
10220.640753,333.282000,-0.267000
10224.781457,333.328000,-0.382000
10228.831039,333.373000,1.544000
10232.969483,333.419000,-1.282500
10237.016856,333.464000,0.400500
10241.153042,333.510000,-0.210500
10245.198206,333.555000,0.703500
10249.332135,333.601000,0.772500
10253.375094,333.646000,-1.035500
10257.506768,333.692000,-1.377500
10261.547522,333.737000,2.427000
10265.587186,333.782000,0.158000
10269.715494,333.828000,0.008500
10273.752956,333.873000,-0.883000
10277.879015,333.919000,-0.904000
10281.914277,333.964000,0.062500
10285.948452,334.009000,-0.167500
10290.071151,334.055000,0.144500
10294.103128,334.100000,-0.115000
10298.134020,334.145000,5.580500
10302.253364,334.191000,2.537000
10306.282060,334.236000,0.401000
10310.309672,334.281000,-6.743500
10314.425666,334.327000,-2.420500
10318.451085,334.372000,-0.513000
10322.475422,334.417000,0.047000
10326.498675,334.462000,-0.257000
10330.610215,334.508000,0.335500
10334.631280,334.553000,1.139500
10338.651263,334.598000,-1.066500
10342.670165,334.643000,0.440500
10346.687987,334.688000,-1.551500
10350.704728,334.733000,-0.430500
10354.809614,334.779000,-0.542500
10358.824172,334.824000,0.248000
10362.837651,334.869000,35.448000
10366.850051,334.914000,46.650500
10370.861373,334.959000,25.597000
10374.871618,335.004000,3.459000
10378.880786,335.049000,0.318000
10382.888876,335.094000,-0.359000
10386.984923,335.140000,-0.546500
10390.990838,335.185000,-1.365500
10394.995677,335.230000,0.628000
10398.999440,335.275000,-1.892000
10403.002130,335.320000,0.660500
10407.003745,335.365000,0.828000
10411.004286,335.410000,-0.636000
10415.003755,335.455000,0.335000
10419.002150,335.500000,0.551500
10422.999473,335.545000,-0.374000
10426.995723,335.590000,0.199000
10430.990902,335.635000,-0.908000
10434.985010,335.680000,0.954500
10438.889325,335.724000,0.137000
10442.881316,335.769000,0.027000
10446.872237,335.814000,2.046000
10450.862088,335.859000,0.092500
10454.850871,335.904000,-0.137500
10458.838585,335.949000,-0.739500
10462.825230,335.994000,0.507500
10466.810808,336.039000,0.645000
10470.706786,336.083000,0.977000
10474.690253,336.128000,-0.454000
10478.672654,336.173000,-0.442000
10482.653989,336.218000,-0.031500
10486.634259,336.263000,-1.223000
10490.525048,336.307000,0.480500
10494.503211,336.352000,-0.034000
10498.480310,336.397000,-0.181500
10502.456345,336.442000,-1.033500
10506.342995,336.486000,0.701500
10510.316927,336.531000,0.679000
10514.289797,336.576000,-0.043000
10518.261604,336.621000,1.091000
10522.144122,336.665000,-0.245500
10526.113830,336.710000,-0.599000
10530.082477,336.755000,-0.630500
10533.961906,336.799000,0.120500
10537.928455,336.844000,-0.543500
10541.893946,336.889000,0.436500
10545.770289,336.933000,-0.897500
10549.733685,336.978000,-0.196000
10553.607982,337.022000,-2.365000
10557.569284,337.067000,-0.255500
10561.529529,337.112000,0.117500
10565.400747,337.156000,-1.791000
10569.358902,337.201000,0.146500
10573.228076,337.245000,0.082000
10577.184142,337.290000,0.090500
10581.051275,337.334000,-0.940500
10585.005254,337.379000,1.039000
10588.870347,337.423000,-1.560000
10592.822240,337.468000,-1.083000
10596.685295,337.512000,0.315500
10600.635105,337.557000,1.896000
10604.496123,337.601000,0.648000
10608.443850,337.646000,1.799000
10612.302834,337.690000,-0.230000
10616.160811,337.734000,-1.035500
10620.105430,337.779000,0.108000
10623.961375,337.823000,3.474500
10627.903916,337.868000,-0.817500
10631.757830,337.912000,0.137500
10635.610740,337.956000,-0.384500
10639.550179,338.001000,0.935500
10643.401061,338.045000,2.312500
10647.250940,338.089000,-1.054500
10651.187281,338.134000,-0.366500
10655.035134,338.178000,-0.532000
10658.881986,338.222000,0.936000
10662.815231,338.267000,0.182000
10666.660059,338.311000,-0.530000
10670.503887,338.355000,0.246500
10674.346716,338.399000,-0.757000
10678.275848,338.444000,0.625000
10682.116656,338.488000,-0.014500
10685.956465,338.532000,-0.559500
10689.795276,338.576000,1.372000
10693.633090,338.620000,-0.647000
10697.557096,338.665000,-0.008500
10701.392893,338.709000,-0.929000
10705.227693,338.753000,-0.960500
10709.061498,338.797000,-0.788000
10712.894307,338.841000,-0.293000
10716.726120,338.885000,3.033000
10720.556939,338.929000,-1.362500
10724.386763,338.973000,-0.538500
10728.302601,339.018000,-1.536500
10732.130414,339.062000,0.546000
10735.957235,339.106000,-0.537500
10739.783062,339.150000,-0.899500
10743.607897,339.194000,-0.584000
10747.431740,339.238000,0.014000
10751.254591,339.282000,0.076500
10755.076450,339.326000,-1.665500
10758.897319,339.370000,-0.965500
10762.717197,339.414000,-0.259500
10766.536084,339.458000,-0.101000
10770.353982,339.502000,0.727500
10774.170890,339.546000,-0.761500
10777.986809,339.590000,-0.390500
10781.801740,339.634000,0.556000
10785.615682,339.678000,0.929000
10789.341989,339.721000,1.271000
10793.153978,339.765000,-0.974500
10796.964980,339.809000,-0.661000
10800.774995,339.853000,-0.034000
10804.584024,339.897000,-0.372500
10808.392066,339.941000,-0.209000
10812.199123,339.985000,-1.738500
10816.005195,340.029000,-0.076500
10819.723813,340.072000,0.345500
10823.527938,340.116000,0.434000
10827.331078,340.160000,-0.011000
10831.133235,340.204000,-1.129500
10834.848029,340.247000,0.011000
10838.648242,340.291000,0.287500
10842.447472,340.335000,1.163500
10846.245720,340.379000,-0.263000
10849.956695,340.422000,-1.362000
10853.753002,340.466000,-0.451500
10857.548328,340.510000,-0.498500
10861.342673,340.554000,0.106000
10865.049836,340.597000,-0.610500
10868.842243,340.641000,-1.892000
10872.633670,340.685000,1.078000
10876.337983,340.728000,3.281000
10880.127474,340.772000,-0.270000
10883.829896,340.815000,-1.221500
10887.617453,340.859000,-0.238500
10891.404033,340.903000,-1.031000
10895.103609,340.946000,-1.102000
10898.888257,340.990000,-2.292500
10902.585946,341.033000,-0.350000
10906.368663,341.077000,0.295500
10910.150404,341.121000,-0.861500
10913.845254,341.164000,0.207500
10917.625066,341.208000,0.545500
10921.318033,341.251000,-1.115500
10925.095918,341.295000,0.829500
10928.787002,341.338000,-0.493000
10932.562962,341.382000,0.422000
10936.252165,341.425000,-0.364000
10939.940439,341.468000,-0.468500
10943.713524,341.512000,-0.227000
10947.399919,341.555000,-0.503500
10951.171083,341.599000,-0.083500
10954.855601,341.642000,-0.915000
10958.624845,341.686000,-1.696000
10962.307486,341.729000,-0.403500
10965.989201,341.772000,-1.109500
10969.755578,341.816000,-0.943000
10973.435419,341.859000,-0.330000
10977.114334,341.902000,0.442000
10980.877848,341.946000,0.122500
10984.554892,341.989000,-0.396000
10988.231011,342.032000,-2.122000
10991.991665,342.076000,-1.767000
10995.665914,342.119000,-3.870500
10999.339240,342.162000,0.231000
11003.011643,342.205000,-0.536500
11006.768496,342.249000,-0.726000
11010.439032,342.292000,-0.104000
11014.108646,342.335000,-2.639000
11017.777338,342.378000,-1.933000
11021.530396,342.422000,-3.073000
11025.197224,342.465000,-1.916000
11028.863132,342.508000,0.651000
11032.528119,342.551000,0.810000
11036.192187,342.594000,0.595000
11039.855335,342.637000,-1.319500
11043.602720,342.681000,-1.386000
11047.264009,342.724000,-0.619500
11050.924378,342.767000,0.039500
11054.583829,342.810000,-0.717000
11058.242363,342.853000,-0.303500
11061.899979,342.896000,-0.322500
11065.556677,342.939000,-0.128000
11069.212459,342.982000,-1.459000
11072.867324,343.025000,0.134000
11076.521273,343.068000,-0.228500
11080.174306,343.111000,-0.837000
11083.826423,343.154000,-0.965500
11087.477626,343.197000,0.413500
11091.127913,343.240000,-0.059000
11094.777286,343.283000,-0.060500
11098.425745,343.326000,-0.410500
11102.073291,343.369000,-1.008500
11105.719922,343.412000,-0.263000
11109.365641,343.455000,-0.660500
11113.010447,343.498000,0.121500
11116.654340,343.541000,0.279000
11120.297322,343.584000,0.181500
11123.939391,343.627000,-0.690000
11127.580549,343.670000,-0.385000
11131.220797,343.713000,-0.319500
11134.775508,343.755000,-0.210500
11138.413955,343.798000,-0.111000
11142.051492,343.841000,0.310000
11145.688120,343.884000,0.336000
11149.323838,343.927000,0.366000
11152.958647,343.970000,-1.140000
11156.508049,344.012000,0.368000
11160.141062,344.055000,-0.554000
11163.773167,344.098000,-0.251500
11167.404365,344.141000,0.679000
11170.950240,344.183000,4.043000
11174.579645,344.226000,3.791500
11178.208143,344.269000,-0.327000
11181.751382,344.311000,-0.798000
11185.378088,344.354000,-1.102500
11189.003889,344.397000,0.288500
11192.628785,344.440000,-0.863500
11196.168507,344.482000,-0.156500
11199.791614,344.525000,-1.361000
11203.413817,344.568000,-1.226000
11206.950910,344.610000,0.631500
11210.571327,344.653000,-0.660000
11214.106675,344.695000,0.139000
11217.725306,344.738000,0.123000
11221.343035,344.781000,-0.349000
11224.875759,344.823000,-0.212000
11228.491704,344.866000,-0.381000
11232.022687,344.908000,0.755500
11235.636851,344.951000,-2.745500
11239.166094,344.993000,1.480000
11242.778477,345.036000,0.419500
11246.305982,345.078000,1.006500
11249.916585,345.121000,-0.121000
11253.442353,345.163000,-0.596000
11257.051178,345.206000,-0.355500
11260.575210,345.248000,1.248500
11264.182259,345.291000,-0.396500
11267.704555,345.333000,-1.297000
11271.309829,345.376000,0.677500
11274.830392,345.418000,-0.112500
11278.350100,345.460000,0.291000
11281.952723,345.503000,0.291000
11285.470699,345.545000,-0.525000
11288.987820,345.587000,0.205500
11292.587796,345.630000,-1.505000
11296.103187,345.672000,0.286500
11299.701393,345.715000,-0.142500
11303.215056,345.757000,-0.602000
11306.727865,345.799000,-1.956000
11310.239821,345.841000,-0.680000
11313.834512,345.884000,0.278500
11317.344742,345.926000,-0.013000
11320.854120,345.968000,0.075000
11324.446172,346.011000,0.017000
11327.953826,346.053000,-0.341000
11331.460629,346.095000,-0.112000
11334.966581,346.137000,0.346000
11338.471682,346.179000,-0.802500
11342.059357,346.222000,-0.182000
11345.562737,346.264000,-0.490500
11349.065268,346.306000,0.791000
11352.566949,346.348000,-1.527000
11356.067781,346.390000,0.919000
11359.567764,346.432000,-0.687000
11363.150201,346.475000,-2.128000
11366.648467,346.517000,-1.098500
11370.145885,346.559000,-1.188500
11373.642456,346.601000,-0.021000
11377.138179,346.643000,-0.098000
11380.633055,346.685000,-1.663500
11384.127085,346.727000,-0.609000
11387.620268,346.769000,-1.683500
11391.112605,346.811000,-1.242000
11394.604096,346.853000,-1.048000
11398.094742,346.895000,-0.363500
11401.584543,346.937000,-1.442000
11405.073499,346.979000,-0.855000
11408.561610,347.021000,1.404500
11412.048877,347.063000,-0.687500
11415.535301,347.105000,-0.751000
11419.020880,347.147000,-0.408000
11422.505617,347.189000,-0.309500
11425.989510,347.231000,-1.567000
11429.472560,347.273000,-0.335500
11432.954769,347.315000,-0.710000
11436.436135,347.357000,0.009500
11439.916659,347.399000,1.816500
11443.313502,347.440000,-0.739500
11446.792364,347.482000,-1.044000
11450.270384,347.524000,0.544000
11453.747565,347.566000,-0.096000
11457.223905,347.608000,0.099500
11460.699405,347.650000,-0.240000
11464.091345,347.691000,-0.922000
11467.565186,347.733000,-0.157500
11471.038188,347.775000,0.270000
11474.510351,347.817000,0.472500
11477.981676,347.859000,0.200000
11481.369541,347.900000,0.266500
11484.839210,347.942000,0.467000
11488.308041,347.984000,-1.866500
11491.693473,348.025000,-0.065500
11495.160650,348.067000,-0.072000
11498.626991,348.109000,-0.730000
11502.092494,348.151000,0.857000
11505.474680,348.192000,0.674500
11508.938532,348.234000,0.396500
11512.401549,348.276000,0.735500
11515.781307,348.317000,0.803500
11519.242673,348.359000,0.841500
11522.620821,348.400000,1.372000
11526.080539,348.442000,-1.728500
11529.539422,348.484000,-0.110500
11532.915148,348.525000,-0.107500
11536.372384,348.567000,-0.194500
11539.746502,348.608000,-0.302000
11543.202092,348.650000,-0.490000
11546.574604,348.691000,-2.118000
11550.028550,348.733000,-0.166000
11553.399456,348.774000,-2.261500
11556.851758,348.816000,-0.748000
11560.221061,348.857000,0.098000
11563.671720,348.899000,0.201500
11567.039420,348.940000,1.514000
11570.488439,348.982000,0.585500
11573.854537,349.023000,0.153500
11577.301915,349.065000,-0.267000
11580.666413,349.106000,0.588500
11584.030120,349.147000,-1.377500
11587.475051,349.189000,-4.545500
11590.837159,349.230000,-1.760000
11594.280452,349.272000,-3.725500
11597.640963,349.313000,0.440500
11601.000686,349.354000,0.460500
11604.441535,349.396000,-1.512000
11607.799661,349.437000,0.700500
11611.157000,349.478000,0.508500
11614.595408,349.520000,-0.048000
11617.951152,349.561000,-1.659000
11621.306109,349.602000,-0.561000
11624.660280,349.643000,0.092000
11628.095443,349.685000,-0.105000
11631.448022,349.726000,-0.747500
11634.799814,349.767000,0.130500
11638.150821,349.808000,-1.169500
11641.582745,349.850000,-0.983000
11644.932162,349.891000,-0.496000
11648.280794,349.932000,0.284000
11651.628641,349.973000,-0.855000
11654.975704,350.014000,-1.082000
11658.403590,350.056000,-0.753000
11661.749066,350.097000,1.121000
11665.093759,350.138000,0.066000
11668.437668,350.179000,-0.520000
11671.780795,350.220000,-1.157500
11675.123139,350.261000,-0.369500
11678.464700,350.302000,0.885500
11681.805480,350.343000,-0.622000
11685.145477,350.384000,-1.050000
11688.484693,350.425000,-2.450500
11691.904543,350.467000,-4.510500
11695.242178,350.508000,-1.453500
11698.579032,350.549000,-0.076000
11701.915105,350.590000,-0.063500
11705.250398,350.631000,-0.568000
11708.584912,350.672000,-0.015500
11711.918645,350.713000,-1.466500
11715.251600,350.754000,-0.349000
11718.502512,350.794000,-0.593500
11721.833927,350.835000,-0.348500
11725.164564,350.876000,-0.343000
11728.494422,350.917000,-0.574500
11731.823503,350.958000,0.202500
11735.151806,350.999000,-0.028500
11738.479331,351.040000,-0.843000
11741.806079,351.081000,0.557000
11745.132050,351.122000,-0.461500
11748.457245,351.163000,-0.287000
11751.700589,351.203000,-1.186000
11755.024250,351.244000,-0.603500
11758.347135,351.285000,-0.797500
11761.669245,351.326000,-0.076000
11764.990579,351.367000,-1.345500
11768.230159,351.407000,-0.156000
11771.549962,351.448000,-0.177000
11774.868991,351.489000,-0.544500
11778.187246,351.530000,0.294000
11781.423822,351.570000,-0.234000
11784.740548,351.611000,0.350000
11788.056500,351.652000,-0.205500
11791.371680,351.693000,-1.175000
11794.605256,351.733000,-0.287000
11797.918909,351.774000,0.086500
11801.231790,351.815000,-0.418000
11804.463124,351.855000,-0.156000
11807.774479,351.896000,0.092500
11811.085063,351.937000,0.123500
11814.314158,351.977000,0.138000
11817.623218,352.018000,0.174000
11820.850827,352.058000,0.004500
11824.158365,352.099000,-0.004000
11827.465133,352.140000,0.819500
11830.690506,352.180000,-0.997500
11833.995753,352.221000,-0.154000
11837.219643,352.261000,0.422000
11840.523370,352.302000,0.718500
11843.745778,352.342000,-0.088500
11847.047986,352.383000,-0.043000
11850.268913,352.423000,0.491000
11853.569603,352.464000,-0.502500
11856.789050,352.504000,0.510500
11860.088224,352.545000,-0.645000
11863.306191,352.585000,-0.397500
11866.603850,352.626000,-0.760000
11869.820339,352.666000,-0.223500
11873.116483,352.707000,0.291000
11876.331495,352.747000,0.368000
11879.545777,352.787000,-0.131000
11882.839661,352.828000,0.602500
11886.052468,352.868000,0.372500
11889.264547,352.908000,-0.450500
11892.556173,352.949000,-1.047000
11895.766777,352.989000,-0.598000
11899.056892,353.030000,1.764000
11902.266024,353.070000,-0.397500
11905.474429,353.110000,0.050500
11908.682107,353.150000,-0.051000
11911.969223,353.191000,0.635000
11915.175430,353.231000,-0.848000
11918.380911,353.271000,-1.345500
11921.665775,353.312000,0.603500
11924.869787,353.352000,-0.358000
11928.073073,353.392000,-2.056500
11931.275634,353.432000,-0.439500
11934.477470,353.472000,-1.135500
11937.758600,353.513000,0.488500
11940.958969,353.553000,0.950500
11944.158614,353.593000,-0.725500
11947.357536,353.633000,1.012500
11950.555733,353.673000,-0.299000
11953.753208,353.713000,1.221500
11957.029868,353.754000,-0.822500
11960.225879,353.794000,-2.072500
11963.421166,353.834000,-10.701000
11966.615732,353.874000,-4.980000
11969.809575,353.914000,-2.912500
11973.002696,353.954000,-2.226000
11976.195096,353.994000,-5.821000
11979.386774,354.034000,-2.750500
11982.577731,354.074000,-2.099500
11985.767968,354.114000,-1.989500
11988.957483,354.154000,-3.736500
11992.146279,354.194000,-6.889500
11995.334354,354.234000,-5.791000
11998.521709,354.274000,-6.280000
12001.708345,354.314000,-2.840000
12004.894261,354.354000,-3.255000
12008.079458,354.394000,-2.926000
12011.263936,354.434000,-0.317000
12014.447695,354.474000,-0.285000
12017.630736,354.514000,-0.847000
12020.813059,354.554000,0.189000
12023.994663,354.594000,-1.484000
12027.175550,354.634000,0.159500
12030.276224,354.673000,-0.612500
12033.455694,354.713000,-0.743500
12036.634448,354.753000,0.388000
12039.812484,354.793000,-0.351000
12042.989804,354.833000,-2.464500
12046.166408,354.873000,-0.424000
12049.262907,354.912000,-0.025500
12052.438097,354.952000,-1.180000
12055.612571,354.992000,-0.875000
12058.786330,355.032000,-0.703000
12061.880056,355.071000,0.008500
12065.052403,355.111000,-2.024000
12068.224035,355.151000,-0.981500
12071.394953,355.191000,1.494000
12074.485910,355.230000,0.887000
12077.655418,355.270000,0.181500
12080.824212,355.310000,0.895500
12083.913100,355.349000,0.594000
12087.080485,355.389000,-0.517500
12090.247158,355.429000,-1.445500
12093.333977,355.468000,-1.857000
12096.499242,355.508000,-14.294000
12099.663795,355.548000,-351.086500
12102.748549,355.587000,-343.447000
12105.911696,355.627000,-254.891500
12108.995079,355.666000,-377.429000
12112.156822,355.706000,-372.738500
12115.317853,355.746000,-265.223000
12118.399174,355.785000,-440.960500
12121.558801,355.825000,-306.087000
12124.638754,355.864000,-492.037500
12127.796979,355.904000,-508.003000
12130.875565,355.943000,-363.902000
12134.032389,355.983000,-303.897500
12137.109608,356.022000,-345.375000
12140.265031,356.062000,-240.153500
12143.340885,356.101000,-547.832000
12146.494908,356.141000,-418.091500
12149.569398,356.180000,-272.129000
12152.643215,356.219000,-315.024000
12155.795149,356.259000,-303.457000
12158.867603,356.298000,-262.105500
12162.018139,356.338000,-466.632000
12165.089231,356.377000,-245.040500
12168.159651,356.416000,-385.867000
12171.308101,356.456000,-449.687000
12174.377160,356.495000,-456.646500
12177.445548,356.534000,-180.431000
12180.591915,356.574000,-290.139500
12183.658943,356.613000,-361.375500
12186.725300,356.652000,-254.418000
12189.869585,356.692000,-180.758500
12192.934585,356.731000,-498.270500
12195.998914,356.770000,-334.838000
12199.062573,356.809000,-480.551000
12202.204093,356.849000,-350.100000
12205.266396,356.888000,-324.055500
12208.328030,356.927000,-309.506500
12211.388995,356.966000,-192.250500
12214.527751,357.006000,-327.644000
12217.587361,357.045000,-193.857500
12220.646304,357.084000,-377.291500
12223.704578,357.123000,-247.825000
12226.762184,357.162000,-418.371000
12229.819122,357.201000,-432.339500
12232.953750,357.241000,-401.096500
12236.009337,357.280000,-261.386500
12239.064257,357.319000,-346.210000
12242.118510,357.358000,-237.091000
12245.172096,357.397000,-430.791000
12248.225016,357.436000,-288.696000
