raman_shift_cm-1,wavelength_nm,intensity
-311.444523,246.690000,0.000000
-300.766377,246.755000,0.000000
-290.093855,246.820000,0.000000
-279.262891,246.886000,0.000000
-268.601691,246.951000,0.035407
-257.946101,247.016000,0.239242
-247.296118,247.081000,-0.014360
-236.651737,247.146000,1.983677
-226.012953,247.211000,-0.082252
-215.216219,247.277000,0.070074
-204.588703,247.342000,1.071962
-193.966771,247.407000,-1.811863
-183.350419,247.472000,-0.051558
-172.739643,247.537000,0.222219
-162.134437,247.602000,0.909563
-151.534799,247.667000,-0.000366
-140.940722,247.732000,-2.161461
-130.352203,247.797000,0.285779
-119.769238,247.862000,0.659631
-109.191822,247.927000,-0.650787
-98.619951,247.992000,1.512924
-88.053621,248.057000,-1.520524
-77.655258,248.121000,0.568461
-67.099910,248.186000,-0.994042
-56.550089,248.251000,-0.284478
-46.005792,248.316000,0.876613
-35.467013,248.381000,2.469218
-24.933749,248.446000,0.575410
-14.405995,248.511000,-2.330738
-4.045586,248.575000,-4.025571
6.471245,248.640000,-0.259695
16.982580,248.705000,0.186934
27.488421,248.770000,2.549426
37.827271,248.834000,0.237908
48.322224,248.899000,2.280526
58.811696,248.964000,1.622255
69.134442,249.028000,2.544129
79.613052,249.093000,0.246096
90.086194,249.158000,0.507684
100.392873,249.222000,1.028292
110.855177,249.287000,0.184491
121.312027,249.352000,-0.417466
131.602677,249.416000,2.032240
142.048715,249.481000,1.358773
152.328727,249.545000,-0.482532
162.763968,249.610000,0.862591
173.033359,249.674000,2.309304
183.457821,249.739000,0.756293
193.716607,249.803000,0.296313
204.130307,249.868000,-0.893528
214.378504,249.932000,1.003197
224.781458,249.997000,-3.495674
235.019083,250.061000,2.101512
245.411309,250.126000,-0.475441
255.638378,250.190000,-0.544540
265.860216,250.254000,1.244737
276.236420,250.319000,-2.283427
286.447727,250.383000,-2.663204
296.813243,250.448000,-4.491574
307.014035,250.512000,3.062748
317.209616,250.576000,0.813752
327.399990,250.640000,-3.460739
337.744263,250.705000,0.475988
347.924154,250.769000,4.698292
358.098850,250.833000,-1.834295
368.268355,250.897000,-6.924295
378.591450,250.962000,-2.624299
388.750505,251.026000,-2.420890
398.904381,251.090000,-6.524940
409.053082,251.154000,0.475252
419.196612,251.218000,0.933785
429.334975,251.282000,-4.036208
439.626466,251.347000,-2.925543
449.754426,251.411000,-1.354426
459.877231,251.475000,-2.740992
469.994885,251.539000,-3.577068
480.107392,251.603000,-4.194330
490.214756,251.667000,-2.421872
500.316980,251.731000,-6.054733
510.414069,251.795000,-1.171913
520.506026,251.859000,-0.016757
530.592855,251.923000,-1.092374
540.674561,251.987000,3.565662
550.751147,252.051000,-4.390617
560.822617,252.115000,-0.279970
570.888975,252.179000,-3.668169
580.950225,252.243000,-1.820592
590.849282,252.306000,-4.540821
600.900407,252.370000,-1.972042
610.946435,252.434000,-3.689704
620.987371,252.498000,4.362801
631.023218,252.562000,3.059888
641.053980,252.626000,-2.253257
650.923048,252.689000,-2.641638
660.943731,252.753000,2.969708
670.959341,252.817000,0.831774
680.969880,252.881000,-7.044249
690.819058,252.944000,-2.002564
700.819549,253.008000,-4.235586
710.814983,253.072000,-0.790917
720.805362,253.136000,-2.183681
730.634708,253.199000,2.297627
740.615069,253.263000,-1.271629
750.434561,253.326000,-3.144007
760.404919,253.390000,3.886771
770.370241,253.454000,4.607879
780.174941,253.517000,-1.360151
790.130283,253.581000,0.212638
799.925166,253.644000,0.765019
809.870542,253.708000,3.537321
819.655623,253.771000,-3.614590
829.591048,253.835000,5.205756
839.366341,253.898000,2.011180
849.291831,253.962000,-0.019752
859.057350,254.025000,1.455134
868.972920,254.089000,1.427029
878.728681,254.152000,-1.303732
888.634344,254.216000,-1.112282
898.380361,254.279000,4.977852
908.121550,254.342000,-0.368799
918.012421,254.406000,1.962828
927.743888,254.469000,-0.197931
937.470538,254.532000,2.412210
947.346650,254.596000,5.850482
957.063600,254.659000,-0.604890
966.775743,254.722000,-1.351937
976.637128,254.786000,-3.975533
986.339593,254.849000,4.619347
996.037261,254.912000,-0.895217
1005.730138,254.975000,2.011799
1015.571966,255.039000,0.521065
1025.255192,255.102000,0.279775
1034.933637,255.165000,-0.743179
1044.607304,255.228000,1.098939
1054.276196,255.291000,-2.490485
1063.940318,255.354000,0.893484
1073.599672,255.417000,6.336961
1083.407471,255.481000,2.442385
1093.057225,255.544000,-1.540255
1102.702223,255.607000,-2.543651
1112.342467,255.670000,-0.006087
1121.977961,255.733000,2.643154
1131.608710,255.796000,2.323329
1141.234715,255.859000,-2.370782
1150.855981,255.922000,0.501966
1160.472512,255.985000,4.980907
1170.084310,256.048000,1.007109
1179.691379,256.111000,5.936502
1189.293724,256.174000,4.725556
1198.739040,256.236000,6.278850
1208.332019,256.299000,-3.750604
1217.920283,256.362000,-1.276263
1227.503835,256.425000,-1.887407
1237.082680,256.488000,-6.444722
1246.656820,256.551000,0.018174
1256.226260,256.614000,-1.965289
1265.639217,256.676000,-0.061738
1275.199339,256.739000,2.518867
1284.754770,256.802000,-4.483765
1294.305515,256.865000,-1.214822
1303.700087,256.927000,-0.411144
1313.241541,256.990000,-3.088644
1322.778319,257.053000,-1.438557
1332.310423,257.116000,-1.857536
1341.686664,257.178000,1.111469
1351.209505,257.241000,2.486744
1360.727683,257.304000,-1.573227
1370.090229,257.366000,-1.806152
1379.599165,257.429000,-3.949742
1388.952622,257.491000,0.163702
1398.452329,257.554000,1.093856
1407.796710,257.616000,0.231529
1417.287202,257.679000,-9.126124
1426.773053,257.742000,-3.355301
1436.103810,257.804000,-1.747199
1445.580466,257.867000,-0.644610
1454.902179,257.929000,-4.027221
1464.369654,257.992000,2.863031
1473.682337,258.054000,1.047552
1482.990547,258.116000,-4.014170
1492.444310,258.179000,-0.591255
1501.743510,258.241000,2.481583
1511.188124,258.304000,3.508808
1520.478327,258.366000,-2.598829
1529.764072,258.428000,-4.615508
1539.195025,258.491000,-0.625808
1548.471792,258.553000,-0.157218
1557.744112,258.615000,5.374124
1567.161432,258.678000,3.775708
1576.424794,258.740000,1.424706
1585.683718,258.802000,-6.116541
1594.938206,258.864000,2.342651
1604.337420,258.927000,-0.339036
1613.582976,258.989000,-0.340265
1622.824106,259.051000,-4.692152
1632.060814,259.113000,0.586797
1641.293103,259.175000,0.349330
1650.669776,259.238000,3.762371
1659.893165,259.300000,-0.528182
1669.112144,259.362000,4.519683
1678.326716,259.424000,0.589874
1687.536886,259.486000,-4.289353
1696.742655,259.548000,-10.834639
1705.944027,259.610000,-0.630215
1715.141005,259.672000,-1.398262
1724.333592,259.734000,1.792623
1733.521792,259.796000,-3.674156
1742.705607,259.858000,-4.612617
1751.885041,259.920000,-0.877618
1761.060096,259.982000,-5.623967
1770.230777,260.044000,-3.097492
1779.397086,260.106000,5.417407
1788.559026,260.168000,-4.129144
1797.716600,260.230000,-4.235567
1806.869812,260.292000,-2.261404
1816.018664,260.354000,4.130803
1825.163160,260.416000,-6.541949
1834.155916,260.477000,-0.848252
1843.291778,260.539000,-0.240835
1852.423294,260.601000,-9.478529
1861.550466,260.663000,7.792176
1870.673297,260.725000,-1.743271
1879.644752,260.786000,-6.482238
1888.758980,260.848000,2.112799
1897.868877,260.910000,1.771151
1906.974445,260.972000,4.260754
1915.928928,261.033000,2.925154
1925.025918,261.095000,-0.506267
1934.118588,261.157000,0.376564
1943.060391,261.218000,1.026672
1952.144502,261.280000,-5.086035
1961.224302,261.342000,-2.783709
1970.153451,261.403000,-0.019547
1979.224710,261.465000,1.030672
1988.145460,261.526000,-0.310910
1997.208190,261.588000,-4.816609
2006.120554,261.649000,-10.827955
2015.174766,261.711000,-0.209758
2024.078756,261.772000,-0.178220
2033.124461,261.834000,2.603272
2042.020089,261.895000,0.085025
2051.057301,261.957000,2.286120
2059.944578,262.018000,-1.298858
2068.973308,262.080000,0.478796
2077.852245,262.141000,2.200650
2086.872506,262.203000,1.159344
2095.743116,262.264000,6.277731
2104.609601,262.325000,3.552117
2113.617214,262.387000,-1.860267
2122.475388,262.448000,0.741546
2131.329447,262.509000,-1.794954
2140.324438,262.571000,-1.899237
2149.170203,262.632000,1.021011
2158.011861,262.693000,-0.118928
2166.994257,262.755000,1.240586
2175.827640,262.816000,-8.082079
2184.656923,262.877000,-0.795367
2193.482109,262.938000,-8.181923
2202.303202,262.999000,-4.828481
2211.264711,263.061000,-3.859585
2220.077557,263.122000,-0.111592
2228.886318,263.183000,-2.938714
2237.690997,263.244000,0.686839
2246.491597,263.305000,6.713612
2255.288119,263.366000,-6.183669
2264.080568,263.427000,0.271679
2272.868945,263.488000,-0.527470
2281.653255,263.549000,-0.699222
2290.577403,263.611000,-3.272423
2299.353518,263.672000,-2.708009
2308.125573,263.733000,-2.435753
2316.893571,263.794000,0.320012
2325.657515,263.855000,-3.954181
2334.273836,263.915000,-2.466127
2343.029746,263.976000,4.678523
2351.781611,264.037000,-0.260687
2360.529433,264.098000,3.944667
2369.273215,264.159000,2.698448
2378.012959,264.220000,3.542064
2386.748669,264.281000,-2.656566
2395.480347,264.342000,-2.997204
2404.207997,264.403000,-2.299252
2412.788642,264.463000,0.874428
2421.508308,264.524000,3.146228
2430.223953,264.585000,-3.319382
2438.935580,264.646000,4.268461
2447.643192,264.707000,-4.168651
2456.204142,264.767000,2.771055
2464.903798,264.828000,3.771320
2473.599447,264.889000,-3.198549
2482.148639,264.949000,-3.979779
2490.836348,265.010000,-1.827850
2499.520059,265.071000,-5.783894
2508.057516,265.131000,-2.047137
2516.733303,265.192000,-0.747079
2525.405101,265.253000,1.967721
2533.930847,265.313000,-2.188420
2542.594737,265.374000,-0.324888
2551.112712,265.434000,3.566882
2559.768705,265.495000,-0.590985
2568.278918,265.555000,-0.626996
2576.927027,265.616000,0.357057
2585.571164,265.677000,0.030026
2594.069722,265.737000,1.914123
2602.564444,265.797000,0.497043
2611.196813,265.858000,-1.838453
2619.683805,265.918000,-2.105666
2628.308321,265.979000,0.418691
2636.787594,266.039000,4.045371
2645.404268,266.100000,-0.608924
2653.875831,266.160000,2.141162
2662.343577,266.220000,-0.302821
2670.948539,266.281000,-2.725281
2679.408591,266.341000,-3.590110
2687.864833,266.401000,-0.942541
2696.458108,266.462000,7.171684
2704.906672,266.522000,1.459724
2713.351433,266.582000,1.170202
2721.792393,266.642000,-3.948667
2730.370143,266.703000,-3.293420
2738.803447,266.763000,-2.917875
2747.232958,266.823000,4.457456
2755.658679,266.883000,1.425848
2764.220946,266.944000,1.113552
2772.639032,267.004000,-2.069446
2781.053334,267.064000,1.937657
2789.463857,267.124000,-2.566914
2797.870602,267.184000,-3.908025
2806.273573,267.244000,-4.268396
2814.672771,267.304000,0.246813
2823.068200,267.364000,-4.174103
2831.459861,267.424000,-0.153843
2839.847757,267.484000,1.355946
2848.231891,267.544000,0.174493
2856.612266,267.604000,-0.697742
2864.988884,267.664000,3.879559
2873.361747,267.724000,-1.425846
2881.730857,267.784000,5.840583
2890.096219,267.844000,0.112627
2898.457833,267.904000,2.546465
2906.815703,267.964000,-3.147508
2915.169831,268.024000,-0.967722
2923.520219,268.084000,-3.471938
2931.866870,268.144000,6.066081
2940.209787,268.204000,-4.637998
2948.410016,268.263000,-1.236150
2956.745534,268.323000,0.643421
2965.077324,268.383000,-2.838100
2973.405390,268.443000,-0.474636
2981.729735,268.503000,4.949901
2989.911713,268.562000,0.484773
2998.228682,268.622000,-1.383612
3006.541937,268.682000,5.620438
3014.851480,268.742000,3.039368
3023.018913,268.801000,4.689514
3031.321101,268.861000,-5.104971
3039.619584,268.921000,-4.580409
3047.776149,268.980000,-1.733050
3056.067292,269.040000,0.701198
3064.216644,269.099000,0.756708
3072.500457,269.159000,0.565837
3080.780577,269.219000,-0.051835
3088.919097,269.278000,-2.891036
3097.191901,269.338000,6.827966
3105.323232,269.397000,-5.421188
3113.588730,269.457000,-6.701512
3121.712881,269.516000,-3.223955
3129.971082,269.576000,-1.399246
3138.088063,269.635000,0.926624
3146.338978,269.695000,-1.437539
3154.448798,269.754000,1.655579
3162.692435,269.814000,-2.871856
3170.795104,269.873000,0.901057
3178.894231,269.932000,0.890912
3187.127001,269.992000,-0.448961
3195.218991,270.051000,-1.897296
3203.307445,270.110000,-1.251039
3211.529370,270.170000,-1.810679
3219.610701,270.229000,5.197721
3227.688505,270.288000,-1.305991
3235.899605,270.348000,2.649938
3243.970299,270.407000,-8.079772
3252.037473,270.466000,1.084417
3260.101128,270.525000,2.141619
3268.297848,270.585000,-1.972670
3276.354413,270.644000,-2.743741
3284.407466,270.703000,1.093583
3292.457009,270.762000,-2.880438
3300.503044,270.821000,5.421740
3308.545575,270.880000,-0.733360
3316.720828,270.940000,-6.017877
3324.756296,270.999000,-2.646640
3332.788267,271.058000,-3.715221
3340.816741,271.117000,3.630998
3348.841722,271.176000,1.063307
3356.863212,271.235000,-1.740678
3364.881213,271.294000,-4.010664
3372.895727,271.353000,-1.541987
3380.906756,271.412000,2.634615
3388.914304,271.471000,-2.690392
3396.918371,271.530000,5.377897
3404.918961,271.589000,-3.371851
3412.916076,271.648000,3.256630
3420.909718,271.707000,-1.069835
3428.899888,271.766000,2.403679
3436.886591,271.825000,-5.126299
3444.734546,271.883000,0.573789
3452.714377,271.942000,1.813761
3460.690746,272.001000,-4.593583
3468.663655,272.060000,-2.491820
3476.633107,272.119000,-0.471329
3484.599104,272.178000,-0.132285
3492.426718,272.236000,2.380304
3500.385870,272.295000,-3.975549
3508.341573,272.354000,0.808177
3516.293830,272.413000,1.327897
3524.107947,272.471000,0.887193
3532.053377,272.530000,1.385175
3539.995368,272.589000,0.814435
3547.799398,272.647000,-3.420391
3555.734574,272.706000,2.451850
3563.666318,272.765000,-0.898174
3571.460282,272.823000,-1.443373
3579.385225,272.882000,-0.378698
3587.306741,272.941000,-6.586061
3595.090658,272.999000,-3.024652
3603.005387,273.058000,3.646189
3610.782635,273.116000,-0.753505
3618.690585,273.175000,-2.631546
3626.461173,273.233000,2.829679
3634.362353,273.292000,-0.697755
3642.126290,273.350000,1.060886
3650.020708,273.409000,0.715973
3657.778002,273.467000,3.503186
3665.665667,273.526000,1.176242
3673.416327,273.584000,2.597372
3681.163701,273.642000,0.226788
3689.041282,273.701000,1.281687
3696.782035,273.759000,0.395701
3704.652885,273.818000,-0.323299
3712.387025,273.876000,0.366657
3720.117889,273.934000,0.198056
3727.845481,273.992000,1.439392
3735.702951,274.051000,1.676108
3743.423947,274.109000,2.209141
3751.141676,274.167000,-2.046946
3758.989119,274.226000,0.507994
3766.700265,274.284000,-4.411977
3774.408150,274.342000,-1.314655
3782.112776,274.400000,0.221905
3789.814146,274.458000,0.415667
3797.644960,274.517000,-7.013067
3805.339767,274.575000,-4.929674
3813.031324,274.633000,-1.584770
3820.719634,274.691000,-3.895298
3828.404697,274.749000,-6.212147
3836.086516,274.807000,1.944883
3843.765093,274.865000,-2.665652
3851.440431,274.923000,-4.595734
3859.112530,274.981000,0.274359
3866.781394,275.039000,-1.126725
3874.447024,275.097000,3.407862
3882.109423,275.155000,0.905634
3889.768591,275.213000,-1.131789
3897.424533,275.271000,-1.401569
3905.077248,275.329000,-3.559557
3912.726740,275.387000,3.265542
3920.373011,275.445000,1.876829
3928.016062,275.503000,-4.408840
3935.655896,275.561000,0.088290
3943.292514,275.619000,-4.329245
3950.925919,275.677000,1.271293
3958.424585,275.734000,-3.246904
3966.051625,275.792000,-1.099569
3973.675457,275.850000,2.139008
3981.296084,275.908000,0.169144
3988.913508,275.966000,-5.167306
3996.396478,276.023000,-0.022033
4004.007557,276.081000,1.765510
4011.615438,276.139000,-0.484444
4019.220124,276.197000,4.925946
4026.690584,276.254000,-1.145506
4034.288940,276.312000,0.316894
4041.884108,276.370000,0.228026
4049.345219,276.427000,3.067110
4056.934068,276.485000,-0.299257
4064.519735,276.543000,-0.803178
4071.971515,276.600000,9.544201
4079.550876,276.658000,3.066437
4086.996462,276.715000,1.139225
4094.569525,276.773000,-1.864486
4102.008927,276.830000,0.346009
4109.575700,276.888000,3.585834
4117.008923,276.945000,0.330180
4124.569414,277.003000,-4.084275
4131.996467,277.060000,3.829245
4139.550684,277.118000,3.019905
4146.971575,277.175000,-3.141992
4154.519525,277.233000,0.624765
4161.934262,277.290000,-5.066112
4169.475953,277.348000,-3.312471
4228.011654,277.799000,-1.589515
4235.396210,277.856000,1.096644
4242.907211,277.914000,-1.589799
4250.415077,277.972000,0.076688
4257.790445,278.029000,-0.039695
4265.292102,278.087000,1.304294
4272.790631,278.145000,-6.342057
4280.156828,278.202000,5.500445
4287.649159,278.260000,-0.978477
4295.138368,278.318000,-7.342143
4302.495411,278.375000,1.313801
4309.978434,278.433000,2.282860
4317.329402,278.490000,-5.065819
4324.806246,278.548000,6.041870
4332.151147,278.605000,-0.808923
4339.621821,278.663000,10.483120
4346.960661,278.720000,-0.788848
4354.425172,278.778000,1.436579
4361.757959,278.835000,-0.459099
4369.216314,278.893000,2.579713
4376.543056,278.950000,3.293726
4383.995264,279.008000,1.584508
4391.315968,279.065000,2.973089
4398.762036,279.123000,-6.771323
4406.076709,279.180000,-0.446134
4413.516644,279.238000,0.025243
4420.825295,279.295000,1.404508
4428.130962,279.352000,1.065655
4435.561740,279.410000,1.498296
4442.861395,279.467000,-3.174337
4450.158074,279.524000,-6.244289
4457.579711,279.582000,-1.218012
4464.870389,279.639000,1.602543
4472.158095,279.696000,-3.563963
4479.570607,279.754000,-0.580440
4486.852324,279.811000,1.303918
4494.131074,279.868000,-2.014606
4501.534479,279.926000,0.950920
4508.807251,279.983000,4.808354
4516.077062,280.040000,2.600837
4523.343914,280.097000,1.070116
4530.735220,280.155000,1.122003
4537.996108,280.212000,5.350532
4545.254043,280.269000,-0.646029
4552.509026,280.326000,-1.371575
4559.888262,280.384000,-2.088212
4567.137295,280.441000,3.374264
4574.383383,280.498000,5.144333
4581.626526,280.555000,4.882765
4588.866727,280.612000,2.378614
4596.103987,280.669000,1.455742
4603.338308,280.726000,-2.043684
4610.696532,280.784000,0.105333
4617.924929,280.841000,0.299646
4625.150392,280.898000,-0.306041
4632.372923,280.955000,-2.163417
4639.592525,281.012000,5.182819
4646.809198,281.069000,-4.248182
4654.022945,281.126000,-0.189696
4661.233767,281.183000,-2.999778
4668.441666,281.240000,-2.084553
4675.646644,281.297000,-3.388423
4682.848703,281.354000,-0.935663
4690.047844,281.411000,3.290870
4697.244070,281.468000,4.379086
4704.437381,281.525000,3.998701
4711.627780,281.582000,0.664926
4718.815269,281.639000,4.099171
4725.999849,281.696000,1.867821
4733.181522,281.753000,0.708556
4740.360290,281.810000,-2.095506
4747.536154,281.867000,3.078129
4754.583300,281.923000,2.743908
4761.753414,281.980000,1.570021
4768.920629,282.037000,-2.715223
4776.084949,282.094000,0.824265
4783.246373,282.151000,1.863780
4790.404904,282.208000,3.430370
4797.435032,282.264000,1.675550
4804.587834,282.321000,4.230394
4811.737748,282.378000,-2.663508
4818.884776,282.435000,-1.474895
4826.028920,282.492000,2.899225
4833.044920,282.548000,-8.017429
4840.183352,282.605000,4.992935
4847.318904,282.662000,3.383601
4854.451579,282.719000,5.696356
4861.456319,282.775000,0.099840
4868.583295,282.832000,-4.518842
4875.707399,282.889000,-2.554343
4882.703723,282.945000,1.748569
4889.822139,283.002000,4.591975
4896.937687,283.059000,6.730676
4903.925611,283.115000,-2.762083
4911.035481,283.172000,0.096842
4918.142490,283.229000,0.608618
4925.122029,283.285000,3.995061
4932.223369,283.342000,-2.683129
4939.197342,283.398000,0.843986
4946.293021,283.455000,2.810670
4953.385847,283.512000,-4.254211
4960.351460,283.568000,3.083415
4967.438635,283.625000,0.393862
4974.398699,283.681000,4.461049
4981.480229,283.738000,3.916812
4988.434752,283.794000,1.510199
4995.510644,283.851000,-0.015905
5002.459631,283.907000,7.432781
5009.529893,283.964000,4.761316
5016.473351,284.020000,-3.057844
5023.537988,284.077000,-2.636504
5030.475924,284.133000,-4.995715
5037.534943,284.190000,2.978339
5044.467363,284.246000,-1.708351
5051.397052,284.302000,-0.676380
5058.447683,284.359000,1.077873
5065.371866,284.415000,1.072441
5072.416896,284.472000,-2.027157
5079.335580,284.528000,0.970420
5086.251541,284.584000,-2.220606
5093.288207,284.641000,-5.372555
5100.198678,284.697000,-1.910509
5107.106432,284.753000,3.483502
5114.134748,284.810000,4.421603
5121.037022,284.866000,4.866188
5127.936582,284.922000,4.997386
5134.833431,284.978000,-1.202278
5141.850655,285.035000,0.781913
5148.742037,285.091000,4.042884
5155.630712,285.147000,-0.178524
5162.516682,285.203000,-2.215960
5169.522840,285.260000,6.257344
5176.403356,285.316000,-0.662670
5183.281172,285.372000,3.194331
5190.156289,285.428000,3.841922
5197.028709,285.484000,3.883540
5204.021082,285.541000,2.820920
5210.888064,285.597000,-2.400791
5217.752353,285.653000,4.205263
5224.613952,285.709000,2.781556
5231.472862,285.765000,3.970479
5238.329083,285.821000,4.151280
5245.182619,285.877000,0.550403
5252.033470,285.933000,7.506429
5258.881638,285.989000,2.585207
5265.727125,286.045000,3.200887
5272.569932,286.101000,5.259630
5279.532182,286.158000,4.568046
5286.369586,286.214000,-0.686170
5293.204315,286.270000,4.925575
5300.036371,286.326000,4.528049
5306.865755,286.382000,4.208192
5313.692468,286.438000,5.482110
5320.516513,286.494000,2.872622
5327.216104,286.549000,4.668281
5334.034863,286.605000,10.042698
5340.850958,286.661000,0.243321
5347.664391,286.717000,1.248440
5354.475163,286.773000,3.304364
5361.283275,286.829000,5.707792
5368.088729,286.885000,9.480220
5374.891528,286.941000,5.462910
5381.691671,286.997000,-2.308121
5388.489161,287.053000,5.223255
5395.162686,287.108000,3.517722
5401.954922,287.164000,3.176602
5408.744509,287.220000,7.845625
5415.531448,287.276000,4.229988
5422.315743,287.332000,9.522551
5428.976316,287.387000,2.476323
5435.755371,287.443000,4.403609
5442.531785,287.499000,11.645737
5449.305560,287.555000,1.339486
5456.076697,287.611000,4.583691
5462.724355,287.666000,3.949573
5469.490268,287.722000,3.491799
5476.253548,287.778000,2.496592
5482.893494,287.833000,7.075951
5489.651559,287.889000,1.661083
5496.406995,287.945000,6.890492
5503.039242,288.000000,0.328315
5509.789473,288.056000,5.460154
5516.537079,288.112000,5.818869
5523.161640,288.167000,5.220777
5529.904050,288.223000,6.020627
5536.643840,288.279000,9.613648
5543.260729,288.334000,6.407308
5549.995332,288.390000,3.616422
5556.607128,288.445000,-1.257988
5563.336549,288.501000,9.457429
5569.943259,288.556000,11.827238
5576.667504,288.612000,-0.545931
5583.269134,288.667000,3.908930
5589.988209,288.723000,7.362404
5596.584764,288.778000,2.909570
5603.298676,288.834000,7.223198
5609.890162,288.889000,1.667463
5616.598916,288.945000,4.121266
5623.185340,289.000000,7.561323
5629.888941,289.056000,4.238176
5636.470308,289.111000,5.252538
5643.168763,289.167000,9.116235
5649.745079,289.222000,3.862718
5656.438394,289.278000,7.169064
5663.009664,289.333000,5.181204
5669.578437,289.388000,4.066285
5676.264076,289.444000,6.243002
5682.827812,289.499000,6.106701
5689.389054,289.554000,13.132461
5696.067030,289.610000,10.272967
5702.623244,289.665000,6.450388
5709.176969,289.720000,6.129583
5715.847296,289.776000,7.402297
5722.396001,289.831000,4.887044
5728.942221,289.886000,6.607747
5735.485958,289.941000,6.569705
5742.146122,289.997000,12.365296
5748.684850,290.052000,9.159382
5755.221100,290.107000,8.531830
5761.754871,290.162000,8.232078
5768.404894,290.218000,7.818460
5774.933669,290.273000,2.488029
5781.459971,290.328000,9.436046
5787.983800,290.383000,6.454933
5794.505158,290.438000,5.710679
5801.142550,290.494000,3.188036
5807.658926,290.549000,3.583754
5814.172835,290.604000,6.851646
5820.684279,290.659000,8.536137
5827.193260,290.714000,3.212501
5833.699778,290.769000,3.062037
5840.203835,290.824000,9.403323
5846.705432,290.879000,0.955208
5853.204572,290.934000,11.714509
5859.701254,290.989000,7.275918
5866.195481,291.044000,15.261716
5872.687254,291.099000,4.442182
5879.176574,291.154000,0.967499
5885.663444,291.209000,4.971318
5892.147863,291.264000,4.478139
5898.629834,291.319000,3.541334
5905.109357,291.374000,5.946414
5911.586435,291.429000,4.849367
5918.061069,291.484000,7.343894
5924.533260,291.539000,8.955281
5931.003009,291.594000,6.629632
5937.470318,291.649000,0.562039
5943.935188,291.704000,-1.073851
5950.397621,291.759000,5.020907
5956.857618,291.814000,7.806230
5963.315180,291.869000,10.177738
5969.770309,291.924000,1.827939
5976.105706,291.978000,1.377316
5982.556017,292.033000,6.411090
5989.003898,292.088000,9.708845
5995.449352,292.143000,1.846854
6001.892379,292.198000,0.538830
6008.215901,292.252000,6.229799
6014.654123,292.307000,5.583988
6021.089923,292.362000,10.726408
6027.523303,292.417000,10.495958
6033.954262,292.472000,3.330903
6040.265942,292.526000,5.153277
6046.692111,292.581000,4.022353
6053.115864,292.636000,3.965658
6059.420472,292.690000,4.434843
6065.839442,292.745000,3.939037
6072.256000,292.800000,8.832227
6078.553548,292.854000,5.994952
6084.965331,292.909000,7.371769
6091.374707,292.964000,2.607726
6097.665207,293.018000,7.447547
6104.069816,293.073000,8.337746
6110.472021,293.128000,9.370548
6116.755485,293.182000,4.555186
6123.152931,293.237000,6.051216
6129.431725,293.291000,5.404773
6135.824417,293.346000,5.785368
6142.098547,293.400000,4.534517
6148.486490,293.455000,3.171842
6154.872040,293.510000,12.520946
6161.139160,293.564000,6.062829
6167.519969,293.619000,3.790839
6173.782438,293.673000,8.046235
6180.158512,293.728000,2.204600
6186.416334,293.782000,5.392001
6192.787678,293.837000,2.671820
6199.040859,293.891000,5.395402
6205.291742,293.945000,5.068814
6211.656022,294.000000,10.367897
6217.902272,294.054000,8.773319
6224.261835,294.109000,6.914548
6230.503456,294.163000,4.687944
6236.742786,294.217000,4.419344
6243.095305,294.272000,2.384333
6249.330014,294.326000,10.968127
6255.677829,294.381000,-1.249755
6261.907923,294.435000,1.871441
6268.135731,294.489000,9.293087
6274.476522,294.544000,9.800323
6280.699722,294.598000,4.786046
6286.920642,294.652000,2.443482
6293.139281,294.706000,2.040610
6299.470739,294.761000,4.616676
6305.684781,294.815000,2.727242
6311.896546,294.869000,7.983363
6318.106037,294.923000,6.115951
6324.428182,294.978000,2.332019
6330.633085,295.032000,7.782347
6336.835717,295.086000,7.713844
6343.036080,295.140000,5.567910
6349.234174,295.194000,3.739242
6355.544717,295.249000,4.829721
6361.738236,295.303000,4.630329
6367.929490,295.357000,8.442361
6374.118480,295.411000,3.330470
6380.305209,295.465000,7.902082
6386.489676,295.519000,7.583605
6392.671884,295.573000,3.198462
6398.851833,295.627000,4.442255
6405.143905,295.682000,7.336995
6411.319300,295.736000,4.776984
6417.492439,295.790000,2.208057
6423.663325,295.844000,5.809816
6429.831958,295.898000,8.315761
6435.998340,295.952000,6.471875
6442.162473,296.006000,4.841073
6448.324357,296.060000,6.807696
6454.483993,296.114000,11.751981
6460.641384,296.168000,12.422479
6466.796529,296.222000,4.542784
6472.949431,296.276000,3.744506
6479.100090,296.330000,2.892623
6485.248508,296.384000,4.890019
6491.280888,296.437000,3.007687
6497.424869,296.491000,3.784664
6503.566612,296.545000,8.097875
6509.706118,296.599000,11.021965
6515.843390,296.653000,0.616941
6521.978427,296.707000,2.621899
6528.111232,296.761000,8.681057
6534.241805,296.815000,4.591278
6540.256681,296.868000,9.383036
6546.382836,296.922000,5.727423
6552.506763,296.976000,2.816297
6558.628464,297.030000,4.357738
6564.747939,297.084000,2.596739
6570.751928,297.137000,8.661090
6576.866997,297.191000,4.612235
6582.979845,297.245000,3.375203
6589.090471,297.299000,6.590016
6595.085780,297.352000,5.985126
6601.192010,297.406000,6.763027
6607.296023,297.460000,11.909362
6613.397821,297.514000,1.299408
6619.384468,297.567000,2.244865
6625.481879,297.621000,9.184931
6631.577077,297.675000,9.978590
6637.557251,297.728000,8.783458
6643.648069,297.782000,8.572564
6649.623947,297.835000,-0.403999
6655.710390,297.889000,5.624746
6661.794627,297.943000,8.421157
6667.764048,297.996000,4.439973
6673.843917,298.050000,6.940801
6679.809053,298.103000,9.582395
6685.884559,298.157000,10.024961
6691.957864,298.211000,4.265384
6697.916562,298.264000,4.311042
6703.985510,298.318000,7.378150
6709.939935,298.371000,4.553612
6716.004532,298.425000,5.465375
6721.954688,298.478000,7.413856
6728.014938,298.532000,6.069529
6733.960830,298.585000,3.352860
6739.904611,298.638000,2.692461
6745.958369,298.692000,10.390236
6751.897893,298.745000,10.017708
6757.947317,298.799000,7.089904
6763.882588,298.852000,3.154602
6769.927680,298.906000,4.965563
6775.858703,298.959000,7.073032
6781.787624,299.012000,6.136988
6787.826249,299.066000,2.868864
6793.750928,299.119000,9.355414
6799.673508,299.172000,9.648175
6805.705677,299.226000,9.397570
6811.624022,299.279000,3.684904
6817.540272,299.332000,1.216965
6823.565994,299.386000,11.903329
6829.478016,299.439000,4.465935
6835.387945,299.492000,2.875848
6841.407231,299.546000,2.954728
6847.312940,299.599000,13.096279
6853.216559,299.652000,8.134208
6859.118090,299.705000,7.778653
6865.017534,299.758000,5.581960
6871.026143,299.812000,11.022627
6876.921378,299.865000,7.525625
6882.814529,299.918000,7.798651
6888.705597,299.971000,7.548393
6894.594584,300.024000,10.972588
6900.592545,300.078000,2.104301
6906.477333,300.131000,5.286750
6912.360044,300.184000,7.914063
6918.240677,300.237000,7.861752
6924.119235,300.290000,6.485332
6929.995718,300.343000,5.397888
6935.870127,300.396000,5.957819
6941.742464,300.449000,6.874160
6947.612730,300.502000,6.069904
6953.480925,300.555000,6.577796
6959.347051,300.608000,8.011171
6965.211108,300.661000,8.077120
6971.073099,300.714000,2.279921
6976.933024,300.767000,2.593802
6982.790884,300.820000,7.479276
6988.646680,300.873000,6.413065
6994.500413,300.926000,3.943415
7000.352085,300.979000,10.635608
7006.201696,301.032000,8.099862
7012.049248,301.085000,3.119380
7017.894742,301.138000,8.524866
7023.738178,301.191000,3.546941
7029.579559,301.244000,3.298869
7035.418884,301.297000,6.342428
7041.256155,301.350000,8.430907
7047.091373,301.403000,2.703157
7052.924539,301.456000,8.432397
7058.645653,301.508000,5.290371
7064.474758,301.561000,8.679752
7070.301814,301.614000,7.461802
7076.126822,301.667000,10.277103
7081.949784,301.720000,11.756990
7087.660892,301.772000,9.970799
7093.479803,301.825000,7.592411
7099.296670,301.878000,4.638536
7105.111496,301.931000,8.093881
7110.814624,301.983000,5.651481
7116.625408,302.036000,7.020080
7122.434152,302.089000,-3.542470
7128.240858,302.142000,-1.674536
7133.936024,302.194000,4.915244
7139.738696,302.247000,1.076470
7145.539334,302.300000,6.982566
7151.228549,302.352000,5.532164
7157.025159,302.405000,7.589557
7162.819737,302.458000,6.467823
7168.503010,302.510000,5.653988
7174.293567,302.563000,4.382728
7180.082095,302.616000,5.180285
7185.759436,302.668000,13.688274
7191.543949,302.721000,7.435841
7197.217352,302.773000,4.645147
7202.997854,302.826000,2.708198
7208.667324,302.878000,7.857134
7214.443819,302.931000,6.318139
7220.109360,302.983000,6.347454
7225.881853,303.036000,5.901512
7231.543468,303.088000,3.890049
7237.311962,303.141000,5.660121
7242.969657,303.193000,6.825626
7248.734156,303.246000,0.566044
7254.387934,303.298000,6.272538
7260.148443,303.351000,7.883250
7265.798308,303.403000,7.352683
7271.554831,303.456000,10.662095
7277.200787,303.508000,4.981329
7282.953328,303.561000,12.156790
7288.595379,303.613000,8.914414
7294.235498,303.665000,13.479298
7299.982093,303.718000,10.810708
7305.618313,303.770000,7.657505
7311.252604,303.822000,8.525387
7316.993262,303.875000,13.449193
7322.623660,303.927000,8.286281
7328.252131,303.979000,3.411465
7333.986862,304.032000,5.796603
7339.611446,304.084000,7.781085
7345.234108,304.136000,11.874601
7350.962920,304.189000,3.918576
7356.581700,304.241000,9.323803
7362.198561,304.293000,11.067144
7367.813502,304.345000,-0.961877
7373.426525,304.397000,11.739110
7379.145517,304.450000,5.028399
7384.754669,304.502000,4.430838
7390.361906,304.554000,3.991860
7395.967228,304.606000,5.854370
7401.570637,304.658000,10.281274
7407.279836,304.711000,8.191984
7412.879384,304.763000,7.724549
7418.477021,304.815000,6.306421
7424.072749,304.867000,5.869924
7429.666569,304.919000,12.233420
7435.258480,304.971000,13.808425
7440.848486,305.023000,12.644037
7446.436585,305.075000,5.697762
7452.022780,305.127000,12.642352
7457.607071,305.179000,4.690441
7463.296795,305.232000,12.415772
7468.877245,305.284000,8.094999
7474.455794,305.336000,5.958091
7480.032444,305.388000,13.150992
7485.607195,305.440000,6.916959
7491.180048,305.492000,9.419659
7496.751004,305.544000,6.761206
7502.212985,305.595000,9.859728
7507.780187,305.647000,5.460112
7513.345495,305.699000,8.025076
7518.908909,305.751000,8.527243
7524.470432,305.803000,7.529456
7530.030064,305.855000,6.228620
7535.587805,305.907000,10.528610
7541.143658,305.959000,6.408404
7546.697622,306.011000,11.709190
7552.249699,306.063000,4.251245
7557.693173,306.114000,14.784299
7563.241514,306.166000,5.754887
7568.787971,306.218000,5.086748
7574.332545,306.270000,9.934592
7579.875237,306.322000,10.044362
7585.416047,306.374000,6.267882
7590.848476,306.425000,9.019868
7596.385562,306.477000,12.570477
7601.920769,306.529000,10.048205
7607.454098,306.581000,9.619867
7612.879195,306.632000,6.505818
7618.408808,306.684000,5.937039
7623.936546,306.736000,16.983924
7629.462411,306.788000,8.896782
7634.880189,306.839000,12.839656
7640.402345,306.891000,6.336009
7645.922629,306.943000,15.733363
7651.334938,306.994000,6.710736
7656.851519,307.046000,6.325881
7662.260197,307.097000,13.245157
7667.773079,307.149000,5.963937
7673.284094,307.201000,4.064317
7678.687317,307.252000,7.561324
7684.194638,307.304000,15.869835
7689.700096,307.356000,9.911489
7695.097870,307.407000,10.262312
7700.599639,307.459000,15.194677
7705.993798,307.510000,11.975351
7711.491883,307.562000,7.203160
7716.882430,307.613000,8.261044
7722.376833,307.665000,12.758319
7727.763772,307.716000,2.953180
7733.254498,307.768000,6.038437
7738.637831,307.819000,11.980788
7744.124884,307.871000,14.058268
7749.504617,307.922000,13.151151
7754.988000,307.974000,16.410685
7760.364134,308.025000,11.689024
7765.738489,308.076000,10.430070
7771.216392,308.128000,8.351600
7776.587155,308.179000,7.841319
7782.061397,308.231000,7.713223
7787.428571,308.282000,6.395402
7792.793970,308.333000,4.372275
7798.262745,308.385000,6.024523
7803.624561,308.436000,8.172437
7808.984603,308.487000,9.547302
7814.447920,308.539000,9.009042
7819.804385,308.590000,8.902521
7825.159080,308.641000,10.885213
7830.616947,308.693000,12.964703
7835.968069,308.744000,8.610029
7841.317424,308.795000,0.271407
7846.665012,308.846000,4.712205
7852.115636,308.898000,7.406174
7857.459659,308.949000,6.105685
7862.801917,309.000000,11.267536
7868.142413,309.051000,9.561219
7873.481146,309.102000,6.959948
7878.922746,309.154000,11.411323
7884.257923,309.205000,6.314952
7889.591340,309.256000,8.284641
7894.922998,309.307000,13.299220
7900.252898,309.358000,4.825446
7905.581041,309.409000,6.423063
7910.907428,309.460000,9.565490
7916.336447,309.512000,9.880135
7921.659290,309.563000,11.176681
7926.980379,309.614000,8.430555
7932.299715,309.665000,6.417805
7937.617300,309.716000,10.517810
7942.933134,309.767000,16.938689
7948.247217,309.818000,8.243795
7953.559551,309.869000,13.831650
7958.870137,309.920000,11.367465
7964.178976,309.971000,10.171487
7969.486068,310.022000,11.064667
7974.791414,310.073000,9.537182
7980.095015,310.124000,6.149438
7985.396872,310.175000,12.159193
7990.696985,310.226000,8.220720
7995.995357,310.277000,2.337181
8001.291987,310.328000,8.080150
8006.586876,310.379000,10.719097
8011.880026,310.430000,8.982502
8017.067700,310.480000,14.279570
8022.357406,310.531000,10.837053
8027.645376,310.582000,7.846092
8032.931609,310.633000,11.798488
8038.216106,310.684000,7.203194
8043.498869,310.735000,16.136522
8048.779898,310.786000,8.777060
8053.955695,310.836000,7.589927
8059.233293,310.887000,11.226720
8064.509160,310.938000,8.908905
8069.783296,310.989000,14.996833
8074.952339,311.039000,9.710235
8080.223051,311.090000,3.215272
8085.492035,311.141000,12.530901
8090.759292,311.192000,9.153414
8095.921594,311.242000,11.881687
8101.185433,311.293000,12.295250
8106.447548,311.344000,6.004965
8111.604811,311.394000,10.866319
8116.863513,311.445000,9.791575
8122.120493,311.496000,19.283323
8127.272724,311.546000,10.703171
8132.526297,311.597000,13.458926
8137.778150,311.648000,10.828727
8142.925357,311.698000,12.444958
8148.173807,311.749000,10.276617
8153.420541,311.800000,9.590021
8158.562731,311.850000,14.530973
8163.806066,311.901000,11.276081
8168.944927,311.951000,13.660125
8174.184869,312.002000,7.081285
8179.320403,312.052000,6.894364
8184.556953,312.103000,10.208573
8189.689165,312.153000,8.038156
8194.922327,312.204000,7.548285
8200.051219,312.254000,12.478505
8205.280996,312.305000,11.023234
8210.406572,312.355000,12.080723
8215.632968,312.406000,4.563066
8220.755230,312.456000,7.752872
8225.978248,312.507000,9.614931
8231.097200,312.557000,7.497601
8236.316843,312.608000,7.623474
8241.432488,312.658000,7.312687
8246.546497,312.708000,9.780325
8251.761101,312.759000,11.613448
8256.871808,312.809000,15.755782
8261.980881,312.859000,12.131925
8267.190453,312.910000,12.977192
8272.296229,312.960000,10.164308
8277.400373,313.010000,10.390012
8282.604921,313.061000,11.956279
8287.705773,313.111000,8.045057
8292.804996,313.161000,13.635644
8298.004526,313.212000,7.280680
8303.100462,313.262000,12.983780
8308.194770,313.312000,8.805571
8313.287453,313.362000,8.287414
8318.480316,313.413000,14.746296
8323.569717,313.463000,14.324360
8328.657496,313.513000,10.311787
8333.743651,313.563000,12.891905
8338.828185,313.613000,7.591922
8344.012739,313.664000,12.223742
8349.094000,313.714000,13.434299
8354.173640,313.764000,11.638080
8359.251662,313.814000,13.465626
8364.328066,313.864000,11.801589
8369.402853,313.914000,13.764007
8374.476024,313.964000,11.371462
8379.547579,314.014000,15.373579
8384.718901,314.065000,5.593034
8389.787195,314.115000,8.458887
8394.853876,314.165000,10.049068
8399.918944,314.215000,12.753694
8404.982400,314.265000,10.443745
8410.044246,314.315000,13.389103
8415.104481,314.365000,13.530995
8420.163107,314.415000,7.736933
8425.220124,314.465000,9.871056
8430.275533,314.515000,14.962532
8435.329336,314.565000,7.700611
8440.381532,314.615000,11.783722
8445.432122,314.665000,16.218160
8450.481107,314.715000,13.513703
8455.528489,314.765000,18.390694
8460.473367,314.814000,12.066484
8465.517575,314.864000,10.268484
8470.560181,314.914000,11.136198
8475.601186,314.964000,12.745458
8480.640590,315.014000,12.917904
8485.678395,315.064000,16.538745
8490.714602,315.114000,10.218863
8495.749210,315.164000,7.317063
8500.681577,315.213000,10.214556
8505.713024,315.263000,6.848696
8510.742875,315.313000,7.538836
8515.771131,315.363000,11.373391
8520.797793,315.413000,10.946127
8525.722375,315.462000,11.345685
8530.745883,315.512000,10.076750
8535.767799,315.562000,12.043297
8540.788124,315.612000,12.724964
8545.706499,315.661000,11.751833
8550.723675,315.711000,7.387382
8555.739262,315.761000,14.848307
8560.652997,315.810000,13.925829
8565.665441,315.860000,10.729691
8570.676298,315.910000,4.589661
8575.585399,315.959000,13.369603
8580.593116,316.009000,15.397191
8585.599249,316.059000,15.096218
8590.503723,316.108000,17.158160
8595.506721,316.158000,10.095177
8600.508137,316.208000,14.353567
8605.407991,316.257000,10.921037
8610.406276,316.307000,9.106884
8615.303063,316.356000,16.871495
8620.298221,316.406000,9.475061
8625.191944,316.455000,11.200774
8630.183977,316.505000,10.723967
8635.074640,316.554000,17.746327
8640.063551,316.604000,13.091520
8644.951156,316.653000,12.542240
8649.936949,316.703000,8.755026
8654.821499,316.752000,10.138047
8659.804175,316.802000,14.819470
8664.685673,316.851000,14.933468
8669.665237,316.901000,16.406239
8674.543685,316.950000,18.151043
8679.520139,317.000000,8.910303
8684.395541,317.049000,17.177477
8689.269436,317.098000,9.080711
8694.241247,317.148000,13.187530
8699.112100,317.197000,15.246179
8703.981448,317.246000,11.635023
8708.948621,317.296000,16.915150
8713.814931,317.345000,16.656275
8718.779005,317.395000,12.142076
8723.642281,317.444000,12.405243
8728.504055,317.493000,12.905510
8733.364329,317.542000,15.749864
8738.322247,317.592000,12.885774
8743.179491,317.641000,8.403319
8748.035237,317.690000,15.280681
8752.889486,317.739000,10.865444
8757.841258,317.789000,14.760223
8762.692483,317.838000,15.594773
8767.542212,317.887000,18.348211
8772.390446,317.936000,12.766545
8777.336084,317.986000,10.571461
8782.181300,318.035000,9.278409
8787.025024,318.084000,14.611035
8791.867255,318.133000,10.431704
8796.707995,318.182000,16.755595
8801.547244,318.231000,16.216285
8806.385003,318.280000,13.104921
8811.319957,318.330000,17.351779
8816.154708,318.379000,16.222675
8820.987971,318.428000,13.969182
8825.819746,318.477000,14.313191
8830.650035,318.526000,10.365475
8835.478838,318.575000,11.209289
8840.306156,318.624000,15.601597
8845.131990,318.673000,18.189471
8849.956339,318.722000,12.946032
8854.779206,318.771000,9.661325
8859.600590,318.820000,14.888305
8864.420492,318.869000,16.700267
8869.238913,318.918000,10.014796
8874.055854,318.967000,15.156269
8878.871314,319.016000,14.234558
8883.685296,319.065000,7.286426
8888.497800,319.114000,12.224451
8893.308826,319.163000,10.121512
8898.118374,319.212000,9.106782
8902.926447,319.261000,17.814898
8907.634964,319.309000,16.048910
8912.440116,319.358000,15.677774
8917.243794,319.407000,15.722093
8922.045998,319.456000,15.077826
8926.846729,319.505000,14.221461
8931.645988,319.554000,9.683647
8936.443775,319.603000,15.936300
8941.142222,319.651000,11.704147
8945.937098,319.700000,14.352017
8950.730504,319.749000,18.432421
8955.522441,319.798000,12.740319
8960.215161,319.846000,15.992249
8965.004192,319.895000,15.008833
8969.791757,319.944000,14.901714
8974.577855,319.993000,10.666981
8979.264858,320.041000,12.901847
8984.048055,320.090000,17.103628
8988.829789,320.139000,16.090701
8993.512517,320.187000,14.993393
8998.291355,320.236000,9.799470
9003.068730,320.285000,20.698695
9007.747190,320.333000,14.711755
9012.521672,320.382000,14.474725
9017.294694,320.431000,17.764692
9021.968893,320.479000,17.788505
9026.739026,320.528000,15.568546
9031.410396,320.576000,20.270765
9036.177644,320.625000,18.695219
9040.943434,320.674000,16.121483
9045.610552,320.722000,19.008346
9050.373460,320.771000,15.718785
9055.037756,320.819000,12.835831
9059.797784,320.868000,16.801859
9064.459261,320.916000,13.774556
9069.216413,320.965000,11.810646
9073.875072,321.013000,14.863995
9078.629350,321.062000,11.766631
9083.285194,321.110000,19.747287
9088.036601,321.159000,13.037897
9092.689634,321.207000,17.543734
9097.438171,321.256000,16.278430
9102.088394,321.304000,18.869110
9106.737229,321.352000,14.167753
9111.481482,321.401000,16.085014
9116.127511,321.449000,19.620192
9120.868902,321.498000,14.579745
9125.512128,321.546000,11.985764
9130.153968,321.594000,19.053604
9134.891085,321.643000,13.856008
9139.530126,321.691000,18.222376
9144.167783,321.739000,14.026192
9148.900630,321.788000,13.483638
9153.535492,321.836000,17.119468
9158.168971,321.884000,20.633757
9162.801069,321.932000,22.007251
9167.528244,321.981000,13.810754
9172.157551,322.029000,14.534840
9176.785479,322.077000,17.858701
9181.412027,322.125000,17.278202
9186.133540,322.174000,16.197191
9190.757302,322.222000,17.122562
9195.379688,322.270000,16.341448
9200.000697,322.318000,11.023164
9204.620330,322.366000,19.287394
9209.334786,322.415000,12.338123
9213.951640,322.463000,15.878347
9218.567119,322.511000,11.482861
9223.181225,322.559000,18.531798
9227.793957,322.607000,14.746191
9232.405318,322.655000,15.200306
9237.015306,322.703000,21.213130
9241.623923,322.751000,16.347290
9246.231170,322.799000,15.018820
9250.932988,322.848000,19.838536
9255.537466,322.896000,20.099846
9260.140576,322.944000,18.267995
9264.742318,322.992000,19.661654
9269.342693,323.040000,18.386223
9273.941700,323.088000,21.781278
9278.539341,323.136000,14.715052
9283.135616,323.184000,13.262659
9287.730527,323.232000,16.271292
9292.324072,323.280000,10.463470
9296.916254,323.328000,18.254605
9301.411445,323.375000,13.412252
9306.000929,323.423000,13.587345
9310.589052,323.471000,19.466019
9315.175812,323.519000,19.348854
9319.761212,323.567000,14.580329
9324.345252,323.615000,24.696245
9328.927932,323.663000,23.325517
9333.509253,323.711000,16.570258
9338.089216,323.759000,21.160723
9342.572447,323.806000,20.530635
9347.149722,323.854000,14.656025
9351.725642,323.902000,17.864896
9356.300205,323.950000,16.019498
9360.873412,323.998000,18.967796
9365.350032,324.045000,16.763443
9369.920559,324.093000,21.155531
9374.489732,324.141000,18.995322
9379.057552,324.189000,15.866937
9383.528899,324.236000,18.840477
9388.094043,324.284000,15.201339
9392.657836,324.332000,20.238848
9397.125241,324.379000,20.748534
9401.686361,324.427000,15.378350
9406.246132,324.475000,17.963236
9410.804554,324.523000,17.613513
9415.266702,324.570000,19.651387
9419.822456,324.618000,17.788968
9424.281993,324.665000,21.954103
9428.835082,324.713000,25.975147
9433.386824,324.761000,17.574972
9437.842435,324.808000,19.245988
9442.391516,324.856000,20.765911
9446.844521,324.903000,18.236314
9451.390942,324.951000,22.441587
9455.936020,324.999000,20.190494
9460.385108,325.046000,22.799223
9464.927530,325.094000,21.037164
9469.374018,325.141000,26.476460
9473.913786,325.189000,22.959602
9478.357677,325.236000,20.680059
9482.894794,325.284000,16.661300
9487.336090,325.331000,14.439337
9491.870557,325.379000,17.575152
9496.309260,325.426000,20.184093
9500.746681,325.473000,15.054211
9505.277193,325.521000,15.689968
9509.712024,325.568000,15.712826
9514.239893,325.616000,13.469785
9518.672137,325.663000,15.455273
9523.103102,325.710000,19.359314
9527.627024,325.758000,16.020390
9532.055405,325.805000,14.962789
9536.576689,325.853000,15.683756
9541.002489,325.900000,21.578315
9545.427013,325.947000,24.128494
9549.850260,325.994000,18.582279
9554.366303,326.042000,21.777045
9558.786974,326.089000,20.822824
9563.206371,326.136000,18.917785
9567.718482,326.184000,22.461072
9572.135305,326.231000,12.274339
9576.550855,326.278000,18.672738
9580.965134,326.325000,19.791828
9585.472021,326.373000,23.144781
9589.883730,326.420000,18.060864
9594.294169,326.467000,19.777790
9598.703338,326.514000,21.937732
9603.111238,326.561000,15.702694
9607.611614,326.609000,22.918512
9612.016950,326.656000,23.931820
9616.421019,326.703000,19.871204
9620.823821,326.750000,16.336181
9625.225356,326.797000,19.463789
9629.625626,326.844000,17.099870
9634.024630,326.891000,19.558533
9638.422369,326.938000,25.403028
9642.818845,326.985000,21.993200
9647.214056,327.032000,23.132150
9651.701479,327.080000,20.675621
9656.094138,327.127000,17.939975
9660.485535,327.174000,17.089899
9664.875670,327.221000,21.496158
9669.264544,327.268000,21.595066
9673.652158,327.315000,18.645784
9678.038512,327.362000,19.945825
9682.423607,327.409000,18.085539
9686.807443,327.456000,21.209583
9691.190021,327.503000,24.112293
9695.478134,327.549000,20.405764
9699.858224,327.596000,19.751725
9704.237057,327.643000,24.192271
9708.614633,327.690000,18.945973
9712.990955,327.737000,24.133892
9717.366021,327.784000,23.795782
9721.739833,327.831000,19.610453
9726.112390,327.878000,18.232778
9730.483695,327.925000,20.255583
9734.760780,327.971000,24.261365
9739.129606,328.018000,21.713074
9743.497180,328.065000,17.869395
9747.863503,328.112000,22.614133
9752.228575,328.159000,20.534633
9756.499562,328.205000,24.928461
9760.862161,328.252000,23.198549
9765.223511,328.299000,19.457822
9769.583612,328.346000,16.384326
9773.849737,328.392000,16.567829
9778.207369,328.439000,19.864046
9782.563754,328.486000,17.302002
9786.918893,328.533000,23.263583
9791.180163,328.579000,22.899703
9795.532837,328.626000,15.417204
9799.884266,328.673000,22.987184
9804.141906,328.719000,19.474201
9808.490874,328.766000,21.913340
9812.838598,328.813000,18.145428
9817.092614,328.859000,15.795360
9821.437879,328.906000,17.847697
9825.689490,328.952000,16.432147
9830.032299,328.999000,18.352427
9834.373868,329.046000,25.885465
9838.621862,329.092000,23.890395
9842.960977,329.139000,22.645900
9847.206571,329.185000,20.942123
9851.543235,329.232000,23.517647
9855.786431,329.278000,20.392530
9860.120646,329.325000,15.713355
9864.361446,329.371000,25.700719
9868.693214,329.418000,22.317844
9872.931619,329.464000,23.681971
9877.260942,329.511000,21.828868
9881.496956,329.557000,16.160806
9885.823836,329.604000,24.815650
9890.057460,329.650000,19.712512
9894.289903,329.696000,24.621976
9898.613135,329.743000,19.374991
9902.843191,329.789000,20.377850
9907.163985,329.836000,18.649340
9911.391656,329.882000,22.021978
9915.618148,329.928000,19.565980
9919.935303,329.975000,19.244424
9924.159413,330.021000,18.795603
9928.382346,330.067000,24.955592
9932.695866,330.114000,20.571780
9936.916419,330.160000,21.287377
9941.135797,330.206000,21.017379
9945.445687,330.253000,19.256932
9949.662689,330.299000,20.747642
9953.878516,330.345000,23.220317
9958.093170,330.391000,25.243576
9962.398234,330.438000,26.155465
9966.610516,330.484000,22.388785
9970.821625,330.530000,28.501947
9975.031562,330.576000,25.884271
9979.240328,330.622000,20.305093
9983.539380,330.669000,23.739407
9987.745778,330.715000,23.176533
9991.951007,330.761000,27.911705
9996.155067,330.807000,24.695960
10000.357957,330.853000,23.522872
10004.559679,330.899000,25.733848
10008.760233,330.945000,24.261749
10013.050897,330.992000,20.315608
10017.249091,331.038000,22.896829
10021.446118,331.084000,20.179615
10025.641979,331.130000,21.663191
10029.836675,331.176000,28.394127
10034.030205,331.222000,22.355755
10038.222571,331.268000,23.223157
10042.413773,331.314000,24.795667
10046.603811,331.360000,23.939089
10050.792686,331.406000,32.774065
10054.980398,331.452000,23.663187
10059.166948,331.498000,22.831394
10063.352336,331.544000,28.549860
10067.536563,331.590000,25.661271
10071.719629,331.636000,22.415082
10075.901535,331.682000,21.878671
10080.082281,331.728000,21.762630
10084.261868,331.774000,25.834838
10088.440296,331.820000,24.253825
10092.526768,331.865000,20.249900
10096.702905,331.911000,21.525894
10100.877884,331.957000,29.959481
10105.051707,332.003000,19.062529
10109.224373,332.049000,19.236481
10113.395884,332.095000,20.981823
10117.475591,332.140000,23.906832
10121.644816,332.186000,24.072637
10125.812886,332.232000,22.387437
10129.979802,332.278000,24.193390
10134.145565,332.324000,21.880210
10138.219652,332.369000,23.014921
10142.383134,332.415000,28.868046
10146.545464,332.461000,24.833509
10150.706643,332.507000,25.964954
10154.776247,332.552000,26.318015
10158.935148,332.598000,19.664380
10163.092900,332.644000,25.083715
10167.159152,332.689000,27.974255
10171.314630,332.735000,28.112042
10175.468958,332.781000,26.165748
10179.531864,332.826000,26.360898
10183.683921,332.872000,24.479369
10187.834831,332.918000,31.772896
10191.894393,332.963000,27.960552
10196.043035,333.009000,27.570860
10200.190530,333.055000,25.802991
10204.246754,333.100000,28.278925
10208.391984,333.146000,26.866929
10212.445992,333.191000,24.640077
10216.588958,333.237000,24.528883
10220.640753,333.282000,24.961493
10224.781457,333.328000,24.074319
10228.831039,333.373000,32.082264
10232.969483,333.419000,25.069523
10237.016856,333.464000,26.786657
10241.153042,333.510000,30.038117
10245.198206,333.555000,25.542342
10249.332135,333.601000,26.888553
10253.375094,333.646000,23.112133
10257.506768,333.692000,22.797852
10261.547522,333.737000,29.148684
10265.587186,333.782000,28.073786
10269.715494,333.828000,22.344956
10273.752956,333.873000,26.579152
10277.879015,333.919000,22.618758
10281.914277,333.964000,22.294185
10285.948452,334.009000,26.522674
10290.071151,334.055000,23.412142
10294.103128,334.100000,22.587438
10298.134020,334.145000,23.107864
10302.253364,334.191000,27.690191
10306.282060,334.236000,26.785959
10310.309672,334.281000,27.904179
10314.425666,334.327000,26.048589
10318.451085,334.372000,26.642118
10322.475422,334.417000,20.703690
10326.498675,334.462000,23.582645
10330.610215,334.508000,23.429965
10334.631280,334.553000,23.524428
10338.651263,334.598000,21.853204
10342.670165,334.643000,21.140451
10346.687987,334.688000,27.980726
10350.704728,334.733000,23.877816
10354.809614,334.779000,26.986657
10358.824172,334.824000,17.036176
10362.837651,334.869000,26.762285
10366.850051,334.914000,25.640083
10370.861373,334.959000,22.882042
10374.871618,335.004000,23.700968
10378.880786,335.049000,24.850205
10382.888876,335.094000,30.470580
10386.984923,335.140000,23.522272
10390.990838,335.185000,18.710675
10394.995677,335.230000,24.514779
10398.999440,335.275000,18.361238
10403.002130,335.320000,25.875409
10407.003745,335.365000,25.411341
10411.004286,335.410000,27.264318
10415.003755,335.455000,27.397636
10419.002150,335.500000,24.726705
10422.999473,335.545000,25.056780
10426.995723,335.590000,26.281588
10430.990902,335.635000,31.671301
10434.985010,335.680000,22.479137
10438.889325,335.724000,25.675305
10442.881316,335.769000,22.761758
10446.872237,335.814000,22.943775
10450.862088,335.859000,27.387408
10454.850871,335.904000,24.281748
10458.838585,335.949000,24.224111
10462.825230,335.994000,22.117490
10466.810808,336.039000,20.858562
10470.706786,336.083000,24.743056
10474.690253,336.128000,22.526687
10478.672654,336.173000,27.313602
10482.653989,336.218000,22.829420
10486.634259,336.263000,27.866723
10490.525048,336.307000,23.293904
10494.503211,336.352000,15.779860
10498.480310,336.397000,22.956272
10502.456345,336.442000,21.920390
10506.342995,336.486000,22.819823
10510.316927,336.531000,28.530938
10514.289797,336.576000,13.827316
10518.261604,336.621000,22.339710
10522.144122,336.665000,27.057328
10526.113830,336.710000,24.618204
10530.082477,336.755000,25.938710
10533.961906,336.799000,21.887894
10537.928455,336.844000,22.343682
10541.893946,336.889000,19.140988
10545.770289,336.933000,25.161816
10549.733685,336.978000,30.922539
10553.607982,337.022000,29.032258
10557.569284,337.067000,21.406557
10561.529529,337.112000,32.169675
10565.400747,337.156000,24.906426
10569.358902,337.201000,20.771976
10573.228076,337.245000,23.874704
10577.184142,337.290000,27.164746
10581.051275,337.334000,23.578016
10585.005254,337.379000,24.916282
10588.870347,337.423000,23.862556
10592.822240,337.468000,26.908109
10596.685295,337.512000,24.400339
10600.635105,337.557000,18.832671
10604.496123,337.601000,20.283316
10608.443850,337.646000,17.492637
10612.302834,337.690000,9.616587
10616.160811,337.734000,14.946443
10620.105430,337.779000,16.765422
10623.961375,337.823000,13.783252
10627.903916,337.868000,16.480947
10631.757830,337.912000,10.694356
10635.610740,337.956000,9.477753
10639.550179,338.001000,6.106006
10643.401061,338.045000,11.914438
10647.250940,338.089000,7.147520
10651.187281,338.134000,6.425884
10655.035134,338.178000,6.532735
10658.881986,338.222000,5.522917
10662.815231,338.267000,6.274096
10666.660059,338.311000,4.041687
10670.503887,338.355000,1.889549
10674.346716,338.399000,1.664944
10678.275848,338.444000,3.830796
10682.116656,338.488000,4.058473
10685.956465,338.532000,0.600154
10689.795276,338.576000,5.047694
10693.633090,338.620000,0.728130
10697.557096,338.665000,3.066673
10701.392893,338.709000,5.620199
10705.227693,338.753000,6.364901
10709.061498,338.797000,8.035676
10712.894307,338.841000,5.707106
10716.726120,338.885000,2.179360
10720.556939,338.929000,-1.235741
10724.386763,338.973000,6.310983
10728.302601,339.018000,3.798234
10732.130414,339.062000,-0.697739
10735.957235,339.106000,7.792941
10739.783062,339.150000,-1.182242
10743.607897,339.194000,3.116000
10747.431740,339.238000,1.603518
10751.254591,339.282000,1.184047
10755.076450,339.326000,5.542897
10758.897319,339.370000,4.543231
10762.717197,339.414000,1.145716
10766.536084,339.458000,7.258110
10770.353982,339.502000,2.756531
10774.170890,339.546000,-2.816032
10777.986809,339.590000,3.520015
10781.801740,339.634000,1.858167
10785.615682,339.678000,-3.194119
10789.341989,339.721000,0.988014
10793.153978,339.765000,7.992317
10796.964980,339.809000,-5.926554
10800.774995,339.853000,0.503639
10804.584024,339.897000,3.088823
10808.392066,339.941000,8.461625
10812.199123,339.985000,3.655080
10816.005195,340.029000,10.967819
10819.723813,340.072000,-2.839597
10823.527938,340.116000,8.304978
10827.331078,340.160000,2.278670
10831.133235,340.204000,-1.146402
10834.848029,340.247000,5.492900
10838.648242,340.291000,7.590183
10842.447472,340.335000,7.740120
10846.245720,340.379000,-0.151310
10849.956695,340.422000,2.738608
10853.753002,340.466000,-3.056187
10857.548328,340.510000,6.846980
10861.342673,340.554000,5.715526
10865.049836,340.597000,-1.605155
10868.842243,340.641000,4.518040
10872.633670,340.685000,3.850564
10876.337983,340.728000,6.484297
10880.127474,340.772000,1.735488
10883.829896,340.815000,-1.307969
10887.617453,340.859000,8.228101
10891.404033,340.903000,1.443928
10895.103609,340.946000,-0.388157
10898.888257,340.990000,2.884840
10902.585946,341.033000,4.950112
10906.368663,341.077000,3.939618
10910.150404,341.121000,-3.194292
10913.845254,341.164000,-4.326941
10917.625066,341.208000,7.710846
10921.318033,341.251000,2.353764
10925.095918,341.295000,6.384434
10928.787002,341.338000,0.643380
10932.562962,341.382000,0.266745
10936.252165,341.425000,2.958434
10939.940439,341.468000,-5.686330
10943.713524,341.512000,3.065827
10947.399919,341.555000,0.267394
10951.171083,341.599000,3.669687
10954.855601,341.642000,4.535764
10958.624845,341.686000,-0.198053
10962.307486,341.729000,1.198877
10965.989201,341.772000,4.359483
10969.755578,341.816000,3.454253
10973.435419,341.859000,2.575299
10977.114334,341.902000,-0.936100
10980.877848,341.946000,-9.791424
10984.554892,341.989000,0.068454
10988.231011,342.032000,-5.968788
10991.991665,342.076000,-1.560515
10995.665914,342.119000,1.862431
10999.339240,342.162000,-3.739453
11003.011643,342.205000,3.759956
11006.768496,342.249000,2.267005
11010.439032,342.292000,3.630370
11014.108646,342.335000,0.315117
11017.777338,342.378000,3.311863
11021.530396,342.422000,4.283242
11025.197224,342.465000,2.390808
11028.863132,342.508000,-1.985043
11032.528119,342.551000,4.646143
11036.192187,342.594000,-0.481649
11039.855335,342.637000,0.424299
11043.602720,342.681000,5.038338
11047.264009,342.724000,0.758558
11050.924378,342.767000,3.205201
11054.583829,342.810000,1.387696
11058.242363,342.853000,4.592901
11061.899979,342.896000,-0.062485
11065.556677,342.939000,-1.356535
11069.212459,342.982000,3.189782
11072.867324,343.025000,2.514059
11076.521273,343.068000,2.772318
11080.174306,343.111000,-2.642186
11083.826423,343.154000,4.419114
11087.477626,343.197000,-0.780503
11091.127913,343.240000,3.034386
11094.777286,343.283000,0.152322
11098.425745,343.326000,0.294902
11102.073291,343.369000,-4.505342
11105.719922,343.412000,-1.104154
11109.365641,343.455000,-2.631965
11113.010447,343.498000,0.173363
11116.654340,343.541000,4.790370
11120.297322,343.584000,7.173101
11123.939391,343.627000,-4.205215
11127.580549,343.670000,1.294506
11131.220797,343.713000,3.980671
11134.775508,343.755000,-6.807564
11138.413955,343.798000,-2.554092
11142.051492,343.841000,6.732762
11145.688120,343.884000,3.319089
11149.323838,343.927000,3.306738
11152.958647,343.970000,0.516221
11156.508049,344.012000,-2.103812
11160.141062,344.055000,-4.178306
11163.773167,344.098000,7.026664
11167.404365,344.141000,0.696384
11170.950240,344.183000,-2.232086
11174.579645,344.226000,3.125015
11178.208143,344.269000,2.175889
11181.751382,344.311000,-0.044236
11185.378088,344.354000,-2.056133
11189.003889,344.397000,2.902898
11192.628785,344.440000,1.738569
11196.168507,344.482000,0.611630
11199.791614,344.525000,-0.886761
11203.413817,344.568000,-4.420580
11206.950910,344.610000,1.764049
11210.571327,344.653000,-0.135796
11214.106675,344.695000,0.702491
11217.725306,344.738000,-0.036883
11221.343035,344.781000,1.760037
11224.875759,344.823000,1.827721
11228.491704,344.866000,5.421911
11232.022687,344.908000,-2.462678
11235.636851,344.951000,-0.900398
11239.166094,344.993000,4.858097
11242.778477,345.036000,-2.427904
11246.305982,345.078000,4.183640
11249.916585,345.121000,-0.934679
11253.442353,345.163000,-3.493356
11257.051178,345.206000,3.944340
11260.575210,345.248000,2.853598
11264.182259,345.291000,4.391781
11267.704555,345.333000,4.272533
11271.309829,345.376000,-1.031537
11274.830392,345.418000,-1.068771
11278.350100,345.460000,2.660751
11281.952723,345.503000,-1.706624
11285.470699,345.545000,-1.528792
11288.987820,345.587000,-1.141284
11292.587796,345.630000,2.278367
11296.103187,345.672000,-3.988331
11299.701393,345.715000,1.426512
11303.215056,345.757000,0.423794
11306.727865,345.799000,1.852503
11310.239821,345.841000,-6.883542
11313.834512,345.884000,-1.470840
11317.344742,345.926000,-1.032461
11320.854120,345.968000,-3.752974
11324.446172,346.011000,-6.127090
11327.953826,346.053000,-2.744029
11331.460629,346.095000,3.921289
11334.966581,346.137000,2.375836
11338.471682,346.179000,2.930409
11342.059357,346.222000,-0.364623
11345.562737,346.264000,-1.144616
11349.065268,346.306000,-0.916165
11352.566949,346.348000,3.526779
11356.067781,346.390000,0.132329
11359.567764,346.432000,-2.843707
11363.150201,346.475000,-5.257909
11366.648467,346.517000,-2.438900
11370.145885,346.559000,1.865143
11373.642456,346.601000,1.990094
11377.138179,346.643000,-2.762209
11380.633055,346.685000,-1.517423
11384.127085,346.727000,-1.998407
11387.620268,346.769000,1.064313
11391.112605,346.811000,-0.712522
11394.604096,346.853000,-4.839112
11398.094742,346.895000,1.870192
11401.584543,346.937000,-5.495512
11405.073499,346.979000,5.614062
11408.561610,347.021000,-5.265680
11412.048877,347.063000,-0.490377
11415.535301,347.105000,-6.052878
11419.020880,347.147000,0.423945
11422.505617,347.189000,-6.887792
11425.989510,347.231000,-2.620282
11429.472560,347.273000,-3.553173
11432.954769,347.315000,0.687544
11436.436135,347.357000,6.255444
11439.916659,347.399000,-6.327917
11443.313502,347.440000,-0.283255
11446.792364,347.482000,1.024417
11450.270384,347.524000,-3.646119
11453.747565,347.566000,0.250775
11457.223905,347.608000,1.114228
11460.699405,347.650000,-0.339340
11464.091345,347.691000,-5.677029
11467.565186,347.733000,1.749856
11471.038188,347.775000,1.074877
11474.510351,347.817000,-1.778465
11477.981676,347.859000,-0.769108
11481.369541,347.900000,-0.227749
11484.839210,347.942000,-7.098415
11488.308041,347.984000,-1.738495
11491.693473,348.025000,0.962718
11495.160650,348.067000,-2.756496
11498.626991,348.109000,2.566742
11502.092494,348.151000,3.018031
11505.474680,348.192000,-0.330138
11508.938532,348.234000,4.895858
11512.401549,348.276000,-3.726533
11515.781307,348.317000,-2.577525
11519.242673,348.359000,0.137090
11522.620821,348.400000,1.187495
11526.080539,348.442000,-2.478083
11529.539422,348.484000,-8.618055
11532.915148,348.525000,-5.151222
11536.372384,348.567000,-2.355729
11539.746502,348.608000,-3.379449
11543.202092,348.650000,0.890786
11546.574604,348.691000,-6.100735
11550.028550,348.733000,-5.307748
11553.399456,348.774000,-2.471305
11556.851758,348.816000,1.584052
11560.221061,348.857000,-0.259067
11563.671720,348.899000,-5.200691
11567.039420,348.940000,-3.355216
11570.488439,348.982000,-0.626517
11573.854537,349.023000,1.938964
11577.301915,349.065000,2.040586
11580.666413,349.106000,3.743838
11584.030120,349.147000,-1.540326
11587.475051,349.189000,2.030884
11590.837159,349.230000,-3.280546
11594.280452,349.272000,-1.987316
11597.640963,349.313000,-1.671362
11601.000686,349.354000,-2.321049
11604.441535,349.396000,1.902211
11607.799661,349.437000,-4.182460
11611.157000,349.478000,2.004536
11614.595408,349.520000,-2.022577
11617.951152,349.561000,-1.722592
11621.306109,349.602000,-4.631483
11624.660280,349.643000,1.081932
11628.095443,349.685000,0.707822
11631.448022,349.726000,3.286755
11634.799814,349.767000,-2.249654
11638.150821,349.808000,-8.365667
11641.582745,349.850000,-1.676739
11644.932162,349.891000,-2.372088
11648.280794,349.932000,0.793992
11651.628641,349.973000,2.436577
11654.975704,350.014000,-1.785159
11658.403590,350.056000,3.685664
11661.749066,350.097000,-1.793563
11665.093759,350.138000,0.224647
11668.437668,350.179000,-0.872947
11671.780795,350.220000,1.129787
11675.123139,350.261000,-3.263259
11678.464700,350.302000,-2.247613
11681.805480,350.343000,-0.770071
11685.145477,350.384000,4.091390
11688.484693,350.425000,-5.115792
11691.904543,350.467000,1.403106
11695.242178,350.508000,-2.752824
11698.579032,350.549000,-1.550796
11701.915105,350.590000,-0.521853
11705.250398,350.631000,-5.755628
11708.584912,350.672000,0.776345
11711.918645,350.713000,-1.470307
11715.251600,350.754000,-5.888145
11718.502512,350.794000,-6.464116
11721.833927,350.835000,-4.434721
11725.164564,350.876000,-3.934618
11728.494422,350.917000,-7.942109
11731.823503,350.958000,1.005843
11735.151806,350.999000,0.395214
11738.479331,351.040000,0.005128
11741.806079,351.081000,-5.819860
11745.132050,351.122000,1.796154
11748.457245,351.163000,3.059340
11751.700589,351.203000,-1.605155
11755.024250,351.244000,-3.188314
11758.347135,351.285000,0.629653
11761.669245,351.326000,-0.413018
11764.990579,351.367000,-0.985479
11768.230159,351.407000,-4.084604
11771.549962,351.448000,-4.680940
11774.868991,351.489000,-4.283391
11778.187246,351.530000,-4.708442
11781.423822,351.570000,-0.137446
11784.740548,351.611000,-3.250691
11788.056500,351.652000,-0.220935
11791.371680,351.693000,-5.567647
11794.605256,351.733000,-0.685903
11797.918909,351.774000,0.190778
11801.231790,351.815000,-1.334284
11804.463124,351.855000,-4.291490
11807.774479,351.896000,0.405541
11811.085063,351.937000,-2.161823
11814.314158,351.977000,0.750487
11817.623218,352.018000,3.525583
11820.850827,352.058000,-3.401334
11824.158365,352.099000,-2.870759
11827.465133,352.140000,-1.146974
11830.690506,352.180000,-2.767262
11833.995753,352.221000,-2.163340
11837.219643,352.261000,-1.274181
11840.523370,352.302000,-5.785914
11843.745778,352.342000,-1.153157
11847.047986,352.383000,-8.394673
11850.268913,352.423000,2.438144
11853.569603,352.464000,-4.213902
11856.789050,352.504000,0.685617
11860.088224,352.545000,-0.894897
11863.306191,352.585000,2.003900
11866.603850,352.626000,-1.809646
11869.820339,352.666000,1.458399
11873.116483,352.707000,0.198493
11876.331495,352.747000,-2.993911
11879.545777,352.787000,0.523775
11882.839661,352.828000,-3.828282
11886.052468,352.868000,-3.588859
11889.264547,352.908000,-6.730316
11892.556173,352.949000,-1.453543
11895.766777,352.989000,-0.533052
11899.056892,353.030000,-0.466672
11902.266024,353.070000,2.088694
11905.474429,353.110000,-4.364617
11908.682107,353.150000,5.944294
11911.969223,353.191000,4.976789
11915.175430,353.231000,-4.474684
11918.380911,353.271000,0.537900
11921.665775,353.312000,0.608602
11924.869787,353.352000,2.848803
11928.073073,353.392000,-4.145995
11931.275634,353.432000,0.777175
11934.477470,353.472000,0.814957
11937.758600,353.513000,-3.011770
11940.958969,353.553000,3.813290
11944.158614,353.593000,2.345461
11947.357536,353.633000,-0.897613
11950.555733,353.673000,0.713638
11953.753208,353.713000,-4.408526
11957.029868,353.754000,-4.316141
11960.225879,353.794000,3.141691
11963.421166,353.834000,-3.064496
11966.615732,353.874000,0.095140
11969.809575,353.914000,-9.984001
11973.002696,353.954000,2.065282
11976.195096,353.994000,-3.423273
11979.386774,354.034000,-1.055171
11982.577731,354.074000,-1.788542
11985.767968,354.114000,-3.303654
11988.957483,354.154000,0.343846
11992.146279,354.194000,-3.315130
11995.334354,354.234000,-1.037133
11998.521709,354.274000,8.699323
12001.708345,354.314000,3.253547
12004.894261,354.354000,-6.948693
12008.079458,354.394000,-2.571986
12011.263936,354.434000,-4.730736
12014.447695,354.474000,-0.385038
12017.630736,354.514000,-5.535027
12020.813059,354.554000,-2.368755
12023.994663,354.594000,-2.294840
12027.175550,354.634000,-4.138250
12030.276224,354.673000,-0.331508
12033.455694,354.713000,-3.844709
12036.634448,354.753000,-0.873560
12039.812484,354.793000,-4.256035
12042.989804,354.833000,2.069010
12046.166408,354.873000,-5.468550
12049.262907,354.912000,3.922300
12052.438097,354.952000,0.761598
12055.612571,354.992000,-0.347198
12058.786330,355.032000,1.142821
12061.880056,355.071000,-6.863206
12065.052403,355.111000,-1.153720
12068.224035,355.151000,-2.705423
12071.394953,355.191000,-5.329332
12074.485910,355.230000,0.011816
12077.655418,355.270000,-2.547951
12080.824212,355.310000,-5.764590
12083.913100,355.349000,-2.666605
12087.080485,355.389000,1.270251
12090.247158,355.429000,-1.764067
12093.333977,355.468000,-6.542998
12096.499242,355.508000,1.971014
12099.663795,355.548000,-1.055780
12102.748549,355.587000,1.317779
12105.911696,355.627000,-0.482812
12108.995079,355.666000,-2.850824
12112.156822,355.706000,-1.404180
12115.317853,355.746000,0.378648
12118.399174,355.785000,1.083413
12121.558801,355.825000,0.780891
12124.638754,355.864000,-3.147749
12127.796979,355.904000,0.604940
12130.875565,355.943000,1.143810
12134.032389,355.983000,1.482035
12137.109608,356.022000,0.414944
12140.265031,356.062000,-1.189211
12143.340885,356.101000,1.718446
12146.494908,356.141000,-2.974130
12149.569398,356.180000,-0.692338
12152.643215,356.219000,0.015883
12155.795149,356.259000,2.534225
12158.867603,356.298000,-1.881381
12162.018139,356.338000,-0.262772
12165.089231,356.377000,0.191749
12168.159651,356.416000,0.855972
12171.308101,356.456000,-2.330617
12174.377160,356.495000,-0.418204
12177.445548,356.534000,0.937703
12180.591915,356.574000,-0.666304
12183.658943,356.613000,-0.340576
12186.725300,356.652000,-2.848652
12189.869585,356.692000,0.395270
12192.934585,356.731000,-1.116504
12195.998914,356.770000,-1.104343
12199.062573,356.809000,1.169149
12202.204093,356.849000,-0.629596
12205.266396,356.888000,0.798096
12208.328030,356.927000,1.730414
12211.388995,356.966000,-0.118704
12214.527751,357.006000,-1.751832
12217.587361,357.045000,-1.096928
12220.646304,357.084000,1.396465
12223.704578,357.123000,-1.435246
12226.762184,357.162000,0.206027
12229.819122,357.201000,-0.382900
12232.953750,357.241000,-0.971195
12236.009337,357.280000,-1.123173
12239.064257,357.319000,0.523032
12242.118510,357.358000,-2.762752
12245.172096,357.397000,-2.511711
12248.225016,357.436000,-1.392187
