raman_shift_cm-1,wavelength_nm,intensity
-311.444523,246.690000,0.000000
-300.766377,246.755000,0.000000
-290.093855,246.820000,0.000000
-279.262891,246.886000,0.000000
-268.601691,246.951000,0.002660
-257.946101,247.016000,-0.033380
-247.296118,247.081000,0.680049
-236.651737,247.146000,-1.175299
-226.012953,247.211000,0.613195
-215.216219,247.277000,-0.390328
-204.588703,247.342000,-1.062262
-193.966771,247.407000,-1.943843
-183.350419,247.472000,0.133969
-172.739643,247.537000,-0.122722
-162.134437,247.602000,1.287306
-151.534799,247.667000,0.613901
-140.940722,247.732000,-0.914121
-130.352203,247.797000,1.679020
-119.769238,247.862000,2.433116
-109.191822,247.927000,0.328633
-98.619951,247.992000,2.339315
-88.053621,248.057000,-1.010775
-77.655258,248.121000,0.008780
-67.099910,248.186000,0.522573
-56.550089,248.251000,-0.660599
-46.005792,248.316000,0.186946
-35.467013,248.381000,-0.538279
-24.933749,248.446000,1.233965
-14.405995,248.511000,1.270265
-4.045586,248.575000,-1.340013
6.471245,248.640000,0.940146
16.982580,248.705000,2.324058
27.488421,248.770000,0.483151
37.827271,248.834000,0.072108
48.322224,248.899000,-0.414427
58.811696,248.964000,-0.612762
69.134442,249.028000,1.569664
79.613052,249.093000,2.535984
90.086194,249.158000,-1.355680
100.392873,249.222000,-0.397879
110.855177,249.287000,1.725188
121.312027,249.352000,0.331127
131.602677,249.416000,-1.017758
142.048715,249.481000,-0.457876
152.328727,249.545000,-0.338632
162.763968,249.610000,-0.743549
173.033359,249.674000,-2.019253
183.457821,249.739000,-0.457971
193.716607,249.803000,0.613569
204.130307,249.868000,0.611689
214.378504,249.932000,1.851902
224.781458,249.997000,3.077394
235.019083,250.061000,3.587769
245.411309,250.126000,0.593692
255.638378,250.190000,-3.380434
265.860216,250.254000,-5.575726
276.236420,250.319000,-2.350053
286.447727,250.383000,3.239362
296.813243,250.448000,4.949653
307.014035,250.512000,1.206884
317.209616,250.576000,-1.267255
327.399990,250.640000,2.798934
337.744263,250.705000,0.958081
347.924154,250.769000,3.743731
358.098850,250.833000,-1.834646
368.268355,250.897000,-4.981335
378.591450,250.962000,0.105569
388.750505,251.026000,-1.625070
398.904381,251.090000,1.921579
409.053082,251.154000,-0.570877
419.196612,251.218000,3.290920
429.334975,251.282000,-0.267859
439.626466,251.347000,-0.738022
449.754426,251.411000,4.836390
459.877231,251.475000,-1.197563
469.994885,251.539000,0.363999
480.107392,251.603000,1.145371
490.214756,251.667000,0.064420
500.316980,251.731000,7.753712
510.414069,251.795000,-4.448324
520.506026,251.859000,-1.385692
530.592855,251.923000,-4.143292
540.674561,251.987000,2.964869
550.751147,252.051000,-3.856628
560.822617,252.115000,1.320315
570.888975,252.179000,3.393243
580.950225,252.243000,-2.997912
590.849282,252.306000,2.459998
600.900407,252.370000,3.304079
610.946435,252.434000,1.828930
620.987371,252.498000,5.896505
631.023218,252.562000,5.644250
641.053980,252.626000,0.230344
650.923048,252.689000,4.686779
660.943731,252.753000,1.838858
670.959341,252.817000,1.989617
680.969880,252.881000,1.342136
690.819058,252.944000,-2.715279
700.819549,253.008000,0.259239
710.814983,253.072000,7.008918
720.805362,253.136000,1.772618
730.634708,253.199000,3.854165
740.615069,253.263000,0.404679
750.434561,253.326000,1.199032
760.404919,253.390000,-3.755689
770.370241,253.454000,0.825093
780.174941,253.517000,4.277516
790.130283,253.581000,-0.607941
799.925166,253.644000,3.897548
809.870542,253.708000,4.937905
819.655623,253.771000,2.157559
829.591048,253.835000,0.929119
839.366341,253.898000,-2.510959
849.291831,253.962000,-0.203377
859.057350,254.025000,-8.149522
868.972920,254.089000,4.898021
878.728681,254.152000,0.437408
888.634344,254.216000,0.226826
898.380361,254.279000,-1.651826
908.121550,254.342000,0.937364
918.012421,254.406000,0.340386
927.743888,254.469000,4.923947
937.470538,254.532000,-1.409258
947.346650,254.596000,-3.973282
957.063600,254.659000,4.544874
966.775743,254.722000,2.996630
976.637128,254.786000,-4.022955
986.339593,254.849000,6.895720
996.037261,254.912000,-8.837141
1005.730138,254.975000,4.646305
1015.571966,255.039000,1.045742
1025.255192,255.102000,0.993960
1034.933637,255.165000,1.035246
1044.607304,255.228000,-1.258718
1054.276196,255.291000,2.415956
1063.940318,255.354000,-8.621895
1073.599672,255.417000,-6.373714
1083.407471,255.481000,-8.530411
1093.057225,255.544000,-2.097560
1102.702223,255.607000,-1.816847
1112.342467,255.670000,1.104185
1121.977961,255.733000,0.720448
1131.608710,255.796000,-7.574943
1141.234715,255.859000,-0.910187
1150.855981,255.922000,0.958258
1160.472512,255.985000,3.528995
1170.084310,256.048000,3.051358
1179.691379,256.111000,2.496535
1189.293724,256.174000,-2.355894
1198.739040,256.236000,-1.499216
1208.332019,256.299000,4.866605
1217.920283,256.362000,1.446893
1227.503835,256.425000,1.370698
1237.082680,256.488000,0.238368
1246.656820,256.551000,-5.075682
1256.226260,256.614000,-4.579449
1265.639217,256.676000,-3.858827
1275.199339,256.739000,3.077144
1284.754770,256.802000,-0.816335
1294.305515,256.865000,-0.673588
1303.700087,256.927000,-3.364720
1313.241541,256.990000,-0.967825
1322.778319,257.053000,0.343094
1332.310423,257.116000,-3.293597
1341.686664,257.178000,1.651718
1351.209505,257.241000,1.629336
1360.727683,257.304000,-1.066374
1370.090229,257.366000,-5.158931
1379.599165,257.429000,0.381164
1388.952622,257.491000,-8.984307
1398.452329,257.554000,-3.286869
1407.796710,257.616000,-8.274649
1417.287202,257.679000,-2.576741
1426.773053,257.742000,-2.294498
1436.103810,257.804000,-1.825143
1445.580466,257.867000,0.566684
1454.902179,257.929000,0.158406
1464.369654,257.992000,0.692986
1473.682337,258.054000,-4.697497
1482.990547,258.116000,2.354337
1492.444310,258.179000,-5.748968
1501.743510,258.241000,-4.227609
1511.188124,258.304000,0.317429
1520.478327,258.366000,-2.537008
1529.764072,258.428000,5.228094
1539.195025,258.491000,0.499757
1548.471792,258.553000,2.220713
1557.744112,258.615000,0.710983
1567.161432,258.678000,-2.357754
1576.424794,258.740000,-0.201296
1585.683718,258.802000,-2.589826
1594.938206,258.864000,-0.294867
1604.337420,258.927000,1.560539
1613.582976,258.989000,3.503880
1622.824106,259.051000,-0.844580
1632.060814,259.113000,2.065450
1641.293103,259.175000,4.009400
1650.669776,259.238000,5.670174
1659.893165,259.300000,4.448130
1669.112144,259.362000,-0.957537
1678.326716,259.424000,0.259868
1687.536886,259.486000,2.508585
1696.742655,259.548000,-1.938391
1705.944027,259.610000,0.360207
1715.141005,259.672000,-1.493508
1724.333592,259.734000,0.237030
1733.521792,259.796000,5.354910
1742.705607,259.858000,2.791255
1751.885041,259.920000,-0.621502
1761.060096,259.982000,0.990179
1770.230777,260.044000,-1.214818
1779.397086,260.106000,-0.219647
1788.559026,260.168000,1.716607
1797.716600,260.230000,-0.183775
1806.869812,260.292000,-2.715021
1816.018664,260.354000,1.615396
1825.163160,260.416000,-1.411240
1834.155916,260.477000,-3.654604
1843.291778,260.539000,2.251664
1852.423294,260.601000,0.102758
1861.550466,260.663000,5.817983
1870.673297,260.725000,2.627296
1879.644752,260.786000,-3.195754
1888.758980,260.848000,3.167153
1897.868877,260.910000,-4.792850
1906.974445,260.972000,3.300748
1915.928928,261.033000,4.089204
1925.025918,261.095000,1.732117
1934.118588,261.157000,-2.264428
1943.060391,261.218000,-0.156583
1952.144502,261.280000,0.328191
1961.224302,261.342000,-0.046481
1970.153451,261.403000,2.038259
1979.224710,261.465000,-0.661211
1988.145460,261.526000,-2.449679
1997.208190,261.588000,-2.709610
2006.120554,261.649000,-2.172516
2015.174766,261.711000,-0.679149
2024.078756,261.772000,-0.435106
2033.124461,261.834000,5.946164
2042.020089,261.895000,-4.621161
2051.057301,261.957000,0.099232
2059.944578,262.018000,-2.607698
2068.973308,262.080000,-1.394980
2077.852245,262.141000,0.692154
2086.872506,262.203000,-6.220579
2095.743116,262.264000,0.802833
2104.609601,262.325000,3.085840
2113.617214,262.387000,-5.087254
2122.475388,262.448000,1.630897
2131.329447,262.509000,-0.525980
2140.324438,262.571000,0.262624
2149.170203,262.632000,-1.708516
2158.011861,262.693000,4.008564
2166.994257,262.755000,0.323860
2175.827640,262.816000,2.240282
2184.656923,262.877000,0.527870
2193.482109,262.938000,-1.239525
2202.303202,262.999000,-2.724840
2211.264711,263.061000,-0.625233
2220.077557,263.122000,-0.894571
2228.886318,263.183000,-0.311282
2237.690997,263.244000,-4.574143
2246.491597,263.305000,-1.070417
2255.288119,263.366000,-4.798762
2264.080568,263.427000,-0.624242
2272.868945,263.488000,-1.731631
2281.653255,263.549000,-2.326250
2290.577403,263.611000,-5.447128
2299.353518,263.672000,9.632428
2308.125573,263.733000,0.002927
2316.893571,263.794000,-2.146982
2325.657515,263.855000,-1.413499
2334.273836,263.915000,-0.624804
2343.029746,263.976000,0.293603
2351.781611,264.037000,-1.582896
2360.529433,264.098000,-2.153450
2369.273215,264.159000,4.675959
2378.012959,264.220000,0.275261
2386.748669,264.281000,-1.974353
2395.480347,264.342000,0.399083
2404.207997,264.403000,0.841207
2412.788642,264.463000,-4.537062
2421.508308,264.524000,-7.200066
2430.223953,264.585000,-0.495041
2438.935580,264.646000,-0.902253
2447.643192,264.707000,-2.182675
2456.204142,264.767000,1.100004
2464.903798,264.828000,-1.299383
2473.599447,264.889000,4.155039
2482.148639,264.949000,0.734867
2490.836348,265.010000,-5.826559
2499.520059,265.071000,-2.809143
2508.057516,265.131000,4.585085
2516.733303,265.192000,-3.930073
2525.405101,265.253000,1.807823
2533.930847,265.313000,0.285900
2542.594737,265.374000,3.767415
2551.112712,265.434000,-1.219263
2559.768705,265.495000,1.312708
2568.278918,265.555000,-0.218023
2576.927027,265.616000,-1.392049
2585.571164,265.677000,5.305181
2594.069722,265.737000,-5.983093
2602.564444,265.797000,3.503508
2611.196813,265.858000,-3.715462
2619.683805,265.918000,-0.988148
2628.308321,265.979000,-1.456556
2636.787594,266.039000,-7.147939
2645.404268,266.100000,-1.779038
2653.875831,266.160000,1.579748
2662.343577,266.220000,-2.829234
2670.948539,266.281000,3.314398
2679.408591,266.341000,-3.389358
2687.864833,266.401000,-2.266826
2696.458108,266.462000,6.866438
2704.906672,266.522000,0.390736
2713.351433,266.582000,0.220801
2721.792393,266.642000,-5.105904
2730.370143,266.703000,-2.437094
2738.803447,266.763000,0.859099
2747.232958,266.823000,-1.620728
2755.658679,266.883000,-4.430827
2764.220946,266.944000,-2.831235
2772.639032,267.004000,7.711483
2781.053334,267.064000,-1.532096
2789.463857,267.124000,-0.294025
2797.870602,267.184000,-2.849184
2806.273573,267.244000,-3.712441
2814.672771,267.304000,4.149360
2823.068200,267.364000,2.458826
2831.459861,267.424000,0.751627
2839.847757,267.484000,5.637693
2848.231891,267.544000,-2.575823
2856.612266,267.604000,0.006656
2864.988884,267.664000,7.759440
2873.361747,267.724000,4.000903
2881.730857,267.784000,2.530802
2890.096219,267.844000,5.066968
2898.457833,267.904000,0.162742
2906.815703,267.964000,-1.195601
2915.169831,268.024000,10.086389
2923.520219,268.084000,3.863633
2931.866870,268.144000,5.124608
2940.209787,268.204000,2.832878
2948.410016,268.263000,6.463162
2956.745534,268.323000,0.465702
2965.077324,268.383000,0.750637
2973.405390,268.443000,1.423491
2981.729735,268.503000,1.477149
2989.911713,268.562000,6.308704
2998.228682,268.622000,3.156998
3006.541937,268.682000,6.981101
3014.851480,268.742000,-0.349237
3023.018913,268.801000,0.271096
3031.321101,268.861000,-2.198325
3039.619584,268.921000,3.459475
3047.776149,268.980000,5.535107
3056.067292,269.040000,8.491495
3064.216644,269.099000,6.466586
3072.500457,269.159000,1.504873
3080.780577,269.219000,4.000809
3088.919097,269.278000,0.886174
3097.191901,269.338000,4.815116
3105.323232,269.397000,2.990465
3113.588730,269.457000,3.428083
3121.712881,269.516000,5.000823
3129.971082,269.576000,6.066688
3138.088063,269.635000,5.916579
3146.338978,269.695000,4.417354
3154.448798,269.754000,2.033420
3162.692435,269.814000,-2.261799
3170.795104,269.873000,-0.187542
3178.894231,269.932000,0.942769
3187.127001,269.992000,5.022881
3195.218991,270.051000,0.350204
3203.307445,270.110000,-1.941714
3211.529370,270.170000,5.214579
3219.610701,270.229000,3.061289
3227.688505,270.288000,-3.851691
3235.899605,270.348000,1.878584
3243.970299,270.407000,0.637377
3252.037473,270.466000,3.546803
3260.101128,270.525000,10.976337
3268.297848,270.585000,-0.967161
3276.354413,270.644000,3.154711
3284.407466,270.703000,-2.326032
3292.457009,270.762000,3.553823
3300.503044,270.821000,-0.782802
3308.545575,270.880000,3.129801
3316.720828,270.940000,0.980647
3324.756296,270.999000,-4.610141
3332.788267,271.058000,-2.670386
3340.816741,271.117000,-0.471099
3348.841722,271.176000,-1.140981
3356.863212,271.235000,2.584501
3364.881213,271.294000,1.409069
3372.895727,271.353000,5.393807
3380.906756,271.412000,2.612941
3388.914304,271.471000,-2.544599
3396.918371,271.530000,2.056692
3404.918961,271.589000,-1.845263
3412.916076,271.648000,1.692662
3420.909718,271.707000,3.556148
3428.899888,271.766000,2.253027
3436.886591,271.825000,-3.766012
3444.734546,271.883000,1.178806
3452.714377,271.942000,5.309941
3460.690746,272.001000,-3.768211
3468.663655,272.060000,1.930143
3476.633107,272.119000,6.630726
3484.599104,272.178000,2.163765
3492.426718,272.236000,4.705001
3500.385870,272.295000,3.950863
3508.341573,272.354000,2.913556
3516.293830,272.413000,-1.380330
3524.107947,272.471000,-0.145815
3532.053377,272.530000,4.804178
3539.995368,272.589000,3.046508
3547.799398,272.647000,4.144394
3555.734574,272.706000,7.768701
3563.666318,272.765000,0.587583
3571.460282,272.823000,3.525499
3579.385225,272.882000,4.214454
3587.306741,272.941000,-0.682646
3595.090658,272.999000,-1.477878
3603.005387,273.058000,2.294346
3610.782635,273.116000,0.142425
3618.690585,273.175000,1.317708
3626.461173,273.233000,-3.915115
3634.362353,273.292000,-0.142600
3642.126290,273.350000,-0.579365
3650.020708,273.409000,-3.412204
3657.778002,273.467000,-0.275694
3665.665667,273.526000,2.786208
3673.416327,273.584000,1.604900
3681.163701,273.642000,3.833836
3689.041282,273.701000,5.738549
3696.782035,273.759000,3.511622
3704.652885,273.818000,-2.169293
3712.387025,273.876000,-5.927011
3720.117889,273.934000,4.272076
3727.845481,273.992000,3.196840
3735.702951,274.051000,2.252951
3743.423947,274.109000,0.305623
3751.141676,274.167000,-1.514991
3758.989119,274.226000,-4.569552
3766.700265,274.284000,0.468948
3774.408150,274.342000,1.951826
3782.112776,274.400000,3.573097
3789.814146,274.458000,5.637118
3797.644960,274.517000,-4.982961
3805.339767,274.575000,1.621617
3813.031324,274.633000,2.964149
3820.719634,274.691000,0.302520
3828.404697,274.749000,-5.123799
3836.086516,274.807000,-2.714144
3843.765093,274.865000,-1.973811
3851.440431,274.923000,2.513203
3859.112530,274.981000,0.164076
3866.781394,275.039000,-0.486508
3874.447024,275.097000,-1.057180
3882.109423,275.155000,4.574077
3889.768591,275.213000,1.774765
3897.424533,275.271000,-2.642576
3905.077248,275.329000,-0.520237
3912.726740,275.387000,3.082686
3920.373011,275.445000,1.908038
3928.016062,275.503000,-2.441916
3935.655896,275.561000,5.605418
3943.292514,275.619000,0.769131
3950.925919,275.677000,-3.380014
3958.424585,275.734000,-3.606622
3966.051625,275.792000,1.011257
3973.675457,275.850000,1.602965
3981.296084,275.908000,1.170290
3988.913508,275.966000,2.840928
3996.396478,276.023000,4.302272
4004.007557,276.081000,1.528912
4011.615438,276.139000,4.454333
4019.220124,276.197000,2.366853
4026.690584,276.254000,-3.280044
4034.288940,276.312000,-10.503410
4041.884108,276.370000,-0.696020
4049.345219,276.427000,-4.670229
4056.934068,276.485000,-3.714858
4064.519735,276.543000,-7.124971
4071.971515,276.600000,-2.601071
4079.550876,276.658000,-2.069338
4086.996462,276.715000,0.109617
4094.569525,276.773000,-0.794597
4102.008927,276.830000,-4.132650
4109.575700,276.888000,-2.171336
4117.008923,276.945000,2.104870
4124.569414,277.003000,-2.227788
4131.996467,277.060000,2.239550
4139.550684,277.118000,2.052573
4146.971575,277.175000,6.088069
4154.519525,277.233000,-3.087856
4161.934262,277.290000,-8.875402
4169.475953,277.348000,-4.154976
4228.011654,277.799000,5.741529
4235.396210,277.856000,2.679452
4242.907211,277.914000,-0.452465
4250.415077,277.972000,1.711945
4257.790445,278.029000,2.207118
4265.292102,278.087000,2.715390
4272.790631,278.145000,-2.292485
4280.156828,278.202000,5.051894
4287.649159,278.260000,-1.883515
4295.138368,278.318000,-2.347715
4302.495411,278.375000,0.613863
4309.978434,278.433000,0.409424
4317.329402,278.490000,-1.276803
4324.806246,278.548000,10.093600
4332.151147,278.605000,2.329387
4339.621821,278.663000,-3.631490
4346.960661,278.720000,-0.269233
4354.425172,278.778000,0.549912
4361.757959,278.835000,-1.614714
4369.216314,278.893000,0.263060
4376.543056,278.950000,-0.161862
4383.995264,279.008000,0.539299
4391.315968,279.065000,-3.810360
4398.762036,279.123000,2.705894
4406.076709,279.180000,0.560380
4413.516644,279.238000,-0.206167
4420.825295,279.295000,2.317674
4428.130962,279.352000,0.031616
4435.561740,279.410000,-0.522046
4442.861395,279.467000,3.035218
4450.158074,279.524000,-0.401211
4457.579711,279.582000,0.225456
4464.870389,279.639000,0.259687
4472.158095,279.696000,4.053255
4479.570607,279.754000,-0.275470
4486.852324,279.811000,-0.201680
4494.131074,279.868000,4.524481
4501.534479,279.926000,1.610080
4508.807251,279.983000,3.620437
4516.077062,280.040000,-1.406268
4523.343914,280.097000,-1.056305
4530.735220,280.155000,0.337279
4537.996108,280.212000,-0.143552
4545.254043,280.269000,-1.272883
4552.509026,280.326000,0.855585
4559.888262,280.384000,4.504043
4567.137295,280.441000,-1.288856
4574.383383,280.498000,2.448986
4581.626526,280.555000,1.416343
4588.866727,280.612000,2.446590
4596.103987,280.669000,-1.499309
4603.338308,280.726000,5.356186
4610.696532,280.784000,-3.083855
4617.924929,280.841000,1.702995
4625.150392,280.898000,-6.967096
4632.372923,280.955000,-1.354918
4639.592525,281.012000,2.362872
4646.809198,281.069000,5.899056
4654.022945,281.126000,3.716627
4661.233767,281.183000,2.264716
4668.441666,281.240000,0.337198
4675.646644,281.297000,-3.873465
4682.848703,281.354000,4.900996
4690.047844,281.411000,2.559025
4697.244070,281.468000,1.362805
4704.437381,281.525000,1.796623
4711.627780,281.582000,4.820456
4718.815269,281.639000,-2.479075
4725.999849,281.696000,4.750981
4733.181522,281.753000,-8.460695
4740.360290,281.810000,1.774970
4747.536154,281.867000,-3.117009
4754.583300,281.923000,2.692514
4761.753414,281.980000,2.123887
4768.920629,282.037000,8.080838
4776.084949,282.094000,0.513871
4783.246373,282.151000,1.947889
4790.404904,282.208000,0.478057
4797.435032,282.264000,-0.414624
4804.587834,282.321000,-0.104999
4811.737748,282.378000,-3.771380
4818.884776,282.435000,-0.611358
4826.028920,282.492000,4.635862
4833.044920,282.548000,1.838835
4840.183352,282.605000,-6.415050
4847.318904,282.662000,3.854479
4854.451579,282.719000,-1.998975
4861.456319,282.775000,3.186333
4868.583295,282.832000,4.882517
4875.707399,282.889000,1.938603
4882.703723,282.945000,1.420194
4889.822139,283.002000,-1.110384
4896.937687,283.059000,0.795119
4903.925611,283.115000,2.971717
4911.035481,283.172000,-1.290954
4918.142490,283.229000,-0.004387
4925.122029,283.285000,-1.453432
4932.223369,283.342000,3.016975
4939.197342,283.398000,0.479092
4946.293021,283.455000,-1.551002
4953.385847,283.512000,5.013649
4960.351460,283.568000,-1.415323
4967.438635,283.625000,2.445286
4974.398699,283.681000,1.074483
4981.480229,283.738000,1.210681
4988.434752,283.794000,4.541722
4995.510644,283.851000,1.548248
5002.459631,283.907000,7.048170
5009.529893,283.964000,3.812785
5016.473351,284.020000,7.186827
5023.537988,284.077000,5.253802
5030.475924,284.133000,6.050116
5037.534943,284.190000,7.538677
5044.467363,284.246000,7.238117
5051.397052,284.302000,6.707292
5058.447683,284.359000,2.832132
5065.371866,284.415000,0.455473
5072.416896,284.472000,2.967788
5079.335580,284.528000,2.926907
5086.251541,284.584000,2.287202
5093.288207,284.641000,4.760882
5100.198678,284.697000,9.387270
5107.106432,284.753000,1.344354
5114.134748,284.810000,6.481102
5121.037022,284.866000,10.918784
5127.936582,284.922000,0.005377
5134.833431,284.978000,8.030752
5141.850655,285.035000,4.060076
5148.742037,285.091000,10.560999
5155.630712,285.147000,3.416196
5162.516682,285.203000,5.529896
5169.522840,285.260000,6.020572
5176.403356,285.316000,10.373701
5183.281172,285.372000,2.696960
5190.156289,285.428000,7.979343
5197.028709,285.484000,9.653127
5204.021082,285.541000,9.577758
5210.888064,285.597000,2.577085
5217.752353,285.653000,4.509332
5224.613952,285.709000,8.635796
5231.472862,285.765000,6.465512
5238.329083,285.821000,5.270346
5245.182619,285.877000,7.967989
5252.033470,285.933000,9.629102
5258.881638,285.989000,7.404537
5265.727125,286.045000,6.934039
5272.569932,286.101000,14.098116
5279.532182,286.158000,2.657063
5286.369586,286.214000,13.098540
5293.204315,286.270000,7.320929
5300.036371,286.326000,3.705356
5306.865755,286.382000,1.566525
5313.692468,286.438000,8.914022
5320.516513,286.494000,9.654828
5327.216104,286.549000,5.140763
5334.034863,286.605000,13.400978
5340.850958,286.661000,14.072934
5347.664391,286.717000,11.436081
5354.475163,286.773000,14.600249
5361.283275,286.829000,9.179330
5368.088729,286.885000,13.239225
5374.891528,286.941000,4.186614
5381.691671,286.997000,11.400545
5388.489161,287.053000,8.436978
5395.162686,287.108000,2.854852
5401.954922,287.164000,8.383692
5408.744509,287.220000,11.093754
5415.531448,287.276000,4.962304
5422.315743,287.332000,6.177999
5428.976316,287.387000,3.902792
5435.755371,287.443000,4.527491
5442.531785,287.499000,14.501212
5449.305560,287.555000,6.971458
5456.076697,287.611000,7.000918
5462.724355,287.666000,8.053385
5469.490268,287.722000,9.110314
5476.253548,287.778000,11.082955
5482.893494,287.833000,11.870184
5489.651559,287.889000,5.091986
5496.406995,287.945000,0.767728
5503.039242,288.000000,5.564981
5509.789473,288.056000,9.790305
5516.537079,288.112000,7.380988
5523.161640,288.167000,8.150937
5529.904050,288.223000,10.004566
5536.643840,288.279000,12.327537
5543.260729,288.334000,14.348244
5549.995332,288.390000,12.089222
5556.607128,288.445000,8.682118
5563.336549,288.501000,11.497082
5569.943259,288.556000,12.933169
5576.667504,288.612000,6.824298
5583.269134,288.667000,13.280588
5589.988209,288.723000,10.423414
5596.584764,288.778000,9.671883
5603.298676,288.834000,7.654011
5609.890162,288.889000,7.900680
5616.598916,288.945000,8.245704
5623.185340,289.000000,8.710266
5629.888941,289.056000,10.528885
5636.470308,289.111000,12.345480
5643.168763,289.167000,13.457126
5649.745079,289.222000,10.639565
5656.438394,289.278000,11.329825
5663.009664,289.333000,8.523254
5669.578437,289.388000,9.880110
5676.264076,289.444000,8.927392
5682.827812,289.499000,12.211715
5689.389054,289.554000,5.407868
5696.067030,289.610000,8.906367
5702.623244,289.665000,9.683461
5709.176969,289.720000,12.128515
5715.847296,289.776000,14.084234
5722.396001,289.831000,12.854336
5728.942221,289.886000,11.826835
5735.485958,289.941000,10.413235
5742.146122,289.997000,14.517939
5748.684850,290.052000,11.602667
5755.221100,290.107000,12.906590
5761.754871,290.162000,8.904091
5768.404894,290.218000,6.445100
5774.933669,290.273000,13.763618
5781.459971,290.328000,5.279601
5787.983800,290.383000,10.269654
5794.505158,290.438000,13.330928
5801.142550,290.494000,10.130238
5807.658926,290.549000,11.455153
5814.172835,290.604000,9.799426
5820.684279,290.659000,6.976195
5827.193260,290.714000,17.069177
5833.699778,290.769000,12.483029
5840.203835,290.824000,10.380894
5846.705432,290.879000,13.562543
5853.204572,290.934000,15.525847
5859.701254,290.989000,10.951548
5866.195481,291.044000,12.448582
5872.687254,291.099000,9.248833
5879.176574,291.154000,6.964920
5885.663444,291.209000,13.513890
5892.147863,291.264000,16.161712
5898.629834,291.319000,8.494526
5905.109357,291.374000,7.580444
5911.586435,291.429000,8.196034
5918.061069,291.484000,14.880363
5924.533260,291.539000,8.615258
5931.003009,291.594000,11.820096
5937.470318,291.649000,13.929073
5943.935188,291.704000,6.303584
5950.397621,291.759000,6.658424
5956.857618,291.814000,13.556752
5963.315180,291.869000,10.799188
5969.770309,291.924000,14.852664
5976.105706,291.978000,13.004836
5982.556017,292.033000,11.457358
5989.003898,292.088000,10.915193
5995.449352,292.143000,14.421010
6001.892379,292.198000,7.534237
6008.215901,292.252000,12.121603
6014.654123,292.307000,8.586437
6021.089923,292.362000,5.370721
6027.523303,292.417000,8.888679
6033.954262,292.472000,11.121444
6040.265942,292.526000,14.490180
6046.692111,292.581000,10.689748
6053.115864,292.636000,10.762088
6059.420472,292.690000,12.235289
6065.839442,292.745000,10.933407
6072.256000,292.800000,12.181481
6078.553548,292.854000,14.939423
6084.965331,292.909000,12.948951
6091.374707,292.964000,15.096584
6097.665207,293.018000,16.109015
6104.069816,293.073000,11.703799
6110.472021,293.128000,11.842498
6116.755485,293.182000,14.726654
6123.152931,293.237000,13.705238
6129.431725,293.291000,15.097545
6135.824417,293.346000,13.556256
6142.098547,293.400000,11.342667
6148.486490,293.455000,9.117512
6154.872040,293.510000,8.634599
6161.139160,293.564000,10.016877
6167.519969,293.619000,13.028405
6173.782438,293.673000,10.798264
6180.158512,293.728000,8.276001
6186.416334,293.782000,16.539734
6192.787678,293.837000,9.469985
6199.040859,293.891000,17.059247
6205.291742,293.945000,8.554177
6211.656022,294.000000,11.871684
6217.902272,294.054000,15.345400
6224.261835,294.109000,15.047243
6230.503456,294.163000,13.758315
6236.742786,294.217000,12.076986
6243.095305,294.272000,7.811395
6249.330014,294.326000,12.467608
6255.677829,294.381000,13.798608
6261.907923,294.435000,15.114763
6268.135731,294.489000,10.755737
6274.476522,294.544000,18.450427
6280.699722,294.598000,10.438822
6286.920642,294.652000,14.288416
6293.139281,294.706000,14.551078
6299.470739,294.761000,16.267958
6305.684781,294.815000,13.442535
6311.896546,294.869000,16.692637
6318.106037,294.923000,13.664981
6324.428182,294.978000,12.378875
6330.633085,295.032000,14.890961
6336.835717,295.086000,19.836734
6343.036080,295.140000,15.331595
6349.234174,295.194000,7.421959
6355.544717,295.249000,14.554421
6361.738236,295.303000,11.423166
6367.929490,295.357000,11.602427
6374.118480,295.411000,14.846010
6380.305209,295.465000,13.318279
6386.489676,295.519000,9.689576
6392.671884,295.573000,15.375789
6398.851833,295.627000,14.057414
6405.143905,295.682000,11.770227
6411.319300,295.736000,11.547687
6417.492439,295.790000,12.925193
6423.663325,295.844000,12.947677
6429.831958,295.898000,16.078711
6435.998340,295.952000,16.342756
6442.162473,296.006000,15.822995
6448.324357,296.060000,11.794697
6454.483993,296.114000,16.877418
6460.641384,296.168000,14.498321
6466.796529,296.222000,15.884907
6472.949431,296.276000,17.345347
6479.100090,296.330000,6.887261
6485.248508,296.384000,13.330505
6491.280888,296.437000,18.417353
6497.424869,296.491000,14.188177
6503.566612,296.545000,14.299188
6509.706118,296.599000,16.221338
6515.843390,296.653000,20.706129
6521.978427,296.707000,13.556070
6528.111232,296.761000,20.334086
6534.241805,296.815000,14.733927
6540.256681,296.868000,12.815156
6546.382836,296.922000,15.036320
6552.506763,296.976000,14.371463
6558.628464,297.030000,10.540595
6564.747939,297.084000,14.691562
6570.751928,297.137000,17.926752
6576.866997,297.191000,10.709785
6582.979845,297.245000,8.748806
6589.090471,297.299000,15.124049
6595.085780,297.352000,13.285988
6601.192010,297.406000,8.839270
6607.296023,297.460000,18.441940
6613.397821,297.514000,13.128498
6619.384468,297.567000,16.012464
6625.481879,297.621000,14.840701
6631.577077,297.675000,13.524454
6637.557251,297.728000,18.073056
6643.648069,297.782000,14.784200
6649.623947,297.835000,15.156943
6655.710390,297.889000,12.518540
6661.794627,297.943000,17.677492
6667.764048,297.996000,18.333693
6673.843917,298.050000,14.927715
6679.809053,298.103000,11.403067
6685.884559,298.157000,17.706150
6691.957864,298.211000,19.013072
6697.916562,298.264000,19.944662
6703.985510,298.318000,16.073051
6709.939935,298.371000,15.399094
6716.004532,298.425000,9.461924
6721.954688,298.478000,17.518363
6728.014938,298.532000,15.144359
6733.960830,298.585000,18.616244
6739.904611,298.638000,17.063228
6745.958369,298.692000,14.939302
6751.897893,298.745000,12.445645
6757.947317,298.799000,12.595346
6763.882588,298.852000,7.783275
6769.927680,298.906000,17.419556
6775.858703,298.959000,16.481843
6781.787624,299.012000,10.561843
6787.826249,299.066000,14.986829
6793.750928,299.119000,16.981293
6799.673508,299.172000,14.325730
6805.705677,299.226000,14.949259
6811.624022,299.279000,18.138549
6817.540272,299.332000,18.007852
6823.565994,299.386000,18.173736
6829.478016,299.439000,17.990933
6835.387945,299.492000,16.257266
6841.407231,299.546000,19.079564
6847.312940,299.599000,8.092715
6853.216559,299.652000,12.703859
6859.118090,299.705000,9.183353
6865.017534,299.758000,13.227868
6871.026143,299.812000,18.314944
6876.921378,299.865000,19.874455
6882.814529,299.918000,10.906792
6888.705597,299.971000,13.764600
6894.594584,300.024000,17.162389
6900.592545,300.078000,16.986640
6906.477333,300.131000,17.801211
6912.360044,300.184000,19.492147
6918.240677,300.237000,20.430737
6924.119235,300.290000,14.573559
6929.995718,300.343000,16.878919
6935.870127,300.396000,14.502174
6941.742464,300.449000,15.715178
6947.612730,300.502000,17.216154
6953.480925,300.555000,16.598927
6959.347051,300.608000,19.856799
6965.211108,300.661000,13.015360
6971.073099,300.714000,21.339570
6976.933024,300.767000,15.537711
6982.790884,300.820000,18.477759
6988.646680,300.873000,16.311025
6994.500413,300.926000,16.084306
7000.352085,300.979000,20.279127
7006.201696,301.032000,17.191468
7012.049248,301.085000,18.857554
7017.894742,301.138000,14.829577
7023.738178,301.191000,13.287381
7029.579559,301.244000,17.529664
7035.418884,301.297000,16.373781
7041.256155,301.350000,12.743109
7047.091373,301.403000,14.183515
7052.924539,301.456000,20.731801
7058.645653,301.508000,9.740942
7064.474758,301.561000,14.565927
7070.301814,301.614000,16.182004
7076.126822,301.667000,19.140596
7081.949784,301.720000,15.265996
7087.660892,301.772000,22.017180
7093.479803,301.825000,14.853489
7099.296670,301.878000,19.306865
7105.111496,301.931000,17.186103
7110.814624,301.983000,10.620385
7116.625408,302.036000,15.028479
7122.434152,302.089000,12.985177
7128.240858,302.142000,15.341329
7133.936024,302.194000,17.233326
7139.738696,302.247000,14.346563
7145.539334,302.300000,21.400024
7151.228549,302.352000,13.841657
7157.025159,302.405000,21.802385
7162.819737,302.458000,14.409908
7168.503010,302.510000,14.011384
7174.293567,302.563000,12.335230
7180.082095,302.616000,15.737459
7185.759436,302.668000,18.207285
7191.543949,302.721000,20.767204
7197.217352,302.773000,12.100248
7202.997854,302.826000,24.658516
7208.667324,302.878000,24.428692
7214.443819,302.931000,11.395971
7220.109360,302.983000,14.126505
7225.881853,303.036000,16.859738
7231.543468,303.088000,18.337417
7237.311962,303.141000,14.412419
7242.969657,303.193000,16.133445
7248.734156,303.246000,12.078033
7254.387934,303.298000,18.905256
7260.148443,303.351000,19.270062
7265.798308,303.403000,17.649856
7271.554831,303.456000,20.801405
7277.200787,303.508000,19.942503
7282.953328,303.561000,18.753989
7288.595379,303.613000,17.405936
7294.235498,303.665000,21.991984
7299.982093,303.718000,20.879969
7305.618313,303.770000,18.316552
7311.252604,303.822000,19.875471
7316.993262,303.875000,13.474431
7322.623660,303.927000,21.229895
7328.252131,303.979000,17.198857
7333.986862,304.032000,17.911041
7339.611446,304.084000,24.179246
7345.234108,304.136000,22.309690
7350.962920,304.189000,21.446090
7356.581700,304.241000,18.416247
7362.198561,304.293000,23.722021
7367.813502,304.345000,16.915729
7373.426525,304.397000,16.188745
7379.145517,304.450000,14.908469
7384.754669,304.502000,20.299075
7390.361906,304.554000,18.063212
7395.967228,304.606000,22.655012
7401.570637,304.658000,18.428394
7407.279836,304.711000,18.025783
7412.879384,304.763000,20.873272
7418.477021,304.815000,21.140481
7424.072749,304.867000,16.369544
7429.666569,304.919000,20.534887
7435.258480,304.971000,21.301732
7440.848486,305.023000,16.301731
7446.436585,305.075000,22.414866
7452.022780,305.127000,22.849095
7457.607071,305.179000,19.605197
7463.296795,305.232000,17.299111
7468.877245,305.284000,26.380846
7474.455794,305.336000,14.415395
7480.032444,305.388000,17.969993
7485.607195,305.440000,19.030884
7491.180048,305.492000,21.750840
7496.751004,305.544000,16.504035
7502.212985,305.595000,18.457996
7507.780187,305.647000,23.725765
7513.345495,305.699000,23.319968
7518.908909,305.751000,21.940429
7524.470432,305.803000,22.220374
7530.030064,305.855000,19.458712
7535.587805,305.907000,15.970656
7541.143658,305.959000,22.179208
7546.697622,306.011000,23.011261
7552.249699,306.063000,15.878712
7557.693173,306.114000,25.425153
7563.241514,306.166000,19.156202
7568.787971,306.218000,18.628288
7574.332545,306.270000,20.247221
7579.875237,306.322000,19.346690
7585.416047,306.374000,14.441431
7590.848476,306.425000,26.220917
7596.385562,306.477000,19.405608
7601.920769,306.529000,14.428793
7607.454098,306.581000,22.076037
7612.879195,306.632000,21.177373
7618.408808,306.684000,19.401140
7623.936546,306.736000,22.788441
7629.462411,306.788000,20.209419
7634.880189,306.839000,17.550944
7640.402345,306.891000,18.752713
7645.922629,306.943000,20.248154
7651.334938,306.994000,23.011054
7656.851519,307.046000,19.699690
7662.260197,307.097000,25.529079
7667.773079,307.149000,14.621954
7673.284094,307.201000,15.097657
7678.687317,307.252000,21.251084
7684.194638,307.304000,19.797598
7689.700096,307.356000,21.650357
7695.097870,307.407000,18.992425
7700.599639,307.459000,19.747110
7705.993798,307.510000,16.815144
7711.491883,307.562000,23.763686
7716.882430,307.613000,22.850171
7722.376833,307.665000,28.233391
7727.763772,307.716000,20.528139
7733.254498,307.768000,17.041493
7738.637831,307.819000,22.178531
7744.124884,307.871000,23.688728
7749.504617,307.922000,17.727465
7754.988000,307.974000,20.346224
7760.364134,308.025000,20.753703
7765.738489,308.076000,16.601276
7771.216392,308.128000,19.283219
7776.587155,308.179000,22.320518
7782.061397,308.231000,15.865437
7787.428571,308.282000,18.531586
7792.793970,308.333000,27.759977
7798.262745,308.385000,17.485281
7803.624561,308.436000,17.940578
7808.984603,308.487000,19.127672
7814.447920,308.539000,21.992718
7819.804385,308.590000,17.442826
7825.159080,308.641000,20.359555
7830.616947,308.693000,20.540525
7835.968069,308.744000,18.382855
7841.317424,308.795000,22.794519
7846.665012,308.846000,25.183667
7852.115636,308.898000,20.948660
7857.459659,308.949000,17.450062
7862.801917,309.000000,22.166985
7868.142413,309.051000,25.196803
7873.481146,309.102000,20.162596
7878.922746,309.154000,21.196001
7884.257923,309.205000,17.217449
7889.591340,309.256000,21.647326
7894.922998,309.307000,19.660283
7900.252898,309.358000,15.593193
7905.581041,309.409000,18.823224
7910.907428,309.460000,21.077815
7916.336447,309.512000,24.046165
7921.659290,309.563000,22.970092
7926.980379,309.614000,21.687151
7932.299715,309.665000,24.711503
7937.617300,309.716000,16.941463
7942.933134,309.767000,19.814673
7948.247217,309.818000,20.312956
7953.559551,309.869000,23.323185
7958.870137,309.920000,23.012823
7964.178976,309.971000,19.042845
7969.486068,310.022000,19.250514
7974.791414,310.073000,19.858719
7980.095015,310.124000,24.517014
7985.396872,310.175000,19.076184
7990.696985,310.226000,17.579224
7995.995357,310.277000,16.797129
8001.291987,310.328000,24.190020
8006.586876,310.379000,18.897120
8011.880026,310.430000,21.047079
8017.067700,310.480000,22.191167
8022.357406,310.531000,24.283017
8027.645376,310.582000,22.343985
8032.931609,310.633000,21.170602
8038.216106,310.684000,20.659100
8043.498869,310.735000,19.800821
8048.779898,310.786000,22.620515
8053.955695,310.836000,20.797723
8059.233293,310.887000,17.903978
8064.509160,310.938000,22.845566
8069.783296,310.989000,20.438238
8074.952339,311.039000,20.703891
8080.223051,311.090000,23.154649
8085.492035,311.141000,17.635099
8090.759292,311.192000,16.308937
8095.921594,311.242000,18.496525
8101.185433,311.293000,24.054777
8106.447548,311.344000,19.181500
8111.604811,311.394000,20.174742
8116.863513,311.445000,25.358941
8122.120493,311.496000,22.166076
8127.272724,311.546000,21.153279
8132.526297,311.597000,21.438874
8137.778150,311.648000,24.207900
8142.925357,311.698000,23.416447
8148.173807,311.749000,24.449771
8153.420541,311.800000,25.995101
8158.562731,311.850000,14.714914
8163.806066,311.901000,29.859975
8168.944927,311.951000,22.123654
8174.184869,312.002000,24.680042
8179.320403,312.052000,22.666121
8184.556953,312.103000,23.877610
8189.689165,312.153000,23.279298
8194.922327,312.204000,26.237226
8200.051219,312.254000,25.934228
8205.280996,312.305000,25.587522
8210.406572,312.355000,24.674768
8215.632968,312.406000,21.604600
8220.755230,312.456000,25.306576
8225.978248,312.507000,21.570636
8231.097200,312.557000,22.863909
8236.316843,312.608000,19.780867
8241.432488,312.658000,23.442734
8246.546497,312.708000,25.742860
8251.761101,312.759000,21.653541
8256.871808,312.809000,29.055816
8261.980881,312.859000,24.545940
8267.190453,312.910000,23.817907
8272.296229,312.960000,19.191137
8277.400373,313.010000,19.532272
8282.604921,313.061000,26.721382
8287.705773,313.111000,22.669065
8292.804996,313.161000,19.093720
8298.004526,313.212000,23.700211
8303.100462,313.262000,21.135438
8308.194770,313.312000,22.743282
8313.287453,313.362000,21.583120
8318.480316,313.413000,23.881967
8323.569717,313.463000,24.410154
8328.657496,313.513000,22.791703
8333.743651,313.563000,19.801962
8338.828185,313.613000,23.608340
8344.012739,313.664000,26.616373
8349.094000,313.714000,17.502721
8354.173640,313.764000,26.337701
8359.251662,313.814000,22.085991
8364.328066,313.864000,26.590838
8369.402853,313.914000,26.255936
8374.476024,313.964000,23.102991
8379.547579,314.014000,23.824284
8384.718901,314.065000,22.334135
8389.787195,314.115000,26.673718
8394.853876,314.165000,16.205670
8399.918944,314.215000,25.258692
8404.982400,314.265000,25.078516
8410.044246,314.315000,26.594616
8415.104481,314.365000,16.956292
8420.163107,314.415000,24.076762
8425.220124,314.465000,26.802344
8430.275533,314.515000,26.859303
8435.329336,314.565000,25.658065
8440.381532,314.615000,23.246283
8445.432122,314.665000,26.215542
8450.481107,314.715000,27.721172
8455.528489,314.765000,27.985604
8460.473367,314.814000,24.101454
8465.517575,314.864000,24.380304
8470.560181,314.914000,23.400425
8475.601186,314.964000,21.387695
8480.640590,315.014000,25.385403
8485.678395,315.064000,20.297670
8490.714602,315.114000,26.420651
8495.749210,315.164000,29.491296
8500.681577,315.213000,25.625951
8505.713024,315.263000,26.122664
8510.742875,315.313000,25.188691
8515.771131,315.363000,20.936414
8520.797793,315.413000,26.381581
8525.722375,315.462000,18.661926
8530.745883,315.512000,25.175458
8535.767799,315.562000,24.377310
8540.788124,315.612000,26.904747
8545.706499,315.661000,23.808696
8550.723675,315.711000,23.772647
8555.739262,315.761000,29.413273
8560.652997,315.810000,28.188752
8565.665441,315.860000,26.948303
8570.676298,315.910000,19.921866
8575.585399,315.959000,26.672478
8580.593116,316.009000,27.105715
8585.599249,316.059000,27.645569
8590.503723,316.108000,24.385424
8595.506721,316.158000,27.816734
8600.508137,316.208000,29.926893
8605.407991,316.257000,24.118339
8610.406276,316.307000,27.231693
8615.303063,316.356000,30.763829
8620.298221,316.406000,22.109948
8625.191944,316.455000,25.755609
8630.183977,316.505000,29.811145
8635.074640,316.554000,25.100551
8640.063551,316.604000,25.598388
8644.951156,316.653000,33.093229
8649.936949,316.703000,22.071005
8654.821499,316.752000,29.952207
8659.804175,316.802000,26.309354
8664.685673,316.851000,32.627110
8669.665237,316.901000,30.312255
8674.543685,316.950000,28.706922
8679.520139,317.000000,30.910334
8684.395541,317.049000,27.122074
8689.269436,317.098000,32.040954
8694.241247,317.148000,32.723897
8699.112100,317.197000,29.333658
8703.981448,317.246000,29.056029
8708.948621,317.296000,32.664053
8713.814931,317.345000,31.021466
8718.779005,317.395000,27.412657
8723.642281,317.444000,35.471577
8728.504055,317.493000,27.168008
8733.364329,317.542000,25.330796
8738.322247,317.592000,27.186287
8743.179491,317.641000,24.266978
8748.035237,317.690000,29.102760
8752.889486,317.739000,30.105882
8757.841258,317.789000,28.739914
8762.692483,317.838000,29.036019
8767.542212,317.887000,29.472524
8772.390446,317.936000,27.065948
8777.336084,317.986000,29.413012
8782.181300,318.035000,26.687012
8787.025024,318.084000,37.068449
8791.867255,318.133000,36.626487
8796.707995,318.182000,35.512937
8801.547244,318.231000,24.270172
8806.385003,318.280000,31.900903
8811.319957,318.330000,29.809964
8816.154708,318.379000,34.495392
8820.987971,318.428000,24.675493
8825.819746,318.477000,27.562469
8830.650035,318.526000,32.242356
8835.478838,318.575000,29.840541
8840.306156,318.624000,32.568632
8845.131990,318.673000,35.654353
8849.956339,318.722000,30.489904
8854.779206,318.771000,31.784095
8859.600590,318.820000,33.438290
8864.420492,318.869000,30.070412
8869.238913,318.918000,32.893394
8874.055854,318.967000,31.228813
8878.871314,319.016000,29.479492
8883.685296,319.065000,31.398372
8888.497800,319.114000,31.753689
8893.308826,319.163000,33.264628
8898.118374,319.212000,34.079924
8902.926447,319.261000,30.840767
8907.634964,319.309000,33.178055
8912.440116,319.358000,30.656260
8917.243794,319.407000,29.624681
8922.045998,319.456000,31.794202
8926.846729,319.505000,29.000087
8931.645988,319.554000,35.708746
8936.443775,319.603000,34.480144
8941.142222,319.651000,38.034769
8945.937098,319.700000,36.750773
8950.730504,319.749000,33.715285
8955.522441,319.798000,33.484399
8960.215161,319.846000,35.641194
8965.004192,319.895000,39.077210
8969.791757,319.944000,35.350712
8974.577855,319.993000,33.052887
8979.264858,320.041000,35.645455
8984.048055,320.090000,35.212272
8988.829789,320.139000,35.476475
8993.512517,320.187000,37.988540
8998.291355,320.236000,37.869515
9003.068730,320.285000,35.365587
9007.747190,320.333000,35.336590
9012.521672,320.382000,32.521573
9017.294694,320.431000,33.085605
9021.968893,320.479000,35.592373
9026.739026,320.528000,34.819864
9031.410396,320.576000,35.921411
9036.177644,320.625000,35.363779
9040.943434,320.674000,40.462025
9045.610552,320.722000,35.245798
9050.373460,320.771000,38.339129
9055.037756,320.819000,36.735881
9059.797784,320.868000,36.704274
9064.459261,320.916000,36.051979
9069.216413,320.965000,38.254383
9073.875072,321.013000,41.161427
9078.629350,321.062000,40.300528
9083.285194,321.110000,35.961252
9088.036601,321.159000,33.320386
9092.689634,321.207000,34.211023
9097.438171,321.256000,28.117110
9102.088394,321.304000,37.042054
9106.737229,321.352000,35.384735
9111.481482,321.401000,34.887180
9116.127511,321.449000,34.512161
9120.868902,321.498000,36.166819
9125.512128,321.546000,40.144028
9130.153968,321.594000,35.967481
9134.891085,321.643000,38.919262
9139.530126,321.691000,43.048462
9144.167783,321.739000,40.372154
9148.900630,321.788000,34.615938
9153.535492,321.836000,38.679506
9158.168971,321.884000,37.645289
9162.801069,321.932000,34.764750
9167.528244,321.981000,40.423387
9172.157551,322.029000,32.694414
9176.785479,322.077000,40.814148
9181.412027,322.125000,36.364167
9186.133540,322.174000,40.096067
9190.757302,322.222000,37.573950
9195.379688,322.270000,36.325517
9200.000697,322.318000,38.359318
9204.620330,322.366000,38.531039
9209.334786,322.415000,33.636566
9213.951640,322.463000,38.598152
9218.567119,322.511000,39.294042
9223.181225,322.559000,38.644921
9227.793957,322.607000,33.576235
9232.405318,322.655000,36.773592
9237.015306,322.703000,38.153080
9241.623923,322.751000,38.632684
9246.231170,322.799000,38.915671
9250.932988,322.848000,37.912372
9255.537466,322.896000,40.618488
9260.140576,322.944000,39.218139
9264.742318,322.992000,38.871840
9269.342693,323.040000,41.276064
9273.941700,323.088000,35.811846
9278.539341,323.136000,37.749948
9283.135616,323.184000,37.005741
9287.730527,323.232000,38.953198
9292.324072,323.280000,39.745485
9296.916254,323.328000,38.211572
9301.411445,323.375000,40.128855
9306.000929,323.423000,35.794292
9310.589052,323.471000,39.859458
9315.175812,323.519000,42.120562
9319.761212,323.567000,42.168457
9324.345252,323.615000,38.147349
9328.927932,323.663000,38.448323
9333.509253,323.711000,38.048818
9338.089216,323.759000,38.226171
9342.572447,323.806000,44.725498
9347.149722,323.854000,43.778498
9351.725642,323.902000,41.472904
9356.300205,323.950000,43.420079
9360.873412,323.998000,46.281859
9365.350032,324.045000,44.695029
9369.920559,324.093000,45.827366
9374.489732,324.141000,50.335873
9379.057552,324.189000,39.404855
9383.528899,324.236000,39.648590
9388.094043,324.284000,41.634326
9392.657836,324.332000,37.054832
9397.125241,324.379000,34.272063
9401.686361,324.427000,45.951675
9406.246132,324.475000,36.622614
9410.804554,324.523000,43.087949
9415.266702,324.570000,52.393039
9419.822456,324.618000,46.901390
9424.281993,324.665000,38.272106
9428.835082,324.713000,40.021990
9433.386824,324.761000,42.336982
9437.842435,324.808000,42.536748
9442.391516,324.856000,40.410887
9446.844521,324.903000,39.426392
9451.390942,324.951000,35.291720
9455.936020,324.999000,44.901482
9460.385108,325.046000,47.204066
9464.927530,325.094000,44.337870
9469.374018,325.141000,44.092189
9473.913786,325.189000,43.527922
9478.357677,325.236000,45.388622
9482.894794,325.284000,42.445184
9487.336090,325.331000,46.355413
9491.870557,325.379000,44.851282
9496.309260,325.426000,46.910178
9500.746681,325.473000,48.168257
9505.277193,325.521000,48.760127
9509.712024,325.568000,47.616561
9514.239893,325.616000,37.092873
9518.672137,325.663000,42.770933
9523.103102,325.710000,45.108602
9527.627024,325.758000,42.611519
9532.055405,325.805000,49.654671
9536.576689,325.853000,47.669346
9541.002489,325.900000,41.123515
9545.427013,325.947000,41.295161
9549.850260,325.994000,44.886052
9554.366303,326.042000,45.521859
9558.786974,326.089000,48.739641
9563.206371,326.136000,49.331133
9567.718482,326.184000,40.225468
9572.135305,326.231000,47.601299
9576.550855,326.278000,46.100783
9580.965134,326.325000,47.720828
9585.472021,326.373000,44.208035
9589.883730,326.420000,40.740610
9594.294169,326.467000,45.525426
9598.703338,326.514000,42.119439
9603.111238,326.561000,44.883019
9607.611614,326.609000,42.954934
9612.016950,326.656000,43.918056
9616.421019,326.703000,46.680126
9620.823821,326.750000,42.850748
9625.225356,326.797000,45.528834
9629.625626,326.844000,47.500504
9634.024630,326.891000,44.320458
9638.422369,326.938000,50.615421
9642.818845,326.985000,46.955945
9647.214056,327.032000,50.812798
9651.701479,327.080000,45.931563
9656.094138,327.127000,51.641680
9660.485535,327.174000,51.179448
9664.875670,327.221000,58.042829
9669.264544,327.268000,48.651388
9673.652158,327.315000,45.406992
9678.038512,327.362000,50.292302
9682.423607,327.409000,50.084083
9686.807443,327.456000,51.250139
9691.190021,327.503000,50.648851
9695.478134,327.549000,53.104328
9699.858224,327.596000,49.932812
9704.237057,327.643000,52.489330
9708.614633,327.690000,50.494167
9712.990955,327.737000,51.013785
9717.366021,327.784000,56.050681
9721.739833,327.831000,53.057012
9726.112390,327.878000,46.264049
9730.483695,327.925000,57.685096
9734.760780,327.971000,54.918992
9739.129606,328.018000,50.329696
9743.497180,328.065000,56.254888
9747.863503,328.112000,49.563513
9752.228575,328.159000,53.158313
9756.499562,328.205000,52.604473
9760.862161,328.252000,48.211066
9765.223511,328.299000,54.454215
9769.583612,328.346000,47.495752
9773.849737,328.392000,46.883129
9778.207369,328.439000,50.948392
9782.563754,328.486000,49.465364
9786.918893,328.533000,52.662579
9791.180163,328.579000,54.357458
9795.532837,328.626000,57.084678
9799.884266,328.673000,52.926656
9804.141906,328.719000,52.368915
9808.490874,328.766000,51.908391
9812.838598,328.813000,53.134681
9817.092614,328.859000,57.738193
9821.437879,328.906000,49.146707
9825.689490,328.952000,53.116893
9830.032299,328.999000,43.483931
9834.373868,329.046000,43.972907
9838.621862,329.092000,52.427799
9842.960977,329.139000,52.139117
9847.206571,329.185000,54.061820
9851.543235,329.232000,51.941042
9855.786431,329.278000,57.401270
9860.120646,329.325000,54.415400
9864.361446,329.371000,55.357573
9868.693214,329.418000,52.775414
9872.931619,329.464000,51.967140
9877.260942,329.511000,51.642361
9881.496956,329.557000,55.595157
9885.823836,329.604000,51.476853
9890.057460,329.650000,56.905414
9894.289903,329.696000,53.666417
9898.613135,329.743000,57.867000
9902.843191,329.789000,50.898603
9907.163985,329.836000,54.910644
9911.391656,329.882000,51.733275
9915.618148,329.928000,56.911012
9919.935303,329.975000,57.698600
9924.159413,330.021000,51.881497
9928.382346,330.067000,54.061063
9932.695866,330.114000,56.153829
9936.916419,330.160000,59.793263
9941.135797,330.206000,54.841870
9945.445687,330.253000,53.140331
9949.662689,330.299000,57.799917
9953.878516,330.345000,57.030170
9958.093170,330.391000,51.600871
9962.398234,330.438000,58.588265
9966.610516,330.484000,55.999242
9970.821625,330.530000,53.002867
9975.031562,330.576000,57.372331
9979.240328,330.622000,54.401829
9983.539380,330.669000,51.981488
9987.745778,330.715000,54.233426
9991.951007,330.761000,61.027907
9996.155067,330.807000,52.811441
10000.357957,330.853000,54.756890
10004.559679,330.899000,56.008924
10008.760233,330.945000,51.293751
10013.050897,330.992000,58.842847
10017.249091,331.038000,56.947558
10021.446118,331.084000,55.968725
10025.641979,331.130000,57.686830
10029.836675,331.176000,54.731567
10034.030205,331.222000,58.516231
10038.222571,331.268000,54.107354
10042.413773,331.314000,56.668080
10046.603811,331.360000,52.024399
10050.792686,331.406000,57.437150
10054.980398,331.452000,56.628522
10059.166948,331.498000,59.409400
10063.352336,331.544000,56.206019
10067.536563,331.590000,56.661232
10071.719629,331.636000,56.697423
10075.901535,331.682000,52.934824
10080.082281,331.728000,51.461922
10084.261868,331.774000,58.375110
10088.440296,331.820000,54.958710
10092.526768,331.865000,52.508917
10096.702905,331.911000,63.454243
10100.877884,331.957000,55.222174
10105.051707,332.003000,60.323840
10109.224373,332.049000,55.837056
10113.395884,332.095000,56.720804
10117.475591,332.140000,55.337171
10121.644816,332.186000,56.097410
10125.812886,332.232000,58.617782
10129.979802,332.278000,57.118141
10134.145565,332.324000,60.473645
10138.219652,332.369000,58.645705
10142.383134,332.415000,53.795446
10146.545464,332.461000,59.644483
10150.706643,332.507000,60.458718
10154.776247,332.552000,56.572113
10158.935148,332.598000,58.706541
10163.092900,332.644000,59.730140
10167.159152,332.689000,63.333927
10171.314630,332.735000,62.448193
10175.468958,332.781000,57.769087
10179.531864,332.826000,56.404556
10183.683921,332.872000,59.327152
10187.834831,332.918000,61.065144
10191.894393,332.963000,58.905498
10196.043035,333.009000,60.091503
10200.190530,333.055000,58.929287
10204.246754,333.100000,56.910463
10208.391984,333.146000,51.324706
10212.445992,333.191000,60.904595
10216.588958,333.237000,58.424229
10220.640753,333.282000,59.540859
10224.781457,333.328000,61.948127
10228.831039,333.373000,55.931335
10232.969483,333.419000,60.948856
10237.016856,333.464000,58.037716
10241.153042,333.510000,54.624523
10245.198206,333.555000,58.487965
10249.332135,333.601000,60.980649
10253.375094,333.646000,59.642034
10257.506768,333.692000,56.541580
10261.547522,333.737000,61.478708
10265.587186,333.782000,64.778575
10269.715494,333.828000,63.731429
10273.752956,333.873000,57.117943
10277.879015,333.919000,56.359167
10281.914277,333.964000,57.633862
10285.948452,334.009000,60.445936
10290.071151,334.055000,60.164674
10294.103128,334.100000,58.258292
10298.134020,334.145000,59.738824
10302.253364,334.191000,57.521285
10306.282060,334.236000,60.663464
10310.309672,334.281000,60.098619
10314.425666,334.327000,60.049988
10318.451085,334.372000,59.087944
10322.475422,334.417000,59.265713
10326.498675,334.462000,59.003223
10330.610215,334.508000,59.813101
10334.631280,334.553000,64.374395
10338.651263,334.598000,56.272645
10342.670165,334.643000,58.821591
10346.687987,334.688000,60.925325
10350.704728,334.733000,63.025630
10354.809614,334.779000,62.621225
10358.824172,334.824000,60.956884
10362.837651,334.869000,62.631951
10366.850051,334.914000,61.180132
10370.861373,334.959000,66.352926
10374.871618,335.004000,57.916354
10378.880786,335.049000,62.372624
10382.888876,335.094000,61.381457
10386.984923,335.140000,56.364803
10390.990838,335.185000,60.429863
10394.995677,335.230000,61.759481
10398.999440,335.275000,60.601722
10403.002130,335.320000,60.000728
10407.003745,335.365000,60.205559
10411.004286,335.410000,58.248817
10415.003755,335.455000,60.583238
10419.002150,335.500000,66.398960
10422.999473,335.545000,59.229846
10426.995723,335.590000,67.043404
10430.990902,335.635000,57.749856
10434.985010,335.680000,58.853421
10438.889325,335.724000,56.026829
10442.881316,335.769000,62.176182
10446.872237,335.814000,63.759534
10450.862088,335.859000,57.544992
10454.850871,335.904000,61.631874
10458.838585,335.949000,62.591325
10462.825230,335.994000,66.141222
10466.810808,336.039000,48.998691
10470.706786,336.083000,55.023954
10474.690253,336.128000,64.531246
10478.672654,336.173000,57.168011
10482.653989,336.218000,63.298334
10486.634259,336.263000,58.569056
10490.525048,336.307000,61.359393
10494.503211,336.352000,56.957242
10498.480310,336.397000,59.214832
10502.456345,336.442000,59.834039
10506.342995,336.486000,62.051277
10510.316927,336.531000,63.769714
10514.289797,336.576000,59.797292
10518.261604,336.621000,60.008706
10522.144122,336.665000,53.816863
10526.113830,336.710000,58.877299
10530.082477,336.755000,59.685871
10533.961906,336.799000,58.634607
10537.928455,336.844000,58.405569
10541.893946,336.889000,59.558541
10545.770289,336.933000,61.355650
10549.733685,336.978000,61.608887
10553.607982,337.022000,59.969362
10557.569284,337.067000,58.591538
10561.529529,337.112000,63.568293
10565.400747,337.156000,59.034802
10569.358902,337.201000,63.140727
10573.228076,337.245000,59.911106
10577.184142,337.290000,58.623050
10581.051275,337.334000,62.262072
10585.005254,337.379000,61.848896
10588.870347,337.423000,59.096454
10592.822240,337.468000,57.636397
10596.685295,337.512000,46.242514
10600.635105,337.557000,47.059609
10604.496123,337.601000,51.450505
10608.443850,337.646000,44.218008
10612.302834,337.690000,40.390501
10616.160811,337.734000,41.055222
10620.105430,337.779000,37.161443
10623.961375,337.823000,25.859119
10627.903916,337.868000,34.515332
10631.757830,337.912000,31.425360
10635.610740,337.956000,26.970559
10639.550179,338.001000,17.703481
10643.401061,338.045000,13.740957
10647.250940,338.089000,15.521437
10651.187281,338.134000,17.039538
10655.035134,338.178000,11.726026
10658.881986,338.222000,13.739615
10662.815231,338.267000,7.362508
10666.660059,338.311000,3.708446
10670.503887,338.355000,11.159404
10674.346716,338.399000,5.789293
10678.275848,338.444000,9.590227
10682.116656,338.488000,4.777326
10685.956465,338.532000,9.481458
10689.795276,338.576000,11.129312
10693.633090,338.620000,10.913451
10697.557096,338.665000,13.823139
10701.392893,338.709000,5.425238
10705.227693,338.753000,4.560105
10709.061498,338.797000,8.099228
10712.894307,338.841000,6.187695
10716.726120,338.885000,5.123891
10720.556939,338.929000,11.862953
10724.386763,338.973000,8.631044
10728.302601,339.018000,5.098884
10732.130414,339.062000,3.545800
10735.957235,339.106000,7.996590
10739.783062,339.150000,8.940373
10743.607897,339.194000,1.446430
10747.431740,339.238000,8.660408
10751.254591,339.282000,5.701088
10755.076450,339.326000,6.114599
10758.897319,339.370000,11.483748
10762.717197,339.414000,3.023900
10766.536084,339.458000,7.394909
10770.353982,339.502000,6.643344
10774.170890,339.546000,5.465023
10777.986809,339.590000,0.972514
10781.801740,339.634000,3.724688
10785.615682,339.678000,5.159519
10789.341989,339.721000,0.985633
10793.153978,339.765000,9.393934
10796.964980,339.809000,6.422373
10800.774995,339.853000,8.703502
10804.584024,339.897000,7.613916
10808.392066,339.941000,1.643603
10812.199123,339.985000,2.871724
10816.005195,340.029000,7.439633
10819.723813,340.072000,3.907883
10823.527938,340.116000,8.740587
10827.331078,340.160000,-0.732269
10831.133235,340.204000,6.862244
10834.848029,340.247000,1.747769
10838.648242,340.291000,2.068959
10842.447472,340.335000,4.765395
10846.245720,340.379000,8.638627
10849.956695,340.422000,6.438185
10853.753002,340.466000,3.307241
10857.548328,340.510000,5.741115
10861.342673,340.554000,6.872815
10865.049836,340.597000,10.057289
10868.842243,340.641000,6.808751
10872.633670,340.685000,4.943247
10876.337983,340.728000,0.544843
10880.127474,340.772000,5.557706
10883.829896,340.815000,4.655278
10887.617453,340.859000,9.273931
10891.404033,340.903000,3.994241
10895.103609,340.946000,5.226200
10898.888257,340.990000,2.722858
10902.585946,341.033000,3.243887
10906.368663,341.077000,9.305509
10910.150404,341.121000,6.528492
10913.845254,341.164000,1.109157
10917.625066,341.208000,-0.284519
10921.318033,341.251000,1.253201
10925.095918,341.295000,-1.245823
10928.787002,341.338000,3.496509
10932.562962,341.382000,4.533981
10936.252165,341.425000,6.912245
10939.940439,341.468000,0.845671
10943.713524,341.512000,5.588831
10947.399919,341.555000,-1.340185
10951.171083,341.599000,7.684915
10954.855601,341.642000,4.743633
10958.624845,341.686000,-3.122431
10962.307486,341.729000,7.142862
10965.989201,341.772000,8.736985
10969.755578,341.816000,1.609553
10973.435419,341.859000,-0.032715
10977.114334,341.902000,2.002539
10980.877848,341.946000,5.086799
10984.554892,341.989000,-0.845667
10988.231011,342.032000,2.823808
10991.991665,342.076000,7.251629
10995.665914,342.119000,1.114820
10999.339240,342.162000,3.780573
11003.011643,342.205000,6.809455
11006.768496,342.249000,1.367902
11010.439032,342.292000,4.814156
11014.108646,342.335000,0.658461
11017.777338,342.378000,5.622322
11021.530396,342.422000,4.204104
11025.197224,342.465000,2.788772
11028.863132,342.508000,1.489753
11032.528119,342.551000,6.327544
11036.192187,342.594000,4.038941
11039.855335,342.637000,2.831158
11043.602720,342.681000,3.302841
11047.264009,342.724000,4.101559
11050.924378,342.767000,7.686375
11054.583829,342.810000,1.487616
11058.242363,342.853000,3.486204
11061.899979,342.896000,4.420522
11065.556677,342.939000,0.985169
11069.212459,342.982000,1.563596
11072.867324,343.025000,0.876677
11076.521273,343.068000,7.143099
11080.174306,343.111000,-4.993336
11083.826423,343.154000,5.942171
11087.477626,343.197000,0.170355
11091.127913,343.240000,5.934481
11094.777286,343.283000,-0.360864
11098.425745,343.326000,-0.205300
11102.073291,343.369000,-2.762802
11105.719922,343.412000,-0.337468
11109.365641,343.455000,3.459947
11113.010447,343.498000,0.954754
11116.654340,343.541000,0.644542
11120.297322,343.584000,1.503929
11123.939391,343.627000,4.484157
11127.580549,343.670000,1.206868
11131.220797,343.713000,4.692692
11134.775508,343.755000,-1.175598
11138.413955,343.798000,-0.026452
11142.051492,343.841000,4.591693
11145.688120,343.884000,4.998127
11149.323838,343.927000,-0.136822
11152.958647,343.970000,0.619265
11156.508049,344.012000,0.456762
11160.141062,344.055000,0.391614
11163.773167,344.098000,-0.944924
11167.404365,344.141000,-0.986386
11170.950240,344.183000,7.625455
11174.579645,344.226000,4.975177
11178.208143,344.269000,1.083906
11181.751382,344.311000,-2.223847
11185.378088,344.354000,0.567983
11189.003889,344.397000,2.540827
11192.628785,344.440000,4.237767
11196.168507,344.482000,-2.423403
11199.791614,344.525000,4.060268
11203.413817,344.568000,3.342470
11206.950910,344.610000,4.730367
11210.571327,344.653000,-0.786658
11214.106675,344.695000,6.930205
11217.725306,344.738000,6.261600
11221.343035,344.781000,0.667182
11224.875759,344.823000,4.938473
11228.491704,344.866000,1.703321
11232.022687,344.908000,2.817738
11235.636851,344.951000,2.293077
11239.166094,344.993000,0.998546
11242.778477,345.036000,-4.309634
11246.305982,345.078000,0.434334
11249.916585,345.121000,1.230894
11253.442353,345.163000,-1.954256
11257.051178,345.206000,-5.657597
11260.575210,345.248000,0.913403
11264.182259,345.291000,-1.030024
11267.704555,345.333000,0.213431
11271.309829,345.376000,-0.581846
11274.830392,345.418000,-2.284836
11278.350100,345.460000,3.594921
11281.952723,345.503000,1.624585
11285.470699,345.545000,-7.147322
11288.987820,345.587000,-0.393465
11292.587796,345.630000,-3.554897
11296.103187,345.672000,5.697607
11299.701393,345.715000,-2.308423
11303.215056,345.757000,-1.067118
11306.727865,345.799000,-4.160244
11310.239821,345.841000,1.101087
11313.834512,345.884000,-1.544782
11317.344742,345.926000,-0.372904
11320.854120,345.968000,-0.579952
11324.446172,346.011000,1.286352
11327.953826,346.053000,3.315720
11331.460629,346.095000,3.599401
11334.966581,346.137000,0.108811
11338.471682,346.179000,-0.664624
11342.059357,346.222000,3.563429
11345.562737,346.264000,-3.157592
11349.065268,346.306000,-0.539535
11352.566949,346.348000,-3.257611
11356.067781,346.390000,-0.650742
11359.567764,346.432000,6.332102
11363.150201,346.475000,5.210259
11366.648467,346.517000,-1.412551
11370.145885,346.559000,-0.559221
11373.642456,346.601000,3.065764
11377.138179,346.643000,-4.123296
11380.633055,346.685000,3.733995
11384.127085,346.727000,-0.129736
11387.620268,346.769000,-2.810235
11391.112605,346.811000,-3.237255
11394.604096,346.853000,1.032213
11398.094742,346.895000,2.478431
11401.584543,346.937000,3.006258
11405.073499,346.979000,3.065999
11408.561610,347.021000,1.239770
11412.048877,347.063000,1.546937
11415.535301,347.105000,-5.364505
11419.020880,347.147000,0.636715
11422.505617,347.189000,6.832039
11425.989510,347.231000,-4.741694
11429.472560,347.273000,0.211869
11432.954769,347.315000,-2.541550
11436.436135,347.357000,3.416949
11439.916659,347.399000,0.895270
11443.313502,347.440000,-6.816249
11446.792364,347.482000,-5.550701
11450.270384,347.524000,2.144361
11453.747565,347.566000,-1.107404
11457.223905,347.608000,2.109647
11460.699405,347.650000,-4.400975
11464.091345,347.691000,3.476285
11467.565186,347.733000,3.479076
11471.038188,347.775000,2.072850
11474.510351,347.817000,1.482574
11477.981676,347.859000,0.572069
11481.369541,347.900000,-6.033415
11484.839210,347.942000,0.502374
11488.308041,347.984000,-2.006120
11491.693473,348.025000,-2.514212
11495.160650,348.067000,1.821801
11498.626991,348.109000,-0.950839
11502.092494,348.151000,-3.127556
11505.474680,348.192000,-6.776790
11508.938532,348.234000,1.963917
11512.401549,348.276000,-1.614530
11515.781307,348.317000,-0.516185
11519.242673,348.359000,-0.744309
11522.620821,348.400000,-0.892037
11526.080539,348.442000,2.293599
11529.539422,348.484000,4.014769
11532.915148,348.525000,-3.617650
11536.372384,348.567000,-3.505344
11539.746502,348.608000,3.571565
11543.202092,348.650000,1.195338
11546.574604,348.691000,2.682523
11550.028550,348.733000,-2.451188
11553.399456,348.774000,1.772171
11556.851758,348.816000,-0.303174
11560.221061,348.857000,-2.453925
11563.671720,348.899000,-1.335378
11567.039420,348.940000,-4.141665
11570.488439,348.982000,0.471203
11573.854537,349.023000,-6.558395
11577.301915,349.065000,-5.745744
11580.666413,349.106000,1.871792
11584.030120,349.147000,-1.135791
11587.475051,349.189000,0.993536
11590.837159,349.230000,-3.235539
11594.280452,349.272000,-6.567811
11597.640963,349.313000,1.161201
11601.000686,349.354000,-3.049558
11604.441535,349.396000,-2.403110
11607.799661,349.437000,0.900323
11611.157000,349.478000,-2.069963
11614.595408,349.520000,1.445777
11617.951152,349.561000,-1.208137
11621.306109,349.602000,0.880209
11624.660280,349.643000,0.052604
11628.095443,349.685000,0.497817
11631.448022,349.726000,-2.324925
11634.799814,349.767000,0.975137
11638.150821,349.808000,-0.049514
11641.582745,349.850000,0.539242
11644.932162,349.891000,1.144871
11648.280794,349.932000,-6.955867
11651.628641,349.973000,2.294297
11654.975704,350.014000,-2.753278
11658.403590,350.056000,-6.346221
11661.749066,350.097000,-1.898587
11665.093759,350.138000,-2.122177
11668.437668,350.179000,7.402211
11671.780795,350.220000,-4.593552
11675.123139,350.261000,2.977177
11678.464700,350.302000,-3.635778
11681.805480,350.343000,-2.024090
11685.145477,350.384000,-1.881454
11688.484693,350.425000,-0.785383
11691.904543,350.467000,-8.629344
11695.242178,350.508000,-2.984738
11698.579032,350.549000,-4.836341
11701.915105,350.590000,-1.987872
11705.250398,350.631000,-9.167282
11708.584912,350.672000,-1.786737
11711.918645,350.713000,-1.457812
11715.251600,350.754000,-2.499272
11718.502512,350.794000,-1.155171
11721.833927,350.835000,3.843121
11725.164564,350.876000,-1.141194
11728.494422,350.917000,-2.291147
11731.823503,350.958000,-5.429763
11735.151806,350.999000,4.495768
11738.479331,351.040000,-6.412626
11741.806079,351.081000,-5.210764
11745.132050,351.122000,-3.698030
11748.457245,351.163000,-0.453961
11751.700589,351.203000,-1.494554
11755.024250,351.244000,-3.964387
11758.347135,351.285000,0.208120
11761.669245,351.326000,-0.832549
11764.990579,351.367000,5.241118
11768.230159,351.407000,-5.522133
11771.549962,351.448000,-2.704861
11774.868991,351.489000,-1.498775
11778.187246,351.530000,3.044059
11781.423822,351.570000,-6.904676
11784.740548,351.611000,-2.865854
11788.056500,351.652000,-3.239598
11791.371680,351.693000,-2.789415
11794.605256,351.733000,1.727353
11797.918909,351.774000,-1.823236
11801.231790,351.815000,-9.819155
11804.463124,351.855000,-0.043646
11807.774479,351.896000,-4.771372
11811.085063,351.937000,-5.492196
11814.314158,351.977000,3.150575
11817.623218,352.018000,-2.807813
11820.850827,352.058000,-0.665763
11824.158365,352.099000,-4.847157
11827.465133,352.140000,-2.701957
11830.690506,352.180000,-1.166964
11833.995753,352.221000,-2.799227
11837.219643,352.261000,-0.129548
11840.523370,352.302000,-4.961794
11843.745778,352.342000,-1.198225
11847.047986,352.383000,0.745522
11850.268913,352.423000,1.910105
11853.569603,352.464000,2.155542
11856.789050,352.504000,-0.875561
11860.088224,352.545000,-0.969701
11863.306191,352.585000,-2.037870
11866.603850,352.626000,0.249727
11869.820339,352.666000,-3.362904
11873.116483,352.707000,0.608813
11876.331495,352.747000,1.504207
11879.545777,352.787000,-1.326317
11882.839661,352.828000,-4.255457
11886.052468,352.868000,-1.873903
11889.264547,352.908000,-1.382769
11892.556173,352.949000,-1.656890
11895.766777,352.989000,0.614464
11899.056892,353.030000,-3.217215
11902.266024,353.070000,-3.781352
11905.474429,353.110000,2.115492
11908.682107,353.150000,-4.578157
11911.969223,353.191000,4.444805
11915.175430,353.231000,-4.025207
11918.380911,353.271000,-1.814021
11921.665775,353.312000,-3.554233
11924.869787,353.352000,-1.657902
11928.073073,353.392000,-1.284235
11931.275634,353.432000,0.862439
11934.477470,353.472000,-3.514400
11937.758600,353.513000,-3.920117
11940.958969,353.553000,5.958657
11944.158614,353.593000,1.606343
11947.357536,353.633000,-0.386990
11950.555733,353.673000,-6.831679
11953.753208,353.713000,-0.668924
11957.029868,353.754000,6.153525
11960.225879,353.794000,3.220255
11963.421166,353.834000,1.167673
11966.615732,353.874000,-3.458109
11969.809575,353.914000,0.873543
11973.002696,353.954000,-19.926730
11976.195096,353.994000,-0.198739
11979.386774,354.034000,-8.890126
11982.577731,354.074000,-2.287298
11985.767968,354.114000,-2.329765
11988.957483,354.154000,-0.995616
11992.146279,354.194000,2.697482
11995.334354,354.234000,-2.701162
11998.521709,354.274000,-1.704966
12001.708345,354.314000,-5.190535
12004.894261,354.354000,-2.172017
12008.079458,354.394000,-0.453934
12011.263936,354.434000,-5.129840
12014.447695,354.474000,-3.019887
12017.630736,354.514000,-6.550424
12020.813059,354.554000,-4.337556
12023.994663,354.594000,0.741058
12027.175550,354.634000,-0.090084
12030.276224,354.673000,2.133066
12033.455694,354.713000,-0.265352
12036.634448,354.753000,-1.548003
12039.812484,354.793000,3.848519
12042.989804,354.833000,0.623000
12046.166408,354.873000,0.293816
12049.262907,354.912000,1.151402
12052.438097,354.952000,-3.531698
12055.612571,354.992000,3.292930
12058.786330,355.032000,-5.210011
12061.880056,355.071000,2.143755
12065.052403,355.111000,1.347945
12068.224035,355.151000,-1.469367
12071.394953,355.191000,-1.617435
12074.485910,355.230000,-4.377505
12077.655418,355.270000,2.064888
12080.824212,355.310000,-2.003117
12083.913100,355.349000,-2.614590
12087.080485,355.389000,-3.284794
12090.247158,355.429000,-0.263473
12093.333977,355.468000,1.664996
12096.499242,355.508000,4.740738
12099.663795,355.548000,1.580020
12102.748549,355.587000,1.896901
12105.911696,355.627000,0.864571
12108.995079,355.666000,0.944032
12112.156822,355.706000,-1.876036
12115.317853,355.746000,1.680283
12118.399174,355.785000,2.085248
12121.558801,355.825000,-2.018008
12124.638754,355.864000,0.729807
12127.796979,355.904000,-0.327623
12130.875565,355.943000,-0.405711
12134.032389,355.983000,-1.110355
12137.109608,356.022000,-1.488099
12140.265031,356.062000,-2.930617
12143.340885,356.101000,3.960337
12146.494908,356.141000,-2.661958
12149.569398,356.180000,0.344174
12152.643215,356.219000,2.409434
12155.795149,356.259000,-0.649181
12158.867603,356.298000,-0.442936
12162.018139,356.338000,-2.627103
12165.089231,356.377000,1.250887
12168.159651,356.416000,3.148174
12171.308101,356.456000,-1.853441
12174.377160,356.495000,2.351161
12177.445548,356.534000,0.801117
12180.591915,356.574000,-1.210024
12183.658943,356.613000,-1.744765
12186.725300,356.652000,-1.649769
12189.869585,356.692000,0.493738
12192.934585,356.731000,-1.200990
12195.998914,356.770000,-2.638660
12199.062573,356.809000,-0.076857
12202.204093,356.849000,-0.261203
12205.266396,356.888000,0.109455
12208.328030,356.927000,-3.208489
12211.388995,356.966000,0.182609
12214.527751,357.006000,-0.440185
12217.587361,357.045000,-1.775287
12220.646304,357.084000,-0.689561
12223.704578,357.123000,1.707696
12226.762184,357.162000,1.269014
12229.819122,357.201000,-1.441772
12232.953750,357.241000,-1.531385
12236.009337,357.280000,-1.917813
12239.064257,357.319000,3.105724
12242.118510,357.358000,0.051108
12245.172096,357.397000,1.100254
12248.225016,357.436000,-1.853610
