raman_shift_cm-1,wavelength_nm,intensity
-323.608033,246.616000,0.000000
-312.759145,246.682000,0.000000
-301.916061,246.748000,0.000000
-291.078776,246.814000,0.002315
-280.083216,246.881000,0.090278
-269.257603,246.947000,-0.063272
-258.437774,247.013000,-1.444444
-247.623726,247.079000,-1.311728
-236.815454,247.145000,-0.843364
-226.012953,247.211000,-1.344907
-215.216219,247.277000,-1.345679
-204.425246,247.343000,-1.565586
-193.640031,247.409000,-0.987654
-182.860568,247.475000,-0.056327
-172.086854,247.541000,-1.455247
-161.318883,247.607000,-2.522377
-150.556651,247.673000,-0.254630
-139.800153,247.739000,-0.012346
-129.049385,247.805000,-1.216821
-118.467103,247.870000,0.189043
-107.727694,247.936000,0.189815
-96.994001,248.002000,-1.131173
-86.266020,248.068000,-0.910494
-75.543746,248.134000,-0.628858
-64.827174,248.200000,-0.793981
-54.278543,248.265000,0.017747
-43.573277,248.331000,-0.675154
-32.873698,248.397000,0.219907
-22.179805,248.463000,-0.829475
-11.653491,248.528000,-0.029321
-0.970866,248.594000,-0.226080
9.706087,248.660000,0.773920
20.377375,248.726000,-0.313272
30.881442,248.791000,-0.618056
41.541497,248.857000,-0.216049
52.195898,248.923000,-0.178241
62.683348,248.988000,-1.178241
73.326542,249.054000,-0.445988
83.802964,249.119000,-0.291667
94.434970,249.185000,-0.742284
104.900381,249.250000,-0.781636
115.521215,249.316000,0.351080
125.975632,249.381000,-0.916667
136.585313,249.447000,0.302469
147.028754,249.512000,-0.012346
157.627298,249.578000,-0.793210
168.059780,249.643000,-0.530093
178.647205,249.709000,-1.366512
189.068746,249.774000,-1.002315
199.645070,249.840000,0.275463
210.055686,249.905000,0.721451
220.620926,249.971000,37.509259
231.020635,250.036000,7.793981
241.414938,250.101000,-0.527006
251.963627,250.167000,-0.687500
262.347049,250.232000,-2.013117
272.725077,250.297000,-1.604938
283.097717,250.362000,0.445216
293.624427,250.428000,3.419753
303.986219,250.493000,3.144290
314.342635,250.558000,4.753858
324.693679,250.623000,3.832562
335.198478,250.689000,0.477623
345.538708,250.754000,2.469907
355.873579,250.819000,0.699846
366.203095,250.884000,-1.226852
376.527259,250.949000,0.054784
386.846077,251.014000,-4.550154
397.318179,251.080000,-1.331790
407.626234,251.145000,-2.447531
417.928954,251.210000,-0.596451
428.226343,251.275000,0.178241
438.518407,251.340000,-3.704475
448.805149,251.405000,1.212191
459.086573,251.470000,1.155093
469.362683,251.535000,-2.495370
479.633483,251.600000,-3.753858
489.898978,251.665000,2.822531
500.159172,251.730000,4.168981
510.414069,251.795000,12.878858
520.663672,251.860000,-6.107253
530.907986,251.925000,-5.314815
541.147015,251.990000,-4.866512
551.223361,252.054000,0.163580
561.451914,252.119000,-1.414352
571.675194,252.184000,1.422840
581.893205,252.249000,-4.132716
592.105952,252.314000,-1.248457
602.313438,252.379000,3.134259
612.358750,252.443000,1.118827
622.555807,252.508000,1.500772
632.747617,252.573000,-3.225309
642.934182,252.638000,-0.150463
652.958910,252.702000,0.200617
663.135079,252.767000,-0.184414
673.306016,252.832000,-2.026235
683.315368,252.896000,-0.800154
693.475932,252.961000,-1.654321
703.631276,253.026000,-1.085648
713.625287,253.090000,3.448302
723.770283,253.155000,0.456790
733.910070,253.220000,-1.265432
743.888776,253.284000,0.081019
754.018238,253.349000,-0.199074
763.986786,253.413000,-0.589506
774.105940,253.478000,-0.192130
784.064345,253.542000,0.983796
794.173206,253.607000,-0.269290
804.121484,253.671000,0.516204
814.220067,253.736000,-1.101080
824.158233,253.800000,0.381944
834.246555,253.865000,0.974537
844.174625,253.929000,1.320988
854.252700,253.994000,8.101080
864.170690,254.058000,-1.058642
874.083683,254.122000,0.203704
884.146458,254.187000,2.404321
894.049394,254.251000,-0.420525
903.947346,254.315000,0.739969
913.994855,254.380000,1.155093
923.882772,254.444000,1.118827
933.765716,254.508000,1.028549
943.797994,254.573000,-4.096451
953.670926,254.637000,3.380401
963.538895,254.701000,1.193673
973.401907,254.765000,-0.435957
983.259965,254.829000,-2.061728
993.266988,254.894000,-3.077160
1003.115071,254.958000,-4.047840
1012.958212,255.022000,-7.649691
1022.796413,255.086000,-5.955247
1032.629679,255.150000,-3.184414
1042.458013,255.214000,-8.793981
1052.281419,255.278000,-18.317901
1062.253275,255.343000,-7.109568
1072.066759,255.407000,2.129630
1081.875326,255.471000,6.961420
1091.678980,255.535000,10.722222
1101.477725,255.599000,4.564815
1111.271563,255.663000,0.932870
1121.060500,255.727000,-1.122685
1130.844538,255.791000,-0.216049
1140.623681,255.855000,-0.541667
1150.397933,255.919000,-0.467593
1160.014689,255.982000,1.362654
1169.779246,256.046000,1.170525
1179.538923,256.110000,3.101852
1189.293724,256.174000,6.486883
1199.043651,256.238000,2.437500
1208.788709,256.302000,-0.290895
1218.528902,256.366000,2.116512
1228.112156,256.429000,0.247685
1237.842704,256.493000,-0.163580
1247.568398,256.557000,0.391975
1257.289241,256.621000,-0.493827
1267.005236,256.685000,-3.048611
1276.564688,256.748000,-2.908951
1286.271074,256.812000,-0.171296
1295.972624,256.876000,-3.212191
1305.517867,256.939000,-3.413580
1315.209831,257.003000,3.398920
1324.896968,257.067000,0.040895
1334.428034,257.130000,0.479938
1344.105605,257.194000,-0.738426
1353.778362,257.258000,-1.318673
1363.295282,257.321000,1.001543
1372.958494,257.385000,-1.265432
1382.466026,257.448000,0.272377
1392.119708,257.512000,-2.612654
1401.617865,257.575000,-6.369599
1411.262031,257.639000,-4.230710
1420.750828,257.702000,1.199846
1430.385491,257.766000,-2.966049
1439.864942,257.829000,-2.888117
1449.490117,257.893000,-0.885031
1458.960235,257.956000,3.584877
1468.575936,258.020000,2.763889
1478.036734,258.083000,0.523920
1487.492915,258.146000,-3.918210
1497.094468,258.210000,-2.104167
1506.541350,258.273000,-16.094907
1516.133465,258.337000,-2.691358
1525.571062,258.400000,-2.684414
1535.004058,258.463000,-2.062500
1544.432457,258.526000,-0.960648
1554.005809,258.590000,-0.367284
1563.424950,258.653000,-0.072531
1572.839503,258.716000,-0.731481
1582.249473,258.779000,-0.603395
1591.804117,258.843000,0.092593
1601.204857,258.906000,-3.740741
1610.601022,258.969000,-2.522377
1619.992617,259.032000,-3.251543
1629.379645,259.095000,-2.443673
1638.911000,259.159000,-3.957562
1648.288831,259.222000,-0.057870
1657.662104,259.285000,4.647377
1667.030824,259.348000,-0.562500
1676.394994,259.411000,0.218364
1685.754616,259.474000,2.388117
1695.109694,259.537000,3.555556
1704.460232,259.600000,3.115741
1713.806232,259.663000,0.925926
1723.147698,259.726000,0.848765
1732.484634,259.789000,3.474537
1741.817042,259.852000,-0.266975
1751.144926,259.915000,1.337963
1760.468289,259.978000,2.076389
1769.787135,260.041000,3.024691
1779.101467,260.104000,-0.405864
1788.411287,260.167000,0.996142
1797.568932,260.229000,-0.824074
1806.869812,260.292000,-0.907407
1816.166190,260.355000,-2.287037
1825.458071,260.418000,-0.926698
1834.745457,260.481000,-4.447531
1844.028352,260.544000,-2.724537
1853.159517,260.606000,-0.280864
1862.433510,260.669000,-5.113426
1871.703021,260.732000,-2.327932
1880.968054,260.795000,-10.514660
1890.081653,260.857000,-7.671296
1899.337809,260.920000,-0.858796
1908.589497,260.983000,-0.657407
1917.689973,261.045000,0.742284
1926.932803,261.108000,-2.512346
1936.171175,261.171000,-14.953704
1945.258555,261.233000,-2.478395
1954.488088,261.296000,-1.283179
1963.566777,261.358000,2.011574
1972.787485,261.421000,3.270062
1982.003751,261.484000,0.810185
1991.069391,261.546000,6.992284
2000.276850,261.609000,31.037037
2009.333830,261.671000,18.245370
2018.532495,261.734000,1.625772
2027.580827,261.796000,-0.659722
2036.770712,261.859000,7.193673
2045.810408,261.921000,4.602623
2054.845827,261.983000,-1.813272
2064.022598,262.046000,-0.393519
2073.049399,262.108000,-2.537037
2082.217420,262.171000,-0.943673
2091.235617,262.233000,1.445988
2100.249550,262.295000,3.135802
2109.404505,262.358000,7.649691
2118.409852,262.420000,-1.060957
2127.410945,262.482000,-0.307870
2136.552862,262.545000,0.010802
2145.545387,262.607000,0.966049
2154.533666,262.669000,1.431327
2163.517703,262.731000,-2.067901
2172.642302,262.794000,-1.047840
2181.617796,262.856000,0.027778
2190.589057,262.918000,-0.554784
2199.556087,262.980000,-1.263889
2208.518891,263.042000,-0.228395
2217.621929,263.105000,-2.736883
2226.576219,263.167000,-6.548611
2235.526291,263.229000,-5.486111
2244.472147,263.291000,-0.961420
2253.413792,263.353000,-5.271605
2262.351228,263.415000,-0.874228
2271.284457,263.477000,-0.778549
2280.213483,263.539000,-0.271605
2289.138308,263.601000,2.011574
2298.058937,263.663000,-1.906636
2306.975371,263.725000,-2.071759
2315.887613,263.787000,-3.834105
2324.795667,263.849000,0.386574
2333.699536,263.911000,-4.900463
2342.599222,263.973000,0.283951
2351.494729,264.035000,0.114198
2360.386059,264.097000,-1.326389
2369.273215,264.159000,-2.337191
2378.156200,264.221000,-6.956790
2386.891844,264.282000,-2.012346
2395.766564,264.344000,-2.581790
2404.637121,264.406000,-3.318673
2413.503520,264.468000,-1.729167
2422.365762,264.530000,0.630401
2431.081012,264.591000,-1.399691
2439.935018,264.653000,-1.353395
2448.784876,264.715000,-2.232253
2457.630590,264.777000,0.200617
2466.329589,264.838000,-0.564043
2475.167089,264.900000,-2.591049
2484.000453,264.962000,-1.751543
2492.687310,265.023000,0.253858
2501.512478,265.085000,13.506944
2510.333519,265.147000,-2.842593
2519.008259,265.208000,-0.844136
2527.821120,265.270000,-3.013889
2536.487819,265.331000,0.094907
2545.292512,265.393000,0.633488
2554.093093,265.455000,-0.564043
2562.747717,265.516000,5.027006
2571.540147,265.578000,-0.675926
2580.186758,265.639000,-0.250000
2588.971048,265.701000,2.843364
2597.609655,265.762000,11.016204
2606.385817,265.824000,4.052469
2615.016433,265.885000,0.439815
2623.643091,265.946000,0.287037
2632.407114,266.008000,6.754630
2641.025796,266.069000,4.901235
2649.781719,266.131000,-0.791667
2658.392437,266.192000,-0.783179
2666.999210,266.253000,-0.388117
2675.743037,266.315000,-0.192901
2684.341862,266.376000,-0.418981
2692.936750,266.437000,3.619599
2701.668505,266.499000,3.905093
2710.255462,266.560000,-4.962963
2718.838489,266.621000,2.189815
2727.417590,266.682000,1.076389
2736.133311,266.744000,-6.624228
2744.704503,266.805000,1.640432
2753.271776,266.866000,-0.429012
2761.835134,266.927000,1.724537
2770.394579,266.988000,-0.598765
2778.950113,267.049000,0.317130
2787.641898,267.111000,-1.968364
2796.189555,267.172000,-4.881173
2804.733311,267.233000,-1.527778
2813.273167,267.294000,0.094907
2821.809126,267.355000,-0.831790
2830.341190,267.416000,-2.636574
2838.869363,267.477000,-3.672068
2847.393647,267.538000,-7.716049
2855.914045,267.599000,-1.418210
2864.430559,267.660000,-2.195216
2872.943193,267.721000,-0.939815
2881.451948,267.782000,-1.944444
2889.956827,267.843000,-2.522377
2898.457833,267.904000,1.608025
2906.954969,267.965000,-4.192130
2915.448237,268.026000,-1.834105
2923.937640,268.087000,1.339506
2932.284105,268.147000,-1.604167
2940.765849,268.208000,-6.773148
2949.243736,268.269000,-6.491512
2957.717768,268.330000,-0.121142
2966.187948,268.391000,-0.393519
2974.515518,268.451000,-0.190586
2982.978065,268.512000,2.081019
2991.436768,268.573000,-3.686728
2999.891630,268.634000,-2.896605
3008.204142,268.694000,-0.468364
3016.651392,268.755000,0.212191
3025.094807,268.816000,0.934414
3033.396069,268.876000,-1.637346
3041.831888,268.937000,-1.743827
3050.263881,268.998000,-0.136574
3058.553914,269.058000,-3.286265
3066.978326,269.119000,-0.388889
3075.398919,269.180000,0.841821
3083.677747,269.240000,-2.385802
3092.090774,269.301000,-1.931327
3100.362165,269.361000,-0.948302
3108.767637,269.422000,-3.066358
3117.031601,269.482000,-3.088735
3125.429526,269.543000,-0.153549
3133.686074,269.603000,-2.348765
3142.076464,269.664000,-3.544753
3150.325604,269.724000,-3.033951
3158.708468,269.785000,-2.044753
3166.950211,269.845000,-1.550154
3175.325561,269.906000,-0.175926
3183.559917,269.966000,-1.322531
3191.790613,270.026000,0.273148
3200.154739,270.087000,6.522377
3208.378064,270.147000,2.425926
3216.597736,270.207000,7.409722
3224.950662,270.268000,-1.406636
3233.162976,270.328000,-0.466821
3241.371647,270.388000,1.112654
3249.576675,270.448000,3.560185
3257.914722,270.509000,-0.492284
3266.112412,270.569000,-2.713735
3274.306467,270.629000,-3.483796
3282.496889,270.689000,1.260031
3290.820098,270.750000,-3.148920
3299.003202,270.810000,-4.108796
3307.182681,270.870000,-1.368056
3315.358537,270.930000,-0.608025
3323.530773,270.990000,1.671296
3331.699391,271.050000,-0.146605
3339.864393,271.110000,-1.712963
3348.025782,271.170000,0.369599
3356.319492,271.231000,0.982253
3364.473602,271.291000,-1.648148
3372.624105,271.351000,6.579475
3380.771005,271.411000,3.034722
3388.914304,271.471000,-0.300154
3397.054004,271.531000,-1.752315
3405.190107,271.591000,-0.804784
3413.322616,271.651000,-0.287037
3421.316081,271.710000,-2.374228
3429.441469,271.770000,1.239198
3437.563270,271.830000,-0.792438
3445.681487,271.890000,-0.868827
3453.796121,271.950000,-1.776235
3461.907176,272.010000,-0.801698
3470.014653,272.070000,-1.419753
3478.118555,272.130000,0.169753
3486.083907,272.189000,-1.448302
3494.180726,272.249000,-0.717593
3502.273976,272.309000,0.003858
3510.363660,272.369000,-3.558642
3518.315042,272.428000,-0.656636
3526.397661,272.488000,-0.405864
3534.476722,272.548000,2.732253
3542.552226,272.608000,-0.794753
3550.489673,272.667000,-0.861111
3558.558131,272.727000,-1.914352
3566.623039,272.787000,0.783179
3574.550074,272.846000,-1.619599
3582.607950,272.906000,1.046296
3590.528073,272.965000,0.846451
3598.578926,273.025000,-1.979167
3606.626241,273.085000,-0.391204
3614.535986,273.144000,-4.001543
3622.576291,273.204000,-0.611111
3630.479148,273.263000,0.082562
3638.512453,273.323000,5.252315
3646.408431,273.382000,-1.303241
3654.434744,273.442000,-0.444444
3662.323852,273.501000,-0.354938
3670.343183,273.561000,-1.801698
3678.225429,273.620000,0.719136
3686.237787,273.680000,-0.229938
3694.113181,273.739000,-0.959877
3701.985180,273.798000,-3.731481
3709.987125,273.858000,-1.916667
3717.852286,273.917000,-0.610340
3725.714059,273.976000,0.030093
3733.705610,274.036000,-0.441358
3741.560558,274.095000,-1.159722
3749.412124,274.154000,2.282407
3757.393303,274.214000,-0.062500
3765.238057,274.273000,-0.518519
3773.079437,274.332000,-0.846451
3780.917444,274.391000,-1.652006
3788.884843,274.451000,-1.386574
3796.716056,274.510000,-1.406636
3804.543903,274.569000,-0.203704
3812.368387,274.628000,-4.343364
3820.189510,274.687000,-2.476080
3828.007273,274.746000,-1.729167
3835.821680,274.805000,1.719136
3843.765093,274.865000,1.598765
3851.572736,274.924000,0.822531
3859.377028,274.983000,0.252315
3867.177971,275.042000,-0.668210
3874.975569,275.101000,-2.013117
3882.769823,275.160000,-0.925926
3890.560735,275.219000,-0.818673
3898.348307,275.278000,-0.417438
3906.132542,275.337000,-1.735340
3913.913442,275.396000,2.505401
3921.691008,275.455000,1.767747
3929.465243,275.514000,3.745370
3937.236150,275.573000,-1.787037
3944.872103,275.631000,-2.721451
3952.636414,275.690000,0.210648
3960.397403,275.749000,0.293210
3968.155071,275.808000,-1.483796
3975.909421,275.867000,-9.890432
3983.660455,275.926000,-3.864969
3991.408175,275.985000,-0.668210
3999.021349,276.043000,1.581019
4006.762504,276.102000,-8.619599
4014.500350,276.161000,-2.952160
4022.234891,276.220000,-3.156636
4029.835118,276.278000,-1.405093
4037.563110,276.337000,-5.858025
4045.287803,276.396000,-26.564815
4052.878355,276.454000,-1.260031
4060.596512,276.513000,0.963735
4068.311375,276.572000,0.330247
4075.892271,276.630000,-4.783951
4083.600610,276.689000,-1.648920
4091.305663,276.748000,-2.112654
4098.876921,276.806000,-1.085648
4106.575462,276.865000,0.568673
4114.140322,276.923000,-3.277006
4121.832361,276.982000,0.477623
4129.390832,277.040000,-2.558642
4137.076375,277.099000,-1.729938
4144.628466,277.157000,1.932870
4152.307522,277.216000,0.823302
4159.853240,277.274000,0.709105
4167.525818,277.333000,-5.090278
4175.065171,277.391000,-0.608796
4182.731279,277.450000,-3.037809
4190.264275,277.508000,0.068673
4197.794123,277.566000,-0.405093
4205.450568,277.625000,-1.086420
4212.974072,277.683000,-3.751543
4220.494433,277.741000,0.887346
4228.011654,277.799000,0.567130
4235.396210,277.856000,0.062500
4242.907211,277.914000,0.692130
4250.415077,277.972000,-0.185957
4257.790445,278.029000,-1.130401
4265.292102,278.087000,-1.756944
4272.790631,278.145000,0.361111
4280.156828,278.202000,-1.933642
4287.649159,278.260000,0.976852
4295.138368,278.318000,-0.871142
4302.495411,278.375000,-2.483796
4309.978434,278.433000,0.151235
4317.329402,278.490000,-2.388117
4324.806246,278.548000,-4.473765
4332.151147,278.605000,-0.350309
4339.621821,278.663000,-1.439815
4346.960661,278.720000,-0.870370
4354.425172,278.778000,-1.488426
4361.757959,278.835000,-1.500772
4369.216314,278.893000,-2.451389
4376.543056,278.950000,-0.548611
4383.995264,279.008000,-1.091821
4391.315968,279.065000,-4.677469
4398.762036,279.123000,-1.788580
4406.076709,279.180000,-1.534722
4413.516644,279.238000,-1.096451
4420.825295,279.295000,-0.597222
4428.130962,279.352000,-2.304012
4435.561740,279.410000,-1.283951
4442.861395,279.467000,-2.094907
4450.158074,279.524000,-2.513889
4457.579711,279.582000,-3.319444
4464.870389,279.639000,-1.023920
4472.158095,279.696000,-1.515432
4479.570607,279.754000,-0.790895
4486.852324,279.811000,-2.331790
4494.131074,279.868000,-13.665123
4501.534479,279.926000,-0.566358
4508.807251,279.983000,-0.772377
4516.077062,280.040000,0.991512
4523.343914,280.097000,-1.593364
4530.735220,280.155000,-1.889660
4537.996108,280.212000,-0.675154
4545.254043,280.269000,-4.695216
4552.509026,280.326000,-4.968364
4559.888262,280.384000,-7.388117
4567.137295,280.441000,-8.312500
4574.383383,280.498000,-2.125000
4581.626526,280.555000,1.738426
4588.866727,280.612000,-1.713735
4596.103987,280.669000,1.811728
4603.338308,280.726000,-1.260031
4610.696532,280.784000,0.112654
4617.924929,280.841000,-2.320216
4625.150392,280.898000,-2.463735
4632.372923,280.955000,1.020062
4639.592525,281.012000,1.121142
4646.809198,281.069000,-2.154321
4654.022945,281.126000,1.905093
4661.233767,281.183000,1.056327
4668.441666,281.240000,0.424383
4675.646644,281.297000,-3.179784
4682.848703,281.354000,-8.152006
4690.047844,281.411000,1.601852
4697.244070,281.468000,-3.875000
4704.437381,281.525000,-0.640432
4711.627780,281.582000,0.559414
4718.815269,281.639000,0.614969
4725.999849,281.696000,-0.512346
4733.181522,281.753000,2.788580
4740.360290,281.810000,10.082562
4747.536154,281.867000,-14.851080
4754.583300,281.923000,-10.466821
4761.753414,281.980000,0.013117
4768.920629,282.037000,-0.017747
4776.084949,282.094000,-0.437500
4783.246373,282.151000,2.476852
4790.404904,282.208000,-1.678241
4797.435032,282.264000,5.691358
4804.587834,282.321000,2.797068
4811.737748,282.378000,-1.061728
4818.884776,282.435000,-0.187500
4826.028920,282.492000,-0.534722
4833.044920,282.548000,6.589506
4840.183352,282.605000,17.045525
4847.318904,282.662000,2.406636
4854.451579,282.719000,2.337963
4861.456319,282.775000,7.000000
4868.583295,282.832000,3.496914
4875.707399,282.889000,2.100309
4882.703723,282.945000,-1.614198
4889.822139,283.002000,0.284722
4896.937687,283.059000,-3.685185
4903.925611,283.115000,-4.931327
4911.035481,283.172000,-0.491512
4918.142490,283.229000,-1.384259
4925.122029,283.285000,1.165895
4932.223369,283.342000,-1.955247
4939.197342,283.398000,0.578704
4946.293021,283.455000,0.519290
4953.385847,283.512000,-2.408951
4960.351460,283.568000,-0.986883
4967.438635,283.625000,0.560185
4974.398699,283.681000,0.415895
4981.480229,283.738000,-1.961420
4988.434752,283.794000,1.400463
4995.510644,283.851000,1.557870
5002.459631,283.907000,-1.228395
5009.529893,283.964000,0.152778
5016.473351,284.020000,-2.182099
5023.537988,284.077000,-3.287809
5030.475924,284.133000,-1.573302
5037.534943,284.190000,-2.410494
5044.467363,284.246000,-1.035494
5051.397052,284.302000,-2.642747
5058.447683,284.359000,-0.299383
5065.371866,284.415000,0.852623
5072.416896,284.472000,0.075617
5079.335580,284.528000,1.315586
5086.251541,284.584000,4.207562
5093.288207,284.641000,1.898920
5100.198678,284.697000,-0.670525
5107.106432,284.753000,1.306327
5114.134748,284.810000,-5.417438
5121.037022,284.866000,-2.815586
5127.936582,284.922000,-3.674383
5134.833431,284.978000,4.556327
5141.850655,285.035000,1.240741
5148.742037,285.091000,1.628858
5155.630712,285.147000,-1.297068
5162.516682,285.203000,0.631944
5169.522840,285.260000,3.673611
5176.403356,285.316000,1.593364
5183.281172,285.372000,0.963735
5190.156289,285.428000,1.081790
5197.028709,285.484000,-1.087191
5204.021082,285.541000,0.316358
5210.888064,285.597000,1.478395
5217.752353,285.653000,3.432870
5224.613952,285.709000,-0.413580
5231.472862,285.765000,4.750772
5238.329083,285.821000,0.881173
5245.182619,285.877000,0.743827
5252.033470,285.933000,-0.520833
5258.881638,285.989000,0.771605
5265.727125,286.045000,1.814043
5272.569932,286.101000,4.998457
5279.532182,286.158000,2.519290
5286.369586,286.214000,1.447531
5293.204315,286.270000,2.158179
5300.036371,286.326000,2.517747
5306.865755,286.382000,-0.231481
5313.692468,286.438000,0.311728
5320.516513,286.494000,0.820988
5327.216104,286.549000,-0.455247
5334.034863,286.605000,2.986111
5340.850958,286.661000,3.336420
5347.664391,286.717000,4.084877
5354.475163,286.773000,5.182099
5361.283275,286.829000,2.007716
5368.088729,286.885000,1.247685
5374.891528,286.941000,1.491512
5381.691671,286.997000,1.813272
5388.489161,287.053000,0.294753
5395.162686,287.108000,-1.572531
5401.954922,287.164000,0.959105
5408.744509,287.220000,-2.714506
5415.531448,287.276000,0.718364
5422.315743,287.332000,-12.112654
5428.976316,287.387000,-31.699074
5435.755371,287.443000,-24.855710
5442.531785,287.499000,-30.353395
5449.305560,287.555000,-27.214506
5456.076697,287.611000,2.554784
5462.724355,287.666000,6.620370
5469.490268,287.722000,-0.181327
5476.253548,287.778000,5.335648
5482.893494,287.833000,3.182099
5489.651559,287.889000,0.033951
5496.406995,287.945000,1.288580
5503.039242,288.000000,1.487654
5509.789473,288.056000,1.863426
5516.537079,288.112000,1.518519
5523.161640,288.167000,1.864969
5529.904050,288.223000,-0.080247
5536.643840,288.279000,-0.125772
5543.260729,288.334000,3.777778
5549.995332,288.390000,6.516975
5556.607128,288.445000,2.421296
5563.336549,288.501000,0.950617
5569.943259,288.556000,1.616512
5576.667504,288.612000,2.807099
5583.269134,288.667000,3.334877
5589.988209,288.723000,6.016204
5596.584764,288.778000,11.672068
5603.298676,288.834000,1.569444
5609.890162,288.889000,2.166667
5616.598916,288.945000,15.412809
5623.185340,289.000000,5.854167
5629.888941,289.056000,2.918981
5636.470308,289.111000,4.121142
5643.168763,289.167000,2.172840
5649.745079,289.222000,-0.283179
5656.438394,289.278000,2.490741
5663.009664,289.333000,1.041667
5669.578437,289.388000,4.853395
5676.264076,289.444000,0.550926
5682.827812,289.499000,6.402778
5689.389054,289.554000,3.729167
5696.067030,289.610000,-1.182099
5702.623244,289.665000,1.206019
5709.176969,289.720000,-8.261574
5715.847296,289.776000,-5.070216
5722.396001,289.831000,-2.219136
5728.942221,289.886000,9.983025
5735.485958,289.941000,3.237654
5742.146122,289.997000,1.642747
5748.684850,290.052000,0.896605
5755.221100,290.107000,2.730710
5761.754871,290.162000,-2.084877
5768.404894,290.218000,-2.213735
5774.933669,290.273000,-0.403549
5781.459971,290.328000,5.900463
5787.983800,290.383000,5.299383
5794.505158,290.438000,0.805556
5801.142550,290.494000,-0.348765
5807.658926,290.549000,3.526235
5814.172835,290.604000,2.182870
5820.684279,290.659000,3.404321
5827.193260,290.714000,4.135031
5833.699778,290.769000,4.027006
5840.203835,290.824000,7.473765
5846.705432,290.879000,3.388117
5853.204572,290.934000,3.608796
5859.701254,290.989000,2.172068
5866.195481,291.044000,5.206019
5872.687254,291.099000,3.490741
5879.176574,291.154000,2.054012
5885.663444,291.209000,1.596451
5892.147863,291.264000,6.140432
5898.629834,291.319000,28.391975
5905.109357,291.374000,16.351080
5911.586435,291.429000,-0.124228
5918.061069,291.484000,0.327160
5924.533260,291.539000,0.797840
5931.003009,291.594000,1.221451
5937.470318,291.649000,6.915123
5943.935188,291.704000,3.219136
5950.397621,291.759000,2.895833
5956.857618,291.814000,3.242284
5963.315180,291.869000,20.450617
5969.770309,291.924000,4.722994
5976.105706,291.978000,2.516204
5982.556017,292.033000,4.375772
5989.003898,292.088000,0.978395
5995.449352,292.143000,5.057099
6001.892379,292.198000,1.668981
6008.215901,292.252000,2.272377
6014.654123,292.307000,2.942130
6021.089923,292.362000,2.928241
6027.523303,292.417000,1.996142
6033.954262,292.472000,6.009259
6040.265942,292.526000,2.973765
6046.692111,292.581000,1.747685
6053.115864,292.636000,3.355710
6059.420472,292.690000,5.522377
6065.839442,292.745000,3.878086
6072.256000,292.800000,1.315586
6078.553548,292.854000,3.260802
6084.965331,292.909000,5.409722
6091.374707,292.964000,6.383488
6097.665207,293.018000,5.232253
6104.069816,293.073000,2.976080
6110.472021,293.128000,3.840278
6116.755485,293.182000,4.530864
6123.152931,293.237000,3.000772
6129.431725,293.291000,2.948302
6135.824417,293.346000,3.460648
6142.098547,293.400000,3.065586
6148.486490,293.455000,1.609568
6154.872040,293.510000,1.821759
6161.139160,293.564000,2.926698
6167.519969,293.619000,3.977623
6173.782438,293.673000,4.077160
6180.158512,293.728000,1.667438
6186.416334,293.782000,5.599537
6192.787678,293.837000,3.759259
6199.040859,293.891000,0.611883
6205.291742,293.945000,2.709877
6211.656022,294.000000,1.671296
6217.902272,294.054000,3.959877
6224.261835,294.109000,6.283951
6230.503456,294.163000,2.559414
6236.742786,294.217000,4.630401
6243.095305,294.272000,0.828704
6249.330014,294.326000,1.942901
6255.677829,294.381000,3.347994
6261.907923,294.435000,1.377315
6268.135731,294.489000,4.215278
6274.476522,294.544000,-3.910494
6280.699722,294.598000,-2.042438
6286.920642,294.652000,2.250000
6293.139281,294.706000,4.367284
6299.470739,294.761000,3.051698
6305.684781,294.815000,6.752315
6311.896546,294.869000,4.818673
6318.106037,294.923000,1.939815
6324.428182,294.978000,3.541667
6330.633085,295.032000,3.786265
6336.835717,295.086000,4.818673
6343.036080,295.140000,7.805556
6349.234174,295.194000,5.490741
6355.544717,295.249000,1.993827
6361.738236,295.303000,5.747685
6367.929490,295.357000,3.907407
6374.118480,295.411000,5.254630
6380.305209,295.465000,4.601080
6386.489676,295.519000,3.726852
6392.671884,295.573000,1.685957
6398.851833,295.627000,3.939043
6405.143905,295.682000,1.941358
6411.319300,295.736000,5.391204
6417.492439,295.790000,3.042438
6423.663325,295.844000,4.065586
6429.831958,295.898000,2.413580
6435.998340,295.952000,3.253086
6442.162473,296.006000,2.332562
6448.324357,296.060000,2.174383
6454.483993,296.114000,1.145833
6460.641384,296.168000,4.470679
6466.796529,296.222000,1.283951
6472.949431,296.276000,-7.304012
6479.100090,296.330000,-2.793981
6485.248508,296.384000,4.368827
6491.280888,296.437000,5.803241
6497.424869,296.491000,3.603395
6503.566612,296.545000,4.810185
6509.706118,296.599000,1.877315
6515.843390,296.653000,5.363426
6521.978427,296.707000,0.284722
6528.111232,296.761000,2.657407
6534.241805,296.815000,5.428241
6540.256681,296.868000,-0.115741
6546.382836,296.922000,0.391204
6552.506763,296.976000,3.255401
6558.628464,297.030000,0.621914
6564.747939,297.084000,-5.074074
6570.751928,297.137000,2.511574
6576.866997,297.191000,5.020833
6582.979845,297.245000,4.105710
6589.090471,297.299000,3.184414
6595.085780,297.352000,0.794753
6601.192010,297.406000,9.458333
6607.296023,297.460000,3.060185
6613.397821,297.514000,5.032407
6619.384468,297.567000,14.783179
6625.481879,297.621000,2.871142
6631.577077,297.675000,4.390432
6637.557251,297.728000,11.072531
6643.648069,297.782000,2.813272
6649.623947,297.835000,4.071759
6655.710390,297.889000,1.711420
6661.794627,297.943000,1.346451
6667.764048,297.996000,2.104938
6673.843917,298.050000,5.740741
6679.809053,298.103000,7.036265
6685.884559,298.157000,-4.581019
6691.957864,298.211000,-5.817130
6697.916562,298.264000,3.112654
6703.985510,298.318000,5.290895
6709.939935,298.371000,3.132716
6716.004532,298.425000,4.347994
6721.954688,298.478000,4.060957
6728.014938,298.532000,4.764660
6733.960830,298.585000,3.849537
6739.904611,298.638000,0.930556
6745.958369,298.692000,6.560957
6751.897893,298.745000,2.908951
6757.947317,298.799000,2.564815
6763.882588,298.852000,8.017747
6769.927680,298.906000,7.886574
6775.858703,298.959000,2.450617
6781.787624,299.012000,3.925926
6787.826249,299.066000,6.246142
6793.750928,299.119000,4.328704
6799.673508,299.172000,6.253086
6805.705677,299.226000,3.929784
6811.624022,299.279000,5.496914
6817.540272,299.332000,4.891204
6823.565994,299.386000,4.922840
6829.478016,299.439000,3.104938
6835.387945,299.492000,20.091049
6841.407231,299.546000,6.613426
6847.312940,299.599000,3.614198
6853.216559,299.652000,4.914352
6859.118090,299.705000,-2.367284
6865.017534,299.758000,5.085648
6871.026143,299.812000,4.888889
6876.921378,299.865000,4.255401
6882.814529,299.918000,0.866512
6888.705597,299.971000,0.405093
6894.594584,300.024000,-2.849537
6900.592545,300.078000,0.465278
6906.477333,300.131000,-1.661265
6912.360044,300.184000,4.090278
6918.240677,300.237000,1.766204
6924.119235,300.290000,-1.502315
6929.995718,300.343000,2.659722
6935.870127,300.396000,6.229938
6941.742464,300.449000,6.765432
6947.612730,300.502000,1.452160
6953.480925,300.555000,1.482253
6959.347051,300.608000,5.618056
6965.211108,300.661000,6.607253
6971.073099,300.714000,2.031636
6976.933024,300.767000,4.603395
6982.790884,300.820000,3.284722
6988.646680,300.873000,-0.131173
6994.500413,300.926000,1.571759
7000.352085,300.979000,3.263117
7006.201696,301.032000,4.296296
7012.049248,301.085000,2.996142
7017.894742,301.138000,0.760802
7023.738178,301.191000,5.473765
7029.579559,301.244000,7.080247
7035.418884,301.297000,7.409722
7041.256155,301.350000,5.715278
7047.091373,301.403000,5.730710
7052.924539,301.456000,4.532407
7058.645653,301.508000,-2.996914
7064.474758,301.561000,5.449074
7070.301814,301.614000,3.473765
7076.126822,301.667000,4.662809
7081.949784,301.720000,3.825617
7087.660892,301.772000,6.081790
7093.479803,301.825000,4.547068
7099.296670,301.878000,5.093364
7105.111496,301.931000,4.000000
7110.814624,301.983000,8.896605
7116.625408,302.036000,2.476080
7122.434152,302.089000,0.790895
7128.240858,302.142000,0.341821
7133.936024,302.194000,2.672068
7139.738696,302.247000,5.575617
7145.539334,302.300000,4.091821
7151.228549,302.352000,9.239198
7157.025159,302.405000,2.215278
7162.819737,302.458000,5.652778
7168.503010,302.510000,1.155864
7174.293567,302.563000,6.567130
7180.082095,302.616000,5.442901
7185.759436,302.668000,1.455247
7191.543949,302.721000,2.579475
7197.217352,302.773000,0.517747
7202.997854,302.826000,8.750772
7208.667324,302.878000,1.556327
7214.443819,302.931000,6.425926
7220.109360,302.983000,4.152778
7225.881853,303.036000,3.131173
7231.543468,303.088000,4.269290
7237.311962,303.141000,6.400463
7242.969657,303.193000,3.780864
7248.734156,303.246000,3.844907
7254.387934,303.298000,7.716049
7260.148443,303.351000,3.911265
7265.798308,303.403000,5.235340
7271.554831,303.456000,6.711420
7277.200787,303.508000,12.783179
7282.953328,303.561000,-4.079475
7288.595379,303.613000,1.034722
7294.235498,303.665000,5.950617
7299.982093,303.718000,7.160494
7305.618313,303.770000,5.455247
7311.252604,303.822000,-7.619599
7316.993262,303.875000,3.466821
7322.623660,303.927000,6.476852
7328.252131,303.979000,14.013889
7333.986862,304.032000,7.057870
7339.611446,304.084000,5.179784
7345.234108,304.136000,1.752315
7350.962920,304.189000,5.409722
7356.581700,304.241000,4.783179
7362.198561,304.293000,0.361883
7367.813502,304.345000,4.036265
7373.426525,304.397000,2.881944
7379.145517,304.450000,7.121142
7384.754669,304.502000,7.796296
7390.361906,304.554000,4.620370
7395.967228,304.606000,2.682870
7401.570637,304.658000,6.277006
7407.279836,304.711000,3.131173
7412.879384,304.763000,5.639660
7418.477021,304.815000,5.258488
7424.072749,304.867000,5.405093
7429.666569,304.919000,3.399691
7435.258480,304.971000,5.158179
7440.848486,305.023000,7.032407
7446.436585,305.075000,5.810185
7452.022780,305.127000,4.135031
7457.607071,305.179000,5.234568
7463.296795,305.232000,4.352623
7468.877245,305.284000,1.626543
7474.455794,305.336000,6.939043
7480.032444,305.388000,9.777006
7485.607195,305.440000,8.165895
7491.180048,305.492000,6.506173
7496.751004,305.544000,3.398148
7502.212985,305.595000,4.912809
7507.780187,305.647000,4.722222
7513.345495,305.699000,4.536265
7518.908909,305.751000,3.471451
7524.470432,305.803000,4.946759
7530.030064,305.855000,6.950617
7535.587805,305.907000,8.490741
7541.143658,305.959000,6.587963
7546.697622,306.011000,5.909722
7552.249699,306.063000,4.682870
7557.693173,306.114000,5.780864
7563.241514,306.166000,2.244599
7568.787971,306.218000,6.402778
7574.332545,306.270000,6.119599
7579.875237,306.322000,10.139660
7585.416047,306.374000,1.916667
7590.848476,306.425000,4.351080
7596.385562,306.477000,2.908951
7601.920769,306.529000,33.404321
7607.454098,306.581000,8.320216
7612.879195,306.632000,3.455247
7618.408808,306.684000,2.389660
7623.936546,306.736000,6.040895
7629.462411,306.788000,4.858796
7634.880189,306.839000,7.047840
7640.402345,306.891000,3.652778
7645.922629,306.943000,6.857253
7651.334938,306.994000,8.667438
7656.851519,307.046000,6.887346
7662.260197,307.097000,5.010802
7667.773079,307.149000,3.317901
7673.284094,307.201000,8.190586
7678.687317,307.252000,4.796296
7684.194638,307.304000,-0.740741
7689.700096,307.356000,-1.527778
7695.097870,307.407000,0.399691
7700.599639,307.459000,4.309414
7705.993798,307.510000,1.899691
7711.491883,307.562000,4.983025
7716.882430,307.613000,5.837191
7722.376833,307.665000,11.806327
7727.763772,307.716000,12.037037
7733.254498,307.768000,12.302469
7738.637831,307.819000,-3.473765
7744.124884,307.871000,-1.819444
7749.504617,307.922000,2.470679
7754.988000,307.974000,4.195216
7760.364134,308.025000,5.186728
7765.738489,308.076000,9.267747
7771.216392,308.128000,-1.320216
7776.587155,308.179000,7.459105
7782.061397,308.231000,7.717593
7787.428571,308.282000,8.380401
7792.793970,308.333000,8.758488
7798.262745,308.385000,6.645833
7803.624561,308.436000,3.373457
7808.984603,308.487000,-11.099537
7814.447920,308.539000,-4.189815
7819.804385,308.590000,5.145833
7825.159080,308.641000,3.209105
7830.616947,308.693000,3.875772
7835.968069,308.744000,7.508488
7841.317424,308.795000,3.710648
7846.665012,308.846000,6.247685
7852.115636,308.898000,-1.250772
7857.459659,308.949000,-33.459877
7862.801917,309.000000,-27.376543
7868.142413,309.051000,1.019290
7873.481146,309.102000,3.900463
7878.922746,309.154000,9.664352
7884.257923,309.205000,9.560957
7889.591340,309.256000,8.179012
7894.922998,309.307000,4.050154
7900.252898,309.358000,6.436728
7905.581041,309.409000,4.276235
7910.907428,309.460000,5.018519
7916.336447,309.512000,5.314043
7921.659290,309.563000,6.429784
7926.980379,309.614000,7.120370
7932.299715,309.665000,5.029321
7937.617300,309.716000,3.252315
7942.933134,309.767000,3.923611
7948.247217,309.818000,6.213735
7953.559551,309.869000,3.646605
7958.870137,309.920000,6.602623
7964.178976,309.971000,19.863426
7969.486068,310.022000,8.092593
7974.791414,310.073000,5.010802
7980.095015,310.124000,4.069444
7985.396872,310.175000,6.512346
7990.696985,310.226000,4.405093
7995.995357,310.277000,6.004630
8001.291987,310.328000,7.024691
8006.586876,310.379000,7.016204
8011.880026,310.430000,4.244599
8017.067700,310.480000,5.280093
8022.357406,310.531000,6.291667
8027.645376,310.582000,5.592593
8032.931609,310.633000,6.580247
8038.216106,310.684000,7.991512
8043.498869,310.735000,1.806327
8048.779898,310.786000,7.567901
8053.955695,310.836000,8.530864
8059.233293,310.887000,4.391975
8064.509160,310.938000,5.681327
8069.783296,310.989000,6.769290
8074.952339,311.039000,7.550154
8080.223051,311.090000,6.055556
8085.492035,311.141000,7.887346
8090.759292,311.192000,5.098765
8095.921594,311.242000,7.900463
8101.185433,311.293000,5.476080
8106.447548,311.344000,7.839506
8111.604811,311.394000,6.216821
8116.863513,311.445000,3.682099
8122.120493,311.496000,1.877315
8127.272724,311.546000,7.594136
8132.526297,311.597000,5.073302
8137.778150,311.648000,3.860340
8142.925357,311.698000,5.798611
8148.173807,311.749000,5.942901
8153.420541,311.800000,4.524691
8158.562731,311.850000,6.903549
8163.806066,311.901000,5.754630
8168.944927,311.951000,5.794753
8174.184869,312.002000,4.817901
8179.320403,312.052000,6.943673
8184.556953,312.103000,3.930556
8189.689165,312.153000,-5.545525
8194.922327,312.204000,2.614969
8200.051219,312.254000,3.861111
8205.280996,312.305000,3.248457
8210.406572,312.355000,5.668981
8215.632968,312.406000,4.432099
8220.755230,312.456000,6.645833
8225.978248,312.507000,6.374228
8231.097200,312.557000,2.017747
8236.316843,312.608000,0.954475
8241.432488,312.658000,3.449074
8246.546497,312.708000,5.324846
8251.761101,312.759000,7.652778
8256.871808,312.809000,6.287037
8261.980881,312.859000,2.636574
8267.190453,312.910000,6.586420
8272.296229,312.960000,0.072531
8277.400373,313.010000,7.037809
8282.604921,313.061000,3.739969
8287.705773,313.111000,7.829475
8292.804996,313.161000,4.358025
8298.004526,313.212000,7.115741
8303.100462,313.262000,6.642747
8308.194770,313.312000,2.710648
8313.287453,313.362000,7.492284
8318.480316,313.413000,8.709105
8323.569717,313.463000,6.364198
8328.657496,313.513000,5.430556
8333.743651,313.563000,8.064815
8338.828185,313.613000,6.077160
8344.012739,313.664000,7.757716
8349.094000,313.714000,5.113426
8354.173640,313.764000,7.091049
8359.251662,313.814000,6.013117
8364.328066,313.864000,2.633488
8369.402853,313.914000,9.050926
8374.476024,313.964000,5.175926
8379.547579,314.014000,4.910494
8384.718901,314.065000,8.476852
8389.787195,314.115000,3.009259
8394.853876,314.165000,6.793210
8399.918944,314.215000,5.710648
8404.982400,314.265000,6.391975
8410.044246,314.315000,5.059414
8415.104481,314.365000,4.940586
8420.163107,314.415000,5.000772
8425.220124,314.465000,7.161265
8430.275533,314.515000,6.080247
8435.329336,314.565000,-1.618056
8440.381532,314.615000,4.815586
8445.432122,314.665000,5.792438
8450.481107,314.715000,13.274691
8455.528489,314.765000,8.354167
8460.473367,314.814000,6.064043
8465.517575,314.864000,7.918210
8470.560181,314.914000,8.754630
8475.601186,314.964000,9.224537
8480.640590,315.014000,10.847222
8485.678395,315.064000,15.368056
8490.714602,315.114000,7.952160
8495.749210,315.164000,6.706019
8500.681577,315.213000,9.450617
8505.713024,315.263000,9.932870
8510.742875,315.313000,5.201389
8515.771131,315.363000,3.949846
8520.797793,315.413000,6.537037
8525.722375,315.462000,5.680556
8530.745883,315.512000,4.499228
8535.767799,315.562000,9.735340
8540.788124,315.612000,4.053241
8545.706499,315.661000,7.317901
8550.723675,315.711000,6.667438
8555.739262,315.761000,6.933642
8560.652997,315.810000,6.830247
8565.665441,315.860000,7.986111
8570.676298,315.910000,5.273920
8575.585399,315.959000,7.196759
8580.593116,316.009000,11.219136
8585.599249,316.059000,4.463735
8590.503723,316.108000,9.408951
8595.506721,316.158000,7.180556
8600.508137,316.208000,6.890432
8605.407991,316.257000,6.837963
8610.406276,316.307000,5.718364
8615.303063,316.356000,6.359568
8620.298221,316.406000,8.622685
8625.191944,316.455000,6.944444
8630.183977,316.505000,9.195216
8635.074640,316.554000,5.239198
8640.063551,316.604000,6.641975
8644.951156,316.653000,6.506173
8649.936949,316.703000,5.362654
8654.821499,316.752000,8.682099
8659.804175,316.802000,5.461420
8664.685673,316.851000,10.500772
8669.665237,316.901000,10.204475
8674.543685,316.950000,7.789352
8679.520139,317.000000,11.392747
8684.395541,317.049000,19.143519
8689.269436,317.098000,6.166667
8694.241247,317.148000,2.010031
8699.112100,317.197000,6.938272
8703.981448,317.246000,6.118056
8708.948621,317.296000,8.094136
8713.814931,317.345000,-1.343364
8718.779005,317.395000,3.426698
8723.642281,317.444000,7.063272
8728.504055,317.493000,8.867284
8733.364329,317.542000,16.703704
8738.322247,317.592000,9.960648
8743.179491,317.641000,9.124228
8748.035237,317.690000,9.479938
8752.889486,317.739000,8.405093
8757.841258,317.789000,9.960648
8762.692483,317.838000,9.252315
8767.542212,317.887000,15.388117
8772.390446,317.936000,19.097994
8777.336084,317.986000,22.320988
8782.181300,318.035000,19.972994
8787.025024,318.084000,14.566358
8791.867255,318.133000,24.095679
8796.707995,318.182000,32.905093
8801.547244,318.231000,19.908179
8806.385003,318.280000,20.773148
8811.319957,318.330000,19.277006
8816.154708,318.379000,19.245370
8820.987971,318.428000,25.138889
8825.819746,318.477000,33.486111
8830.650035,318.526000,27.406636
8835.478838,318.575000,13.368827
8840.306156,318.624000,24.090278
8845.131990,318.673000,32.874228
8849.956339,318.722000,19.496914
8854.779206,318.771000,27.850309
8859.600590,318.820000,21.367284
8864.420492,318.869000,24.931327
8869.238913,318.918000,23.408951
8874.055854,318.967000,27.776235
8878.871314,319.016000,12.657407
8883.685296,319.065000,8.937500
8888.497800,319.114000,16.240741
8893.308826,319.163000,11.747685
8898.118374,319.212000,11.813272
8902.926447,319.261000,10.867284
8907.634964,319.309000,10.395833
8912.440116,319.358000,10.405864
8917.243794,319.407000,14.374228
8922.045998,319.456000,12.440586
8926.846729,319.505000,8.175926
8931.645988,319.554000,4.238426
8936.443775,319.603000,-0.156636
8941.142222,319.651000,25.457562
8945.937098,319.700000,30.846451
8950.730504,319.749000,8.406636
8955.522441,319.798000,6.766204
8960.215161,319.846000,7.603395
8965.004192,319.895000,9.888889
8969.791757,319.944000,10.858796
8974.577855,319.993000,9.851080
8979.264858,320.041000,8.098765
8984.048055,320.090000,9.831790
8988.829789,320.139000,13.452932
8993.512517,320.187000,11.983025
8998.291355,320.236000,10.290123
9003.068730,320.285000,12.004630
9007.747190,320.333000,7.871914
9012.521672,320.382000,4.347994
9017.294694,320.431000,1.511574
9021.968893,320.479000,5.847994
9026.739026,320.528000,9.644290
9031.410396,320.576000,9.297068
9036.177644,320.625000,14.370370
9040.943434,320.674000,10.598765
9045.610552,320.722000,13.682870
9050.373460,320.771000,10.235340
9055.037756,320.819000,8.888889
9059.797784,320.868000,7.659722
9064.459261,320.916000,4.749228
9069.216413,320.965000,10.910494
9073.875072,321.013000,10.044753
9078.629350,321.062000,9.395833
9083.285194,321.110000,7.964506
9088.036601,321.159000,10.336420
9092.689634,321.207000,10.718364
9097.438171,321.256000,10.841049
9102.088394,321.304000,11.470679
9106.737229,321.352000,9.032407
9111.481482,321.401000,6.912037
9116.127511,321.449000,9.736883
9120.868902,321.498000,11.435185
9125.512128,321.546000,7.238426
9130.153968,321.594000,8.728395
9134.891085,321.643000,8.493056
9139.530126,321.691000,10.509259
9144.167783,321.739000,12.681327
9148.900630,321.788000,7.855710
9153.535492,321.836000,10.174383
9158.168971,321.884000,8.591821
9162.801069,321.932000,6.883488
9167.528244,321.981000,7.173611
9172.157551,322.029000,15.445216
9176.785479,322.077000,10.355710
9181.412027,322.125000,7.863426
9186.133540,322.174000,6.256173
9190.757302,322.222000,5.797840
9195.379688,322.270000,8.495370
9200.000697,322.318000,9.152006
9204.620330,322.366000,9.982253
9209.334786,322.415000,10.971451
9213.951640,322.463000,8.272377
9218.567119,322.511000,8.238426
9223.181225,322.559000,8.787037
9227.793957,322.607000,9.246142
9232.405318,322.655000,7.114198
9237.015306,322.703000,8.348765
9241.623923,322.751000,11.885031
9246.231170,322.799000,12.867284
9250.932988,322.848000,10.630401
9255.537466,322.896000,2.410494
9260.140576,322.944000,11.528549
9264.742318,322.992000,10.671296
9269.342693,323.040000,10.433642
9273.941700,323.088000,11.437500
9278.539341,323.136000,10.162037
9283.135616,323.184000,16.875000
9287.730527,323.232000,16.152778
9292.324072,323.280000,33.220679
9296.916254,323.328000,15.936728
9301.411445,323.375000,15.766975
9306.000929,323.423000,22.126543
9310.589052,323.471000,42.402006
9315.175812,323.519000,13.788580
9319.761212,323.567000,13.655864
9324.345252,323.615000,13.657407
9328.927932,323.663000,15.108796
9333.509253,323.711000,15.168981
9338.089216,323.759000,10.345679
9342.572447,323.806000,15.631944
9347.149722,323.854000,14.364198
9351.725642,323.902000,7.962191
9356.300205,323.950000,10.166667
9360.873412,323.998000,11.659722
9365.350032,324.045000,9.750000
9369.920559,324.093000,7.790895
9374.489732,324.141000,4.498457
9379.057552,324.189000,-3.945216
9383.528899,324.236000,10.217593
9388.094043,324.284000,10.717593
9392.657836,324.332000,11.707562
9397.125241,324.379000,18.347994
9401.686361,324.427000,13.837191
9406.246132,324.475000,17.805556
9410.804554,324.523000,13.388889
9415.266702,324.570000,15.253086
9419.822456,324.618000,19.391204
9424.281993,324.665000,16.423611
9428.835082,324.713000,14.793210
9433.386824,324.761000,13.916667
9437.842435,324.808000,11.280093
9442.391516,324.856000,13.770062
9446.844521,324.903000,11.642747
9451.390942,324.951000,12.439815
9455.936020,324.999000,10.047068
9460.385108,325.046000,13.375000
9464.927530,325.094000,15.476080
9469.374018,325.141000,14.993056
9473.913786,325.189000,9.672068
9478.357677,325.236000,11.304012
9482.894794,325.284000,12.747685
9487.336090,325.331000,11.394290
9491.870557,325.379000,11.875772
9496.309260,325.426000,8.591049
9500.746681,325.473000,12.021605
9505.277193,325.521000,11.273148
9509.712024,325.568000,11.037809
9514.239893,325.616000,17.985340
9518.672137,325.663000,10.097222
9523.103102,325.710000,9.774691
9527.627024,325.758000,14.678241
9532.055405,325.805000,12.297068
9536.576689,325.853000,13.575617
9541.002489,325.900000,9.786265
9545.427013,325.947000,5.618827
9549.850260,325.994000,12.711420
9554.366303,326.042000,8.065586
9558.786974,326.089000,12.706790
9563.206371,326.136000,13.344136
9567.718482,326.184000,12.391204
9572.135305,326.231000,4.844136
9576.550855,326.278000,8.451389
9580.965134,326.325000,13.034722
9585.472021,326.373000,14.668981
9589.883730,326.420000,11.891204
9594.294169,326.467000,10.758488
9598.703338,326.514000,11.286265
9603.111238,326.561000,13.626543
9607.611614,326.609000,12.711420
9612.016950,326.656000,12.253858
9616.421019,326.703000,16.122685
9620.823821,326.750000,12.564815
9625.225356,326.797000,10.081790
9629.625626,326.844000,10.451389
9634.024630,326.891000,12.371142
9638.422369,326.938000,11.452160
9642.818845,326.985000,11.378086
9647.214056,327.032000,14.050154
9651.701479,327.080000,11.874228
9656.094138,327.127000,16.912809
9660.485535,327.174000,30.085648
9664.875670,327.221000,13.118827
9669.264544,327.268000,12.802469
9673.652158,327.315000,12.249228
9678.038512,327.362000,15.909722
9682.423607,327.409000,14.773148
9686.807443,327.456000,18.779321
9691.190021,327.503000,13.744599
9695.478134,327.549000,15.628858
9699.858224,327.596000,13.027006
9704.237057,327.643000,14.016975
9708.614633,327.690000,11.468364
9712.990955,327.737000,13.527006
9717.366021,327.784000,12.623457
9721.739833,327.831000,15.233796
9726.112390,327.878000,13.316358
9730.483695,327.925000,3.973765
9734.760780,327.971000,21.402778
9739.129606,328.018000,12.940586
9743.497180,328.065000,8.540895
9747.863503,328.112000,11.627315
9752.228575,328.159000,16.238426
9756.499562,328.205000,13.712963
9760.862161,328.252000,13.459105
9765.223511,328.299000,9.915123
9769.583612,328.346000,13.543981
9773.849737,328.392000,13.681327
9778.207369,328.439000,14.277778
9782.563754,328.486000,18.025463
9786.918893,328.533000,13.525463
9791.180163,328.579000,14.608796
9795.532837,328.626000,11.015432
9799.884266,328.673000,12.240741
9804.141906,328.719000,13.030864
9808.490874,328.766000,13.922840
9812.838598,328.813000,15.594907
9817.092614,328.859000,9.440586
9821.437879,328.906000,13.327932
9825.689490,328.952000,20.841049
9830.032299,328.999000,15.993827
9834.373868,329.046000,12.468364
9838.621862,329.092000,15.612654
9842.960977,329.139000,12.547068
9847.206571,329.185000,13.154321
9851.543235,329.232000,11.721451
9855.786431,329.278000,13.709105
9860.120646,329.325000,14.847222
9864.361446,329.371000,17.108025
9868.693214,329.418000,34.581019
9872.931619,329.464000,17.142747
9877.260942,329.511000,15.732253
9881.496956,329.557000,16.639660
9885.823836,329.604000,17.678241
9890.057460,329.650000,15.869599
9894.289903,329.696000,13.246142
9898.613135,329.743000,13.769290
9902.843191,329.789000,17.308642
9907.163985,329.836000,12.627315
9911.391656,329.882000,15.498457
9915.618148,329.928000,15.854167
9919.935303,329.975000,15.446759
9924.159413,330.021000,13.148920
9928.382346,330.067000,13.974537
9932.695866,330.114000,11.888889
9936.916419,330.160000,12.666667
9941.135797,330.206000,15.202160
9945.445687,330.253000,13.186728
9949.662689,330.299000,15.967593
9953.878516,330.345000,17.233025
9958.093170,330.391000,40.318673
9962.398234,330.438000,21.193673
9966.610516,330.484000,18.572531
9970.821625,330.530000,16.796296
9975.031562,330.576000,16.492284
9979.240328,330.622000,14.682870
9983.539380,330.669000,16.770833
9987.745778,330.715000,15.447531
9991.951007,330.761000,12.462963
9996.155067,330.807000,16.936728
10000.357957,330.853000,16.272377
10004.559679,330.899000,28.581019
10008.760233,330.945000,34.680556
10013.050897,330.992000,37.854938
10017.249091,331.038000,25.512346
10021.446118,331.084000,18.596451
10025.641979,331.130000,16.114969
10029.836675,331.176000,17.829475
10034.030205,331.222000,18.145062
10038.222571,331.268000,16.492284
10042.413773,331.314000,18.864969
10046.603811,331.360000,12.476852
10050.792686,331.406000,14.308642
10054.980398,331.452000,19.683642
10059.166948,331.498000,15.097994
10063.352336,331.544000,16.626543
10067.536563,331.590000,15.778549
10071.719629,331.636000,16.840278
10075.901535,331.682000,27.486883
10080.082281,331.728000,17.179784
10084.261868,331.774000,12.373457
10088.440296,331.820000,16.354938
10092.526768,331.865000,15.172840
10096.702905,331.911000,16.834105
10100.877884,331.957000,9.657407
10105.051707,332.003000,10.238426
10109.224373,332.049000,11.351080
10113.395884,332.095000,16.285494
10117.475591,332.140000,17.248457
10121.644816,332.186000,17.478395
10125.812886,332.232000,15.631944
10129.979802,332.278000,12.942901
10134.145565,332.324000,17.222222
10138.219652,332.369000,19.047068
10142.383134,332.415000,19.105710
10146.545464,332.461000,14.385031
10150.706643,332.507000,15.807870
10154.776247,332.552000,17.087963
10158.935148,332.598000,15.856481
10163.092900,332.644000,17.655093
10167.159152,332.689000,20.830247
10171.314630,332.735000,19.052469
10175.468958,332.781000,14.585648
10179.531864,332.826000,17.105710
10183.683921,332.872000,15.317901
10187.834831,332.918000,19.154321
10191.894393,332.963000,17.537037
10196.043035,333.009000,18.920525
10200.190530,333.055000,17.521605
10204.246754,333.100000,15.879630
10208.391984,333.146000,15.587963
10212.445992,333.191000,23.156636
10216.588958,333.237000,16.946759
10220.640753,333.282000,16.111111
10224.781457,333.328000,21.198302
10228.831039,333.373000,23.652006
10232.969483,333.419000,18.183642
10237.016856,333.464000,18.793981
10241.153042,333.510000,17.534722
10245.198206,333.555000,16.221451
10249.332135,333.601000,22.190586
10253.375094,333.646000,19.195988
10257.506768,333.692000,18.942901
10261.547522,333.737000,13.864969
10265.587186,333.782000,18.157407
10269.715494,333.828000,18.300154
10273.752956,333.873000,15.050154
10277.879015,333.919000,18.694444
10281.914277,333.964000,17.678241
10285.948452,334.009000,17.611111
10290.071151,334.055000,18.497685
10294.103128,334.100000,13.351080
10298.134020,334.145000,16.162037
10302.253364,334.191000,12.949846
10306.282060,334.236000,18.132716
10310.309672,334.281000,15.743056
10314.425666,334.327000,18.434414
10318.451085,334.372000,15.391975
10322.475422,334.417000,16.658179
10326.498675,334.462000,14.416667
10330.610215,334.508000,13.415895
10334.631280,334.553000,15.648148
10338.651263,334.598000,24.516975
10342.670165,334.643000,20.202160
10346.687987,334.688000,20.904321
10350.704728,334.733000,21.772377
10354.809614,334.779000,18.960648
10358.824172,334.824000,16.768519
10362.837651,334.869000,17.104938
10366.850051,334.914000,12.581019
10370.861373,334.959000,5.180556
10374.871618,335.004000,19.520833
10378.880786,335.049000,22.979938
10382.888876,335.094000,20.639660
10386.984923,335.140000,20.158951
10390.990838,335.185000,15.445988
10394.995677,335.230000,17.304784
10398.999440,335.275000,18.270833
10403.002130,335.320000,18.324074
10407.003745,335.365000,16.733796
10411.004286,335.410000,18.108796
10415.003755,335.455000,19.256173
10419.002150,335.500000,17.602623
10422.999473,335.545000,18.658179
10426.995723,335.590000,19.273920
10430.990902,335.635000,17.645833
10434.985010,335.680000,17.679784
10438.889325,335.724000,16.672068
10442.881316,335.769000,18.507716
10446.872237,335.814000,16.641975
10450.862088,335.859000,20.194444
10454.850871,335.904000,19.714506
10458.838585,335.949000,17.609568
10462.825230,335.994000,20.930556
10466.810808,336.039000,15.861883
10470.706786,336.083000,17.110340
10474.690253,336.128000,15.906636
10478.672654,336.173000,18.618056
10482.653989,336.218000,19.547068
10486.634259,336.263000,16.050926
10490.525048,336.307000,17.810185
10494.503211,336.352000,18.521605
10498.480310,336.397000,19.024691
10502.456345,336.442000,21.281636
10506.342995,336.486000,16.171296
10510.316927,336.531000,17.430556
10514.289797,336.576000,17.640432
10518.261604,336.621000,17.855710
10522.144122,336.665000,21.123457
10526.113830,336.710000,20.197531
10530.082477,336.755000,15.555556
10533.961906,336.799000,16.405093
10537.928455,336.844000,18.898148
10541.893946,336.889000,19.182099
10545.770289,336.933000,16.777778
10549.733685,336.978000,14.703704
10553.607982,337.022000,18.266204
10557.569284,337.067000,17.293210
10561.529529,337.112000,20.158951
10565.400747,337.156000,19.143519
10569.358902,337.201000,19.646605
10573.228076,337.245000,17.722222
10577.184142,337.290000,24.375772
10581.051275,337.334000,25.419753
10585.005254,337.379000,20.416667
10588.870347,337.423000,17.868056
10592.822240,337.468000,17.701389
10596.685295,337.512000,19.870370
10600.635105,337.557000,17.150463
10604.496123,337.601000,14.735340
10608.443850,337.646000,13.543210
10612.302834,337.690000,16.817901
10616.160811,337.734000,17.637346
10620.105430,337.779000,11.915895
10623.961375,337.823000,9.795525
10627.903916,337.868000,9.461420
10631.757830,337.912000,3.281636
10635.610740,337.956000,-1.928241
10639.550179,338.001000,2.631173
10643.401061,338.045000,1.040895
10647.250940,338.089000,4.064815
10651.187281,338.134000,-2.539352
10655.035134,338.178000,-1.318673
10658.881986,338.222000,-0.126543
10662.815231,338.267000,-3.003858
10666.660059,338.311000,0.046296
10670.503887,338.355000,-3.771605
10674.346716,338.399000,-2.587963
10678.275848,338.444000,-0.846451
10682.116656,338.488000,3.686728
10685.956465,338.532000,16.538580
10689.795276,338.576000,0.556327
10693.633090,338.620000,1.960648
10697.557096,338.665000,-1.969907
10701.392893,338.709000,-3.183642
10705.227693,338.753000,-2.591049
10709.061498,338.797000,0.132716
10712.894307,338.841000,1.298611
10716.726120,338.885000,2.851852
10720.556939,338.929000,1.093364
10724.386763,338.973000,4.097994
10728.302601,339.018000,1.742284
10732.130414,339.062000,0.964506
10735.957235,339.106000,-1.824074
10739.783062,339.150000,-0.510802
10743.607897,339.194000,2.644290
10747.431740,339.238000,2.181327
10751.254591,339.282000,0.875772
10755.076450,339.326000,-0.465278
10758.897319,339.370000,-1.101852
10762.717197,339.414000,0.898148
10766.536084,339.458000,0.824846
10770.353982,339.502000,0.945988
10774.170890,339.546000,2.648148
10777.986809,339.590000,1.513117
10781.801740,339.634000,3.606481
10785.615682,339.678000,12.844136
10789.341989,339.721000,-0.395062
10793.153978,339.765000,2.250000
10796.964980,339.809000,0.505401
10800.774995,339.853000,1.013889
10804.584024,339.897000,-0.366512
10808.392066,339.941000,-0.504630
10812.199123,339.985000,-0.047068
10816.005195,340.029000,-1.306327
10819.723813,340.072000,1.482253
10823.527938,340.116000,-1.004630
10827.331078,340.160000,2.165895
10831.133235,340.204000,1.532407
10834.848029,340.247000,0.300154
10838.648242,340.291000,0.696759
10842.447472,340.335000,-0.079475
10846.245720,340.379000,-1.016975
10849.956695,340.422000,-2.086420
10853.753002,340.466000,-0.381173
10857.548328,340.510000,-0.948302
10861.342673,340.554000,-0.439043
10865.049836,340.597000,0.534722
10868.842243,340.641000,2.218364
10872.633670,340.685000,2.751543
10876.337983,340.728000,2.443673
10880.127474,340.772000,1.611111
10883.829896,340.815000,-1.707562
10887.617453,340.859000,3.476852
10891.404033,340.903000,-0.927469
10895.103609,340.946000,-8.760802
10898.888257,340.990000,-2.695988
10902.585946,341.033000,1.904321
10906.368663,341.077000,0.981481
10910.150404,341.121000,0.926698
10913.845254,341.164000,-4.546296
10917.625066,341.208000,-13.527778
10921.318033,341.251000,-19.075617
10925.095918,341.295000,-0.738426
10928.787002,341.338000,1.010031
10932.562962,341.382000,-0.314815
10936.252165,341.425000,1.824074
10939.940439,341.468000,1.951389
10943.713524,341.512000,2.121914
10947.399919,341.555000,-2.049383
10951.171083,341.599000,-0.285494
10954.855601,341.642000,-1.217593
10958.624845,341.686000,0.089506
10962.307486,341.729000,2.042438
10965.989201,341.772000,-0.540123
10969.755578,341.816000,1.094136
10973.435419,341.859000,0.097222
10977.114334,341.902000,-2.718364
10980.877848,341.946000,-2.159722
10984.554892,341.989000,-1.003858
10988.231011,342.032000,2.944444
10991.991665,342.076000,1.141975
10995.665914,342.119000,1.746914
10999.339240,342.162000,-1.549383
11003.011643,342.205000,0.053241
11006.768496,342.249000,0.645062
11010.439032,342.292000,4.280093
11014.108646,342.335000,2.274691
11017.777338,342.378000,-0.860340
11021.530396,342.422000,1.338735
11025.197224,342.465000,2.199846
11028.863132,342.508000,0.299383
11032.528119,342.551000,-0.435957
11036.192187,342.594000,-2.309414
11039.855335,342.637000,-8.000772
11043.602720,342.681000,-4.371914
11047.264009,342.724000,-1.915123
11050.924378,342.767000,0.104167
11054.583829,342.810000,1.908951
11058.242363,342.853000,-0.157407
11061.899979,342.896000,-1.337963
11065.556677,342.939000,3.572531
11069.212459,342.982000,1.047840
11072.867324,343.025000,1.106481
11076.521273,343.068000,0.631173
11080.174306,343.111000,-0.635802
11083.826423,343.154000,1.880401
11087.477626,343.197000,1.854167
11091.127913,343.240000,0.931327
11094.777286,343.283000,1.446759
11098.425745,343.326000,-5.799383
11102.073291,343.369000,-3.155864
11105.719922,343.412000,1.243056
11109.365641,343.455000,0.635031
11113.010447,343.498000,1.770833
11116.654340,343.541000,4.343364
11120.297322,343.584000,0.916667
11123.939391,343.627000,5.740741
11127.580549,343.670000,9.089506
11131.220797,343.713000,3.601080
11134.775508,343.755000,2.979938
11138.413955,343.798000,2.628086
11142.051492,343.841000,1.614969
11145.688120,343.884000,-0.193673
11149.323838,343.927000,0.172068
11152.958647,343.970000,0.635802
11156.508049,344.012000,0.270062
11160.141062,344.055000,3.364198
11163.773167,344.098000,-3.837191
11167.404365,344.141000,-1.162037
11170.950240,344.183000,1.752315
11174.579645,344.226000,1.047068
11178.208143,344.269000,-0.977623
11181.751382,344.311000,0.864969
11185.378088,344.354000,0.359568
11189.003889,344.397000,3.511574
11192.628785,344.440000,-1.243056
11196.168507,344.482000,1.827932
11199.791614,344.525000,-2.415895
11203.413817,344.568000,3.401235
11206.950910,344.610000,0.090278
11210.571327,344.653000,-2.158179
11214.106675,344.695000,-1.409722
11217.725306,344.738000,-4.655093
11221.343035,344.781000,1.216821
11224.875759,344.823000,0.780864
11228.491704,344.866000,0.757716
11232.022687,344.908000,-4.386574
11235.636851,344.951000,-0.793981
11239.166094,344.993000,-0.205247
11242.778477,345.036000,-0.449846
11246.305982,345.078000,-1.888117
11249.916585,345.121000,2.267747
11253.442353,345.163000,-1.345679
11257.051178,345.206000,10.093364
11260.575210,345.248000,3.385031
11264.182259,345.291000,0.368056
11267.704555,345.333000,-1.493827
11271.309829,345.376000,-1.185957
11274.830392,345.418000,3.902006
11278.350100,345.460000,-1.503086
11281.952723,345.503000,-20.699074
11285.470699,345.545000,-6.199074
11288.987820,345.587000,0.056327
11292.587796,345.630000,-4.378858
11296.103187,345.672000,-0.819444
11299.701393,345.715000,2.888117
11303.215056,345.757000,1.690586
11306.727865,345.799000,2.813272
11310.239821,345.841000,-0.189815
11313.834512,345.884000,-1.918981
11317.344742,345.926000,0.101852
11320.854120,345.968000,-1.819444
11324.446172,346.011000,2.611111
11327.953826,346.053000,0.725309
11331.460629,346.095000,0.932870
11334.966581,346.137000,0.773920
11338.471682,346.179000,-6.555556
11342.059357,346.222000,-1.535494
11345.562737,346.264000,-1.810185
11349.065268,346.306000,-0.418210
11352.566949,346.348000,1.214506
11356.067781,346.390000,-0.665895
11359.567764,346.432000,-0.386574
11363.150201,346.475000,-0.608796
11366.648467,346.517000,-0.888889
11370.145885,346.559000,1.206019
11373.642456,346.601000,1.958333
11377.138179,346.643000,10.275463
11380.633055,346.685000,6.431327
11384.127085,346.727000,7.158951
11387.620268,346.769000,3.204475
11391.112605,346.811000,1.668210
11394.604096,346.853000,4.177469
11398.094742,346.895000,-0.457562
11401.584543,346.937000,0.253086
11405.073499,346.979000,0.026235
11408.561610,347.021000,2.260802
11412.048877,347.063000,-2.624228
11415.535301,347.105000,-5.591049
11419.020880,347.147000,-0.108796
11422.505617,347.189000,-2.712963
11425.989510,347.231000,-3.856481
11429.472560,347.273000,-1.007716
11432.954769,347.315000,3.807099
11436.436135,347.357000,-1.819444
11439.916659,347.399000,2.858025
11443.313502,347.440000,-1.599537
11446.792364,347.482000,0.298611
11450.270384,347.524000,-3.294753
11453.747565,347.566000,-3.271605
11457.223905,347.608000,-3.440586
11460.699405,347.650000,0.429012
11464.091345,347.691000,0.878858
11467.565186,347.733000,-3.632716
11471.038188,347.775000,-7.425926
11474.510351,347.817000,-2.250000
11477.981676,347.859000,-0.639660
11481.369541,347.900000,-1.872685
11484.839210,347.942000,-5.866512
11488.308041,347.984000,-0.978395
11491.693473,348.025000,-0.136574
11495.160650,348.067000,-2.534722
11498.626991,348.109000,-1.361883
11502.092494,348.151000,-0.567901
11505.474680,348.192000,-0.283179
11508.938532,348.234000,-2.306327
11512.401549,348.276000,-1.182870
11515.781307,348.317000,-8.103395
11519.242673,348.359000,0.882716
11522.620821,348.400000,0.010031
11526.080539,348.442000,-1.503858
11529.539422,348.484000,-0.703704
11532.915148,348.525000,0.969907
11536.372384,348.567000,-0.293210
11539.746502,348.608000,-3.091049
11543.202092,348.650000,2.162037
11546.574604,348.691000,-1.375000
11550.028550,348.733000,0.051698
11553.399456,348.774000,-3.195988
11556.851758,348.816000,1.458333
11560.221061,348.857000,-0.815586
11563.671720,348.899000,-0.475309
11567.039420,348.940000,-2.990741
11570.488439,348.982000,-2.965278
11573.854537,349.023000,-6.885802
11577.301915,349.065000,-4.138117
11580.666413,349.106000,-0.474537
11584.030120,349.147000,-3.584877
11587.475051,349.189000,-4.364969
11590.837159,349.230000,2.067130
11594.280452,349.272000,-1.679784
11597.640963,349.313000,-0.242284
11601.000686,349.354000,0.920525
11604.441535,349.396000,-2.530864
11607.799661,349.437000,0.236111
11611.157000,349.478000,1.612654
11614.595408,349.520000,1.166667
11617.951152,349.561000,-4.538580
11621.306109,349.602000,-1.198302
11624.660280,349.643000,-0.600309
11628.095443,349.685000,0.054012
11631.448022,349.726000,0.493056
11634.799814,349.767000,-0.319444
11638.150821,349.808000,-2.879630
11641.582745,349.850000,3.350309
11644.932162,349.891000,-4.152006
11648.280794,349.932000,0.564815
11651.628641,349.973000,-5.400463
11654.975704,350.014000,-14.844136
11658.403590,350.056000,-5.001543
11661.749066,350.097000,-3.003086
11665.093759,350.138000,-1.969136
11668.437668,350.179000,0.708333
11671.780795,350.220000,-1.804012
11675.123139,350.261000,-1.507716
11678.464700,350.302000,-3.283951
11681.805480,350.343000,-8.375000
11685.145477,350.384000,-1.212963
11688.484693,350.425000,-1.260031
11691.904543,350.467000,2.179784
11695.242178,350.508000,-1.343364
11698.579032,350.549000,-1.363426
11701.915105,350.590000,-0.482253
11705.250398,350.631000,-3.375000
11708.584912,350.672000,-0.287037
11711.918645,350.713000,-2.447531
11715.251600,350.754000,-2.280093
11718.502512,350.794000,3.369599
11721.833927,350.835000,0.889660
11725.164564,350.876000,0.724537
11728.494422,350.917000,-3.400463
11731.823503,350.958000,-1.796296
11735.151806,350.999000,-0.185957
11738.479331,351.040000,1.630401
11741.806079,351.081000,0.757716
11745.132050,351.122000,-1.683642
11748.457245,351.163000,-0.238426
11751.700589,351.203000,-1.114198
11755.024250,351.244000,-0.381944
11758.347135,351.285000,0.454475
11761.669245,351.326000,-3.358796
11764.990579,351.367000,-3.746914
11768.230159,351.407000,-3.114198
11771.549962,351.448000,-2.962963
11774.868991,351.489000,-2.878086
11778.187246,351.530000,-13.459877
11781.423822,351.570000,-4.290123
11784.740548,351.611000,1.472222
11788.056500,351.652000,-2.514660
11791.371680,351.693000,-0.552469
11794.605256,351.733000,-3.128086
11797.918909,351.774000,-1.483025
11801.231790,351.815000,-3.054784
11804.463124,351.855000,-2.672840
11807.774479,351.896000,-6.734568
11811.085063,351.937000,-2.293210
11814.314158,351.977000,2.476080
11817.623218,352.018000,0.537809
11820.850827,352.058000,-1.574074
11824.158365,352.099000,0.298611
11827.465133,352.140000,-0.642747
11830.690506,352.180000,0.023920
11833.995753,352.221000,-0.358796
11837.219643,352.261000,-1.432870
11840.523370,352.302000,1.007716
11843.745778,352.342000,-1.959105
11847.047986,352.383000,-1.846451
11850.268913,352.423000,-3.391204
11853.569603,352.464000,-7.398920
11856.789050,352.504000,1.004630
11860.088224,352.545000,-1.394290
11863.306191,352.585000,-3.617284
11866.603850,352.626000,0.248457
11869.820339,352.666000,1.347994
11873.116483,352.707000,1.474537
11876.331495,352.747000,-2.587191
11879.545777,352.787000,0.383488
11882.839661,352.828000,0.927469
11886.052468,352.868000,-0.590278
11889.264547,352.908000,-0.088735
11892.556173,352.949000,0.324846
11895.766777,352.989000,-2.400463
11899.056892,353.030000,-0.273920
11902.266024,353.070000,-0.903549
11905.474429,353.110000,-1.842593
11908.682107,353.150000,-1.537809
11911.969223,353.191000,-1.678241
11915.175430,353.231000,-1.520062
11918.380911,353.271000,-1.270833
11921.665775,353.312000,-1.099537
11924.869787,353.352000,-0.600309
11928.073073,353.392000,7.425154
11931.275634,353.432000,-1.965278
11934.477470,353.472000,-0.555556
11937.758600,353.513000,-5.692901
11940.958969,353.553000,-1.794753
11944.158614,353.593000,-1.849537
11947.357536,353.633000,-14.691358
11950.555733,353.673000,-12.592593
11953.753208,353.713000,-1.006944
11957.029868,353.754000,-1.375000
11960.225879,353.794000,-0.033179
11963.421166,353.834000,-1.158951
11966.615732,353.874000,-0.635031
11969.809575,353.914000,-0.551698
11973.002696,353.954000,-2.245370
11976.195096,353.994000,-2.757716
11979.386774,354.034000,-3.952160
11982.577731,354.074000,-2.280093
11985.767968,354.114000,-0.110340
11988.957483,354.154000,-2.104167
11992.146279,354.194000,-1.702160
11995.334354,354.234000,-0.513117
11998.521709,354.274000,-5.461420
12001.708345,354.314000,-4.926698
12004.894261,354.354000,-1.561728
12008.079458,354.394000,-1.917438
12011.263936,354.434000,-1.672840
12014.447695,354.474000,0.581790
12017.630736,354.514000,-1.140432
12020.813059,354.554000,-4.321759
12023.994663,354.594000,-3.100309
12027.175550,354.634000,-0.516975
12030.276224,354.673000,-4.828704
12033.455694,354.713000,0.546296
12036.634448,354.753000,-2.124228
12039.812484,354.793000,-4.247685
12042.989804,354.833000,0.070216
12046.166408,354.873000,-3.614969
12049.262907,354.912000,-0.902778
12052.438097,354.952000,-1.577160
12055.612571,354.992000,2.506944
12058.786330,355.032000,-1.783179
12061.880056,355.071000,-1.966821
12065.052403,355.111000,-5.299383
12068.224035,355.151000,27.461420
12071.394953,355.191000,-1.378858
12074.485910,355.230000,-2.456019
12077.655418,355.270000,-7.204475
12080.824212,355.310000,-7.034722
12083.913100,355.349000,-3.333333
12087.080485,355.389000,-1.889660
12090.247158,355.429000,-3.236111
12093.333977,355.468000,-2.551698
12096.499242,355.508000,0.782407
12099.663795,355.548000,0.818673
12102.748549,355.587000,0.184414
12105.911696,355.627000,-0.817130
12108.995079,355.666000,0.736111
12112.156822,355.706000,-0.564815
12115.317853,355.746000,-1.697531
12118.399174,355.785000,0.260802
12121.558801,355.825000,0.101080
12124.638754,355.864000,0.368056
12127.796979,355.904000,-0.191358
12130.875565,355.943000,-0.803241
12134.032389,355.983000,-0.548611
12137.109608,356.022000,-0.287037
12140.265031,356.062000,-0.207562
12143.340885,356.101000,0.709105
12146.494908,356.141000,0.412809
12149.569398,356.180000,-0.301698
12152.643215,356.219000,-1.171296
12155.795149,356.259000,0.302469
12158.867603,356.298000,-0.365741
12162.018139,356.338000,-0.245370
12165.089231,356.377000,-0.763889
12168.159651,356.416000,-1.378858
12171.308101,356.456000,-0.919753
12174.377160,356.495000,-1.264660
12177.445548,356.534000,-0.724537
12180.591915,356.574000,0.672840
12183.658943,356.613000,0.074074
12186.725300,356.652000,0.892747
12189.869585,356.692000,0.267747
12192.934585,356.731000,-1.136574
12195.998914,356.770000,-0.527006
12199.062573,356.809000,-0.339506
12202.204093,356.849000,0.394290
12205.266396,356.888000,-0.901235
12208.328030,356.927000,-0.415123
12211.388995,356.966000,0.820216
12214.527751,357.006000,-0.512346
12217.587361,357.045000,0.668981
12220.646304,357.084000,-0.270833
12223.704578,357.123000,0.264660
12226.762184,357.162000,-0.004630
12229.819122,357.201000,-1.134259
12232.953750,357.241000,-0.182870
12236.009337,357.280000,-0.895833
12239.064257,357.319000,0.110340
12242.118510,357.358000,-1.590278
12245.172096,357.397000,-0.631173
12248.225016,357.436000,0.220679
