raman_shift_cm-1,wavelength_nm,intensity
-323.608033,246.616000,0.000000
-312.759145,246.682000,0.000000
-301.916061,246.748000,0.000000
-291.078776,246.814000,-0.018519
-280.083216,246.881000,-0.043210
-269.257603,246.947000,-0.020062
-258.437774,247.013000,-0.457562
-247.623726,247.079000,0.608796
-236.815454,247.145000,0.505401
-226.012953,247.211000,-0.813272
-215.216219,247.277000,-0.195988
-204.425246,247.343000,-0.030093
-193.640031,247.409000,-0.850309
-182.860568,247.475000,0.614969
-172.086854,247.541000,-1.025463
-161.318883,247.607000,-0.683642
-150.556651,247.673000,-0.264660
-139.800153,247.739000,-0.101852
-129.049385,247.805000,-0.755401
-118.467103,247.870000,0.313272
-107.727694,247.936000,0.169753
-96.994001,248.002000,0.743827
-86.266020,248.068000,-0.279321
-75.543746,248.134000,-0.229167
-64.827174,248.200000,0.088735
-54.278543,248.265000,-1.505401
-43.573277,248.331000,-0.158951
-32.873698,248.397000,0.415895
-22.179805,248.463000,0.766204
-11.653491,248.528000,-0.152006
-0.970866,248.594000,-0.631173
9.706087,248.660000,-1.022377
20.377375,248.726000,0.247685
30.881442,248.791000,0.340278
41.541497,248.857000,0.312500
52.195898,248.923000,0.280864
62.683348,248.988000,0.024691
73.326542,249.054000,-0.256944
83.802964,249.119000,-0.375772
94.434970,249.185000,-0.555556
104.900381,249.250000,-0.763889
115.521215,249.316000,-0.360340
125.975632,249.381000,-0.579475
136.585313,249.447000,-0.533179
147.028754,249.512000,0.519290
157.627298,249.578000,0.773148
168.059780,249.643000,0.945988
178.647205,249.709000,-0.178241
189.068746,249.774000,-1.994599
199.645070,249.840000,0.560185
210.055686,249.905000,-0.183642
220.620926,249.971000,-3.077932
231.020635,250.036000,-12.621142
241.414938,250.101000,-1.608025
251.963627,250.167000,-1.102623
262.347049,250.232000,0.161265
272.725077,250.297000,-5.513889
283.097717,250.362000,-19.359568
293.624427,250.428000,-2.137346
303.986219,250.493000,-6.407407
314.342635,250.558000,-2.767747
324.693679,250.623000,-2.302469
335.198478,250.689000,-0.270833
345.538708,250.754000,1.052469
355.873579,250.819000,-0.029321
366.203095,250.884000,-2.063272
376.527259,250.949000,-1.498457
386.846077,251.014000,-2.002315
397.318179,251.080000,3.627315
407.626234,251.145000,2.340278
417.928954,251.210000,-1.969907
428.226343,251.275000,1.807099
438.518407,251.340000,1.662809
448.805149,251.405000,0.775463
459.086573,251.470000,-1.057870
469.362683,251.535000,-3.190586
479.633483,251.600000,-3.443673
489.898978,251.665000,-1.529321
500.159172,251.730000,3.320216
510.414069,251.795000,4.007716
520.663672,251.860000,3.908951
530.907986,251.925000,2.540895
541.147015,251.990000,7.439815
551.223361,252.054000,4.226080
561.451914,252.119000,3.385802
571.675194,252.184000,13.674383
581.893205,252.249000,-1.098765
592.105952,252.314000,-0.613426
602.313438,252.379000,-5.377315
612.358750,252.443000,-2.533179
622.555807,252.508000,-6.538580
632.747617,252.573000,-2.073302
642.934182,252.638000,0.108025
652.958910,252.702000,-3.520062
663.135079,252.767000,-6.599537
673.306016,252.832000,-3.990741
683.315368,252.896000,1.402006
693.475932,252.961000,-1.391975
703.631276,253.026000,-2.432099
713.625287,253.090000,-4.013117
723.770283,253.155000,-1.378086
733.910070,253.220000,-0.702160
743.888776,253.284000,0.016204
754.018238,253.349000,-1.136574
763.986786,253.413000,-0.548611
774.105940,253.478000,-0.910494
784.064345,253.542000,-2.993056
794.173206,253.607000,0.385031
804.121484,253.671000,0.759259
814.220067,253.736000,2.115741
824.158233,253.800000,2.823302
834.246555,253.865000,-0.083333
844.174625,253.929000,-2.502315
854.252700,253.994000,-2.620370
864.170690,254.058000,-1.717593
874.083683,254.122000,-7.062500
884.146458,254.187000,-11.607253
894.049394,254.251000,-1.871142
903.947346,254.315000,-0.660494
913.994855,254.380000,0.231481
923.882772,254.444000,0.385031
933.765716,254.508000,-1.359568
943.797994,254.573000,-3.538580
953.670926,254.637000,-0.643519
963.538895,254.701000,-0.490741
973.401907,254.765000,-0.640432
983.259965,254.829000,0.205247
993.266988,254.894000,-3.230710
1003.115071,254.958000,-0.484568
1012.958212,255.022000,3.852623
1022.796413,255.086000,0.355710
1032.629679,255.150000,-1.242284
1042.458013,255.214000,-3.923611
1052.281419,255.278000,0.836420
1062.253275,255.343000,-1.577932
1072.066759,255.407000,-0.945988
1081.875326,255.471000,-2.452160
1091.678980,255.535000,-0.533951
1101.477725,255.599000,0.844136
1111.271563,255.663000,2.187500
1121.060500,255.727000,-1.131944
1130.844538,255.791000,-1.186728
1140.623681,255.855000,-1.854167
1150.397933,255.919000,-1.380401
1160.014689,255.982000,-0.033179
1169.779246,256.046000,-1.358025
1179.538923,256.110000,-0.476852
1189.293724,256.174000,0.771605
1199.043651,256.238000,0.908951
1208.788709,256.302000,-0.722222
1218.528902,256.366000,-2.449846
1228.112156,256.429000,-1.293210
1237.842704,256.493000,0.490741
1247.568398,256.557000,-0.485340
1257.289241,256.621000,1.513117
1267.005236,256.685000,-2.905093
1276.564688,256.748000,-3.227623
1286.271074,256.812000,-1.829475
1295.972624,256.876000,-3.004630
1305.517867,256.939000,0.550154
1315.209831,257.003000,-2.601852
1324.896968,257.067000,-3.389660
1334.428034,257.130000,-4.760802
1344.105605,257.194000,-4.266204
1353.778362,257.258000,0.587963
1363.295282,257.321000,-2.932870
1372.958494,257.385000,-0.798611
1382.466026,257.448000,-3.564815
1392.119708,257.512000,-0.993056
1401.617865,257.575000,-3.165123
1411.262031,257.639000,-43.891204
1420.750828,257.702000,-45.557870
1430.385491,257.766000,-10.325617
1439.864942,257.829000,20.082562
1449.490117,257.893000,41.758488
1458.960235,257.956000,39.491512
1468.575936,258.020000,-4.690586
1478.036734,258.083000,-2.472994
1487.492915,258.146000,-4.497685
1497.094468,258.210000,-2.689043
1506.541350,258.273000,-2.343364
1516.133465,258.337000,-5.548611
1525.571062,258.400000,-1.760802
1535.004058,258.463000,-1.955247
1544.432457,258.526000,-0.339506
1554.005809,258.590000,-2.451389
1563.424950,258.653000,2.057099
1572.839503,258.716000,-3.551698
1582.249473,258.779000,-4.452932
1591.804117,258.843000,-2.392747
1601.204857,258.906000,-3.023148
1610.601022,258.969000,-1.719136
1619.992617,259.032000,-2.983025
1629.379645,259.095000,-2.308642
1638.911000,259.159000,-0.614198
1648.288831,259.222000,-3.334105
1657.662104,259.285000,-6.788580
1667.030824,259.348000,-6.662037
1676.394994,259.411000,0.351852
1685.754616,259.474000,2.161265
1695.109694,259.537000,-0.617284
1704.460232,259.600000,-0.119599
1713.806232,259.663000,1.057870
1723.147698,259.726000,-1.137346
1732.484634,259.789000,-1.585648
1741.817042,259.852000,-1.012346
1751.144926,259.915000,1.006944
1760.468289,259.978000,-0.902006
1769.787135,260.041000,1.019290
1779.101467,260.104000,-0.420525
1788.411287,260.167000,-0.915895
1797.568932,260.229000,-0.611111
1806.869812,260.292000,-0.378858
1816.166190,260.355000,-1.506944
1825.458071,260.418000,4.834877
1834.745457,260.481000,1.589506
1844.028352,260.544000,0.801698
1853.159517,260.606000,-0.124228
1862.433510,260.669000,7.488426
1871.703021,260.732000,7.912037
1880.968054,260.795000,0.902778
1890.081653,260.857000,-2.077160
1899.337809,260.920000,-3.628858
1908.589497,260.983000,0.371914
1917.689973,261.045000,0.734568
1926.932803,261.108000,-1.027006
1936.171175,261.171000,-2.550926
1945.258555,261.233000,-1.280864
1954.488088,261.296000,-2.320988
1963.566777,261.358000,-1.947531
1972.787485,261.421000,-1.986883
1982.003751,261.484000,-0.497685
1991.069391,261.546000,-1.063272
2000.276850,261.609000,-2.674383
2009.333830,261.671000,7.960648
2018.532495,261.734000,5.895062
2027.580827,261.796000,16.310185
2036.770712,261.859000,18.305556
2045.810408,261.921000,20.686728
2054.845827,261.983000,22.981481
2064.022598,262.046000,42.346451
2073.049399,262.108000,30.244599
2082.217420,262.171000,36.962963
2091.235617,262.233000,36.365741
2100.249550,262.295000,34.692901
2109.404505,262.358000,34.807870
2118.409852,262.420000,32.395062
2127.410945,262.482000,44.293981
2136.552862,262.545000,36.175926
2145.545387,262.607000,39.010802
2154.533666,262.669000,34.789352
2163.517703,262.731000,43.776235
2172.642302,262.794000,42.456019
2181.617796,262.856000,44.020062
2190.589057,262.918000,43.175154
2199.556087,262.980000,44.777006
2208.518891,263.042000,44.496914
2217.621929,263.105000,45.125000
2226.576219,263.167000,17.996914
2235.526291,263.229000,0.317901
2244.472147,263.291000,-3.986883
2253.413792,263.353000,1.707562
2262.351228,263.415000,-3.841049
2271.284457,263.477000,-0.101080
2280.213483,263.539000,-1.544753
2289.138308,263.601000,-0.493056
2298.058937,263.663000,-4.697531
2306.975371,263.725000,-1.963735
2315.887613,263.787000,-15.403549
2324.795667,263.849000,-8.777006
2333.699536,263.911000,-1.664352
2342.599222,263.973000,-2.667438
2351.494729,264.035000,-4.231481
2360.386059,264.097000,-0.032407
2369.273215,264.159000,0.619599
2378.156200,264.221000,-0.830247
2386.891844,264.282000,-0.469136
2395.766564,264.344000,1.270062
2404.637121,264.406000,-0.971451
2413.503520,264.468000,0.425926
2422.365762,264.530000,-3.701389
2431.081012,264.591000,-2.920525
2439.935018,264.653000,-0.162037
2448.784876,264.715000,-3.307870
2457.630590,264.777000,-0.054012
2466.329589,264.838000,-1.966821
2475.167089,264.900000,-2.351080
2484.000453,264.962000,13.649691
2492.687310,265.023000,-3.787809
2501.512478,265.085000,9.049383
2510.333519,265.147000,10.795525
2519.008259,265.208000,0.921296
2527.821120,265.270000,0.135802
2536.487819,265.331000,-0.181327
2545.292512,265.393000,-0.455247
2554.093093,265.455000,-0.198302
2562.747717,265.516000,1.977623
2571.540147,265.578000,4.111111
2580.186758,265.639000,-1.905864
2588.971048,265.701000,-6.191358
2597.609655,265.762000,-15.618056
2606.385817,265.824000,-4.074846
2615.016433,265.885000,-10.581019
2623.643091,265.946000,-4.477623
2632.407114,266.008000,-6.914352
2641.025796,266.069000,-0.462191
2649.781719,266.131000,-0.459105
2658.392437,266.192000,-0.185185
2666.999210,266.253000,-1.073302
2675.743037,266.315000,-1.898920
2684.341862,266.376000,-2.342593
2692.936750,266.437000,1.754630
2701.668505,266.499000,0.912809
2710.255462,266.560000,0.374228
2718.838489,266.621000,0.943673
2727.417590,266.682000,0.444444
2736.133311,266.744000,6.109568
2744.704503,266.805000,0.361883
2753.271776,266.866000,-1.910494
2761.835134,266.927000,0.138889
2770.394579,266.988000,-0.976080
2778.950113,267.049000,-0.967593
2787.641898,267.111000,0.170525
2796.189555,267.172000,-2.387346
2804.733311,267.233000,-1.942901
2813.273167,267.294000,-0.227623
2821.809126,267.355000,-0.866512
2830.341190,267.416000,0.476080
2838.869363,267.477000,-0.564815
2847.393647,267.538000,-0.581790
2855.914045,267.599000,0.553241
2864.430559,267.660000,-1.353395
2872.943193,267.721000,0.095679
2881.451948,267.782000,-6.483796
2889.956827,267.843000,3.702932
2898.457833,267.904000,22.275463
2906.954969,267.965000,-10.560185
2915.448237,268.026000,-2.969136
2923.937640,268.087000,-1.839506
2932.284105,268.147000,-3.731481
2940.765849,268.208000,-6.270833
2949.243736,268.269000,-1.022377
2957.717768,268.330000,-4.489198
2966.187948,268.391000,-3.439043
2974.515518,268.451000,-3.051698
2982.978065,268.512000,-2.354938
2991.436768,268.573000,-5.163580
2999.891630,268.634000,-0.488426
3008.204142,268.694000,-1.932099
3016.651392,268.755000,-1.260802
3025.094807,268.816000,-0.182099
3033.396069,268.876000,-3.618056
3041.831888,268.937000,-39.926698
3050.263881,268.998000,-10.834105
3058.553914,269.058000,-4.999228
3066.978326,269.119000,-0.927469
3075.398919,269.180000,-0.885031
3083.677747,269.240000,0.041667
3092.090774,269.301000,-2.843364
3100.362165,269.361000,-2.663580
3108.767637,269.422000,-5.922840
3117.031601,269.482000,0.262346
3125.429526,269.543000,3.257716
3133.686074,269.603000,-0.269290
3142.076464,269.664000,-2.692130
3150.325604,269.724000,-0.404321
3158.708468,269.785000,-0.005401
3166.950211,269.845000,-1.977623
3175.325561,269.906000,0.547840
3183.559917,269.966000,-0.579475
3191.790613,270.026000,-1.010031
3200.154739,270.087000,-3.120370
3208.378064,270.147000,-0.889660
3216.597736,270.207000,-0.888117
3224.950662,270.268000,0.217593
3233.162976,270.328000,-0.679784
3241.371647,270.388000,-2.580247
3249.576675,270.448000,-1.384259
3257.914722,270.509000,-3.310957
3266.112412,270.569000,0.461420
3274.306467,270.629000,-1.111111
3282.496889,270.689000,-0.326389
3290.820098,270.750000,-0.527778
3299.003202,270.810000,-0.689815
3307.182681,270.870000,-0.011574
3315.358537,270.930000,7.741512
3323.530773,270.990000,-3.288580
3331.699391,271.050000,0.806327
3339.864393,271.110000,1.611111
3348.025782,271.170000,-1.332562
3356.319492,271.231000,-1.880401
3364.473602,271.291000,-0.905093
3372.624105,271.351000,2.290123
3380.771005,271.411000,2.567901
3388.914304,271.471000,0.172840
3397.054004,271.531000,0.562500
3405.190107,271.591000,2.690586
3413.322616,271.651000,-1.183642
3421.316081,271.710000,1.104938
3429.441469,271.770000,-0.540123
3437.563270,271.830000,-0.590278
3445.681487,271.890000,-0.614198
3453.796121,271.950000,-1.174383
3461.907176,272.010000,-0.835648
3470.014653,272.070000,-8.845679
3478.118555,272.130000,-27.926698
3486.083907,272.189000,-9.652006
3494.180726,272.249000,-41.228395
3502.273976,272.309000,18.865741
3510.363660,272.369000,1.862654
3518.315042,272.428000,0.853395
3526.397661,272.488000,-0.890432
3534.476722,272.548000,-2.011574
3542.552226,272.608000,0.944444
3550.489673,272.667000,2.026235
3558.558131,272.727000,-3.010031
3566.623039,272.787000,1.437500
3574.550074,272.846000,-0.471451
3582.607950,272.906000,-1.640432
3590.528073,272.965000,-0.757716
3598.578926,273.025000,-2.068673
3606.626241,273.085000,-2.706790
3614.535986,273.144000,3.184414
3622.576291,273.204000,-1.902006
3630.479148,273.263000,0.105710
3638.512453,273.323000,-0.939815
3646.408431,273.382000,2.156636
3654.434744,273.442000,0.938272
3662.323852,273.501000,-1.547068
3670.343183,273.561000,0.333333
3678.225429,273.620000,-2.947531
3686.237787,273.680000,-0.821759
3694.113181,273.739000,-3.957562
3701.985180,273.798000,-0.516204
3709.987125,273.858000,1.905093
3717.852286,273.917000,0.519290
3725.714059,273.976000,-0.940586
3733.705610,274.036000,-1.787809
3741.560558,274.095000,-0.309414
3749.412124,274.154000,2.405864
3757.393303,274.214000,1.878858
3765.238057,274.273000,-2.817901
3773.079437,274.332000,3.943673
3780.917444,274.391000,-0.442901
3788.884843,274.451000,6.317130
3796.716056,274.510000,-1.827932
3804.543903,274.569000,-0.693673
3812.368387,274.628000,-1.817130
3820.189510,274.687000,-0.061728
3828.007273,274.746000,-0.797840
3835.821680,274.805000,-8.452932
3843.765093,274.865000,-3.165895
3851.572736,274.924000,-1.652778
3859.377028,274.983000,-0.334877
3867.177971,275.042000,1.845679
3874.975569,275.101000,-1.036265
3882.769823,275.160000,8.182099
3890.560735,275.219000,38.675926
3898.348307,275.278000,-0.836420
3906.132542,275.337000,0.479938
3913.913442,275.396000,0.496914
3921.691008,275.455000,-2.455247
3929.465243,275.514000,-1.477623
3937.236150,275.573000,-1.576389
3944.872103,275.631000,3.073302
3952.636414,275.690000,4.554012
3960.397403,275.749000,-1.654321
3968.155071,275.808000,3.329475
3975.909421,275.867000,-1.755401
3983.660455,275.926000,-0.489969
3991.408175,275.985000,0.059414
3999.021349,276.043000,0.170525
4006.762504,276.102000,-0.855710
4014.500350,276.161000,1.729167
4022.234891,276.220000,-1.216049
4029.835118,276.278000,0.024691
4037.563110,276.337000,0.191358
4045.287803,276.396000,2.321759
4052.878355,276.454000,-2.249228
4060.596512,276.513000,2.613426
4068.311375,276.572000,-3.903549
4075.892271,276.630000,-0.108796
4083.600610,276.689000,-0.469136
4091.305663,276.748000,-2.537037
4098.876921,276.806000,-1.374228
4106.575462,276.865000,-2.138117
4114.140322,276.923000,0.415123
4121.832361,276.982000,-2.199846
4129.390832,277.040000,-1.982253
4137.076375,277.099000,0.805556
4144.628466,277.157000,-2.037037
4152.307522,277.216000,-3.263117
4159.853240,277.274000,4.755401
4167.525818,277.333000,-0.662037
4175.065171,277.391000,-1.183642
4182.731279,277.450000,0.764660
4190.264275,277.508000,-0.979167
4197.794123,277.566000,-0.390432
4205.450568,277.625000,-2.168210
4212.974072,277.683000,-5.670525
4220.494433,277.741000,-0.216049
4228.011654,277.799000,-1.269290
4235.396210,277.856000,-2.315586
4242.907211,277.914000,-0.010802
4250.415077,277.972000,-1.072531
4257.790445,278.029000,-0.713735
4265.292102,278.087000,0.516204
4272.790631,278.145000,1.461420
4280.156828,278.202000,1.596451
4287.649159,278.260000,3.842593
4295.138368,278.318000,1.699074
4302.495411,278.375000,0.253858
4309.978434,278.433000,-0.220679
4317.329402,278.490000,0.163580
4324.806246,278.548000,-0.711420
4332.151147,278.605000,-0.008488
4339.621821,278.663000,-0.473765
4346.960661,278.720000,1.935185
4354.425172,278.778000,0.159722
4361.757959,278.835000,1.135031
4369.216314,278.893000,-0.365741
4376.543056,278.950000,2.556327
4383.995264,279.008000,1.695216
4391.315968,279.065000,-1.610340
4398.762036,279.123000,-0.936728
4406.076709,279.180000,-0.418210
4413.516644,279.238000,-2.651235
4420.825295,279.295000,1.937500
4428.130962,279.352000,3.840278
4435.561740,279.410000,4.229167
4442.861395,279.467000,-0.826389
4450.158074,279.524000,-1.637346
4457.579711,279.582000,1.556327
4464.870389,279.639000,2.431327
4472.158095,279.696000,-1.077932
4479.570607,279.754000,-0.405864
4486.852324,279.811000,-1.757716
4494.131074,279.868000,0.094907
4501.534479,279.926000,-3.541667
4508.807251,279.983000,0.407407
4516.077062,280.040000,-1.637346
4523.343914,280.097000,-0.437500
4530.735220,280.155000,0.610340
4537.996108,280.212000,0.799383
4545.254043,280.269000,1.859568
4552.509026,280.326000,1.910494
4559.888262,280.384000,0.446759
4567.137295,280.441000,-11.746914
4574.383383,280.498000,-6.763889
4581.626526,280.555000,-6.668210
4588.866727,280.612000,-5.428241
4596.103987,280.669000,-7.720679
4603.338308,280.726000,-4.434414
4610.696532,280.784000,-1.433642
4617.924929,280.841000,-0.942901
4625.150392,280.898000,-0.564043
4632.372923,280.955000,0.432099
4639.592525,281.012000,4.036265
4646.809198,281.069000,0.625000
4654.022945,281.126000,-1.166667
4661.233767,281.183000,-1.101080
4668.441666,281.240000,-1.328704
4675.646644,281.297000,0.982253
4682.848703,281.354000,-3.979167
4690.047844,281.411000,-1.527006
4697.244070,281.468000,-0.419753
4704.437381,281.525000,-1.283951
4711.627780,281.582000,3.370370
4718.815269,281.639000,2.673611
4725.999849,281.696000,-0.173611
4733.181522,281.753000,0.192130
4740.360290,281.810000,-0.834105
4747.536154,281.867000,0.311728
4754.583300,281.923000,1.631173
4761.753414,281.980000,1.046296
4768.920629,282.037000,2.691358
4776.084949,282.094000,-0.490741
4783.246373,282.151000,3.532407
4790.404904,282.208000,0.153549
4797.435032,282.264000,0.284722
4804.587834,282.321000,-3.099537
4811.737748,282.378000,1.617284
4818.884776,282.435000,-0.628858
4826.028920,282.492000,0.226080
4833.044920,282.548000,0.679012
4840.183352,282.605000,-1.125772
4847.318904,282.662000,-0.027778
4854.451579,282.719000,-0.896605
4861.456319,282.775000,-1.618056
4868.583295,282.832000,-3.942901
4875.707399,282.889000,-1.067901
4882.703723,282.945000,2.861883
4889.822139,283.002000,0.516975
4896.937687,283.059000,0.027006
4903.925611,283.115000,-0.290895
4911.035481,283.172000,-2.824846
4918.142490,283.229000,0.555556
4925.122029,283.285000,2.962963
4932.223369,283.342000,1.905093
4939.197342,283.398000,-0.423611
4946.293021,283.455000,0.969136
4953.385847,283.512000,8.038580
4960.351460,283.568000,3.568673
4967.438635,283.625000,-2.463735
4974.398699,283.681000,-0.452160
4981.480229,283.738000,0.707562
4988.434752,283.794000,-2.804012
4995.510644,283.851000,1.867284
5002.459631,283.907000,-2.142747
5009.529893,283.964000,1.129630
5016.473351,284.020000,0.898148
5023.537988,284.077000,4.323302
5030.475924,284.133000,7.949846
5037.534943,284.190000,1.005401
5044.467363,284.246000,1.827160
5051.397052,284.302000,0.072531
5058.447683,284.359000,-1.125772
5065.371866,284.415000,-0.651235
5072.416896,284.472000,12.273148
5079.335580,284.528000,2.726852
5086.251541,284.584000,0.809414
5093.288207,284.641000,11.492284
5100.198678,284.697000,5.310185
5107.106432,284.753000,0.179784
5114.134748,284.810000,0.844907
5121.037022,284.866000,0.993827
5127.936582,284.922000,-0.014660
5134.833431,284.978000,0.228395
5141.850655,285.035000,-1.716049
5148.742037,285.091000,1.472222
5155.630712,285.147000,-1.557099
5162.516682,285.203000,-1.158951
5169.522840,285.260000,-0.318673
5176.403356,285.316000,-2.565586
5183.281172,285.372000,-1.614969
5190.156289,285.428000,-0.286265
5197.028709,285.484000,11.721451
5204.021082,285.541000,4.585648
5210.888064,285.597000,2.977623
5217.752353,285.653000,0.647377
5224.613952,285.709000,2.361111
5231.472862,285.765000,2.453704
5238.329083,285.821000,3.222994
5245.182619,285.877000,6.733796
5252.033470,285.933000,0.300154
5258.881638,285.989000,-3.457562
5265.727125,286.045000,1.285494
5272.569932,286.101000,0.456790
5279.532182,286.158000,-5.275463
5286.369586,286.214000,5.027006
5293.204315,286.270000,-0.074846
5300.036371,286.326000,0.687500
5306.865755,286.382000,-1.675154
5313.692468,286.438000,0.291667
5320.516513,286.494000,-0.496142
5327.216104,286.549000,1.959877
5334.034863,286.605000,0.171296
5340.850958,286.661000,1.685957
5347.664391,286.717000,-2.968364
5354.475163,286.773000,-0.863426
5361.283275,286.829000,1.336420
5368.088729,286.885000,0.856481
5374.891528,286.941000,-2.418981
5381.691671,286.997000,-0.197531
5388.489161,287.053000,-1.496142
5395.162686,287.108000,0.269290
5401.954922,287.164000,-0.509259
5408.744509,287.220000,-1.019290
5415.531448,287.276000,-3.601080
5422.315743,287.332000,-0.146605
5428.976316,287.387000,-0.316358
5435.755371,287.443000,-2.182099
5442.531785,287.499000,-5.746914
5449.305560,287.555000,0.837963
5456.076697,287.611000,-1.275463
5462.724355,287.666000,-4.041667
5469.490268,287.722000,9.725309
5476.253548,287.778000,16.023920
5482.893494,287.833000,2.435957
5489.651559,287.889000,-0.393519
5496.406995,287.945000,0.836420
5503.039242,288.000000,2.043210
5509.789473,288.056000,-0.104167
5516.537079,288.112000,-2.294753
5523.161640,288.167000,-3.940586
5529.904050,288.223000,-2.587963
5536.643840,288.279000,-0.437500
5543.260729,288.334000,-0.691358
5549.995332,288.390000,-1.311728
5556.607128,288.445000,-1.047068
5563.336549,288.501000,-6.556327
5569.943259,288.556000,-7.573302
5576.667504,288.612000,-5.052469
5583.269134,288.667000,-3.861883
5589.988209,288.723000,-2.131944
5596.584764,288.778000,-4.629630
5603.298676,288.834000,-4.540895
5609.890162,288.889000,-2.874228
5616.598916,288.945000,-6.237654
5623.185340,289.000000,-3.396605
5629.888941,289.056000,-4.481481
5636.470308,289.111000,-5.069444
5643.168763,289.167000,-0.682870
5649.745079,289.222000,10.956790
5656.438394,289.278000,6.504630
5663.009664,289.333000,-3.087963
5669.578437,289.388000,-1.100309
5676.264076,289.444000,-2.235340
5682.827812,289.499000,-1.779321
5689.389054,289.554000,-0.257716
5696.067030,289.610000,-0.694444
5702.623244,289.665000,2.144290
5709.176969,289.720000,0.644290
5715.847296,289.776000,2.968364
5722.396001,289.831000,-1.614969
5728.942221,289.886000,0.452160
5735.485958,289.941000,-0.369599
5742.146122,289.997000,-0.263117
5748.684850,290.052000,-0.160494
5755.221100,290.107000,-0.480710
5761.754871,290.162000,-2.442130
5768.404894,290.218000,-1.439815
5774.933669,290.273000,0.587963
5781.459971,290.328000,-1.472222
5787.983800,290.383000,0.023920
5794.505158,290.438000,0.842593
5801.142550,290.494000,-1.334105
5807.658926,290.549000,-2.084105
5814.172835,290.604000,0.347222
5820.684279,290.659000,-2.388117
5827.193260,290.714000,-4.236111
5833.699778,290.769000,-0.790123
5840.203835,290.824000,0.253086
5846.705432,290.879000,-2.265432
5853.204572,290.934000,1.446759
5859.701254,290.989000,2.080247
5866.195481,291.044000,0.826389
5872.687254,291.099000,0.513889
5879.176574,291.154000,3.706019
5885.663444,291.209000,1.045525
5892.147863,291.264000,2.346451
5898.629834,291.319000,0.027778
5905.109357,291.374000,0.827160
5911.586435,291.429000,-0.490741
5918.061069,291.484000,0.026235
5924.533260,291.539000,0.090278
5931.003009,291.594000,-1.737654
5937.470318,291.649000,0.575617
5943.935188,291.704000,-1.547840
5950.397621,291.759000,-1.632716
5956.857618,291.814000,-6.316358
5963.315180,291.869000,1.670525
5969.770309,291.924000,0.915895
5976.105706,291.978000,1.700617
5982.556017,292.033000,6.748457
5989.003898,292.088000,3.117284
5995.449352,292.143000,0.764660
6001.892379,292.198000,-1.172068
6008.215901,292.252000,-1.147377
6014.654123,292.307000,2.530093
6021.089923,292.362000,1.413580
6027.523303,292.417000,3.197531
6033.954262,292.472000,2.106481
6040.265942,292.526000,2.486883
6046.692111,292.581000,1.104167
6053.115864,292.636000,-1.546296
6059.420472,292.690000,-1.242284
6065.839442,292.745000,0.016204
6072.256000,292.800000,-12.050154
6078.553548,292.854000,0.304012
6084.965331,292.909000,-0.518519
6091.374707,292.964000,0.790895
6097.665207,293.018000,-1.640432
6104.069816,293.073000,-0.684414
6110.472021,293.128000,-0.455247
6116.755485,293.182000,0.853395
6123.152931,293.237000,5.034722
6129.431725,293.291000,3.326389
6135.824417,293.346000,-0.286265
6142.098547,293.400000,0.040123
6148.486490,293.455000,-1.698302
6154.872040,293.510000,-1.240741
6161.139160,293.564000,1.203704
6167.519969,293.619000,2.009259
6173.782438,293.673000,-0.694444
6180.158512,293.728000,-1.984568
6186.416334,293.782000,-1.794753
6192.787678,293.837000,0.439815
6199.040859,293.891000,0.205247
6205.291742,293.945000,1.388889
6211.656022,294.000000,-3.070216
6217.902272,294.054000,-1.141204
6224.261835,294.109000,-2.503086
6230.503456,294.163000,1.125000
6236.742786,294.217000,0.097222
6243.095305,294.272000,1.005401
6249.330014,294.326000,0.256944
6255.677829,294.381000,-0.445988
6261.907923,294.435000,0.779321
6268.135731,294.489000,0.114198
6274.476522,294.544000,-1.155864
6280.699722,294.598000,1.767747
6286.920642,294.652000,0.623457
6293.139281,294.706000,-1.265432
6299.470739,294.761000,2.324846
6305.684781,294.815000,0.133488
6311.896546,294.869000,0.540123
6318.106037,294.923000,-0.736883
6324.428182,294.978000,-0.933642
6330.633085,295.032000,1.789352
6336.835717,295.086000,0.078704
6343.036080,295.140000,-0.475309
6349.234174,295.194000,-1.089506
6355.544717,295.249000,-0.989198
6361.738236,295.303000,0.224537
6367.929490,295.357000,-0.015432
6374.118480,295.411000,-1.647377
6380.305209,295.465000,-0.035494
6386.489676,295.519000,-1.147377
6392.671884,295.573000,-2.010031
6398.851833,295.627000,-0.766204
6405.143905,295.682000,-0.739198
6411.319300,295.736000,0.417438
6417.492439,295.790000,-1.091049
6423.663325,295.844000,-2.122685
6429.831958,295.898000,2.841821
6435.998340,295.952000,2.222222
6442.162473,296.006000,-1.216821
6448.324357,296.060000,0.543210
6454.483993,296.114000,0.605710
6460.641384,296.168000,-0.039352
6466.796529,296.222000,0.797840
6472.949431,296.276000,-0.194444
6479.100090,296.330000,-1.773920
6485.248508,296.384000,-2.422068
6491.280888,296.437000,1.462191
6497.424869,296.491000,1.041667
6503.566612,296.545000,3.100309
6509.706118,296.599000,7.809414
6515.843390,296.653000,10.408179
6521.978427,296.707000,5.779321
6528.111232,296.761000,0.556327
6534.241805,296.815000,-0.142747
6540.256681,296.868000,-1.453704
6546.382836,296.922000,-0.463735
6552.506763,296.976000,-4.236883
6558.628464,297.030000,-2.085648
6564.747939,297.084000,-2.118827
6570.751928,297.137000,-1.496914
6576.866997,297.191000,1.949846
6582.979845,297.245000,4.070216
6589.090471,297.299000,0.401235
6595.085780,297.352000,2.273148
6601.192010,297.406000,-0.322531
6607.296023,297.460000,-0.504630
6613.397821,297.514000,4.265432
6619.384468,297.567000,1.768519
6625.481879,297.621000,-0.844136
6631.577077,297.675000,-2.283951
6637.557251,297.728000,-4.953704
6643.648069,297.782000,-5.350309
6649.623947,297.835000,-0.073302
6655.710390,297.889000,0.571759
6661.794627,297.943000,-2.180556
6667.764048,297.996000,-3.808642
6673.843917,298.050000,-6.425154
6679.809053,298.103000,-8.063272
6685.884559,298.157000,-5.391204
6691.957864,298.211000,-3.512346
6697.916562,298.264000,-1.062500
6703.985510,298.318000,0.709877
6709.939935,298.371000,-4.290123
6716.004532,298.425000,-2.503858
6721.954688,298.478000,-1.626543
6728.014938,298.532000,1.588735
6733.960830,298.585000,-2.116512
6739.904611,298.638000,0.084877
6745.958369,298.692000,-0.907407
6751.897893,298.745000,-1.520833
6757.947317,298.799000,-1.441358
6763.882588,298.852000,0.009259
6769.927680,298.906000,0.972222
6775.858703,298.959000,-2.238426
6781.787624,299.012000,1.309414
6787.826249,299.066000,3.048611
6793.750928,299.119000,-1.827160
6799.673508,299.172000,-2.019290
6805.705677,299.226000,5.111883
6811.624022,299.279000,-0.046296
6817.540272,299.332000,1.977623
6823.565994,299.386000,0.850309
6829.478016,299.439000,0.190586
6835.387945,299.492000,-0.472994
6841.407231,299.546000,-2.135031
6847.312940,299.599000,-0.267747
6853.216559,299.652000,0.714506
6859.118090,299.705000,4.954475
6865.017534,299.758000,3.133488
6871.026143,299.812000,-0.683642
6876.921378,299.865000,-1.223765
6882.814529,299.918000,-1.816358
6888.705597,299.971000,-0.162809
6894.594584,300.024000,0.385031
6900.592545,300.078000,-0.159722
6906.477333,300.131000,2.483025
6912.360044,300.184000,0.890432
6918.240677,300.237000,-2.584105
6924.119235,300.290000,1.690586
6929.995718,300.343000,0.131173
6935.870127,300.396000,-0.954475
6941.742464,300.449000,-2.834105
6947.612730,300.502000,6.257716
6953.480925,300.555000,-2.881173
6959.347051,300.608000,-1.788580
6965.211108,300.661000,-7.591049
6971.073099,300.714000,-7.838735
6976.933024,300.767000,1.752315
6982.790884,300.820000,-1.229938
6988.646680,300.873000,-3.533951
6994.500413,300.926000,1.253858
7000.352085,300.979000,-1.312500
7006.201696,301.032000,2.861883
7012.049248,301.085000,0.108025
7017.894742,301.138000,-1.468364
7023.738178,301.191000,0.319444
7029.579559,301.244000,5.572531
7035.418884,301.297000,1.068673
7041.256155,301.350000,1.289352
7047.091373,301.403000,1.311728
7052.924539,301.456000,1.160494
7058.645653,301.508000,-2.226080
7064.474758,301.561000,-3.915123
7070.301814,301.614000,1.060957
7076.126822,301.667000,0.753086
7081.949784,301.720000,0.725309
7087.660892,301.772000,-0.435957
7093.479803,301.825000,0.351080
7099.296670,301.878000,1.060957
7105.111496,301.931000,12.645062
7110.814624,301.983000,-1.208333
7116.625408,302.036000,-1.441358
7122.434152,302.089000,-1.006944
7128.240858,302.142000,-1.899691
7133.936024,302.194000,-0.615741
7139.738696,302.247000,-0.231481
7145.539334,302.300000,-2.549383
7151.228549,302.352000,2.747685
7157.025159,302.405000,0.887346
7162.819737,302.458000,1.754630
7168.503010,302.510000,0.301698
7174.293567,302.563000,-0.603395
7180.082095,302.616000,-3.775463
7185.759436,302.668000,-4.217593
7191.543949,302.721000,0.772377
7197.217352,302.773000,-0.422068
7202.997854,302.826000,2.112654
7208.667324,302.878000,2.837191
7214.443819,302.931000,-4.501543
7220.109360,302.983000,-4.100309
7225.881853,303.036000,0.060957
7231.543468,303.088000,-0.554012
7237.311962,303.141000,-2.945216
7242.969657,303.193000,-0.059414
7248.734156,303.246000,0.625000
7254.387934,303.298000,-0.772377
7260.148443,303.351000,0.273920
7265.798308,303.403000,1.598765
7271.554831,303.456000,1.436728
7277.200787,303.508000,0.553241
7282.953328,303.561000,0.903549
7288.595379,303.613000,-1.402778
7294.235498,303.665000,-2.385802
7299.982093,303.718000,0.396605
7305.618313,303.770000,0.722222
7311.252604,303.822000,2.307099
7316.993262,303.875000,-1.736883
7322.623660,303.927000,0.773148
7328.252131,303.979000,-2.400463
7333.986862,304.032000,0.450617
7339.611446,304.084000,-2.386574
7345.234108,304.136000,-1.886574
7350.962920,304.189000,3.067130
7356.581700,304.241000,-2.625000
7362.198561,304.293000,0.490741
7367.813502,304.345000,-2.523920
7373.426525,304.397000,-0.292438
7379.145517,304.450000,5.759259
7384.754669,304.502000,-3.065586
7390.361906,304.554000,-3.145833
7395.967228,304.606000,-5.535494
7401.570637,304.658000,-2.978395
7407.279836,304.711000,-6.448302
7412.879384,304.763000,-2.949846
7418.477021,304.815000,3.793981
7424.072749,304.867000,0.035494
7429.666569,304.919000,-1.678241
7435.258480,304.971000,-1.729938
7440.848486,305.023000,-1.763117
7446.436585,305.075000,1.725309
7452.022780,305.127000,1.457562
7457.607071,305.179000,0.946759
7463.296795,305.232000,2.501543
7468.877245,305.284000,-2.943673
7474.455794,305.336000,-7.792438
7480.032444,305.388000,-3.080247
7485.607195,305.440000,0.272377
7491.180048,305.492000,0.994599
7496.751004,305.544000,-2.735340
7502.212985,305.595000,1.563272
7507.780187,305.647000,1.114969
7513.345495,305.699000,0.878086
7518.908909,305.751000,-1.297840
7524.470432,305.803000,0.445988
7530.030064,305.855000,5.218364
7535.587805,305.907000,2.077932
7541.143658,305.959000,1.307870
7546.697622,306.011000,4.147377
7552.249699,306.063000,-0.062500
7557.693173,306.114000,-0.278549
7563.241514,306.166000,-0.750772
7568.787971,306.218000,0.639660
7574.332545,306.270000,-0.294753
7579.875237,306.322000,-0.463735
7585.416047,306.374000,-2.858796
7590.848476,306.425000,-1.510031
7596.385562,306.477000,1.700617
7601.920769,306.529000,-2.797068
7607.454098,306.581000,-5.017747
7612.879195,306.632000,-3.324846
7618.408808,306.684000,0.181327
7623.936546,306.736000,-2.780093
7629.462411,306.788000,2.102623
7634.880189,306.839000,0.395062
7640.402345,306.891000,-0.626543
7645.922629,306.943000,0.810957
7651.334938,306.994000,0.971451
7656.851519,307.046000,-2.003858
7662.260197,307.097000,-2.655864
7667.773079,307.149000,-0.445216
7673.284094,307.201000,4.890432
7678.687317,307.252000,8.610340
7684.194638,307.304000,0.138889
7689.700096,307.356000,-2.807099
7695.097870,307.407000,0.845679
7700.599639,307.459000,0.447531
7705.993798,307.510000,-1.506944
7711.491883,307.562000,-0.729167
7716.882430,307.613000,4.680556
7722.376833,307.665000,0.701389
7727.763772,307.716000,-0.175926
7733.254498,307.768000,0.047840
7738.637831,307.819000,-0.770833
7744.124884,307.871000,-2.889660
7749.504617,307.922000,-5.051698
7754.988000,307.974000,0.708333
7760.364134,308.025000,-0.631173
7765.738489,308.076000,-0.298611
7771.216392,308.128000,-4.728395
7776.587155,308.179000,-4.016975
7782.061397,308.231000,-47.750772
7787.428571,308.282000,-47.605710
7792.793970,308.333000,-5.024691
7798.262745,308.385000,1.168981
7803.624561,308.436000,-4.284722
7808.984603,308.487000,3.954475
7814.447920,308.539000,2.276235
7819.804385,308.590000,0.008488
7825.159080,308.641000,-3.787037
7830.616947,308.693000,-2.386574
7835.968069,308.744000,-0.257716
7841.317424,308.795000,0.346451
7846.665012,308.846000,5.152778
7852.115636,308.898000,2.897377
7857.459659,308.949000,1.425154
7862.801917,309.000000,-2.094136
7868.142413,309.051000,0.160494
7873.481146,309.102000,0.320216
7878.922746,309.154000,1.222994
7884.257923,309.205000,-0.552469
7889.591340,309.256000,-0.669753
7894.922998,309.307000,0.015432
7900.252898,309.358000,-3.250772
7905.581041,309.409000,-4.665123
7910.907428,309.460000,2.086420
7916.336447,309.512000,0.371914
7921.659290,309.563000,-0.676698
7926.980379,309.614000,-1.621914
7932.299715,309.665000,-2.448302
7937.617300,309.716000,-1.340278
7942.933134,309.767000,2.101080
7948.247217,309.818000,-0.574074
7953.559551,309.869000,-2.060185
7958.870137,309.920000,1.395833
7964.178976,309.971000,-1.466049
7969.486068,310.022000,1.556327
7974.791414,310.073000,1.449846
7980.095015,310.124000,0.134259
7985.396872,310.175000,-0.948302
7990.696985,310.226000,2.097994
7995.995357,310.277000,-0.260802
8001.291987,310.328000,0.312500
8006.586876,310.379000,-0.316358
8011.880026,310.430000,-1.652006
8017.067700,310.480000,0.061728
8022.357406,310.531000,-0.924383
8027.645376,310.582000,-6.514660
8032.931609,310.633000,-6.877315
8038.216106,310.684000,-0.961420
8043.498869,310.735000,0.238426
8048.779898,310.786000,-0.807099
8053.955695,310.836000,0.460648
8059.233293,310.887000,0.390432
8064.509160,310.938000,-2.022377
8069.783296,310.989000,-0.590278
8074.952339,311.039000,7.905093
8080.223051,311.090000,1.731481
8085.492035,311.141000,-0.015432
8090.759292,311.192000,-2.988426
8095.921594,311.242000,0.005401
8101.185433,311.293000,2.624228
8106.447548,311.344000,-1.613426
8111.604811,311.394000,2.199074
8116.863513,311.445000,-1.128858
8122.120493,311.496000,3.074846
8127.272724,311.546000,3.208333
8132.526297,311.597000,-0.646605
8137.778150,311.648000,0.137346
8142.925357,311.698000,-0.204475
8148.173807,311.749000,-0.214506
8153.420541,311.800000,-2.274691
8158.562731,311.850000,1.681327
8163.806066,311.901000,0.161265
8168.944927,311.951000,-3.162037
8174.184869,312.002000,1.148148
8179.320403,312.052000,2.496914
8184.556953,312.103000,1.372685
8189.689165,312.153000,1.163580
8194.922327,312.204000,-1.623457
8200.051219,312.254000,-2.585648
8205.280996,312.305000,-0.784722
8210.406572,312.355000,-1.500772
8215.632968,312.406000,-0.695216
8220.755230,312.456000,0.003086
8225.978248,312.507000,-4.636574
8231.097200,312.557000,-1.267747
8236.316843,312.608000,-0.125772
8241.432488,312.658000,0.782407
8246.546497,312.708000,1.520062
8251.761101,312.759000,-2.168210
8256.871808,312.809000,-2.393519
8261.980881,312.859000,-1.237654
8267.190453,312.910000,-1.697531
8272.296229,312.960000,-2.508488
8277.400373,313.010000,-2.377315
8282.604921,313.061000,0.362654
8287.705773,313.111000,0.570216
8292.804996,313.161000,-2.258488
8298.004526,313.212000,0.472994
8303.100462,313.262000,2.847994
8308.194770,313.312000,-5.250000
8313.287453,313.362000,5.043210
8318.480316,313.413000,-1.964506
8323.569717,313.463000,-1.495370
8328.657496,313.513000,-0.616512
8333.743651,313.563000,-7.075617
8338.828185,313.613000,-6.167438
8344.012739,313.664000,-0.003858
8349.094000,313.714000,-1.115741
8354.173640,313.764000,-0.588735
8359.251662,313.814000,-0.520062
8364.328066,313.864000,-1.571759
8369.402853,313.914000,-1.077160
8374.476024,313.964000,-0.336420
8379.547579,314.014000,0.523920
8384.718901,314.065000,0.644290
8389.787195,314.115000,3.685185
8394.853876,314.165000,-1.153549
8399.918944,314.215000,-1.611111
8404.982400,314.265000,0.254630
8410.044246,314.315000,0.607253
8415.104481,314.365000,0.906636
8420.163107,314.415000,-2.045525
8425.220124,314.465000,-1.236883
8430.275533,314.515000,2.197531
8435.329336,314.565000,4.587963
8440.381532,314.615000,-3.106481
8445.432122,314.665000,-3.166667
8450.481107,314.715000,-0.372685
8455.528489,314.765000,-2.106481
8460.473367,314.814000,-2.157407
8465.517575,314.864000,-0.202932
8470.560181,314.914000,-2.407407
8475.601186,314.964000,9.326389
8480.640590,315.014000,0.680556
8485.678395,315.064000,-0.922068
8490.714602,315.114000,-3.875000
8495.749210,315.164000,0.728395
8500.681577,315.213000,-0.272377
8505.713024,315.263000,3.357253
8510.742875,315.313000,-2.083333
8515.771131,315.363000,-0.718364
8520.797793,315.413000,0.297068
8525.722375,315.462000,0.189815
8530.745883,315.512000,1.500772
8535.767799,315.562000,-1.080247
8540.788124,315.612000,-0.817130
8545.706499,315.661000,-0.119599
8550.723675,315.711000,0.278549
8555.739262,315.761000,3.966049
8560.652997,315.810000,-1.127315
8565.665441,315.860000,-1.443673
8570.676298,315.910000,0.542438
8575.585399,315.959000,-2.706019
8580.593116,316.009000,-2.001543
8585.599249,316.059000,-1.998457
8590.503723,316.108000,-1.358796
8595.506721,316.158000,0.022377
8600.508137,316.208000,0.004630
8605.407991,316.257000,1.077932
8610.406276,316.307000,1.233025
8615.303063,316.356000,-1.119599
8620.298221,316.406000,4.212963
8625.191944,316.455000,0.837963
8630.183977,316.505000,13.709877
8635.074640,316.554000,3.615741
8640.063551,316.604000,1.746142
8644.951156,316.653000,-0.090278
8649.936949,316.703000,-2.049383
8654.821499,316.752000,0.809414
8659.804175,316.802000,1.556327
8664.685673,316.851000,-2.682099
8669.665237,316.901000,-1.410494
8674.543685,316.950000,2.665123
8679.520139,317.000000,-1.290895
8684.395541,317.049000,1.000772
8689.269436,317.098000,-0.401235
8694.241247,317.148000,-0.998457
8699.112100,317.197000,0.195988
8703.981448,317.246000,1.029321
8708.948621,317.296000,-5.729167
8713.814931,317.345000,-0.264660
8718.779005,317.395000,-1.895833
8723.642281,317.444000,7.283179
8728.504055,317.493000,3.154321
8733.364329,317.542000,0.459877
8738.322247,317.592000,23.010802
8743.179491,317.641000,16.798611
8748.035237,317.690000,2.855710
8752.889486,317.739000,-1.783179
8757.841258,317.789000,0.648920
8762.692483,317.838000,0.865741
8767.542212,317.887000,-2.435957
8772.390446,317.936000,2.006944
8777.336084,317.986000,0.297840
8782.181300,318.035000,-6.540123
8787.025024,318.084000,-3.573302
8791.867255,318.133000,-2.773148
8796.707995,318.182000,2.496142
8801.547244,318.231000,-0.756173
8806.385003,318.280000,-1.473765
8811.319957,318.330000,-1.864198
8816.154708,318.379000,1.419753
8820.987971,318.428000,-1.974537
8825.819746,318.477000,-1.223765
8830.650035,318.526000,1.283179
8835.478838,318.575000,-0.716049
8840.306156,318.624000,-2.458333
8845.131990,318.673000,1.187500
8849.956339,318.722000,-0.567130
8854.779206,318.771000,0.407407
8859.600590,318.820000,0.893519
8864.420492,318.869000,1.331019
8869.238913,318.918000,-0.636574
8874.055854,318.967000,0.879630
8878.871314,319.016000,-3.047068
8883.685296,319.065000,-1.038580
8888.497800,319.114000,1.787809
8893.308826,319.163000,2.567130
8898.118374,319.212000,0.874228
8902.926447,319.261000,1.959105
8907.634964,319.309000,2.715278
8912.440116,319.358000,-2.520062
8917.243794,319.407000,0.800926
8922.045998,319.456000,1.994599
8926.846729,319.505000,5.167438
8931.645988,319.554000,-0.805556
8936.443775,319.603000,2.486883
8941.142222,319.651000,0.098765
8945.937098,319.700000,-0.670525
8950.730504,319.749000,-2.218364
8955.522441,319.798000,-0.031636
8960.215161,319.846000,-4.599537
8965.004192,319.895000,-3.118827
8969.791757,319.944000,-0.626543
8974.577855,319.993000,-0.121142
8979.264858,320.041000,-2.202160
8984.048055,320.090000,-5.517747
8988.829789,320.139000,0.753858
8993.512517,320.187000,5.286265
8998.291355,320.236000,9.501543
9003.068730,320.285000,4.013117
9007.747190,320.333000,-2.185957
9012.521672,320.382000,0.120370
9017.294694,320.431000,-2.239198
9021.968893,320.479000,-1.581790
9026.739026,320.528000,1.738426
9031.410396,320.576000,0.759259
9036.177644,320.625000,1.253858
9040.943434,320.674000,2.064043
9045.610552,320.722000,-0.872685
9050.373460,320.771000,-2.150463
9055.037756,320.819000,-0.201389
9059.797784,320.868000,-4.446759
9064.459261,320.916000,-1.892747
9069.216413,320.965000,1.260031
9073.875072,321.013000,-6.667438
9078.629350,321.062000,-4.565586
9083.285194,321.110000,0.853395
9088.036601,321.159000,1.607253
9092.689634,321.207000,0.796296
9097.438171,321.256000,-1.533179
9102.088394,321.304000,4.471451
9106.737229,321.352000,33.193673
9111.481482,321.401000,3.233025
9116.127511,321.449000,-1.836420
9120.868902,321.498000,0.005401
9125.512128,321.546000,0.603395
9130.153968,321.594000,0.740741
9134.891085,321.643000,-1.306327
9139.530126,321.691000,0.865741
9144.167783,321.739000,12.588735
9148.900630,321.788000,6.294753
9153.535492,321.836000,2.295525
9158.168971,321.884000,0.476852
9162.801069,321.932000,0.515432
9167.528244,321.981000,-1.469907
9172.157551,322.029000,1.996142
9176.785479,322.077000,-1.169753
9181.412027,322.125000,-3.057099
9186.133540,322.174000,-0.381944
9190.757302,322.222000,-1.503086
9195.379688,322.270000,-2.134259
9200.000697,322.318000,4.456790
9204.620330,322.366000,10.085648
9209.334786,322.415000,15.649691
9213.951640,322.463000,3.902778
9218.567119,322.511000,-1.575617
9223.181225,322.559000,-0.301698
9227.793957,322.607000,2.340278
9232.405318,322.655000,0.094907
9237.015306,322.703000,-2.065586
9241.623923,322.751000,-1.255401
9246.231170,322.799000,-4.973765
9250.932988,322.848000,-2.612654
9255.537466,322.896000,-2.371914
9260.140576,322.944000,2.692901
9264.742318,322.992000,2.814043
9269.342693,323.040000,-4.837191
9273.941700,323.088000,-0.622685
9278.539341,323.136000,-2.058642
9283.135616,323.184000,0.746142
9287.730527,323.232000,1.145833
9292.324072,323.280000,2.042438
9296.916254,323.328000,-3.273148
9301.411445,323.375000,-6.756173
9306.000929,323.423000,4.497685
9310.589052,323.471000,-2.808642
9315.175812,323.519000,-3.303241
9319.761212,323.567000,-2.693673
9324.345252,323.615000,0.018519
9328.927932,323.663000,-2.631173
9333.509253,323.711000,-2.696759
9338.089216,323.759000,-0.988426
9342.572447,323.806000,0.992284
9347.149722,323.854000,-1.875000
9351.725642,323.902000,-4.523148
9356.300205,323.950000,-2.096451
9360.873412,323.998000,-1.192130
9365.350032,324.045000,0.816358
9369.920559,324.093000,-1.258488
9374.489732,324.141000,0.820988
9379.057552,324.189000,0.942901
9383.528899,324.236000,-3.227623
9388.094043,324.284000,2.636574
9392.657836,324.332000,-3.307099
9397.125241,324.379000,-1.194444
9401.686361,324.427000,-2.778549
9406.246132,324.475000,0.510802
9410.804554,324.523000,-3.417438
9415.266702,324.570000,-1.341821
9419.822456,324.618000,-0.764660
9424.281993,324.665000,-0.459105
9428.835082,324.713000,-2.049383
9433.386824,324.761000,-2.790123
9437.842435,324.808000,-2.361111
9442.391516,324.856000,-9.429784
9446.844521,324.903000,0.618827
9451.390942,324.951000,0.057870
9455.936020,324.999000,-0.881944
9460.385108,325.046000,-4.104167
9464.927530,325.094000,1.790123
9469.374018,325.141000,0.182099
9473.913786,325.189000,-0.582562
9478.357677,325.236000,-0.695988
9482.894794,325.284000,9.718364
9487.336090,325.331000,0.062500
9491.870557,325.379000,-0.432870
9496.309260,325.426000,-2.557099
9500.746681,325.473000,-1.487654
9505.277193,325.521000,1.467593
9509.712024,325.568000,0.606481
9514.239893,325.616000,-5.137346
9518.672137,325.663000,-0.736111
9523.103102,325.710000,-0.384259
9527.627024,325.758000,1.075617
9532.055405,325.805000,-0.410494
9536.576689,325.853000,-2.840278
9541.002489,325.900000,3.230710
9545.427013,325.947000,5.693673
9549.850260,325.994000,-1.203704
9554.366303,326.042000,-8.351852
9558.786974,326.089000,-5.580247
9563.206371,326.136000,-0.205247
9567.718482,326.184000,-1.285494
9572.135305,326.231000,2.496914
9576.550855,326.278000,0.210648
9580.965134,326.325000,-0.053241
9585.472021,326.373000,-0.642747
9589.883730,326.420000,1.815586
9594.294169,326.467000,-0.621914
9598.703338,326.514000,-9.493056
9603.111238,326.561000,-14.943673
9607.611614,326.609000,-11.394290
9612.016950,326.656000,-9.036265
9616.421019,326.703000,-11.483025
9620.823821,326.750000,-3.126543
9625.225356,326.797000,1.188272
9629.625626,326.844000,-3.952932
9634.024630,326.891000,-0.645062
9638.422369,326.938000,-0.277006
9642.818845,326.985000,1.138117
9647.214056,327.032000,-1.081019
9651.701479,327.080000,-1.204475
9656.094138,327.127000,-2.520062
9660.485535,327.174000,-0.963735
9664.875670,327.221000,-0.409722
9669.264544,327.268000,-1.830247
9673.652158,327.315000,6.630401
9678.038512,327.362000,1.479167
9682.423607,327.409000,-1.380401
9686.807443,327.456000,-1.239969
9691.190021,327.503000,-0.199846
9695.478134,327.549000,-0.851852
9699.858224,327.596000,0.018519
9704.237057,327.643000,3.908951
9708.614633,327.690000,4.634259
9712.990955,327.737000,-0.167438
9717.366021,327.784000,-1.171296
9721.739833,327.831000,0.413580
9726.112390,327.878000,-4.027006
9730.483695,327.925000,-1.310185
9734.760780,327.971000,-3.638889
9739.129606,328.018000,-1.115741
9743.497180,328.065000,-3.043981
9747.863503,328.112000,13.896605
9752.228575,328.159000,-9.233796
9756.499562,328.205000,0.140432
9760.862161,328.252000,-1.479938
9765.223511,328.299000,0.068673
9769.583612,328.346000,1.185185
9773.849737,328.392000,1.255401
9778.207369,328.439000,-0.687500
9782.563754,328.486000,-2.036265
9786.918893,328.533000,-3.061728
9791.180163,328.579000,-1.734568
9795.532837,328.626000,-1.371914
9799.884266,328.673000,3.574846
9804.141906,328.719000,1.074846
9808.490874,328.766000,-1.984568
9812.838598,328.813000,-1.385802
9817.092614,328.859000,-0.075617
9821.437879,328.906000,-0.546296
9825.689490,328.952000,3.554784
9830.032299,328.999000,42.537809
9834.373868,329.046000,5.013889
9838.621862,329.092000,-1.069444
9842.960977,329.139000,2.383488
9847.206571,329.185000,-0.272377
9851.543235,329.232000,-1.030864
9855.786431,329.278000,-1.539352
9860.120646,329.325000,-0.752315
9864.361446,329.371000,-1.332562
9868.693214,329.418000,1.164352
9872.931619,329.464000,3.581019
9877.260942,329.511000,-0.300926
9881.496956,329.557000,2.951389
9885.823836,329.604000,5.145062
9890.057460,329.650000,-1.054784
9894.289903,329.696000,0.489969
9898.613135,329.743000,-2.145833
9902.843191,329.789000,-1.698302
9907.163985,329.836000,-14.872685
9911.391656,329.882000,-1.674383
9915.618148,329.928000,-4.294753
9919.935303,329.975000,1.489198
9924.159413,330.021000,1.394290
9928.382346,330.067000,-1.601852
9932.695866,330.114000,1.132716
9936.916419,330.160000,2.963735
9941.135797,330.206000,2.453704
9945.445687,330.253000,-0.910494
9949.662689,330.299000,0.357253
9953.878516,330.345000,-0.808642
9958.093170,330.391000,0.046296
9962.398234,330.438000,-0.026235
9966.610516,330.484000,1.224537
9970.821625,330.530000,-3.000000
9975.031562,330.576000,-0.516204
9979.240328,330.622000,-2.466821
9983.539380,330.669000,-1.011574
9987.745778,330.715000,0.295525
9991.951007,330.761000,0.678241
9996.155067,330.807000,-0.033951
10000.357957,330.853000,0.956019
10004.559679,330.899000,1.143519
10008.760233,330.945000,-3.287809
10013.050897,330.992000,-1.495370
10017.249091,331.038000,-0.310957
10021.446118,331.084000,1.354167
10025.641979,331.130000,-0.828704
10029.836675,331.176000,-1.443673
10034.030205,331.222000,-2.361883
10038.222571,331.268000,-1.085648
10042.413773,331.314000,0.550154
10046.603811,331.360000,-2.433642
10050.792686,331.406000,-1.375000
10054.980398,331.452000,-0.097994
10059.166948,331.498000,2.094136
10063.352336,331.544000,-1.109568
10067.536563,331.590000,-2.040123
10071.719629,331.636000,0.155864
10075.901535,331.682000,0.446759
10080.082281,331.728000,-1.613426
10084.261868,331.774000,-0.358025
10088.440296,331.820000,-0.685957
10092.526768,331.865000,1.303241
10096.702905,331.911000,-0.204475
10100.877884,331.957000,-0.956790
10105.051707,332.003000,1.076389
10109.224373,332.049000,-2.175154
10113.395884,332.095000,-1.138117
10117.475591,332.140000,3.051698
10121.644816,332.186000,2.618827
10125.812886,332.232000,-2.101852
10129.979802,332.278000,1.598765
10134.145565,332.324000,0.979167
10138.219652,332.369000,1.419753
10142.383134,332.415000,-23.394290
10146.545464,332.461000,-12.707562
10150.706643,332.507000,-5.584877
10154.776247,332.552000,8.056327
10158.935148,332.598000,1.988426
10163.092900,332.644000,-0.467593
10167.159152,332.689000,2.908951
10171.314630,332.735000,0.252315
10175.468958,332.781000,-0.543981
10179.531864,332.826000,-0.003858
10183.683921,332.872000,0.347222
10187.834831,332.918000,-3.082562
10191.894393,332.963000,0.794753
10196.043035,333.009000,3.428241
10200.190530,333.055000,-0.002315
10204.246754,333.100000,0.529321
10208.391984,333.146000,-3.088735
10212.445992,333.191000,-3.011574
10216.588958,333.237000,-0.222222
10220.640753,333.282000,-0.892747
10224.781457,333.328000,-0.837963
10228.831039,333.373000,-1.444444
10232.969483,333.419000,-0.449074
10237.016856,333.464000,-1.459877
10241.153042,333.510000,-0.371142
10245.198206,333.555000,0.036265
10249.332135,333.601000,-0.772377
10253.375094,333.646000,-1.373457
10257.506768,333.692000,-0.870370
10261.547522,333.737000,-0.719136
10265.587186,333.782000,-2.283951
10269.715494,333.828000,0.740741
10273.752956,333.873000,0.223765
10277.879015,333.919000,-0.768519
10281.914277,333.964000,-2.381944
10285.948452,334.009000,-3.342593
10290.071151,334.055000,1.170525
10294.103128,334.100000,-0.300926
10298.134020,334.145000,0.131944
10302.253364,334.191000,1.014660
10306.282060,334.236000,-4.767747
10310.309672,334.281000,-1.288580
10314.425666,334.327000,-1.547068
10318.451085,334.372000,0.445988
10322.475422,334.417000,-1.124228
10326.498675,334.462000,1.679784
10330.610215,334.508000,0.477623
10334.631280,334.553000,-1.655093
10338.651263,334.598000,-1.533951
10342.670165,334.643000,-1.491512
10346.687987,334.688000,-2.932870
10350.704728,334.733000,-0.850309
10354.809614,334.779000,0.082562
10358.824172,334.824000,-0.378858
10362.837651,334.869000,-2.698302
10366.850051,334.914000,-0.574846
10370.861373,334.959000,2.047068
10374.871618,335.004000,2.922840
10378.880786,335.049000,9.581019
10382.888876,335.094000,5.092593
10386.984923,335.140000,-0.453704
10390.990838,335.185000,0.547068
10394.995677,335.230000,-1.317130
10398.999440,335.275000,-0.177469
10403.002130,335.320000,0.864198
10407.003745,335.365000,1.994599
10411.004286,335.410000,1.402006
10415.003755,335.455000,-1.538580
10419.002150,335.500000,0.291667
10422.999473,335.545000,-0.418210
10426.995723,335.590000,-0.876543
10430.990902,335.635000,-2.409722
10434.985010,335.680000,1.601852
10438.889325,335.724000,6.170525
10442.881316,335.769000,1.756944
10446.872237,335.814000,0.742284
10450.862088,335.859000,0.979938
10454.850871,335.904000,0.665895
10458.838585,335.949000,2.050154
10462.825230,335.994000,-2.351080
10466.810808,336.039000,2.932870
10470.706786,336.083000,-2.664352
10474.690253,336.128000,-3.128858
10478.672654,336.173000,-0.481481
10482.653989,336.218000,-1.891975
10486.634259,336.263000,0.116512
10490.525048,336.307000,-3.071759
10494.503211,336.352000,-0.628086
10498.480310,336.397000,-0.742284
10502.456345,336.442000,-0.013117
10506.342995,336.486000,-0.535494
10510.316927,336.531000,-0.273148
10514.289797,336.576000,3.875000
10518.261604,336.621000,0.021605
10522.144122,336.665000,-1.548611
10526.113830,336.710000,0.737654
10530.082477,336.755000,3.443673
10533.961906,336.799000,0.550154
10537.928455,336.844000,-0.931327
10541.893946,336.889000,-0.743827
10545.770289,336.933000,-0.839506
10549.733685,336.978000,-3.376543
10553.607982,337.022000,0.243056
10557.569284,337.067000,0.048611
10561.529529,337.112000,1.485340
10565.400747,337.156000,0.719136
10569.358902,337.201000,-1.554784
10573.228076,337.245000,2.464506
10577.184142,337.290000,7.467593
10581.051275,337.334000,23.554784
10585.005254,337.379000,0.805556
10588.870347,337.423000,1.347994
10592.822240,337.468000,2.733025
10596.685295,337.512000,3.989198
10600.635105,337.557000,3.321759
10604.496123,337.601000,1.603395
10608.443850,337.646000,-1.373457
10612.302834,337.690000,5.875772
10616.160811,337.734000,1.486111
10620.105430,337.779000,6.431327
10623.961375,337.823000,8.650463
10627.903916,337.868000,6.079475
10631.757830,337.912000,6.310957
10635.610740,337.956000,9.770062
10639.550179,338.001000,10.628086
10643.401061,338.045000,12.119599
10647.250940,338.089000,11.852623
10651.187281,338.134000,16.020833
10655.035134,338.178000,13.771605
10658.881986,338.222000,13.318673
10662.815231,338.267000,18.855710
10666.660059,338.311000,21.244599
10670.503887,338.355000,22.400463
10674.346716,338.399000,24.487654
10678.275848,338.444000,22.829475
10682.116656,338.488000,20.397377
10685.956465,338.532000,21.285494
10689.795276,338.576000,20.135802
10693.633090,338.620000,34.972994
10697.557096,338.665000,19.616512
10701.392893,338.709000,18.335648
10705.227693,338.753000,18.195216
10709.061498,338.797000,14.785494
10712.894307,338.841000,17.390432
10716.726120,338.885000,18.713735
10720.556939,338.929000,17.196759
10724.386763,338.973000,18.283951
10728.302601,339.018000,17.531636
10732.130414,339.062000,17.390432
10735.957235,339.106000,19.196759
10739.783062,339.150000,18.606481
10743.607897,339.194000,15.376543
10747.431740,339.238000,15.744599
10751.254591,339.282000,18.545525
10755.076450,339.326000,17.928241
10758.897319,339.370000,20.095679
10762.717197,339.414000,17.310957
10766.536084,339.458000,15.783179
10770.353982,339.502000,17.871142
10774.170890,339.546000,17.639660
10777.986809,339.590000,17.138117
10781.801740,339.634000,20.704475
10785.615682,339.678000,16.962191
10789.341989,339.721000,15.378858
10793.153978,339.765000,19.029321
10796.964980,339.809000,14.452932
10800.774995,339.853000,17.327932
10804.584024,339.897000,17.115741
10808.392066,339.941000,20.245370
10812.199123,339.985000,19.172068
10816.005195,340.029000,14.280093
10819.723813,340.072000,15.898148
10823.527938,340.116000,20.013117
10827.331078,340.160000,18.593364
10831.133235,340.204000,17.702932
10834.848029,340.247000,16.716049
10838.648242,340.291000,14.922068
10842.447472,340.335000,18.006173
10846.245720,340.379000,11.233796
10849.956695,340.422000,18.675926
10853.753002,340.466000,15.121142
10857.548328,340.510000,17.402778
10861.342673,340.554000,17.587963
10865.049836,340.597000,17.398148
10868.842243,340.641000,15.306327
10872.633670,340.685000,19.431327
10876.337983,340.728000,18.049383
10880.127474,340.772000,19.729938
10883.829896,340.815000,17.737654
10887.617453,340.859000,17.142747
10891.404033,340.903000,14.155864
10895.103609,340.946000,14.515432
10898.888257,340.990000,20.320988
10902.585946,341.033000,19.507716
10906.368663,341.077000,14.783179
10910.150404,341.121000,19.077932
10913.845254,341.164000,22.199846
10917.625066,341.208000,18.904321
10921.318033,341.251000,18.699846
10925.095918,341.295000,15.637346
10928.787002,341.338000,16.770833
10932.562962,341.382000,18.042438
10936.252165,341.425000,12.989198
10939.940439,341.468000,17.319444
10943.713524,341.512000,16.585648
10947.399919,341.555000,18.149691
10951.171083,341.599000,16.191358
10954.855601,341.642000,14.049383
10958.624845,341.686000,19.492284
10962.307486,341.729000,5.881944
10965.989201,341.772000,-5.044753
10969.755578,341.816000,2.568673
10973.435419,341.859000,14.799383
10977.114334,341.902000,18.342593
10980.877848,341.946000,15.483796
10984.554892,341.989000,20.016204
10988.231011,342.032000,16.905093
10991.991665,342.076000,17.151235
10995.665914,342.119000,26.343364
10999.339240,342.162000,36.096451
11003.011643,342.205000,23.052469
11006.768496,342.249000,17.030093
11010.439032,342.292000,18.398920
11014.108646,342.335000,16.710648
11017.777338,342.378000,16.405864
11021.530396,342.422000,14.691358
11025.197224,342.465000,17.214506
11028.863132,342.508000,13.742284
11032.528119,342.551000,15.637346
11036.192187,342.594000,29.802469
11039.855335,342.637000,16.456790
11043.602720,342.681000,14.241512
11047.264009,342.724000,12.665123
11050.924378,342.767000,16.633488
11054.583829,342.810000,16.621914
11058.242363,342.853000,16.317901
11061.899979,342.896000,15.213735
11065.556677,342.939000,14.930556
11069.212459,342.982000,19.635031
11072.867324,343.025000,15.799383
11076.521273,343.068000,19.103395
11080.174306,343.111000,15.574074
11083.826423,343.154000,15.035494
11087.477626,343.197000,17.050154
11091.127913,343.240000,15.194444
11094.777286,343.283000,14.482253
11098.425745,343.326000,7.257716
11102.073291,343.369000,16.496142
11105.719922,343.412000,14.776235
11109.365641,343.455000,15.429784
11113.010447,343.498000,17.426698
11116.654340,343.541000,18.668210
11120.297322,343.584000,17.646605
11123.939391,343.627000,17.484568
11127.580549,343.670000,18.491512
11131.220797,343.713000,16.895833
11134.775508,343.755000,16.994599
11138.413955,343.798000,14.625772
11142.051492,343.841000,18.625772
11145.688120,343.884000,17.158179
11149.323838,343.927000,17.066358
11152.958647,343.970000,18.219907
11156.508049,344.012000,17.743056
11160.141062,344.055000,16.534722
11163.773167,344.098000,16.450617
11167.404365,344.141000,19.411265
11170.950240,344.183000,18.114969
11174.579645,344.226000,16.939815
11178.208143,344.269000,18.628858
11181.751382,344.311000,23.846451
11185.378088,344.354000,18.028549
11189.003889,344.397000,14.377315
11192.628785,344.440000,15.280093
11196.168507,344.482000,14.900463
11199.791614,344.525000,17.715278
11203.413817,344.568000,16.840278
11206.950910,344.610000,18.212191
11210.571327,344.653000,16.675926
11214.106675,344.695000,16.186728
11217.725306,344.738000,19.405864
11221.343035,344.781000,17.045525
11224.875759,344.823000,16.930556
11228.491704,344.866000,14.290123
11232.022687,344.908000,16.492284
11235.636851,344.951000,14.270062
11239.166094,344.993000,16.408179
11242.778477,345.036000,17.081019
11246.305982,345.078000,16.994599
11249.916585,345.121000,15.248457
11253.442353,345.163000,17.291667
11257.051178,345.206000,14.309414
11260.575210,345.248000,16.156636
11264.182259,345.291000,14.626543
11267.704555,345.333000,15.101080
11271.309829,345.376000,20.016204
11274.830392,345.418000,17.329475
11278.350100,345.460000,17.379630
11281.952723,345.503000,15.880401
11285.470699,345.545000,13.226080
11288.987820,345.587000,16.713735
11292.587796,345.630000,17.863426
11296.103187,345.672000,19.960648
11299.701393,345.715000,19.848765
11303.215056,345.757000,4.034722
11306.727865,345.799000,10.450617
11310.239821,345.841000,15.680556
11313.834512,345.884000,16.808642
11317.344742,345.926000,14.405864
11320.854120,345.968000,14.452160
11324.446172,346.011000,17.307099
11327.953826,346.053000,19.502315
11331.460629,346.095000,14.313272
11334.966581,346.137000,15.266975
11338.471682,346.179000,18.097994
11342.059357,346.222000,16.503858
11345.562737,346.264000,17.433642
11349.065268,346.306000,16.878858
11352.566949,346.348000,16.732253
11356.067781,346.390000,16.129630
11359.567764,346.432000,16.312500
11363.150201,346.475000,16.325617
11366.648467,346.517000,17.761574
11370.145885,346.559000,12.495370
11373.642456,346.601000,15.459877
11377.138179,346.643000,8.593364
11380.633055,346.685000,14.440586
11384.127085,346.727000,16.628858
11387.620268,346.769000,17.406636
11391.112605,346.811000,17.200617
11394.604096,346.853000,16.640432
11398.094742,346.895000,14.984568
11401.584543,346.937000,16.110340
11405.073499,346.979000,27.972222
11408.561610,347.021000,19.158179
11412.048877,347.063000,17.576389
11415.535301,347.105000,19.872685
11419.020880,347.147000,13.277778
11422.505617,347.189000,18.626543
11425.989510,347.231000,16.707562
11429.472560,347.273000,18.637346
11432.954769,347.315000,14.057870
11436.436135,347.357000,13.851852
11439.916659,347.399000,16.777778
11443.313502,347.440000,17.194444
11446.792364,347.482000,16.056327
11450.270384,347.524000,15.921296
11453.747565,347.566000,18.214506
11457.223905,347.608000,23.471451
11460.699405,347.650000,29.901235
11464.091345,347.691000,26.656636
11467.565186,347.733000,18.216821
11471.038188,347.775000,22.279321
11474.510351,347.817000,17.783179
11477.981676,347.859000,19.292438
11481.369541,347.900000,19.186728
11484.839210,347.942000,17.716049
11488.308041,347.984000,15.714506
11491.693473,348.025000,14.309414
11495.160650,348.067000,13.316358
11498.626991,348.109000,17.379630
11502.092494,348.151000,14.660494
11505.474680,348.192000,17.668981
11508.938532,348.234000,15.927469
11512.401549,348.276000,14.807870
11515.781307,348.317000,14.370370
11519.242673,348.359000,17.277006
11522.620821,348.400000,16.031636
11526.080539,348.442000,19.439043
11529.539422,348.484000,17.192901
11532.915148,348.525000,9.473765
11536.372384,348.567000,7.347994
11539.746502,348.608000,24.079475
11543.202092,348.650000,29.115741
11546.574604,348.691000,20.462191
11550.028550,348.733000,21.238426
11553.399456,348.774000,18.228395
11556.851758,348.816000,20.463735
11560.221061,348.857000,13.533951
11563.671720,348.899000,15.991512
11567.039420,348.940000,18.495370
11570.488439,348.982000,15.886574
11573.854537,349.023000,17.408951
11577.301915,349.065000,17.273920
11580.666413,349.106000,18.507716
11584.030120,349.147000,22.965278
11587.475051,349.189000,16.262346
11590.837159,349.230000,17.085648
11594.280452,349.272000,19.103395
11597.640963,349.313000,17.196759
11601.000686,349.354000,13.328704
11604.441535,349.396000,10.084877
11607.799661,349.437000,12.258488
11611.157000,349.478000,15.220679
11614.595408,349.520000,11.094136
11617.951152,349.561000,13.720679
11621.306109,349.602000,14.388117
11624.660280,349.643000,16.353395
11628.095443,349.685000,15.786265
11631.448022,349.726000,14.249228
11634.799814,349.767000,11.966821
11638.150821,349.808000,14.172840
11641.582745,349.850000,14.121914
11644.932162,349.891000,15.600309
11648.280794,349.932000,18.177469
11651.628641,349.973000,15.899691
11654.975704,350.014000,16.410494
11658.403590,350.056000,13.600309
11661.749066,350.097000,17.247685
11665.093759,350.138000,14.973765
11668.437668,350.179000,15.226852
11671.780795,350.220000,13.560957
11675.123139,350.261000,14.682099
11678.464700,350.302000,15.998457
11681.805480,350.343000,20.070216
11685.145477,350.384000,17.888889
11688.484693,350.425000,14.476080
11691.904543,350.467000,15.780864
11695.242178,350.508000,14.048611
11698.579032,350.549000,-5.171296
11701.915105,350.590000,9.634259
11705.250398,350.631000,15.424383
11708.584912,350.672000,15.728395
11711.918645,350.713000,14.351080
11715.251600,350.754000,13.791667
11718.502512,350.794000,16.329475
11721.833927,350.835000,17.658951
11725.164564,350.876000,13.885802
11728.494422,350.917000,18.456790
11731.823503,350.958000,13.625000
11735.151806,350.999000,11.138889
11738.479331,351.040000,17.219907
11741.806079,351.081000,18.284722
11745.132050,351.122000,17.327160
11748.457245,351.163000,14.524691
11751.700589,351.203000,14.511574
11755.024250,351.244000,14.389660
11758.347135,351.285000,14.434414
11761.669245,351.326000,16.197531
11764.990579,351.367000,14.152006
11768.230159,351.407000,15.524691
11771.549962,351.448000,17.730710
11774.868991,351.489000,14.630401
11778.187246,351.530000,16.015432
11781.423822,351.570000,18.438272
11784.740548,351.611000,22.496142
11788.056500,351.652000,16.202932
11791.371680,351.693000,8.261574
11794.605256,351.733000,11.995370
11797.918909,351.774000,-10.991512
11801.231790,351.815000,13.835648
11804.463124,351.855000,18.700617
11807.774479,351.896000,14.928241
11811.085063,351.937000,14.074074
11814.314158,351.977000,17.333333
11817.623218,352.018000,16.458333
11820.850827,352.058000,15.842593
11824.158365,352.099000,13.918210
11827.465133,352.140000,13.941358
11830.690506,352.180000,15.665123
11833.995753,352.221000,14.209877
11837.219643,352.261000,15.993827
11840.523370,352.302000,19.186728
11843.745778,352.342000,17.490741
11847.047986,352.383000,15.874228
11850.268913,352.423000,15.051698
11853.569603,352.464000,13.333333
11856.789050,352.504000,16.054784
11860.088224,352.545000,11.728395
11863.306191,352.585000,24.386574
11866.603850,352.626000,14.037037
11869.820339,352.666000,14.594907
11873.116483,352.707000,17.485340
11876.331495,352.747000,13.239198
11879.545777,352.787000,13.369599
11882.839661,352.828000,14.145833
11886.052468,352.868000,14.905864
11889.264547,352.908000,14.680556
11892.556173,352.949000,14.959877
11895.766777,352.989000,14.114969
11899.056892,353.030000,16.260802
11902.266024,353.070000,13.698302
11905.474429,353.110000,14.715278
11908.682107,353.150000,12.206019
11911.969223,353.191000,9.460648
11915.175430,353.231000,13.956019
11918.380911,353.271000,17.708333
11921.665775,353.312000,17.216821
11924.869787,353.352000,16.505401
11928.073073,353.392000,15.008488
11931.275634,353.432000,14.859568
11934.477470,353.472000,19.897377
11937.758600,353.513000,13.607253
11940.958969,353.553000,12.811728
11944.158614,353.593000,13.741512
11947.357536,353.633000,16.690586
11950.555733,353.673000,12.166667
11953.753208,353.713000,10.998457
11957.029868,353.754000,10.563272
11960.225879,353.794000,14.670525
11963.421166,353.834000,12.876543
11966.615732,353.874000,14.059414
11969.809575,353.914000,14.039352
11973.002696,353.954000,10.871914
11976.195096,353.994000,3.477623
11979.386774,354.034000,7.330247
11982.577731,354.074000,12.216821
11985.767968,354.114000,14.697531
11988.957483,354.154000,12.074846
11992.146279,354.194000,16.255401
11995.334354,354.234000,22.418981
11998.521709,354.274000,19.690586
12001.708345,354.314000,19.879630
12004.894261,354.354000,10.948302
12008.079458,354.394000,11.541667
12011.263936,354.434000,19.131173
12014.447695,354.474000,15.935185
12017.630736,354.514000,13.766204
12020.813059,354.554000,13.250772
12023.994663,354.594000,13.374228
12027.175550,354.634000,12.251543
12030.276224,354.673000,9.921296
12033.455694,354.713000,12.429784
12036.634448,354.753000,11.442901
12039.812484,354.793000,8.119599
12042.989804,354.833000,5.028549
12046.166408,354.873000,9.739969
12049.262907,354.912000,11.047068
12052.438097,354.952000,11.120370
12055.612571,354.992000,10.436728
12058.786330,355.032000,6.065586
12061.880056,355.071000,5.433642
12065.052403,355.111000,7.017747
12068.224035,355.151000,5.915123
12071.394953,355.191000,5.767747
12074.485910,355.230000,3.177469
12077.655418,355.270000,6.237654
12080.824212,355.310000,3.641975
12083.913100,355.349000,5.406636
12087.080485,355.389000,3.085648
12090.247158,355.429000,-0.497685
12093.333977,355.468000,1.724537
12096.499242,355.508000,3.534722
12099.663795,355.548000,0.027006
12102.748549,355.587000,0.409722
12105.911696,355.627000,-0.047840
12108.995079,355.666000,0.529321
12112.156822,355.706000,0.194444
12115.317853,355.746000,-0.581019
12118.399174,355.785000,0.459105
12121.558801,355.825000,0.950617
12124.638754,355.864000,0.025463
12127.796979,355.904000,0.013889
12130.875565,355.943000,-0.719907
12134.032389,355.983000,0.016975
12137.109608,356.022000,0.574074
12140.265031,356.062000,-0.939815
12143.340885,356.101000,-0.514660
12146.494908,356.141000,-0.244599
12149.569398,356.180000,0.405093
12152.643215,356.219000,-0.322531
12155.795149,356.259000,-1.875000
12158.867603,356.298000,0.399691
12162.018139,356.338000,0.136574
12165.089231,356.377000,-0.597222
12168.159651,356.416000,-0.493827
12171.308101,356.456000,-0.293981
12174.377160,356.495000,-0.616512
12177.445548,356.534000,-0.443673
12180.591915,356.574000,-0.753086
12183.658943,356.613000,0.347994
12186.725300,356.652000,1.078704
12189.869585,356.692000,0.289352
12192.934585,356.731000,-0.612654
12195.998914,356.770000,-0.442901
12199.062573,356.809000,1.044753
12202.204093,356.849000,-0.430556
12205.266396,356.888000,-0.766204
12208.328030,356.927000,0.145833
12211.388995,356.966000,-0.708333
12214.527751,357.006000,0.650463
12217.587361,357.045000,-0.459105
12220.646304,357.084000,-0.141975
12223.704578,357.123000,0.114198
12226.762184,357.162000,-0.828704
12229.819122,357.201000,-0.594907
12232.953750,357.241000,0.918981
12236.009337,357.280000,-0.594907
12239.064257,357.319000,-0.266975
12242.118510,357.358000,0.285494
12245.172096,357.397000,-0.154321
12248.225016,357.436000,-1.229938
