raman_shift_cm-1,wavelength_nm,intensity
-323.608033,246.616000,0.000000
-312.759145,246.682000,0.000000
-301.916061,246.748000,-224.283951
-291.078776,246.814000,-582.969136
-280.083216,246.881000,-202.625000
-269.257603,246.947000,-396.921296
-258.437774,247.013000,-388.609568
-247.623726,247.079000,-270.132716
-236.815454,247.145000,-429.567130
-226.012953,247.211000,-218.146605
-215.216219,247.277000,-260.405093
-204.425246,247.343000,-280.244599
-193.640031,247.409000,-350.827160
-182.860568,247.475000,-309.061728
-172.086854,247.541000,-413.299383
-161.318883,247.607000,-373.640432
-150.556651,247.673000,-419.049383
-139.800153,247.739000,-294.525463
-129.049385,247.805000,-405.510031
-118.467103,247.870000,-250.780093
-107.727694,247.936000,-222.939815
-96.994001,248.002000,-301.606481
-86.266020,248.068000,-240.501543
-75.543746,248.134000,-546.327932
-64.827174,248.200000,-454.311728
-54.278543,248.265000,-196.784722
-43.573277,248.331000,-487.807870
-32.873698,248.397000,-318.944444
-22.179805,248.463000,-246.040123
-11.653491,248.528000,-160.505401
-0.970866,248.594000,-490.216049
9.706087,248.660000,-383.192901
20.377375,248.726000,-381.295525
30.881442,248.791000,-335.898148
41.541497,248.857000,-271.278549
52.195898,248.923000,-244.583333
62.683348,248.988000,-435.631173
73.326542,249.054000,-322.628086
83.802964,249.119000,-367.391204
94.434970,249.185000,-400.846451
104.900381,249.250000,-343.674383
115.521215,249.316000,-383.735340
125.975632,249.381000,-443.864198
136.585313,249.447000,-330.040895
147.028754,249.512000,-402.668981
157.627298,249.578000,-429.919753
168.059780,249.643000,-367.236111
178.647205,249.709000,-522.945216
189.068746,249.774000,-346.978395
199.645070,249.840000,-195.198302
210.055686,249.905000,-61.360340
220.620926,249.971000,0.225309
231.020635,250.036000,0.941358
241.414938,250.101000,0.030093
251.963627,250.167000,0.379630
262.347049,250.232000,0.277778
272.725077,250.297000,-0.281636
283.097717,250.362000,0.680556
293.624427,250.428000,0.110340
303.986219,250.493000,0.594136
314.342635,250.558000,-0.202932
324.693679,250.623000,0.185185
335.198478,250.689000,0.721451
345.538708,250.754000,-0.913580
355.873579,250.819000,-1.753858
366.203095,250.884000,0.359568
376.527259,250.949000,-0.022377
386.846077,251.014000,0.303241
397.318179,251.080000,0.108025
407.626234,251.145000,0.497685
417.928954,251.210000,-0.230710
428.226343,251.275000,0.927469
438.518407,251.340000,-0.179784
448.805149,251.405000,0.307870
459.086573,251.470000,0.300926
469.362683,251.535000,-1.046296
479.633483,251.600000,0.673611
489.898978,251.665000,1.141975
500.159172,251.730000,1.381173
510.414069,251.795000,1.989198
520.663672,251.860000,1.862654
530.907986,251.925000,2.159722
541.147015,251.990000,2.298611
551.223361,252.054000,3.295525
561.451914,252.119000,1.483796
571.675194,252.184000,2.417438
581.893205,252.249000,1.270062
592.105952,252.314000,1.977623
602.313438,252.379000,1.854938
612.358750,252.443000,3.067901
622.555807,252.508000,6.000000
632.747617,252.573000,9.487654
642.934182,252.638000,11.470679
652.958910,252.702000,13.522377
663.135079,252.767000,11.265432
673.306016,252.832000,8.489198
683.315368,252.896000,5.719907
693.475932,252.961000,9.556327
703.631276,253.026000,6.296296
713.625287,253.090000,5.157407
723.770283,253.155000,2.788580
733.910070,253.220000,2.141204
743.888776,253.284000,2.674383
754.018238,253.349000,2.390432
763.986786,253.413000,2.753858
774.105940,253.478000,2.794753
784.064345,253.542000,2.763117
794.173206,253.607000,3.498457
804.121484,253.671000,4.224537
814.220067,253.736000,2.922068
824.158233,253.800000,3.718364
834.246555,253.865000,3.361883
844.174625,253.929000,3.552469
854.252700,253.994000,3.425154
864.170690,254.058000,2.206790
874.083683,254.122000,3.688272
884.146458,254.187000,2.472222
894.049394,254.251000,4.122685
903.947346,254.315000,3.512346
913.994855,254.380000,2.488426
923.882772,254.444000,3.907407
933.765716,254.508000,3.111883
943.797994,254.573000,2.658951
953.670926,254.637000,3.115741
963.538895,254.701000,4.409722
973.401907,254.765000,4.195988
983.259965,254.829000,0.885031
993.266988,254.894000,4.114969
1003.115071,254.958000,5.218364
1012.958212,255.022000,4.675926
1022.796413,255.086000,4.585648
1032.629679,255.150000,3.883488
1042.458013,255.214000,3.961420
1052.281419,255.278000,2.885031
1062.253275,255.343000,3.164352
1072.066759,255.407000,4.780093
1081.875326,255.471000,5.604938
1091.678980,255.535000,4.263117
1101.477725,255.599000,3.713735
1111.271563,255.663000,2.850309
1121.060500,255.727000,2.458333
1130.844538,255.791000,4.837963
1140.623681,255.855000,3.141975
1150.397933,255.919000,3.898148
1160.014689,255.982000,3.152778
1169.779246,256.046000,5.310185
1179.538923,256.110000,3.301698
1189.293724,256.174000,4.384259
1199.043651,256.238000,2.464506
1208.788709,256.302000,4.567901
1218.528902,256.366000,2.158179
1228.112156,256.429000,2.602623
1237.842704,256.493000,2.787037
1247.568398,256.557000,2.038580
1257.289241,256.621000,4.043981
1267.005236,256.685000,2.391204
1276.564688,256.748000,2.635802
1286.271074,256.812000,3.828704
1295.972624,256.876000,4.097994
1305.517867,256.939000,2.819444
1315.209831,257.003000,3.371914
1324.896968,257.067000,4.302469
1334.428034,257.130000,2.320216
1344.105605,257.194000,3.961420
1353.778362,257.258000,4.589506
1363.295282,257.321000,2.998457
1372.958494,257.385000,3.439815
1382.466026,257.448000,4.076389
1392.119708,257.512000,4.697531
1401.617865,257.575000,3.627315
1411.262031,257.639000,3.629630
1420.750828,257.702000,3.691358
1430.385491,257.766000,-11.425926
1439.864942,257.829000,2.692901
1449.490117,257.893000,3.648920
1458.960235,257.956000,2.992284
1468.575936,258.020000,5.107253
1478.036734,258.083000,3.599537
1487.492915,258.146000,3.914352
1497.094468,258.210000,3.672068
1506.541350,258.273000,3.479938
1516.133465,258.337000,3.944444
1525.571062,258.400000,6.390432
1535.004058,258.463000,6.104938
1544.432457,258.526000,7.167438
1554.005809,258.590000,3.422840
1563.424950,258.653000,4.639660
1572.839503,258.716000,4.282407
1582.249473,258.779000,4.358025
1591.804117,258.843000,5.608796
1601.204857,258.906000,6.478395
1610.601022,258.969000,5.623457
1619.992617,259.032000,6.385031
1629.379645,259.095000,6.641975
1638.911000,259.159000,5.647377
1648.288831,259.222000,4.132716
1657.662104,259.285000,5.732253
1667.030824,259.348000,3.692901
1676.394994,259.411000,4.614198
1685.754616,259.474000,3.549383
1695.109694,259.537000,3.577932
1704.460232,259.600000,3.459105
1713.806232,259.663000,2.769290
1723.147698,259.726000,2.922840
1732.484634,259.789000,3.658951
1741.817042,259.852000,1.660494
1751.144926,259.915000,3.070988
1760.468289,259.978000,3.381944
1769.787135,260.041000,2.408179
1779.101467,260.104000,2.605710
1788.411287,260.167000,2.627315
1797.568932,260.229000,2.953704
1806.869812,260.292000,2.414352
1816.166190,260.355000,3.437500
1825.458071,260.418000,3.129630
1834.745457,260.481000,2.726080
1844.028352,260.544000,1.337191
1853.159517,260.606000,1.317130
1862.433510,260.669000,2.185957
1871.703021,260.732000,11.587191
1880.968054,260.795000,2.694444
1890.081653,260.857000,0.263889
1899.337809,260.920000,6.714506
1908.589497,260.983000,2.075617
1917.689973,261.045000,3.882716
1926.932803,261.108000,4.024691
1936.171175,261.171000,2.278549
1945.258555,261.233000,1.908951
1954.488088,261.296000,1.278549
1963.566777,261.358000,2.881944
1972.787485,261.421000,2.679012
1982.003751,261.484000,1.616512
1991.069391,261.546000,2.705247
2000.276850,261.609000,2.175154
2009.333830,261.671000,2.630401
2018.532495,261.734000,1.263889
2027.580827,261.796000,2.594136
2036.770712,261.859000,2.695216
2045.810408,261.921000,2.029321
2054.845827,261.983000,1.520833
2064.022598,262.046000,3.266975
2073.049399,262.108000,2.941358
2082.217420,262.171000,2.781636
2091.235617,262.233000,4.229938
2100.249550,262.295000,3.001543
2109.404505,262.358000,2.577932
2118.409852,262.420000,2.247685
2127.410945,262.482000,3.282407
2136.552862,262.545000,2.551698
2145.545387,262.607000,1.959877
2154.533666,262.669000,2.046296
2163.517703,262.731000,1.605710
2172.642302,262.794000,1.075617
2181.617796,262.856000,1.284722
2190.589057,262.918000,2.902778
2199.556087,262.980000,2.303241
2208.518891,263.042000,2.118056
2217.621929,263.105000,1.765432
2226.576219,263.167000,3.735340
2235.526291,263.229000,2.350309
2244.472147,263.291000,1.408179
2253.413792,263.353000,1.930556
2262.351228,263.415000,2.099537
2271.284457,263.477000,0.795525
2280.213483,263.539000,1.104938
2289.138308,263.601000,3.026235
2298.058937,263.663000,2.238426
2306.975371,263.725000,2.810957
2315.887613,263.787000,1.411265
2324.795667,263.849000,2.209877
2333.699536,263.911000,2.585648
2342.599222,263.973000,1.248457
2351.494729,264.035000,2.976852
2360.386059,264.097000,1.631173
2369.273215,264.159000,1.661265
2378.156200,264.221000,2.109568
2386.891844,264.282000,2.269290
2395.766564,264.344000,2.647377
2404.637121,264.406000,1.655864
2413.503520,264.468000,1.507716
2422.365762,264.530000,2.258488
2431.081012,264.591000,2.604167
2439.935018,264.653000,2.123457
2448.784876,264.715000,1.466049
2457.630590,264.777000,2.376543
2466.329589,264.838000,1.655864
2475.167089,264.900000,2.226080
2484.000453,264.962000,5.272377
2492.687310,265.023000,2.271605
2501.512478,265.085000,0.747685
2510.333519,265.147000,2.149691
2519.008259,265.208000,2.485340
2527.821120,265.270000,2.614198
2536.487819,265.331000,1.414352
2545.292512,265.393000,2.705247
2554.093093,265.455000,2.477623
2562.747717,265.516000,2.257716
2571.540147,265.578000,0.680556
2580.186758,265.639000,3.186728
2588.971048,265.701000,2.635802
2597.609655,265.762000,2.599537
2606.385817,265.824000,1.380401
2615.016433,265.885000,1.899691
2623.643091,265.946000,3.047068
2632.407114,266.008000,3.546296
2641.025796,266.069000,2.445216
2649.781719,266.131000,1.780093
2658.392437,266.192000,1.331790
2666.999210,266.253000,2.251543
2675.743037,266.315000,2.644290
2684.341862,266.376000,0.953704
2692.936750,266.437000,1.827932
2701.668505,266.499000,1.164352
2710.255462,266.560000,2.812500
2718.838489,266.621000,2.134259
2727.417590,266.682000,1.923611
2736.133311,266.744000,3.324074
2744.704503,266.805000,1.918981
2753.271776,266.866000,2.693673
2761.835134,266.927000,3.062500
2770.394579,266.988000,2.652778
2778.950113,267.049000,3.300154
2787.641898,267.111000,2.411265
2796.189555,267.172000,3.140432
2804.733311,267.233000,2.722222
2813.273167,267.294000,2.741512
2821.809126,267.355000,2.283951
2830.341190,267.416000,2.773920
2838.869363,267.477000,0.824846
2847.393647,267.538000,0.324846
2855.914045,267.599000,2.430556
2864.430559,267.660000,2.235340
2872.943193,267.721000,1.602623
2881.451948,267.782000,2.442130
2889.956827,267.843000,1.283951
2898.457833,267.904000,3.800926
2906.954969,267.965000,1.961420
2915.448237,268.026000,2.021605
2923.937640,268.087000,2.752315
2932.284105,268.147000,1.574074
2940.765849,268.208000,1.949074
2949.243736,268.269000,3.021605
2957.717768,268.330000,1.672840
2966.187948,268.391000,2.263889
2974.515518,268.451000,1.547068
2982.978065,268.512000,1.858025
2991.436768,268.573000,1.481481
2999.891630,268.634000,2.193673
3008.204142,268.694000,2.304012
3016.651392,268.755000,1.507716
3025.094807,268.816000,2.739198
3033.396069,268.876000,3.781636
3041.831888,268.937000,6.194444
3050.263881,268.998000,3.792438
3058.553914,269.058000,1.762346
3066.978326,269.119000,2.186728
3075.398919,269.180000,5.892747
3083.677747,269.240000,3.171296
3092.090774,269.301000,2.840278
3100.362165,269.361000,1.230710
3108.767637,269.422000,1.985340
3117.031601,269.482000,2.468364
3125.429526,269.543000,1.708333
3133.686074,269.603000,2.517747
3142.076464,269.664000,2.031636
3150.325604,269.724000,-0.910494
3158.708468,269.785000,2.175926
3166.950211,269.845000,2.478395
3175.325561,269.906000,1.239969
3183.559917,269.966000,2.547840
3191.790613,270.026000,0.523920
3200.154739,270.087000,3.243827
3208.378064,270.147000,3.069444
3216.597736,270.207000,1.145062
3224.950662,270.268000,2.467593
3233.162976,270.328000,2.179012
3241.371647,270.388000,9.630401
3249.576675,270.448000,3.450617
3257.914722,270.509000,3.109568
3266.112412,270.569000,3.431327
3274.306467,270.629000,0.994599
3282.496889,270.689000,2.708333
3290.820098,270.750000,2.235340
3299.003202,270.810000,2.962191
3307.182681,270.870000,2.969907
3315.358537,270.930000,1.898148
3323.530773,270.990000,1.692901
3331.699391,271.050000,0.350309
3339.864393,271.110000,2.518519
3348.025782,271.170000,2.537809
3356.319492,271.231000,1.755401
3364.473602,271.291000,1.967593
3372.624105,271.351000,1.065586
3380.771005,271.411000,1.650463
3388.914304,271.471000,3.112654
3397.054004,271.531000,1.070216
3405.190107,271.591000,3.297840
3413.322616,271.651000,1.737654
3421.316081,271.710000,3.440586
3429.441469,271.770000,2.156636
3437.563270,271.830000,3.876543
3445.681487,271.890000,1.749228
3453.796121,271.950000,2.424383
3461.907176,272.010000,1.160494
3470.014653,272.070000,2.153549
3478.118555,272.130000,2.260031
3486.083907,272.189000,0.692901
3494.180726,272.249000,1.601852
3502.273976,272.309000,2.360340
3510.363660,272.369000,2.148920
3518.315042,272.428000,1.755401
3526.397661,272.488000,2.405093
3534.476722,272.548000,2.409722
3542.552226,272.608000,1.263117
3550.489673,272.667000,1.593364
3558.558131,272.727000,1.898148
3566.623039,272.787000,1.138889
3574.550074,272.846000,3.407407
3582.607950,272.906000,2.682870
3590.528073,272.965000,2.387346
3598.578926,273.025000,1.019290
3606.626241,273.085000,0.628858
3614.535986,273.144000,3.628086
3622.576291,273.204000,30.117284
3630.479148,273.263000,3.784722
3638.512453,273.323000,2.148148
3646.408431,273.382000,2.760031
3654.434744,273.442000,0.996914
3662.323852,273.501000,2.307870
3670.343183,273.561000,1.709105
3678.225429,273.620000,2.758488
3686.237787,273.680000,2.525463
3694.113181,273.739000,4.357253
3701.985180,273.798000,5.327160
3709.987125,273.858000,2.893519
3717.852286,273.917000,2.619599
3725.714059,273.976000,0.310185
3733.705610,274.036000,2.623457
3741.560558,274.095000,2.094136
3749.412124,274.154000,1.875772
3757.393303,274.214000,2.439043
3765.238057,274.273000,1.601852
3773.079437,274.332000,2.128858
3780.917444,274.391000,2.498457
3788.884843,274.451000,2.707562
3796.716056,274.510000,2.874228
3804.543903,274.569000,1.665895
3812.368387,274.628000,2.347222
3820.189510,274.687000,0.950617
3828.007273,274.746000,2.881173
3835.821680,274.805000,0.864198
3843.765093,274.865000,3.031636
3851.572736,274.924000,2.603395
3859.377028,274.983000,1.006173
3867.177971,275.042000,1.003086
3874.975569,275.101000,1.581019
3882.769823,275.160000,1.717593
3890.560735,275.219000,2.313272
3898.348307,275.278000,2.005401
3906.132542,275.337000,2.313272
3913.913442,275.396000,1.841049
3921.691008,275.455000,0.938272
3929.465243,275.514000,1.784722
3937.236150,275.573000,1.955247
3944.872103,275.631000,1.206019
3952.636414,275.690000,2.337191
3960.397403,275.749000,4.114198
3968.155071,275.808000,2.258488
3975.909421,275.867000,1.375000
3983.660455,275.926000,2.622685
3991.408175,275.985000,1.974537
3999.021349,276.043000,1.451389
4006.762504,276.102000,1.923611
4014.500350,276.161000,1.373457
4022.234891,276.220000,2.935185
4029.835118,276.278000,1.813272
4037.563110,276.337000,2.571759
4045.287803,276.396000,11.035494
4052.878355,276.454000,1.097222
4060.596512,276.513000,2.345679
4068.311375,276.572000,1.256944
4075.892271,276.630000,1.922068
4083.600610,276.689000,1.381173
4091.305663,276.748000,0.804784
4098.876921,276.806000,2.597994
4106.575462,276.865000,1.297840
4114.140322,276.923000,1.203704
4121.832361,276.982000,0.410494
4129.390832,277.040000,-29.070988
4137.076375,277.099000,-13.696759
4144.628466,277.157000,0.219907
4152.307522,277.216000,2.337963
4159.853240,277.274000,0.487654
4167.525818,277.333000,1.658951
4175.065171,277.391000,-3.926698
4182.731279,277.450000,0.635031
4190.264275,277.508000,1.620370
4197.794123,277.566000,2.337191
4205.450568,277.625000,2.122685
4212.974072,277.683000,2.341821
4220.494433,277.741000,0.064043
4228.011654,277.799000,2.325617
4235.396210,277.856000,1.774691
4242.907211,277.914000,1.439815
4250.415077,277.972000,1.452160
4257.790445,278.029000,1.793210
4265.292102,278.087000,0.764660
4272.790631,278.145000,1.634259
4280.156828,278.202000,1.931327
4287.649159,278.260000,1.993827
4295.138368,278.318000,3.435185
4302.495411,278.375000,1.528549
4309.978434,278.433000,1.391204
4317.329402,278.490000,1.614198
4324.806246,278.548000,2.883488
4332.151147,278.605000,2.617284
4339.621821,278.663000,3.453704
4346.960661,278.720000,0.759259
4354.425172,278.778000,1.896605
4361.757959,278.835000,2.598765
4369.216314,278.893000,2.183642
4376.543056,278.950000,2.655864
4383.995264,279.008000,1.650463
4391.315968,279.065000,2.241512
4398.762036,279.123000,1.641204
4406.076709,279.180000,2.371142
4413.516644,279.238000,1.291667
4420.825295,279.295000,1.216821
4428.130962,279.352000,2.133488
4435.561740,279.410000,1.324074
4442.861395,279.467000,2.047068
4450.158074,279.524000,2.157407
4457.579711,279.582000,2.013117
4464.870389,279.639000,1.820216
4472.158095,279.696000,2.915895
4479.570607,279.754000,0.969907
4486.852324,279.811000,2.797840
4494.131074,279.868000,2.100309
4501.534479,279.926000,0.030093
4508.807251,279.983000,2.039352
4516.077062,280.040000,0.747685
4523.343914,280.097000,2.346451
4530.735220,280.155000,2.158179
4537.996108,280.212000,1.125772
4545.254043,280.269000,2.163580
4552.509026,280.326000,1.166667
4559.888262,280.384000,2.121142
4567.137295,280.441000,3.275463
4574.383383,280.498000,0.752315
4581.626526,280.555000,2.093364
4588.866727,280.612000,2.962191
4596.103987,280.669000,2.093364
4603.338308,280.726000,0.703704
4610.696532,280.784000,0.826389
4617.924929,280.841000,0.951389
4625.150392,280.898000,2.039352
4632.372923,280.955000,1.450617
4639.592525,281.012000,2.172840
4646.809198,281.069000,0.281636
4654.022945,281.126000,1.859568
4661.233767,281.183000,2.579475
4668.441666,281.240000,2.520833
4675.646644,281.297000,1.722222
4682.848703,281.354000,2.017747
4690.047844,281.411000,2.618056
4697.244070,281.468000,2.619599
4704.437381,281.525000,2.777778
4711.627780,281.582000,-0.068673
4718.815269,281.639000,2.460648
4725.999849,281.696000,2.140432
4733.181522,281.753000,1.512346
4740.360290,281.810000,2.378858
4747.536154,281.867000,2.094136
4754.583300,281.923000,2.138117
4761.753414,281.980000,1.942901
4768.920629,282.037000,3.449846
4776.084949,282.094000,2.471451
4783.246373,282.151000,2.570216
4790.404904,282.208000,1.581019
4797.435032,282.264000,2.837963
4804.587834,282.321000,3.315586
4811.737748,282.378000,2.130401
4818.884776,282.435000,2.410494
4826.028920,282.492000,1.072531
4833.044920,282.548000,1.817901
4840.183352,282.605000,2.848765
4847.318904,282.662000,3.083333
4854.451579,282.719000,3.149691
4861.456319,282.775000,2.239198
4868.583295,282.832000,3.462191
4875.707399,282.889000,3.376543
4882.703723,282.945000,3.277778
4889.822139,283.002000,2.982253
4896.937687,283.059000,2.777778
4903.925611,283.115000,1.944444
4911.035481,283.172000,2.116512
4918.142490,283.229000,2.436728
4925.122029,283.285000,3.167438
4932.223369,283.342000,2.391204
4939.197342,283.398000,3.197531
4946.293021,283.455000,3.562500
4953.385847,283.512000,3.743827
4960.351460,283.568000,2.216821
4967.438635,283.625000,2.072531
4974.398699,283.681000,3.125772
4981.480229,283.738000,3.242284
4988.434752,283.794000,2.091821
4995.510644,283.851000,0.916667
5002.459631,283.907000,0.989969
5009.529893,283.964000,1.677469
5016.473351,284.020000,1.503858
5023.537988,284.077000,1.371914
5030.475924,284.133000,1.678241
5037.534943,284.190000,1.858025
5044.467363,284.246000,2.108025
5051.397052,284.302000,1.593364
5058.447683,284.359000,0.959877
5065.371866,284.415000,2.957562
5072.416896,284.472000,1.743056
5079.335580,284.528000,1.349537
5086.251541,284.584000,2.381173
5093.288207,284.641000,0.824074
5100.198678,284.697000,2.993056
5107.106432,284.753000,3.105710
5114.134748,284.810000,2.335648
5121.037022,284.866000,0.854938
5127.936582,284.922000,2.015432
5134.833431,284.978000,1.334105
5141.850655,285.035000,1.581790
5148.742037,285.091000,2.118827
5155.630712,285.147000,1.546296
5162.516682,285.203000,1.327160
5169.522840,285.260000,1.546296
5176.403356,285.316000,-1.928241
5183.281172,285.372000,-0.015432
5190.156289,285.428000,0.042438
5197.028709,285.484000,2.087963
5204.021082,285.541000,0.310957
5210.888064,285.597000,1.904321
5217.752353,285.653000,2.320988
5224.613952,285.709000,0.268519
5231.472862,285.765000,0.179784
5238.329083,285.821000,2.020833
5245.182619,285.877000,0.663580
5252.033470,285.933000,0.926698
5258.881638,285.989000,-0.056327
5265.727125,286.045000,-0.310185
5272.569932,286.101000,0.986111
5279.532182,286.158000,0.224537
5286.369586,286.214000,-0.787037
5293.204315,286.270000,1.715278
5300.036371,286.326000,0.959877
5306.865755,286.382000,-0.220679
5313.692468,286.438000,0.873457
5320.516513,286.494000,-0.463735
5327.216104,286.549000,0.224537
5334.034863,286.605000,1.691358
5340.850958,286.661000,-0.505401
5347.664391,286.717000,0.119599
5354.475163,286.773000,1.243827
5361.283275,286.829000,0.384259
5368.088729,286.885000,0.739198
5374.891528,286.941000,0.687500
5381.691671,286.997000,0.885802
5388.489161,287.053000,-0.638889
5395.162686,287.108000,0.158951
5401.954922,287.164000,0.824846
5408.744509,287.220000,0.867284
5415.531448,287.276000,-0.028549
5422.315743,287.332000,0.308642
5428.976316,287.387000,0.628086
5435.755371,287.443000,1.297068
5442.531785,287.499000,1.206019
5449.305560,287.555000,0.506173
5456.076697,287.611000,-0.852623
5462.724355,287.666000,0.881173
5469.490268,287.722000,-0.237654
5476.253548,287.778000,0.057870
5482.893494,287.833000,0.524691
5489.651559,287.889000,-0.892747
5496.406995,287.945000,1.463735
5503.039242,288.000000,0.072531
5509.789473,288.056000,2.634259
5516.537079,288.112000,2.547840
5523.161640,288.167000,0.758488
5529.904050,288.223000,0.339506
5536.643840,288.279000,0.588735
5543.260729,288.334000,-1.682870
5549.995332,288.390000,1.267747
5556.607128,288.445000,0.675154
5563.336549,288.501000,1.363426
5569.943259,288.556000,0.245370
5576.667504,288.612000,0.898148
5583.269134,288.667000,-1.168210
5589.988209,288.723000,1.408179
5596.584764,288.778000,0.062500
5603.298676,288.834000,0.951389
5609.890162,288.889000,1.218364
5616.598916,288.945000,0.141204
5623.185340,289.000000,1.070988
5629.888941,289.056000,1.072531
5636.470308,289.111000,0.099537
5643.168763,289.167000,-0.524691
5649.745079,289.222000,0.906636
5656.438394,289.278000,-1.030093
5663.009664,289.333000,0.128858
5669.578437,289.388000,0.014660
5676.264076,289.444000,-0.322531
5682.827812,289.499000,-0.945216
5689.389054,289.554000,0.645062
5696.067030,289.610000,2.150463
5702.623244,289.665000,1.266204
5709.176969,289.720000,1.525463
5715.847296,289.776000,-0.216049
5722.396001,289.831000,-0.256173
5728.942221,289.886000,-0.706790
5735.485958,289.941000,0.865741
5742.146122,289.997000,0.480710
5748.684850,290.052000,0.466821
5755.221100,290.107000,-0.083333
5761.754871,290.162000,-0.426698
5768.404894,290.218000,-0.560185
5774.933669,290.273000,0.173611
5781.459971,290.328000,0.557099
5787.983800,290.383000,-0.060957
5794.505158,290.438000,0.536265
5801.142550,290.494000,1.222222
5807.658926,290.549000,1.650463
5814.172835,290.604000,1.754630
5820.684279,290.659000,-1.401235
5827.193260,290.714000,0.719136
5833.699778,290.769000,0.793981
5840.203835,290.824000,0.920525
5846.705432,290.879000,0.843364
5853.204572,290.934000,0.239969
5859.701254,290.989000,0.358025
5866.195481,291.044000,0.538580
5872.687254,291.099000,1.973765
5879.176574,291.154000,0.290123
5885.663444,291.209000,0.689815
5892.147863,291.264000,0.651235
5898.629834,291.319000,0.007716
5905.109357,291.374000,2.831019
5911.586435,291.429000,1.020833
5918.061069,291.484000,-0.513117
5924.533260,291.539000,-0.005401
5931.003009,291.594000,-0.457562
5937.470318,291.649000,-0.686728
5943.935188,291.704000,1.702932
5950.397621,291.759000,0.141204
5956.857618,291.814000,0.622685
5963.315180,291.869000,0.437500
5969.770309,291.924000,1.179012
5976.105706,291.978000,0.052469
5982.556017,292.033000,-1.212963
5989.003898,292.088000,0.625772
5995.449352,292.143000,-0.331019
6001.892379,292.198000,0.194444
6008.215901,292.252000,1.571759
6014.654123,292.307000,1.563272
6021.089923,292.362000,-0.456019
6027.523303,292.417000,-0.543210
6033.954262,292.472000,-0.346451
6040.265942,292.526000,0.329475
6046.692111,292.581000,0.098765
6053.115864,292.636000,1.180556
6059.420472,292.690000,0.218364
6065.839442,292.745000,0.459877
6072.256000,292.800000,0.853395
6078.553548,292.854000,-0.354167
6084.965331,292.909000,0.784722
6091.374707,292.964000,-1.463735
6097.665207,293.018000,0.524691
6104.069816,293.073000,-0.518519
6110.472021,293.128000,0.492284
6116.755485,293.182000,1.038580
6123.152931,293.237000,2.016975
6129.431725,293.291000,-0.684414
6135.824417,293.346000,-0.001543
6142.098547,293.400000,0.621142
6148.486490,293.455000,0.384259
6154.872040,293.510000,-0.047068
6161.139160,293.564000,0.157407
6167.519969,293.619000,0.125772
6173.782438,293.673000,0.915895
6180.158512,293.728000,0.755401
6186.416334,293.782000,1.133488
6192.787678,293.837000,-0.108796
6199.040859,293.891000,1.166667
6205.291742,293.945000,-0.301698
6211.656022,294.000000,1.861883
6217.902272,294.054000,1.506173
6224.261835,294.109000,0.344136
6230.503456,294.163000,-0.195988
6236.742786,294.217000,1.738426
6243.095305,294.272000,0.192130
6249.330014,294.326000,0.692130
6255.677829,294.381000,-0.013117
6261.907923,294.435000,1.309414
6268.135731,294.489000,0.794753
6274.476522,294.544000,0.565586
6280.699722,294.598000,0.945216
6286.920642,294.652000,0.807099
6293.139281,294.706000,1.047068
6299.470739,294.761000,-0.060185
6305.684781,294.815000,0.927469
6311.896546,294.869000,-0.105710
6318.106037,294.923000,0.570988
6324.428182,294.978000,1.710648
6330.633085,295.032000,-0.404321
6336.835717,295.086000,0.826389
6343.036080,295.140000,0.460648
6349.234174,295.194000,0.583333
6355.544717,295.249000,3.233796
6361.738236,295.303000,1.967593
6367.929490,295.357000,0.675154
6374.118480,295.411000,-1.267747
6380.305209,295.465000,-1.558642
6386.489676,295.519000,-0.593364
6392.671884,295.573000,0.023920
6398.851833,295.627000,-0.527006
6405.143905,295.682000,0.283179
6411.319300,295.736000,0.029321
6417.492439,295.790000,0.375000
6423.663325,295.844000,1.130401
6429.831958,295.898000,0.013889
6435.998340,295.952000,-1.186728
6442.162473,296.006000,1.039352
6448.324357,296.060000,0.837191
6454.483993,296.114000,-0.056327
6460.641384,296.168000,1.816358
6466.796529,296.222000,0.245370
6472.949431,296.276000,-0.667438
6479.100090,296.330000,0.264660
6485.248508,296.384000,1.860340
6491.280888,296.437000,0.214506
6497.424869,296.491000,1.124228
6503.566612,296.545000,0.149691
6509.706118,296.599000,1.046296
6515.843390,296.653000,1.926698
6521.978427,296.707000,-0.014660
6528.111232,296.761000,1.329475
6534.241805,296.815000,0.396605
6540.256681,296.868000,0.098765
6546.382836,296.922000,0.586420
6552.506763,296.976000,0.509259
6558.628464,297.030000,0.989198
6564.747939,297.084000,0.648920
6570.751928,297.137000,-0.681327
6576.866997,297.191000,-0.320216
6582.979845,297.245000,1.236883
6589.090471,297.299000,1.172068
6595.085780,297.352000,-0.023920
6601.192010,297.406000,1.317901
6607.296023,297.460000,-0.898148
6613.397821,297.514000,2.451389
6619.384468,297.567000,-0.388889
6625.481879,297.621000,1.287037
6631.577077,297.675000,0.860340
6637.557251,297.728000,-1.320988
6643.648069,297.782000,0.853395
6649.623947,297.835000,0.702932
6655.710390,297.889000,0.253858
6661.794627,297.943000,1.397377
6667.764048,297.996000,0.344136
6673.843917,298.050000,2.793210
6679.809053,298.103000,0.171296
6685.884559,298.157000,0.781636
6691.957864,298.211000,0.101080
6697.916562,298.264000,-0.334877
6703.985510,298.318000,-0.226852
6709.939935,298.371000,-0.376543
6716.004532,298.425000,-0.054012
6721.954688,298.478000,-0.250000
6728.014938,298.532000,0.842593
6733.960830,298.585000,0.213735
6739.904611,298.638000,1.766975
6745.958369,298.692000,-0.402006
6751.897893,298.745000,-1.193673
6757.947317,298.799000,-0.211420
6763.882588,298.852000,-1.265432
6769.927680,298.906000,0.239198
6775.858703,298.959000,0.347994
6781.787624,299.012000,1.105710
6787.826249,299.066000,0.175154
6793.750928,299.119000,-0.146605
6799.673508,299.172000,0.912809
6805.705677,299.226000,1.337963
6811.624022,299.279000,0.221451
6817.540272,299.332000,0.449074
6823.565994,299.386000,0.207562
6829.478016,299.439000,-0.084877
6835.387945,299.492000,0.040123
6841.407231,299.546000,0.497685
6847.312940,299.599000,-0.263889
6853.216559,299.652000,0.791667
6859.118090,299.705000,2.192130
6865.017534,299.758000,0.510031
6871.026143,299.812000,-0.163580
6876.921378,299.865000,0.841049
6882.814529,299.918000,-0.344907
6888.705597,299.971000,1.239198
6894.594584,300.024000,0.330247
6900.592545,300.078000,1.279321
6906.477333,300.131000,0.776235
6912.360044,300.184000,-0.898148
6918.240677,300.237000,0.858025
6924.119235,300.290000,-4.507716
6929.995718,300.343000,-9.921296
6935.870127,300.396000,-0.913580
6941.742464,300.449000,0.753086
6947.612730,300.502000,0.821759
6953.480925,300.555000,0.598765
6959.347051,300.608000,0.424383
6965.211108,300.661000,0.489198
6971.073099,300.714000,0.266975
6976.933024,300.767000,-0.208333
6982.790884,300.820000,-1.483796
6988.646680,300.873000,-0.161265
6994.500413,300.926000,0.176698
7000.352085,300.979000,0.997685
7006.201696,301.032000,-0.050926
7012.049248,301.085000,-0.588735
7017.894742,301.138000,-0.273148
7023.738178,301.191000,-0.851080
7029.579559,301.244000,-0.651235
7035.418884,301.297000,-0.462963
7041.256155,301.350000,0.926698
7047.091373,301.403000,0.270062
7052.924539,301.456000,0.445988
7058.645653,301.508000,-3.911265
7064.474758,301.561000,-10.962191
7070.301814,301.614000,-9.421296
7076.126822,301.667000,-4.534722
7081.949784,301.720000,-0.909722
7087.660892,301.772000,0.878086
7093.479803,301.825000,0.226852
7099.296670,301.878000,-0.378086
7105.111496,301.931000,-0.006944
7110.814624,301.983000,0.226080
7116.625408,302.036000,1.192130
7122.434152,302.089000,-0.284722
7128.240858,302.142000,0.187500
7133.936024,302.194000,-0.813272
7139.738696,302.247000,1.297840
7145.539334,302.300000,0.852623
7151.228549,302.352000,0.169753
7157.025159,302.405000,0.543981
7162.819737,302.458000,1.478395
7168.503010,302.510000,-0.211420
7174.293567,302.563000,-0.325617
7180.082095,302.616000,1.959105
7185.759436,302.668000,1.585648
7191.543949,302.721000,1.145062
7197.217352,302.773000,-1.320988
7202.997854,302.826000,-0.746914
7208.667324,302.878000,1.529321
7214.443819,302.931000,1.162037
7220.109360,302.983000,0.496142
7225.881853,303.036000,1.250772
7231.543468,303.088000,0.932870
7237.311962,303.141000,0.057099
7242.969657,303.193000,1.248457
7248.734156,303.246000,1.815586
7254.387934,303.298000,1.283951
7260.148443,303.351000,1.212191
7265.798308,303.403000,0.661265
7271.554831,303.456000,-0.695216
7277.200787,303.508000,-0.250772
7282.953328,303.561000,1.376543
7288.595379,303.613000,-0.081019
7294.235498,303.665000,0.460648
7299.982093,303.718000,0.275463
7305.618313,303.770000,0.740741
7311.252604,303.822000,-0.989969
7316.993262,303.875000,2.303241
7322.623660,303.927000,0.222222
7328.252131,303.979000,0.929012
7333.986862,304.032000,1.510802
7339.611446,304.084000,1.289352
7345.234108,304.136000,5.118827
7350.962920,304.189000,1.701389
7356.581700,304.241000,2.216821
7362.198561,304.293000,0.391975
7367.813502,304.345000,0.286265
7373.426525,304.397000,2.034722
7379.145517,304.450000,1.192130
7384.754669,304.502000,0.390432
7390.361906,304.554000,0.705247
7395.967228,304.606000,1.032407
7401.570637,304.658000,1.687500
7407.279836,304.711000,0.737654
7412.879384,304.763000,-0.792438
7418.477021,304.815000,0.804784
7424.072749,304.867000,-0.308642
7429.666569,304.919000,-1.813272
7435.258480,304.971000,-0.064043
7440.848486,305.023000,0.057099
7446.436585,305.075000,0.164352
7452.022780,305.127000,1.594136
7457.607071,305.179000,0.619599
7463.296795,305.232000,0.064043
7468.877245,305.284000,0.618056
7474.455794,305.336000,0.458333
7480.032444,305.388000,-0.024691
7485.607195,305.440000,0.075617
7491.180048,305.492000,0.252315
7496.751004,305.544000,0.346451
7502.212985,305.595000,0.588735
7507.780187,305.647000,2.915123
7513.345495,305.699000,-0.064043
7518.908909,305.751000,1.093364
7524.470432,305.803000,0.774691
7530.030064,305.855000,0.706019
7535.587805,305.907000,0.341049
7541.143658,305.959000,0.044753
7546.697622,306.011000,0.795525
7552.249699,306.063000,-0.157407
7557.693173,306.114000,-0.080247
7563.241514,306.166000,-1.486883
7568.787971,306.218000,0.242284
7574.332545,306.270000,1.185957
7579.875237,306.322000,1.290123
7585.416047,306.374000,2.182870
7590.848476,306.425000,0.692901
7596.385562,306.477000,0.533951
7601.920769,306.529000,0.173611
7607.454098,306.581000,-0.364969
7612.879195,306.632000,0.496142
7618.408808,306.684000,0.051698
7623.936546,306.736000,1.370370
7629.462411,306.788000,-0.468364
7634.880189,306.839000,1.286265
7640.402345,306.891000,-0.486111
7645.922629,306.943000,-0.922840
7651.334938,306.994000,1.353395
7656.851519,307.046000,0.553241
7662.260197,307.097000,0.173611
7667.773079,307.149000,0.700617
7673.284094,307.201000,-0.250000
7678.687317,307.252000,0.409722
7684.194638,307.304000,-0.387346
7689.700096,307.356000,0.025463
7695.097870,307.407000,0.921296
7700.599639,307.459000,-0.228395
7705.993798,307.510000,0.292438
7711.491883,307.562000,-0.043981
7716.882430,307.613000,0.547068
7722.376833,307.665000,0.398148
7727.763772,307.716000,-0.296296
7733.254498,307.768000,0.040123
7738.637831,307.819000,-0.969136
7744.124884,307.871000,0.185957
7749.504617,307.922000,0.044753
7754.988000,307.974000,-0.787809
7760.364134,308.025000,0.279321
7765.738489,308.076000,-0.091049
7771.216392,308.128000,7.841821
7776.587155,308.179000,22.503858
7782.061397,308.231000,-1.166667
7787.428571,308.282000,0.434414
7792.793970,308.333000,-1.494599
7798.262745,308.385000,0.300154
7803.624561,308.436000,-0.727623
7808.984603,308.487000,-0.070216
7814.447920,308.539000,3.041667
7819.804385,308.590000,-0.138117
7825.159080,308.641000,-0.261574
7830.616947,308.693000,0.797840
7835.968069,308.744000,0.329475
7841.317424,308.795000,0.250000
7846.665012,308.846000,-0.541667
7852.115636,308.898000,0.227623
7857.459659,308.949000,-0.079475
7862.801917,309.000000,0.361883
7868.142413,309.051000,0.652006
7873.481146,309.102000,0.784722
7878.922746,309.154000,-0.126543
7884.257923,309.205000,0.063272
7889.591340,309.256000,-0.040123
7894.922998,309.307000,0.677469
7900.252898,309.358000,0.217593
7905.581041,309.409000,-0.263117
7910.907428,309.460000,0.868827
7916.336447,309.512000,0.171296
7921.659290,309.563000,0.342593
7926.980379,309.614000,-0.256173
7932.299715,309.665000,0.847222
7937.617300,309.716000,0.202160
7942.933134,309.767000,0.540895
7948.247217,309.818000,0.153549
7953.559551,309.869000,-0.307099
7958.870137,309.920000,-0.554012
7964.178976,309.971000,0.803241
7969.486068,310.022000,0.162809
7974.791414,310.073000,0.353395
7980.095015,310.124000,-0.320988
7985.396872,310.175000,0.222994
7990.696985,310.226000,0.069444
7995.995357,310.277000,0.601852
8001.291987,310.328000,1.691358
8006.586876,310.379000,0.188272
8011.880026,310.430000,-1.081790
8017.067700,310.480000,-0.287037
8022.357406,310.531000,0.641975
8027.645376,310.582000,1.291667
8032.931609,310.633000,0.315586
8038.216106,310.684000,0.591821
8043.498869,310.735000,0.188272
8048.779898,310.786000,0.876543
8053.955695,310.836000,0.528549
8059.233293,310.887000,-0.549383
8064.509160,310.938000,0.072531
8069.783296,310.989000,0.022377
8074.952339,311.039000,-0.307870
8080.223051,311.090000,-1.465278
8085.492035,311.141000,1.164352
8090.759292,311.192000,0.095679
8095.921594,311.242000,-0.070988
8101.185433,311.293000,1.628858
8106.447548,311.344000,0.057099
8111.604811,311.394000,-0.898148
8116.863513,311.445000,0.644290
8122.120493,311.496000,0.375772
8127.272724,311.546000,-0.952932
8132.526297,311.597000,0.143519
8137.778150,311.648000,0.266975
8142.925357,311.698000,1.215278
8148.173807,311.749000,-0.263889
8153.420541,311.800000,0.157407
8158.562731,311.850000,1.436728
8163.806066,311.901000,0.134259
8168.944927,311.951000,1.107253
8174.184869,312.002000,0.226080
8179.320403,312.052000,-1.238426
8184.556953,312.103000,0.634259
8189.689165,312.153000,0.564043
8194.922327,312.204000,0.791667
8200.051219,312.254000,-0.323302
8205.280996,312.305000,-0.670525
8210.406572,312.355000,0.212191
8215.632968,312.406000,0.333333
8220.755230,312.456000,0.295525
8225.978248,312.507000,0.858796
8231.097200,312.557000,-0.091821
8236.316843,312.608000,-0.085648
8241.432488,312.658000,-0.209877
8246.546497,312.708000,-0.550154
8251.761101,312.759000,-0.686728
8256.871808,312.809000,-0.269290
8261.980881,312.859000,-1.287037
8267.190453,312.910000,-3.484568
8272.296229,312.960000,0.913580
8277.400373,313.010000,0.931327
8282.604921,313.061000,1.021605
8287.705773,313.111000,-0.244599
8292.804996,313.161000,0.687500
8298.004526,313.212000,-0.739969
8303.100462,313.262000,-0.157407
8308.194770,313.312000,0.744599
8313.287453,313.362000,-0.265432
8318.480316,313.413000,0.520062
8323.569717,313.463000,-0.626543
8328.657496,313.513000,-0.486883
8333.743651,313.563000,0.240741
8338.828185,313.613000,0.681327
8344.012739,313.664000,1.378858
8349.094000,313.714000,-0.184414
8354.173640,313.764000,0.354938
8359.251662,313.814000,-0.054012
8364.328066,313.864000,0.450617
8369.402853,313.914000,-0.166667
8374.476024,313.964000,-0.317130
8379.547579,314.014000,0.611111
8384.718901,314.065000,0.351080
8389.787195,314.115000,-1.378858
8394.853876,314.165000,-0.027778
8399.918944,314.215000,-0.855710
8404.982400,314.265000,-0.827160
8410.044246,314.315000,0.209105
8415.104481,314.365000,-1.357253
8420.163107,314.415000,-0.227623
8425.220124,314.465000,2.440586
8430.275533,314.515000,-0.648148
8435.329336,314.565000,0.086420
8440.381532,314.615000,0.044753
8445.432122,314.665000,0.036265
8450.481107,314.715000,0.563272
8455.528489,314.765000,0.628858
8460.473367,314.814000,-0.092593
8465.517575,314.864000,0.025463
8470.560181,314.914000,-0.022377
8475.601186,314.964000,0.726852
8480.640590,315.014000,0.709877
8485.678395,315.064000,1.826389
8490.714602,315.114000,1.334105
8495.749210,315.164000,1.472222
8500.681577,315.213000,1.587191
8505.713024,315.263000,2.123457
8510.742875,315.313000,1.498457
8515.771131,315.363000,1.787809
8520.797793,315.413000,1.993827
8525.722375,315.462000,1.400463
8530.745883,315.512000,1.208333
8535.767799,315.562000,-1.031636
8540.788124,315.612000,0.025463
8545.706499,315.661000,0.385802
8550.723675,315.711000,-0.226080
8555.739262,315.761000,0.290895
8560.652997,315.810000,-0.419753
8565.665441,315.860000,1.500772
8570.676298,315.910000,0.402778
8575.585399,315.959000,0.187500
8580.593116,316.009000,0.007716
8585.599249,316.059000,0.157407
8590.503723,316.108000,-0.527778
8595.506721,316.158000,-1.014660
8600.508137,316.208000,-1.172840
8605.407991,316.257000,0.054784
8610.406276,316.307000,0.057870
8615.303063,316.356000,-0.279321
8620.298221,316.406000,0.576389
8625.191944,316.455000,1.013889
8630.183977,316.505000,0.077932
8635.074640,316.554000,0.237654
8640.063551,316.604000,0.314815
8644.951156,316.653000,0.022377
8649.936949,316.703000,0.216049
8654.821499,316.752000,0.833333
8659.804175,316.802000,-0.226852
8664.685673,316.851000,-1.183642
8669.665237,316.901000,-0.129630
8674.543685,316.950000,-1.094136
8679.520139,317.000000,0.075617
8684.395541,317.049000,0.503086
8689.269436,317.098000,0.985340
8694.241247,317.148000,-0.027778
8699.112100,317.197000,-1.226852
8703.981448,317.246000,-0.448302
8708.948621,317.296000,0.043981
8713.814931,317.345000,0.422068
8718.779005,317.395000,0.968364
8723.642281,317.444000,0.435957
8728.504055,317.493000,-1.733025
8733.364329,317.542000,-0.483025
8738.322247,317.592000,-0.377315
8743.179491,317.641000,0.204475
8748.035237,317.690000,0.507716
8752.889486,317.739000,-1.283951
8757.841258,317.789000,0.030093
8762.692483,317.838000,-0.851080
8767.542212,317.887000,-1.154321
8772.390446,317.936000,0.468364
8777.336084,317.986000,0.113426
8782.181300,318.035000,1.351080
8787.025024,318.084000,-0.577932
8791.867255,318.133000,0.328704
8796.707995,318.182000,-1.013889
8801.547244,318.231000,0.507716
8806.385003,318.280000,-0.042438
8811.319957,318.330000,-0.445988
8816.154708,318.379000,-0.186728
8820.987971,318.428000,-0.070988
8825.819746,318.477000,0.172068
8830.650035,318.526000,-0.739198
8835.478838,318.575000,-1.433642
8840.306156,318.624000,-0.250000
8845.131990,318.673000,-1.508488
8849.956339,318.722000,-0.260802
8854.779206,318.771000,-0.148920
8859.600590,318.820000,0.093364
8864.420492,318.869000,-1.019290
8869.238913,318.918000,-1.047068
8874.055854,318.967000,1.314815
8878.871314,319.016000,0.055556
8883.685296,319.065000,-0.879630
8888.497800,319.114000,-0.882716
8893.308826,319.163000,-1.055556
8898.118374,319.212000,0.057870
8902.926447,319.261000,-0.722994
8907.634964,319.309000,-0.777006
8912.440116,319.358000,-0.347222
8917.243794,319.407000,-0.685185
8922.045998,319.456000,-0.201389
8926.846729,319.505000,0.668981
8931.645988,319.554000,0.852623
8936.443775,319.603000,0.093364
8941.142222,319.651000,-0.277006
8945.937098,319.700000,-0.114198
8950.730504,319.749000,1.676698
8955.522441,319.798000,-1.768519
8960.215161,319.846000,-4.225309
8965.004192,319.895000,-1.793210
8969.791757,319.944000,-0.354167
8974.577855,319.993000,-0.491512
8979.264858,320.041000,0.040123
8984.048055,320.090000,-0.645833
8988.829789,320.139000,1.983796
8993.512517,320.187000,0.070216
8998.291355,320.236000,0.125000
9003.068730,320.285000,0.138117
9007.747190,320.333000,-0.785494
9012.521672,320.382000,-1.296296
9017.294694,320.431000,-0.939043
9021.968893,320.479000,-0.524691
9026.739026,320.528000,-0.783179
9031.410396,320.576000,-1.017747
9036.177644,320.625000,-1.302469
9040.943434,320.674000,1.382716
9045.610552,320.722000,-1.711420
9050.373460,320.771000,0.263117
9055.037756,320.819000,-0.761574
9059.797784,320.868000,0.290123
9064.459261,320.916000,0.426698
9069.216413,320.965000,-1.037809
9073.875072,321.013000,-0.788580
9078.629350,321.062000,1.490741
9083.285194,321.110000,-0.052469
9088.036601,321.159000,-0.907407
9092.689634,321.207000,0.162809
9097.438171,321.256000,0.210648
9102.088394,321.304000,0.007716
9106.737229,321.352000,-1.167438
9111.481482,321.401000,0.907407
9116.127511,321.449000,0.385802
9120.868902,321.498000,0.450617
9125.512128,321.546000,0.277006
9130.153968,321.594000,-0.410494
9134.891085,321.643000,-1.099537
9139.530126,321.691000,-0.332562
9144.167783,321.739000,-0.180556
9148.900630,321.788000,-0.198302
9153.535492,321.836000,0.113426
9158.168971,321.884000,-0.439043
9162.801069,321.932000,-1.286265
9167.528244,321.981000,-1.437500
9172.157551,322.029000,-0.727623
9176.785479,322.077000,-0.226852
9181.412027,322.125000,0.479167
9186.133540,322.174000,-1.010802
9190.757302,322.222000,-2.054012
9195.379688,322.270000,-1.128858
9200.000697,322.318000,-1.077160
9204.620330,322.366000,-0.545525
9209.334786,322.415000,0.073302
9213.951640,322.463000,0.340278
9218.567119,322.511000,0.211420
9223.181225,322.559000,-0.584105
9227.793957,322.607000,-5.180556
9232.405318,322.655000,-2.505401
9237.015306,322.703000,-0.613426
9241.623923,322.751000,-0.172068
9246.231170,322.799000,-0.081790
9250.932988,322.848000,0.606481
9255.537466,322.896000,0.273148
9260.140576,322.944000,-1.900463
9264.742318,322.992000,0.435185
9269.342693,323.040000,-0.784722
9273.941700,323.088000,0.378858
9278.539341,323.136000,-0.944444
9283.135616,323.184000,-0.262346
9287.730527,323.232000,-0.173611
9292.324072,323.280000,-1.843364
9296.916254,323.328000,-1.841821
9301.411445,323.375000,0.004630
9306.000929,323.423000,-0.655093
9310.589052,323.471000,-0.726852
9315.175812,323.519000,-1.106481
9319.761212,323.567000,-0.932870
9324.345252,323.615000,-0.740741
9328.927932,323.663000,-1.366512
9333.509253,323.711000,-1.908951
9338.089216,323.759000,-0.326389
9342.572447,323.806000,0.117284
9347.149722,323.854000,-0.067901
9351.725642,323.902000,0.728395
9356.300205,323.950000,0.720679
9360.873412,323.998000,-0.364198
9365.350032,324.045000,0.037037
9369.920559,324.093000,0.746142
9374.489732,324.141000,-0.203704
9379.057552,324.189000,-2.452160
9383.528899,324.236000,-3.233796
9388.094043,324.284000,-0.636574
9392.657836,324.332000,0.342593
9397.125241,324.379000,-0.941358
9401.686361,324.427000,-0.655093
9406.246132,324.475000,0.634259
9410.804554,324.523000,-2.186728
9415.266702,324.570000,-0.206790
9419.822456,324.618000,-0.758488
9424.281993,324.665000,-1.071759
9428.835082,324.713000,-0.086420
9433.386824,324.761000,-1.366512
9437.842435,324.808000,0.246914
9442.391516,324.856000,-0.385802
9446.844521,324.903000,-0.675154
9451.390942,324.951000,0.841821
9455.936020,324.999000,-0.903549
9460.385108,325.046000,-1.054012
9464.927530,325.094000,0.846451
9469.374018,325.141000,0.139660
9473.913786,325.189000,0.138117
9478.357677,325.236000,-0.371914
9482.894794,325.284000,0.432870
9487.336090,325.331000,-0.334105
9491.870557,325.379000,1.464506
9496.309260,325.426000,-0.844136
9500.746681,325.473000,-0.043210
9505.277193,325.521000,-1.683642
9509.712024,325.568000,0.587963
9514.239893,325.616000,-0.609568
9518.672137,325.663000,-1.053241
9523.103102,325.710000,0.708333
9527.627024,325.758000,-0.720679
9532.055405,325.805000,-0.837191
9536.576689,325.853000,0.614969
9541.002489,325.900000,0.131173
9545.427013,325.947000,-2.320216
9549.850260,325.994000,-0.062500
9554.366303,326.042000,-0.108025
9558.786974,326.089000,-0.339506
9563.206371,326.136000,0.702160
9567.718482,326.184000,-0.804784
9572.135305,326.231000,-0.047840
9576.550855,326.278000,0.551698
9580.965134,326.325000,-0.849537
9585.472021,326.373000,-0.947531
9589.883730,326.420000,-0.862654
9594.294169,326.467000,-0.226852
9598.703338,326.514000,-0.373457
9603.111238,326.561000,-0.311728
9607.611614,326.609000,-0.614969
9612.016950,326.656000,-0.456790
9616.421019,326.703000,-1.463735
9620.823821,326.750000,-0.455247
9625.225356,326.797000,-0.331019
9629.625626,326.844000,0.613426
9634.024630,326.891000,1.001543
9638.422369,326.938000,0.015432
9642.818845,326.985000,-1.172068
9647.214056,327.032000,-0.094907
9651.701479,327.080000,-0.438272
9656.094138,327.127000,0.770062
9660.485535,327.174000,-0.563272
9664.875670,327.221000,0.018519
9669.264544,327.268000,-0.451389
9673.652158,327.315000,0.558642
9678.038512,327.362000,0.017747
9682.423607,327.409000,-0.318673
9686.807443,327.456000,-0.712963
9691.190021,327.503000,-0.154321
9695.478134,327.549000,-1.320988
9699.858224,327.596000,0.148920
9704.237057,327.643000,0.644290
9708.614633,327.690000,-0.143519
9712.990955,327.737000,-0.698302
9717.366021,327.784000,0.040895
9721.739833,327.831000,0.007716
9726.112390,327.878000,0.324074
9730.483695,327.925000,0.267747
9734.760780,327.971000,-0.931327
9739.129606,328.018000,0.059414
9743.497180,328.065000,-1.539352
9747.863503,328.112000,0.245370
9752.228575,328.159000,1.608025
9756.499562,328.205000,0.071759
9760.862161,328.252000,1.310185
9765.223511,328.299000,-0.503086
9769.583612,328.346000,-1.231481
9773.849737,328.392000,0.141975
9778.207369,328.439000,1.679012
9782.563754,328.486000,0.641975
9786.918893,328.533000,-1.141204
9791.180163,328.579000,0.615741
9795.532837,328.626000,0.238426
9799.884266,328.673000,2.219907
9804.141906,328.719000,1.564043
9808.490874,328.766000,3.442130
9812.838598,328.813000,0.564043
9817.092614,328.859000,4.772377
9821.437879,328.906000,-0.036265
9825.689490,328.952000,-0.743056
9830.032299,328.999000,0.817130
9834.373868,329.046000,0.865741
9838.621862,329.092000,0.160494
9842.960977,329.139000,0.432099
9847.206571,329.185000,-0.289352
9851.543235,329.232000,-1.420525
9855.786431,329.278000,-0.253858
9860.120646,329.325000,-1.347222
9864.361446,329.371000,-0.808642
9868.693214,329.418000,-1.612654
9872.931619,329.464000,-1.215278
9877.260942,329.511000,1.001543
9881.496956,329.557000,0.246914
9885.823836,329.604000,-1.032407
9890.057460,329.650000,-0.983796
9894.289903,329.696000,-0.820216
9898.613135,329.743000,-0.668981
9902.843191,329.789000,-1.466821
9907.163985,329.836000,-0.027778
9911.391656,329.882000,-0.856481
9915.618148,329.928000,-1.670525
9919.935303,329.975000,0.102623
9924.159413,330.021000,0.000000
9928.382346,330.067000,-1.444444
9932.695866,330.114000,-0.416667
9936.916419,330.160000,-0.911265
9941.135797,330.206000,-0.316358
9945.445687,330.253000,-0.462191
9949.662689,330.299000,-1.003858
9953.878516,330.345000,0.686728
9958.093170,330.391000,0.118056
9962.398234,330.438000,-0.941358
9966.610516,330.484000,-0.864198
9970.821625,330.530000,0.240741
9975.031562,330.576000,0.855710
9979.240328,330.622000,0.882716
9983.539380,330.669000,-0.540895
9987.745778,330.715000,0.619599
9991.951007,330.761000,0.195988
9996.155067,330.807000,-0.506173
10000.357957,330.853000,-1.309414
10004.559679,330.899000,-0.545525
10008.760233,330.945000,-1.863426
10013.050897,330.992000,0.745370
10017.249091,331.038000,0.017747
10021.446118,331.084000,-0.194444
10025.641979,331.130000,-0.445988
10029.836675,331.176000,-1.708333
10034.030205,331.222000,-0.268519
10038.222571,331.268000,0.229167
10042.413773,331.314000,-0.502315
10046.603811,331.360000,-1.459877
10050.792686,331.406000,-0.758488
10054.980398,331.452000,-0.499228
10059.166948,331.498000,-1.030093
10063.352336,331.544000,-0.506944
10067.536563,331.590000,0.967593
10071.719629,331.636000,0.158179
10075.901535,331.682000,-0.795525
10080.082281,331.728000,0.332562
10084.261868,331.774000,4.857253
10088.440296,331.820000,-0.157407
10092.526768,331.865000,0.108796
10096.702905,331.911000,0.036265
10100.877884,331.957000,-0.525463
10105.051707,332.003000,-0.530864
10109.224373,332.049000,0.323302
10113.395884,332.095000,-1.129630
10117.475591,332.140000,-0.401235
10121.644816,332.186000,-0.478395
10125.812886,332.232000,-0.016204
10129.979802,332.278000,0.148148
10134.145565,332.324000,0.412037
10138.219652,332.369000,-0.154321
10142.383134,332.415000,-0.057870
10146.545464,332.461000,0.396605
10150.706643,332.507000,-1.668210
10154.776247,332.552000,0.841049
10158.935148,332.598000,-0.383488
10163.092900,332.644000,-0.629630
10167.159152,332.689000,-1.647377
10171.314630,332.735000,-0.811728
10175.468958,332.781000,1.697531
10179.531864,332.826000,-0.497685
10183.683921,332.872000,-2.345679
10187.834831,332.918000,-1.385031
10191.894393,332.963000,-0.878858
10196.043035,333.009000,0.107253
10200.190530,333.055000,-0.145833
10204.246754,333.100000,0.318673
10208.391984,333.146000,-1.192130
10212.445992,333.191000,-0.253858
10216.588958,333.237000,0.134259
10220.640753,333.282000,-0.266975
10224.781457,333.328000,-0.381944
10228.831039,333.373000,1.543981
10232.969483,333.419000,-1.282407
10237.016856,333.464000,0.400463
10241.153042,333.510000,-0.210648
10245.198206,333.555000,0.703704
10249.332135,333.601000,0.772377
10253.375094,333.646000,-1.035494
10257.506768,333.692000,-1.377315
10261.547522,333.737000,2.426698
10265.587186,333.782000,0.158179
10269.715494,333.828000,0.008488
10273.752956,333.873000,-0.882716
10277.879015,333.919000,-0.904321
10281.914277,333.964000,0.062500
10285.948452,334.009000,-0.167438
10290.071151,334.055000,0.144290
10294.103128,334.100000,-0.114969
10298.134020,334.145000,5.580247
10302.253364,334.191000,2.537037
10306.282060,334.236000,0.401235
10310.309672,334.281000,-6.743827
10314.425666,334.327000,-2.420525
10318.451085,334.372000,-0.513117
10322.475422,334.417000,0.047068
10326.498675,334.462000,-0.256944
10330.610215,334.508000,0.335648
10334.631280,334.553000,1.139660
10338.651263,334.598000,-1.066358
10342.670165,334.643000,0.440586
10346.687987,334.688000,-1.551698
10350.704728,334.733000,-0.430556
10354.809614,334.779000,-0.542438
10358.824172,334.824000,0.247685
10362.837651,334.869000,35.448302
10366.850051,334.914000,46.650463
10370.861373,334.959000,25.597222
10374.871618,335.004000,3.459105
10378.880786,335.049000,0.317901
10382.888876,335.094000,-0.358796
10386.984923,335.140000,-0.546296
10390.990838,335.185000,-1.365741
10394.995677,335.230000,0.628086
10398.999440,335.275000,-1.891975
10403.002130,335.320000,0.660494
10407.003745,335.365000,0.827932
10411.004286,335.410000,-0.635802
10415.003755,335.455000,0.334877
10419.002150,335.500000,0.551698
10422.999473,335.545000,-0.374228
10426.995723,335.590000,0.199074
10430.990902,335.635000,-0.908179
10434.985010,335.680000,0.954475
10438.889325,335.724000,0.137346
10442.881316,335.769000,0.027006
10446.872237,335.814000,2.046296
10450.862088,335.859000,0.092593
10454.850871,335.904000,-0.137346
10458.838585,335.949000,-0.739198
10462.825230,335.994000,0.507716
10466.810808,336.039000,0.645062
10470.706786,336.083000,0.976852
10474.690253,336.128000,-0.453704
10478.672654,336.173000,-0.442130
10482.653989,336.218000,-0.031636
10486.634259,336.263000,-1.222994
10490.525048,336.307000,0.480710
10494.503211,336.352000,-0.033951
10498.480310,336.397000,-0.181327
10502.456345,336.442000,-1.033179
10506.342995,336.486000,0.701389
10510.316927,336.531000,0.679012
10514.289797,336.576000,-0.043210
10518.261604,336.621000,1.091049
10522.144122,336.665000,-0.245370
10526.113830,336.710000,-0.598765
10530.082477,336.755000,-0.630401
10533.961906,336.799000,0.120370
10537.928455,336.844000,-0.543210
10541.893946,336.889000,0.436728
10545.770289,336.933000,-0.897377
10549.733685,336.978000,-0.195988
10553.607982,337.022000,-2.364969
10557.569284,337.067000,-0.255401
10561.529529,337.112000,0.117284
10565.400747,337.156000,-1.790895
10569.358902,337.201000,0.146605
10573.228076,337.245000,0.081790
10577.184142,337.290000,0.090278
10581.051275,337.334000,-0.940586
10585.005254,337.379000,1.039352
10588.870347,337.423000,-1.560185
10592.822240,337.468000,-1.083333
10596.685295,337.512000,0.315586
10600.635105,337.557000,1.895833
10604.496123,337.601000,0.648148
10608.443850,337.646000,1.798611
10612.302834,337.690000,-0.229938
10616.160811,337.734000,-1.035494
10620.105430,337.779000,0.108025
10623.961375,337.823000,3.474537
10627.903916,337.868000,-0.817901
10631.757830,337.912000,0.137346
10635.610740,337.956000,-0.384259
10639.550179,338.001000,0.935185
10643.401061,338.045000,2.312500
10647.250940,338.089000,-1.054784
10651.187281,338.134000,-0.366512
10655.035134,338.178000,-0.532407
10658.881986,338.222000,0.935957
10662.815231,338.267000,0.182099
10666.660059,338.311000,-0.530093
10670.503887,338.355000,0.246142
10674.346716,338.399000,-0.756944
10678.275848,338.444000,0.625000
10682.116656,338.488000,-0.014660
10685.956465,338.532000,-0.559414
10689.795276,338.576000,1.371914
10693.633090,338.620000,-0.647377
10697.557096,338.665000,-0.008488
10701.392893,338.709000,-0.929012
10705.227693,338.753000,-0.960648
10709.061498,338.797000,-0.787809
10712.894307,338.841000,-0.293210
10716.726120,338.885000,3.033179
10720.556939,338.929000,-1.362654
10724.386763,338.973000,-0.538580
10728.302601,339.018000,-1.536265
10732.130414,339.062000,0.546296
10735.957235,339.106000,-0.537809
10739.783062,339.150000,-0.899691
10743.607897,339.194000,-0.584105
10747.431740,339.238000,0.013889
10751.254591,339.282000,0.076389
10755.076450,339.326000,-1.665895
10758.897319,339.370000,-0.965278
10762.717197,339.414000,-0.259259
10766.536084,339.458000,-0.101080
10770.353982,339.502000,0.727623
10774.170890,339.546000,-0.761574
10777.986809,339.590000,-0.390432
10781.801740,339.634000,0.555556
10785.615682,339.678000,0.929012
10789.341989,339.721000,1.270833
10793.153978,339.765000,-0.974537
10796.964980,339.809000,-0.661265
10800.774995,339.853000,-0.033951
10804.584024,339.897000,-0.372685
10808.392066,339.941000,-0.209105
10812.199123,339.985000,-1.738426
10816.005195,340.029000,-0.076389
10819.723813,340.072000,0.345679
10823.527938,340.116000,0.433642
10827.331078,340.160000,-0.010802
10831.133235,340.204000,-1.129630
10834.848029,340.247000,0.010802
10838.648242,340.291000,0.287037
10842.447472,340.335000,1.163580
10846.245720,340.379000,-0.263117
10849.956695,340.422000,-1.361883
10853.753002,340.466000,-0.451389
10857.548328,340.510000,-0.498457
10861.342673,340.554000,0.105710
10865.049836,340.597000,-0.610340
10868.842243,340.641000,-1.891975
10872.633670,340.685000,1.077932
10876.337983,340.728000,3.280864
10880.127474,340.772000,-0.270062
10883.829896,340.815000,-1.221451
10887.617453,340.859000,-0.238426
10891.404033,340.903000,-1.030864
10895.103609,340.946000,-1.101852
10898.888257,340.990000,-2.292438
10902.585946,341.033000,-0.350309
10906.368663,341.077000,0.295525
10910.150404,341.121000,-0.861883
10913.845254,341.164000,0.207562
10917.625066,341.208000,0.545525
10921.318033,341.251000,-1.115741
10925.095918,341.295000,0.829475
10928.787002,341.338000,-0.493056
10932.562962,341.382000,0.422068
10936.252165,341.425000,-0.364198
10939.940439,341.468000,-0.468364
10943.713524,341.512000,-0.226852
10947.399919,341.555000,-0.503858
10951.171083,341.599000,-0.083333
10954.855601,341.642000,-0.915123
10958.624845,341.686000,-1.695988
10962.307486,341.729000,-0.403549
10965.989201,341.772000,-1.109568
10969.755578,341.816000,-0.942901
10973.435419,341.859000,-0.330247
10977.114334,341.902000,0.442130
10980.877848,341.946000,0.122685
10984.554892,341.989000,-0.395833
10988.231011,342.032000,-2.121914
10991.991665,342.076000,-1.766975
10995.665914,342.119000,-3.870370
10999.339240,342.162000,0.230710
11003.011643,342.205000,-0.536265
11006.768496,342.249000,-0.726080
11010.439032,342.292000,-0.104167
11014.108646,342.335000,-2.638889
11017.777338,342.378000,-1.932870
11021.530396,342.422000,-3.073302
11025.197224,342.465000,-1.915895
11028.863132,342.508000,0.651235
11032.528119,342.551000,0.810185
11036.192187,342.594000,0.594907
11039.855335,342.637000,-1.319444
11043.602720,342.681000,-1.385802
11047.264009,342.724000,-0.619599
11050.924378,342.767000,0.039352
11054.583829,342.810000,-0.716821
11058.242363,342.853000,-0.303241
11061.899979,342.896000,-0.322531
11065.556677,342.939000,-0.128086
11069.212459,342.982000,-1.459105
11072.867324,343.025000,0.134259
11076.521273,343.068000,-0.228395
11080.174306,343.111000,-0.837191
11083.826423,343.154000,-0.965278
11087.477626,343.197000,0.413580
11091.127913,343.240000,-0.059414
11094.777286,343.283000,-0.060185
11098.425745,343.326000,-0.410494
11102.073291,343.369000,-1.008488
11105.719922,343.412000,-0.263117
11109.365641,343.455000,-0.660494
11113.010447,343.498000,0.121914
11116.654340,343.541000,0.279321
11120.297322,343.584000,0.181327
11123.939391,343.627000,-0.689815
11127.580549,343.670000,-0.385031
11131.220797,343.713000,-0.319444
11134.775508,343.755000,-0.210648
11138.413955,343.798000,-0.111111
11142.051492,343.841000,0.310185
11145.688120,343.884000,0.335648
11149.323838,343.927000,0.365741
11152.958647,343.970000,-1.140432
11156.508049,344.012000,0.368056
11160.141062,344.055000,-0.554012
11163.773167,344.098000,-0.251543
11167.404365,344.141000,0.679012
11170.950240,344.183000,4.043210
11174.579645,344.226000,3.791667
11178.208143,344.269000,-0.327160
11181.751382,344.311000,-0.797840
11185.378088,344.354000,-1.102623
11189.003889,344.397000,0.288580
11192.628785,344.440000,-0.863426
11196.168507,344.482000,-0.156636
11199.791614,344.525000,-1.361111
11203.413817,344.568000,-1.226080
11206.950910,344.610000,0.631173
11210.571327,344.653000,-0.659722
11214.106675,344.695000,0.138889
11217.725306,344.738000,0.122685
11221.343035,344.781000,-0.348765
11224.875759,344.823000,-0.212191
11228.491704,344.866000,-0.381173
11232.022687,344.908000,0.755401
11235.636851,344.951000,-2.745370
11239.166094,344.993000,1.479938
11242.778477,345.036000,0.419753
11246.305982,345.078000,1.006173
11249.916585,345.121000,-0.121142
11253.442353,345.163000,-0.595679
11257.051178,345.206000,-0.355710
11260.575210,345.248000,1.248457
11264.182259,345.291000,-0.396605
11267.704555,345.333000,-1.297068
11271.309829,345.376000,0.677469
11274.830392,345.418000,-0.112654
11278.350100,345.460000,0.290895
11281.952723,345.503000,0.290895
11285.470699,345.545000,-0.524691
11288.987820,345.587000,0.205247
11292.587796,345.630000,-1.504630
11296.103187,345.672000,0.286265
11299.701393,345.715000,-0.142747
11303.215056,345.757000,-0.601852
11306.727865,345.799000,-1.956019
11310.239821,345.841000,-0.679784
11313.834512,345.884000,0.278549
11317.344742,345.926000,-0.013117
11320.854120,345.968000,0.074846
11324.446172,346.011000,0.016975
11327.953826,346.053000,-0.341049
11331.460629,346.095000,-0.111883
11334.966581,346.137000,0.346451
11338.471682,346.179000,-0.802469
11342.059357,346.222000,-0.182099
11345.562737,346.264000,-0.490741
11349.065268,346.306000,0.790895
11352.566949,346.348000,-1.527006
11356.067781,346.390000,0.918981
11359.567764,346.432000,-0.686728
11363.150201,346.475000,-2.128086
11366.648467,346.517000,-1.098765
11370.145885,346.559000,-1.188272
11373.642456,346.601000,-0.020833
11377.138179,346.643000,-0.097994
11380.633055,346.685000,-1.663580
11384.127085,346.727000,-0.608796
11387.620268,346.769000,-1.683642
11391.112605,346.811000,-1.242284
11394.604096,346.853000,-1.047840
11398.094742,346.895000,-0.363426
11401.584543,346.937000,-1.442130
11405.073499,346.979000,-0.854938
11408.561610,347.021000,1.404321
11412.048877,347.063000,-0.687500
11415.535301,347.105000,-0.750772
11419.020880,347.147000,-0.408179
11422.505617,347.189000,-0.309414
11425.989510,347.231000,-1.567130
11429.472560,347.273000,-0.335648
11432.954769,347.315000,-0.709877
11436.436135,347.357000,0.009259
11439.916659,347.399000,1.816358
11443.313502,347.440000,-0.739198
11446.792364,347.482000,-1.043981
11450.270384,347.524000,0.543981
11453.747565,347.566000,-0.096451
11457.223905,347.608000,0.099537
11460.699405,347.650000,-0.239969
11464.091345,347.691000,-0.922068
11467.565186,347.733000,-0.157407
11471.038188,347.775000,0.270062
11474.510351,347.817000,0.472222
11477.981676,347.859000,0.199846
11481.369541,347.900000,0.266204
11484.839210,347.942000,0.466821
11488.308041,347.984000,-1.866512
11491.693473,348.025000,-0.065586
11495.160650,348.067000,-0.071759
11498.626991,348.109000,-0.729938
11502.092494,348.151000,0.857253
11505.474680,348.192000,0.674383
11508.938532,348.234000,0.396605
11512.401549,348.276000,0.735340
11515.781307,348.317000,0.803241
11519.242673,348.359000,0.841821
11522.620821,348.400000,1.371914
11526.080539,348.442000,-1.728395
11529.539422,348.484000,-0.110340
11532.915148,348.525000,-0.107253
11536.372384,348.567000,-0.194444
11539.746502,348.608000,-0.301698
11543.202092,348.650000,-0.489969
11546.574604,348.691000,-2.118056
11550.028550,348.733000,-0.165895
11553.399456,348.774000,-2.261574
11556.851758,348.816000,-0.747685
11560.221061,348.857000,0.097994
11563.671720,348.899000,0.201389
11567.039420,348.940000,1.513889
11570.488439,348.982000,0.585648
11573.854537,349.023000,0.153549
11577.301915,349.065000,-0.266975
11580.666413,349.106000,0.588735
11584.030120,349.147000,-1.377315
11587.475051,349.189000,-4.545525
11590.837159,349.230000,-1.760031
11594.280452,349.272000,-3.725309
11597.640963,349.313000,0.440586
11601.000686,349.354000,0.460648
11604.441535,349.396000,-1.512346
11607.799661,349.437000,0.700617
11611.157000,349.478000,0.508488
11614.595408,349.520000,-0.047840
11617.951152,349.561000,-1.658951
11621.306109,349.602000,-0.560957
11624.660280,349.643000,0.091821
11628.095443,349.685000,-0.104938
11631.448022,349.726000,-0.747685
11634.799814,349.767000,0.130401
11638.150821,349.808000,-1.169753
11641.582745,349.850000,-0.983025
11644.932162,349.891000,-0.496142
11648.280794,349.932000,0.283951
11651.628641,349.973000,-0.854938
11654.975704,350.014000,-1.081790
11658.403590,350.056000,-0.753086
11661.749066,350.097000,1.121142
11665.093759,350.138000,0.066358
11668.437668,350.179000,-0.520062
11671.780795,350.220000,-1.157407
11675.123139,350.261000,-0.369599
11678.464700,350.302000,0.885802
11681.805480,350.343000,-0.621914
11685.145477,350.384000,-1.050154
11688.484693,350.425000,-2.450617
11691.904543,350.467000,-4.510802
11695.242178,350.508000,-1.453704
11698.579032,350.549000,-0.075617
11701.915105,350.590000,-0.063272
11705.250398,350.631000,-0.567901
11708.584912,350.672000,-0.015432
11711.918645,350.713000,-1.466821
11715.251600,350.754000,-0.348765
11718.502512,350.794000,-0.593364
11721.833927,350.835000,-0.348765
11725.164564,350.876000,-0.343364
11728.494422,350.917000,-0.574074
11731.823503,350.958000,0.202160
11735.151806,350.999000,-0.028549
11738.479331,351.040000,-0.843364
11741.806079,351.081000,0.557099
11745.132050,351.122000,-0.461420
11748.457245,351.163000,-0.287037
11751.700589,351.203000,-1.185957
11755.024250,351.244000,-0.603395
11758.347135,351.285000,-0.797068
11761.669245,351.326000,-0.076389
11764.990579,351.367000,-1.345679
11768.230159,351.407000,-0.155864
11771.549962,351.448000,-0.176698
11774.868991,351.489000,-0.544753
11778.187246,351.530000,0.293981
11781.423822,351.570000,-0.233796
11784.740548,351.611000,0.349537
11788.056500,351.652000,-0.205247
11791.371680,351.693000,-1.175154
11794.605256,351.733000,-0.287037
11797.918909,351.774000,0.086420
11801.231790,351.815000,-0.418210
11804.463124,351.855000,-0.155864
11807.774479,351.896000,0.092593
11811.085063,351.937000,0.123457
11814.314158,351.977000,0.138117
11817.623218,352.018000,0.173611
11820.850827,352.058000,0.004630
11824.158365,352.099000,-0.003858
11827.465133,352.140000,0.819444
11830.690506,352.180000,-0.997685
11833.995753,352.221000,-0.154321
11837.219643,352.261000,0.422068
11840.523370,352.302000,0.718364
11843.745778,352.342000,-0.088735
11847.047986,352.383000,-0.043210
11850.268913,352.423000,0.490741
11853.569603,352.464000,-0.502315
11856.789050,352.504000,0.510802
11860.088224,352.545000,-0.645062
11863.306191,352.585000,-0.397377
11866.603850,352.626000,-0.760031
11869.820339,352.666000,-0.223765
11873.116483,352.707000,0.290895
11876.331495,352.747000,0.368056
11879.545777,352.787000,-0.131173
11882.839661,352.828000,0.602623
11886.052468,352.868000,0.372685
11889.264547,352.908000,-0.450617
11892.556173,352.949000,-1.047068
11895.766777,352.989000,-0.597994
11899.056892,353.030000,1.763889
11902.266024,353.070000,-0.397377
11905.474429,353.110000,0.050154
11908.682107,353.150000,-0.050926
11911.969223,353.191000,0.635031
11915.175430,353.231000,-0.847994
11918.380911,353.271000,-1.345679
11921.665775,353.312000,0.603395
11924.869787,353.352000,-0.358025
11928.073073,353.392000,-2.056327
11931.275634,353.432000,-0.439815
11934.477470,353.472000,-1.135802
11937.758600,353.513000,0.488426
11940.958969,353.553000,0.950617
11944.158614,353.593000,-0.725309
11947.357536,353.633000,1.012346
11950.555733,353.673000,-0.299383
11953.753208,353.713000,1.221451
11957.029868,353.754000,-0.822531
11960.225879,353.794000,-2.072531
11963.421166,353.834000,-10.701389
11966.615732,353.874000,-4.979938
11969.809575,353.914000,-2.912037
11973.002696,353.954000,-2.226080
11976.195096,353.994000,-5.820988
11979.386774,354.034000,-2.750772
11982.577731,354.074000,-2.099537
11985.767968,354.114000,-1.989969
11988.957483,354.154000,-3.736111
11992.146279,354.194000,-6.889660
11995.334354,354.234000,-5.790895
11998.521709,354.274000,-6.280093
12001.708345,354.314000,-2.840278
12004.894261,354.354000,-3.255401
12008.079458,354.394000,-2.925926
12011.263936,354.434000,-0.317130
12014.447695,354.474000,-0.284722
12017.630736,354.514000,-0.847222
12020.813059,354.554000,0.189043
12023.994663,354.594000,-1.483796
12027.175550,354.634000,0.159722
12030.276224,354.673000,-0.612654
12033.455694,354.713000,-0.743827
12036.634448,354.753000,0.388117
12039.812484,354.793000,-0.351080
12042.989804,354.833000,-2.464506
12046.166408,354.873000,-0.424383
12049.262907,354.912000,-0.025463
12052.438097,354.952000,-1.179784
12055.612571,354.992000,-0.875000
12058.786330,355.032000,-0.702932
12061.880056,355.071000,0.008488
12065.052403,355.111000,-2.023920
12068.224035,355.151000,-0.981481
12071.394953,355.191000,1.493827
12074.485910,355.230000,0.886574
12077.655418,355.270000,0.181327
12080.824212,355.310000,0.895833
12083.913100,355.349000,0.594136
12087.080485,355.389000,-0.517747
12090.247158,355.429000,-1.445216
12093.333977,355.468000,-1.857253
12096.499242,355.508000,-14.293981
12099.663795,355.548000,-351.086420
12102.748549,355.587000,-343.446759
12105.911696,355.627000,-254.891204
12108.995079,355.666000,-377.429012
12112.156822,355.706000,-372.738426
12115.317853,355.746000,-265.222994
12118.399174,355.785000,-440.960648
12121.558801,355.825000,-306.087191
12124.638754,355.864000,-492.037809
12127.796979,355.904000,-508.003086
12130.875565,355.943000,-363.902006
12134.032389,355.983000,-303.897377
12137.109608,356.022000,-345.375000
12140.265031,356.062000,-240.153549
12143.340885,356.101000,-547.831790
12146.494908,356.141000,-418.091049
12149.569398,356.180000,-272.128858
12152.643215,356.219000,-315.023920
12155.795149,356.259000,-303.456790
12158.867603,356.298000,-262.105710
12162.018139,356.338000,-466.631944
12165.089231,356.377000,-245.040895
12168.159651,356.416000,-385.867284
12171.308101,356.456000,-449.686728
12174.377160,356.495000,-456.646605
12177.445548,356.534000,-180.431327
12180.591915,356.574000,-290.139660
12183.658943,356.613000,-361.375772
12186.725300,356.652000,-254.418210
12189.869585,356.692000,-180.758488
12192.934585,356.731000,-498.270833
12195.998914,356.770000,-334.837963
12199.062573,356.809000,-480.550926
12202.204093,356.849000,-350.099537
12205.266396,356.888000,-324.055556
12208.328030,356.927000,-309.506173
12211.388995,356.966000,-192.250772
12214.527751,357.006000,-327.644290
12217.587361,357.045000,-193.857253
12220.646304,357.084000,-377.291667
12223.704578,357.123000,-247.824846
12226.762184,357.162000,-418.371142
12229.819122,357.201000,-432.339506
12232.953750,357.241000,-401.096451
12236.009337,357.280000,-261.386574
12239.064257,357.319000,-346.209877
12242.118510,357.358000,-237.091049
12245.172096,357.397000,-430.790895
12248.225016,357.436000,-288.695988
