raman_shift_cm-1,wavelength_nm,intensity
-311.444523,246.690000,0.000000
-300.766377,246.755000,0.000000
-290.093855,246.820000,0.000000
-279.262891,246.886000,0.000000
-268.601691,246.951000,-0.022500
-257.946101,247.016000,-0.040500
-247.296118,247.081000,0.318500
-236.651737,247.146000,-0.223000
-226.012953,247.211000,-0.136000
-215.216219,247.277000,-0.027500
-204.588703,247.342000,-0.572500
-193.966771,247.407000,-0.215500
-183.350419,247.472000,0.724500
-172.739643,247.537000,-0.946000
-162.134437,247.602000,-0.091000
-151.534799,247.667000,-0.167000
-140.940722,247.732000,-0.638000
-130.352203,247.797000,0.703000
-119.769238,247.862000,0.170000
-109.191822,247.927000,0.629500
-98.619951,247.992000,0.562500
-88.053621,248.057000,0.529000
-77.655258,248.121000,0.376000
-67.099910,248.186000,0.676500
-56.550089,248.251000,-0.827500
-46.005792,248.316000,1.673500
-35.467013,248.381000,-0.147500
-24.933749,248.446000,0.437500
-14.405995,248.511000,-0.011000
-4.045586,248.575000,-0.214500
6.471245,248.640000,0.350000
16.982580,248.705000,0.299500
27.488421,248.770000,0.364500
37.827271,248.834000,0.203500
48.322224,248.899000,0.561000
58.811696,248.964000,0.637500
69.134442,249.028000,0.337000
79.613052,249.093000,0.240000
90.086194,249.158000,-1.038000
100.392873,249.222000,-1.053500
110.855177,249.287000,0.254500
121.312027,249.352000,-0.116500
131.602677,249.416000,-0.417500
142.048715,249.481000,0.151500
152.328727,249.545000,0.431000
162.763968,249.610000,-0.005000
173.033359,249.674000,0.303500
183.457821,249.739000,-0.089500
193.716607,249.803000,-0.784500
204.130307,249.868000,-0.353500
214.378504,249.932000,0.628500
224.781458,249.997000,2.322000
235.019083,250.061000,3.602500
245.411309,250.126000,-0.060000
255.638378,250.190000,-0.614500
265.860216,250.254000,-2.659000
276.236420,250.319000,-3.309500
286.447727,250.383000,-1.560000
296.813243,250.448000,1.360000
307.014035,250.512000,-0.165000
317.209616,250.576000,0.707000
327.399990,250.640000,-1.079000
337.744263,250.705000,0.496000
347.924154,250.769000,1.578000
358.098850,250.833000,-4.848500
368.268355,250.897000,0.315000
378.591450,250.962000,0.357000
388.750505,251.026000,-0.728000
398.904381,251.090000,16.309500
409.053082,251.154000,-0.855500
419.196612,251.218000,0.680000
429.334975,251.282000,1.346000
439.626466,251.347000,-0.511000
449.754426,251.411000,0.470500
459.877231,251.475000,1.536500
469.994885,251.539000,-3.217000
480.107392,251.603000,-9.613500
490.214756,251.667000,-2.368500
500.316980,251.731000,-0.298500
510.414069,251.795000,1.771000
520.506026,251.859000,-1.999000
530.592855,251.923000,-1.140500
540.674561,251.987000,-0.866500
550.751147,252.051000,-1.813000
560.822617,252.115000,-2.182000
570.888975,252.179000,2.131000
580.950225,252.243000,-0.573500
590.849282,252.306000,0.573000
600.900407,252.370000,0.578500
610.946435,252.434000,-0.974500
620.987371,252.498000,-0.448500
631.023218,252.562000,-0.734000
641.053980,252.626000,1.874500
650.923048,252.689000,1.405500
660.943731,252.753000,0.201500
670.959341,252.817000,2.554000
680.969880,252.881000,2.848000
690.819058,252.944000,0.146500
700.819549,253.008000,6.044500
710.814983,253.072000,-1.158500
720.805362,253.136000,-4.411000
730.634708,253.199000,-3.987500
740.615069,253.263000,-26.436000
750.434561,253.326000,-17.829500
760.404919,253.390000,-7.384000
770.370241,253.454000,-2.396500
780.174941,253.517000,-0.002000
790.130283,253.581000,-1.700000
799.925166,253.644000,0.588000
809.870542,253.708000,-0.852500
819.655623,253.771000,1.560000
829.591048,253.835000,-2.000500
839.366341,253.898000,-1.443000
849.291831,253.962000,-0.272000
859.057350,254.025000,0.387000
868.972920,254.089000,-1.960500
878.728681,254.152000,-2.268500
888.634344,254.216000,-4.324000
898.380361,254.279000,0.386500
908.121550,254.342000,1.431500
918.012421,254.406000,-2.532500
927.743888,254.469000,1.252000
937.470538,254.532000,-0.752500
947.346650,254.596000,-2.310500
957.063600,254.659000,-1.365000
966.775743,254.722000,0.433500
976.637128,254.786000,-2.112000
986.339593,254.849000,-0.155000
996.037261,254.912000,-3.444000
1005.730138,254.975000,-6.417500
1015.571966,255.039000,-4.811000
1025.255192,255.102000,-2.808500
1034.933637,255.165000,-2.932000
1044.607304,255.228000,-1.948500
1054.276196,255.291000,-5.486500
1063.940318,255.354000,-41.747500
1073.599672,255.417000,-41.442500
1083.407471,255.481000,2.442500
1093.057225,255.544000,4.324000
1102.702223,255.607000,1.316500
1112.342467,255.670000,0.524500
1121.977961,255.733000,-0.221000
1131.608710,255.796000,-1.482500
1141.234715,255.859000,-3.222500
1150.855981,255.922000,-0.102000
1160.472512,255.985000,-5.630000
1170.084310,256.048000,-8.072500
1179.691379,256.111000,-14.399000
1189.293724,256.174000,-0.107500
1198.739040,256.236000,0.961500
1208.332019,256.299000,-2.693500
1217.920283,256.362000,6.298500
1227.503835,256.425000,-0.908000
1237.082680,256.488000,-0.624500
1246.656820,256.551000,6.900500
1256.226260,256.614000,-0.715500
1265.639217,256.676000,-0.177000
1275.199339,256.739000,-1.447000
1284.754770,256.802000,-0.531500
1294.305515,256.865000,0.386500
1303.700087,256.927000,-8.240000
1313.241541,256.990000,-5.617500
1322.778319,257.053000,-4.342500
1332.310423,257.116000,-1.727000
1341.686664,257.178000,-2.024000
1351.209505,257.241000,0.334500
1360.727683,257.304000,8.313500
1370.090229,257.366000,-0.968500
1379.599165,257.429000,0.119500
1388.952622,257.491000,-0.503500
1398.452329,257.554000,-1.585000
1407.796710,257.616000,-0.266500
1417.287202,257.679000,1.961000
1426.773053,257.742000,-2.021000
1436.103810,257.804000,-0.852000
1445.580466,257.867000,0.831000
1454.902179,257.929000,-3.182500
1464.369654,257.992000,1.760000
1473.682337,258.054000,1.132500
1482.990547,258.116000,-0.868000
1492.444310,258.179000,-0.300000
1501.743510,258.241000,-0.256500
1511.188124,258.304000,-5.284000
1520.478327,258.366000,-4.131000
1529.764072,258.428000,-0.166000
1539.195025,258.491000,-1.747000
1548.471792,258.553000,-3.672500
1557.744112,258.615000,6.626000
1567.161432,258.678000,1.896500
1576.424794,258.740000,1.292500
1585.683718,258.802000,-0.490000
1594.938206,258.864000,-0.668500
1604.337420,258.927000,-0.873500
1613.582976,258.989000,-1.910500
1622.824106,259.051000,-1.384000
1632.060814,259.113000,-1.241500
1641.293103,259.175000,-3.963500
1650.669776,259.238000,1.302000
1659.893165,259.300000,-3.497000
1669.112144,259.362000,-7.942500
1678.326716,259.424000,-0.650500
1687.536886,259.486000,0.794000
1696.742655,259.548000,-0.319000
1705.944027,259.610000,1.204000
1715.141005,259.672000,-3.237000
1724.333592,259.734000,1.947500
1733.521792,259.796000,-3.365500
1742.705607,259.858000,4.526000
1751.885041,259.920000,-1.946500
1761.060096,259.982000,-1.122500
1770.230777,260.044000,-0.564500
1779.397086,260.106000,2.606500
1788.559026,260.168000,-1.297000
1797.716600,260.230000,0.520000
1806.869812,260.292000,1.868000
1816.018664,260.354000,0.116000
1825.163160,260.416000,-0.254500
1834.155916,260.477000,-1.278500
1843.291778,260.539000,-2.760000
1852.423294,260.601000,-3.945500
1861.550466,260.663000,0.932000
1870.673297,260.725000,-2.721500
1879.644752,260.786000,-1.928000
1888.758980,260.848000,-0.013500
1897.868877,260.910000,0.390500
1906.974445,260.972000,-0.673500
1915.928928,261.033000,-1.805000
1925.025918,261.095000,-2.390500
1934.118588,261.157000,-0.432000
1943.060391,261.218000,-0.801500
1952.144502,261.280000,-0.869500
1961.224302,261.342000,-1.558500
1970.153451,261.403000,-2.079500
1979.224710,261.465000,-1.676000
1988.145460,261.526000,-0.926500
1997.208190,261.588000,2.167000
2006.120554,261.649000,0.795000
2015.174766,261.711000,-0.268500
2024.078756,261.772000,-0.562000
2033.124461,261.834000,-1.784500
2042.020089,261.895000,-1.982500
2051.057301,261.957000,-1.023000
2059.944578,262.018000,-1.720500
2068.973308,262.080000,-1.493000
2077.852245,262.141000,1.464000
2086.872506,262.203000,-1.681000
2095.743116,262.264000,-0.453500
2104.609601,262.325000,1.883500
2113.617214,262.387000,3.649500
2122.475388,262.448000,0.136000
2131.329447,262.509000,-4.460000
2140.324438,262.571000,-0.746000
2149.170203,262.632000,-0.308500
2158.011861,262.693000,-0.810500
2166.994257,262.755000,0.875000
2175.827640,262.816000,1.978000
2184.656923,262.877000,1.332500
2193.482109,262.938000,-0.606500
2202.303202,262.999000,-5.340000
2211.264711,263.061000,-11.888000
2220.077557,263.122000,-3.099500
2228.886318,263.183000,-0.277500
2237.690997,263.244000,-1.956500
2246.491597,263.305000,0.058000
2255.288119,263.366000,2.527000
2264.080568,263.427000,2.655000
2272.868945,263.488000,-0.020500
2281.653255,263.549000,0.348000
2290.577403,263.611000,1.873500
2299.353518,263.672000,2.015500
2308.125573,263.733000,1.001000
2316.893571,263.794000,-2.844000
2325.657515,263.855000,-0.372500
2334.273836,263.915000,-2.780500
2343.029746,263.976000,0.422500
2351.781611,264.037000,0.998500
2360.529433,264.098000,0.500500
2369.273215,264.159000,2.794500
2378.012959,264.220000,-0.081500
2386.748669,264.281000,2.162000
2395.480347,264.342000,1.467500
2404.207997,264.403000,-3.153000
2412.788642,264.463000,-1.453000
2421.508308,264.524000,8.778500
2430.223953,264.585000,1.680000
2438.935580,264.646000,-0.643000
2447.643192,264.707000,-2.004500
2456.204142,264.767000,-1.059000
2464.903798,264.828000,-8.904500
2473.599447,264.889000,-4.095000
2482.148639,264.949000,-0.028500
2490.836348,265.010000,1.606500
2499.520059,265.071000,-0.101500
2508.057516,265.131000,0.211500
2516.733303,265.192000,-0.952000
2525.405101,265.253000,-0.168000
2533.930847,265.313000,6.812500
2542.594737,265.374000,-2.510000
2551.112712,265.434000,0.655000
2559.768705,265.495000,0.447500
2568.278918,265.555000,-0.396500
2576.927027,265.616000,-1.022500
2585.571164,265.677000,-1.206000
2594.069722,265.737000,-0.403500
2602.564444,265.797000,2.257500
2611.196813,265.858000,0.741000
2619.683805,265.918000,0.764500
2628.308321,265.979000,-0.110500
2636.787594,266.039000,-0.874000
2645.404268,266.100000,-0.951000
2653.875831,266.160000,0.822500
2662.343577,266.220000,1.249000
2670.948539,266.281000,0.614000
2679.408591,266.341000,2.479000
2687.864833,266.401000,-0.351000
2696.458108,266.462000,-1.758500
2704.906672,266.522000,4.823500
2713.351433,266.582000,22.787500
2721.792393,266.642000,1.299500
2730.370143,266.703000,2.267000
2738.803447,266.763000,1.401500
2747.232958,266.823000,0.810000
2755.658679,266.883000,1.776000
2764.220946,266.944000,0.337500
2772.639032,267.004000,-1.932000
2781.053334,267.064000,-14.085000
2789.463857,267.124000,-1.827000
2797.870602,267.184000,0.439000
2806.273573,267.244000,-5.491000
2814.672771,267.304000,-4.348500
2823.068200,267.364000,4.900500
2831.459861,267.424000,3.732000
2839.847757,267.484000,1.935500
2848.231891,267.544000,-1.147500
2856.612266,267.604000,-6.521000
2864.988884,267.664000,2.157500
2873.361747,267.724000,0.944000
2881.730857,267.784000,3.410500
2890.096219,267.844000,4.185000
2898.457833,267.904000,0.504500
2906.815703,267.964000,0.014500
2915.169831,268.024000,-2.039500
2923.520219,268.084000,-2.658500
2931.866870,268.144000,-1.544500
2940.209787,268.204000,-1.261000
2948.410016,268.263000,-2.433500
2956.745534,268.323000,-0.843000
2965.077324,268.383000,-1.359000
2973.405390,268.443000,-0.410500
2981.729735,268.503000,-1.399500
2989.911713,268.562000,0.697000
2998.228682,268.622000,0.123000
3006.541937,268.682000,2.499500
3014.851480,268.742000,0.292500
3023.018913,268.801000,-0.615000
3031.321101,268.861000,-2.337000
3039.619584,268.921000,-3.261000
3047.776149,268.980000,-0.184000
3056.067292,269.040000,-16.933500
3064.216644,269.099000,-6.221000
3072.500457,269.159000,7.171500
3080.780577,269.219000,1.102000
3088.919097,269.278000,-1.848000
3097.191901,269.338000,-4.754500
3105.323232,269.397000,-3.656500
3113.588730,269.457000,-1.763500
3121.712881,269.516000,-8.049000
3129.971082,269.576000,-3.560500
3138.088063,269.635000,-0.377500
3146.338978,269.695000,0.881000
3154.448798,269.754000,-1.127500
3162.692435,269.814000,-1.882500
3170.795104,269.873000,-2.149000
3178.894231,269.932000,0.723500
3187.127001,269.992000,0.807000
3195.218991,270.051000,-0.571000
3203.307445,270.110000,-1.591000
3211.529370,270.170000,0.989500
3219.610701,270.229000,6.291000
3227.688505,270.288000,8.427500
3235.899605,270.348000,1.529500
3243.970299,270.407000,4.727000
3252.037473,270.466000,8.468500
3260.101128,270.525000,6.729000
3268.297848,270.585000,0.742500
3276.354413,270.644000,-0.223000
3284.407466,270.703000,-1.299500
3292.457009,270.762000,1.251000
3300.503044,270.821000,-8.003500
3308.545575,270.880000,-0.670000
3316.720828,270.940000,6.821000
3324.756296,270.999000,-1.854000
3332.788267,271.058000,-0.101500
3340.816741,271.117000,-1.807000
3348.841722,271.176000,-0.207000
3356.863212,271.235000,0.640000
3364.881213,271.294000,0.702500
3372.895727,271.353000,-0.490000
3380.906756,271.412000,3.132000
3388.914304,271.471000,-0.508500
3396.918371,271.530000,-0.797000
3404.918961,271.589000,-1.083500
3412.916076,271.648000,-2.264000
3420.909718,271.707000,0.581000
3428.899888,271.766000,-1.520000
3436.886591,271.825000,-7.355000
3444.734546,271.883000,-0.365000
3452.714377,271.942000,0.128500
3460.690746,272.001000,-3.149500
3468.663655,272.060000,0.850500
3476.633107,272.119000,5.115500
3484.599104,272.178000,1.007000
3492.426718,272.236000,-14.651500
3500.385870,272.295000,-8.653500
3508.341573,272.354000,-1.264500
3516.293830,272.413000,-0.774000
3524.107947,272.471000,-0.893500
3532.053377,272.530000,-1.217500
3539.995368,272.589000,-4.866000
3547.799398,272.647000,-7.256500
3555.734574,272.706000,-13.308500
3563.666318,272.765000,-2.180500
3571.460282,272.823000,-3.788000
3579.385225,272.882000,-1.889500
3587.306741,272.941000,-6.955000
3595.090658,272.999000,-1.229000
3603.005387,273.058000,-1.313500
3610.782635,273.116000,-1.300000
3618.690585,273.175000,0.326500
3626.461173,273.233000,-1.745000
3634.362353,273.292000,-2.375500
3642.126290,273.350000,-3.133500
3650.020708,273.409000,-0.403500
3657.778002,273.467000,-1.871500
3665.665667,273.526000,-7.854000
3673.416327,273.584000,-3.115500
3681.163701,273.642000,-2.428000
3689.041282,273.701000,-2.923500
3696.782035,273.759000,-2.413000
3704.652885,273.818000,-1.788000
3712.387025,273.876000,0.391000
3720.117889,273.934000,0.125000
3727.845481,273.992000,-1.649500
3735.702951,274.051000,-10.547000
3743.423947,274.109000,-0.910000
3751.141676,274.167000,0.192000
3758.989119,274.226000,0.135500
3766.700265,274.284000,-1.059500
3774.408150,274.342000,-9.925000
3782.112776,274.400000,-1.348000
3789.814146,274.458000,-1.841000
3797.644960,274.517000,-6.545500
3805.339767,274.575000,-3.442000
3813.031324,274.633000,0.007000
3820.719634,274.691000,-0.365500
3828.404697,274.749000,1.244500
3836.086516,274.807000,-0.658000
3843.765093,274.865000,-3.629500
3851.440431,274.923000,0.923500
3859.112530,274.981000,0.353500
3866.781394,275.039000,0.840000
3874.447024,275.097000,1.114000
3882.109423,275.155000,-0.993500
3889.768591,275.213000,-1.351000
3897.424533,275.271000,-0.180000
3905.077248,275.329000,-0.137000
3912.726740,275.387000,-6.039500
3920.373011,275.445000,-2.186000
3928.016062,275.503000,-1.741500
3935.655896,275.561000,-1.164000
3943.292514,275.619000,-0.678000
3950.925919,275.677000,1.877000
3958.424585,275.734000,-0.321500
3966.051625,275.792000,-1.873000
3973.675457,275.850000,-0.288500
3981.296084,275.908000,2.260000
3988.913508,275.966000,2.821500
3996.396478,276.023000,-0.148500
4004.007557,276.081000,1.545500
4011.615438,276.139000,2.737500
4019.220124,276.197000,0.597500
4026.690584,276.254000,-1.275500
4034.288940,276.312000,-0.967500
4041.884108,276.370000,1.558000
4049.345219,276.427000,2.295000
4056.934068,276.485000,2.613500
4064.519735,276.543000,1.485500
4071.971515,276.600000,-0.314500
4079.550876,276.658000,-0.601000
4086.996462,276.715000,0.995000
4094.569525,276.773000,1.591500
4102.008927,276.830000,1.544000
4109.575700,276.888000,1.508500
4117.008923,276.945000,3.417500
4124.569414,277.003000,1.454500
4131.996467,277.060000,0.762500
4139.550684,277.118000,0.924500
4146.971575,277.175000,2.117500
4154.519525,277.233000,2.373000
4161.934262,277.290000,0.515500
4169.475953,277.348000,-1.953500
4228.011654,277.799000,1.821000
4235.396210,277.856000,-0.562000
4242.907211,277.914000,-1.308000
4250.415077,277.972000,-1.680500
4257.790445,278.029000,1.308000
4265.292102,278.087000,1.989000
4272.790631,278.145000,0.035500
4280.156828,278.202000,-0.394000
4287.649159,278.260000,-9.030000
4295.138368,278.318000,-8.623500
4302.495411,278.375000,0.254500
4309.978434,278.433000,-0.528500
4317.329402,278.490000,-0.752500
4324.806246,278.548000,0.180000
4332.151147,278.605000,-2.504500
4339.621821,278.663000,-3.435500
4346.960661,278.720000,0.554500
4354.425172,278.778000,-0.590000
4361.757959,278.835000,-2.836000
4369.216314,278.893000,2.723500
4376.543056,278.950000,-1.292500
4383.995264,279.008000,2.413500
4391.315968,279.065000,2.929000
4398.762036,279.123000,-0.161000
4406.076709,279.180000,-0.213500
4413.516644,279.238000,2.665000
4420.825295,279.295000,1.275500
4428.130962,279.352000,-2.704500
4435.561740,279.410000,-1.560000
4442.861395,279.467000,-0.119500
4450.158074,279.524000,14.781500
4457.579711,279.582000,5.803500
4464.870389,279.639000,0.449500
4472.158095,279.696000,-1.412000
4479.570607,279.754000,-1.024500
4486.852324,279.811000,7.011500
4494.131074,279.868000,4.976500
4501.534479,279.926000,2.549500
4508.807251,279.983000,-0.354500
4516.077062,280.040000,6.689500
4523.343914,280.097000,1.363000
4530.735220,280.155000,0.596500
4537.996108,280.212000,-1.624500
4545.254043,280.269000,-3.387000
4552.509026,280.326000,-0.115500
4559.888262,280.384000,-0.962000
4567.137295,280.441000,-3.406500
4574.383383,280.498000,1.214000
4581.626526,280.555000,-0.129000
4588.866727,280.612000,-0.854000
4596.103987,280.669000,1.406500
4603.338308,280.726000,4.538500
4610.696532,280.784000,-2.097000
4617.924929,280.841000,1.106500
4625.150392,280.898000,2.512500
4632.372923,280.955000,1.191500
4639.592525,281.012000,-0.337000
4646.809198,281.069000,0.934000
4654.022945,281.126000,-1.410500
4661.233767,281.183000,-0.081000
4668.441666,281.240000,-1.629000
4675.646644,281.297000,-3.984500
4682.848703,281.354000,-1.147500
4690.047844,281.411000,1.650500
4697.244070,281.468000,1.978500
4704.437381,281.525000,-0.622000
4711.627780,281.582000,0.434000
4718.815269,281.639000,-1.158000
4725.999849,281.696000,0.991000
4733.181522,281.753000,-0.823500
4740.360290,281.810000,-3.763500
4747.536154,281.867000,-16.358000
4754.583300,281.923000,0.124500
4761.753414,281.980000,-2.281500
4768.920629,282.037000,-0.355000
4776.084949,282.094000,-6.405000
4783.246373,282.151000,-1.105500
4790.404904,282.208000,-10.767000
4797.435032,282.264000,-11.293500
4804.587834,282.321000,-3.621000
4811.737748,282.378000,0.348000
4818.884776,282.435000,-1.055000
4826.028920,282.492000,0.186500
4833.044920,282.548000,0.405000
4840.183352,282.605000,3.054500
4847.318904,282.662000,2.899000
4854.451579,282.719000,0.164500
4861.456319,282.775000,0.114500
4868.583295,282.832000,-0.879500
4875.707399,282.889000,-3.887000
4882.703723,282.945000,-6.167500
4889.822139,283.002000,7.878000
4896.937687,283.059000,-5.337000
4903.925611,283.115000,-5.279000
4911.035481,283.172000,-5.316500
4918.142490,283.229000,-3.180500
4925.122029,283.285000,-11.421000
4932.223369,283.342000,-11.117000
4939.197342,283.398000,-3.844000
4946.293021,283.455000,-2.961500
4953.385847,283.512000,2.350500
4960.351460,283.568000,-1.229000
4967.438635,283.625000,1.557000
4974.398699,283.681000,1.270000
4981.480229,283.738000,0.150000
4988.434752,283.794000,-0.125000
4995.510644,283.851000,-2.814000
5002.459631,283.907000,5.724000
5009.529893,283.964000,5.576000
5016.473351,284.020000,5.486000
5023.537988,284.077000,2.647000
5030.475924,284.133000,0.011500
5037.534943,284.190000,-2.132500
5044.467363,284.246000,-5.363500
5051.397052,284.302000,-1.446500
5058.447683,284.359000,7.818500
5065.371866,284.415000,-0.741000
5072.416896,284.472000,-2.282000
5079.335580,284.528000,0.284500
5086.251541,284.584000,4.368000
5093.288207,284.641000,6.658000
5100.198678,284.697000,2.947500
5107.106432,284.753000,3.794500
5114.134748,284.810000,0.256000
5121.037022,284.866000,0.415500
5127.936582,284.922000,-0.717000
5134.833431,284.978000,-0.567000
5141.850655,285.035000,1.110000
5148.742037,285.091000,1.352500
5155.630712,285.147000,0.294000
5162.516682,285.203000,-0.386500
5169.522840,285.260000,-4.289000
5176.403356,285.316000,-4.805500
5183.281172,285.372000,-8.979500
5190.156289,285.428000,-9.172500
5197.028709,285.484000,-12.556500
5204.021082,285.541000,-4.782500
5210.888064,285.597000,-1.742500
5217.752353,285.653000,-1.483000
5224.613952,285.709000,-1.290500
5231.472862,285.765000,4.575500
5238.329083,285.821000,-0.047000
5245.182619,285.877000,-0.700500
5252.033470,285.933000,1.755500
5258.881638,285.989000,-6.898000
5265.727125,286.045000,0.403500
5272.569932,286.101000,2.615000
5279.532182,286.158000,0.090000
5286.369586,286.214000,0.023000
5293.204315,286.270000,0.306000
5300.036371,286.326000,25.489500
5306.865755,286.382000,23.043500
5313.692468,286.438000,25.914500
5320.516513,286.494000,18.288500
5327.216104,286.549000,4.738000
5334.034863,286.605000,-5.276000
5340.850958,286.661000,-4.500000
5347.664391,286.717000,1.826500
5354.475163,286.773000,3.085000
5361.283275,286.829000,-0.606000
5368.088729,286.885000,-0.557000
5374.891528,286.941000,-0.534500
5381.691671,286.997000,2.729000
5388.489161,287.053000,1.078500
5395.162686,287.108000,-6.122500
5401.954922,287.164000,1.606500
5408.744509,287.220000,-0.344500
5415.531448,287.276000,-1.656000
5422.315743,287.332000,0.057500
5428.976316,287.387000,-0.249000
5435.755371,287.443000,0.319000
5442.531785,287.499000,1.104500
5449.305560,287.555000,1.517000
5456.076697,287.611000,-0.845000
5462.724355,287.666000,-0.608500
5469.490268,287.722000,-0.052500
5476.253548,287.778000,19.125500
5482.893494,287.833000,37.392000
5489.651559,287.889000,20.779500
5496.406995,287.945000,-4.363500
5503.039242,288.000000,-1.164500
5509.789473,288.056000,0.194500
5516.537079,288.112000,3.359500
5523.161640,288.167000,1.794500
5529.904050,288.223000,3.538500
5536.643840,288.279000,0.510000
5543.260729,288.334000,1.518500
5549.995332,288.390000,-2.104500
5556.607128,288.445000,-0.667000
5563.336549,288.501000,-3.325500
5569.943259,288.556000,-15.424000
5576.667504,288.612000,-1.121000
5583.269134,288.667000,1.588000
5589.988209,288.723000,-0.968500
5596.584764,288.778000,-1.012500
5603.298676,288.834000,1.787500
5609.890162,288.889000,-4.928000
5616.598916,288.945000,-0.231500
5623.185340,289.000000,0.157500
5629.888941,289.056000,-2.625500
5636.470308,289.111000,-1.183000
5643.168763,289.167000,-1.695000
5649.745079,289.222000,2.779000
5656.438394,289.278000,0.537000
5663.009664,289.333000,-0.561000
5669.578437,289.388000,-0.160500
5676.264076,289.444000,-0.240000
5682.827812,289.499000,0.792500
5689.389054,289.554000,-0.187500
5696.067030,289.610000,0.227000
5702.623244,289.665000,0.424500
5709.176969,289.720000,0.882000
5715.847296,289.776000,-0.891000
5722.396001,289.831000,1.708000
5728.942221,289.886000,0.477500
5735.485958,289.941000,-1.725000
5742.146122,289.997000,1.374500
5748.684850,290.052000,0.381000
5755.221100,290.107000,0.648500
5761.754871,290.162000,-0.279500
5768.404894,290.218000,-0.809500
5774.933669,290.273000,-0.751500
5781.459971,290.328000,1.909000
5787.983800,290.383000,0.450500
5794.505158,290.438000,-2.843500
5801.142550,290.494000,-0.406500
5807.658926,290.549000,2.184000
5814.172835,290.604000,-0.674000
5820.684279,290.659000,-3.901500
5827.193260,290.714000,-1.211000
5833.699778,290.769000,-2.746000
5840.203835,290.824000,-2.731500
5846.705432,290.879000,-0.565500
5853.204572,290.934000,0.314000
5859.701254,290.989000,1.221500
5866.195481,291.044000,-1.262500
5872.687254,291.099000,-0.430000
5879.176574,291.154000,0.393000
5885.663444,291.209000,0.802000
5892.147863,291.264000,0.157500
5898.629834,291.319000,-3.437000
5905.109357,291.374000,-3.704500
5911.586435,291.429000,-5.038000
5918.061069,291.484000,-1.243000
5924.533260,291.539000,-2.264000
5931.003009,291.594000,-2.331500
5937.470318,291.649000,0.480000
5943.935188,291.704000,2.280000
5950.397621,291.759000,1.373500
5956.857618,291.814000,0.228500
5963.315180,291.869000,1.051500
5969.770309,291.924000,0.625000
5976.105706,291.978000,1.373500
5982.556017,292.033000,0.776500
5989.003898,292.088000,0.588500
5995.449352,292.143000,1.923000
6001.892379,292.198000,-0.601000
6008.215901,292.252000,1.383500
6014.654123,292.307000,0.778000
6021.089923,292.362000,-0.448000
6027.523303,292.417000,-1.294500
6033.954262,292.472000,-1.778500
6040.265942,292.526000,0.150500
6046.692111,292.581000,0.679000
6053.115864,292.636000,-3.202000
6059.420472,292.690000,-0.594000
6065.839442,292.745000,-0.150500
6072.256000,292.800000,-0.588000
6078.553548,292.854000,0.824000
6084.965331,292.909000,0.060500
6091.374707,292.964000,0.170500
6097.665207,293.018000,-4.966000
6104.069816,293.073000,-1.962500
6110.472021,293.128000,1.352000
6116.755485,293.182000,1.584500
6123.152931,293.237000,0.848000
6129.431725,293.291000,1.660000
6135.824417,293.346000,7.856000
6142.098547,293.400000,-0.985500
6148.486490,293.455000,1.042500
6154.872040,293.510000,-0.135000
6161.139160,293.564000,-0.676500
6167.519969,293.619000,0.707500
6173.782438,293.673000,0.141000
6180.158512,293.728000,-7.911500
6186.416334,293.782000,-9.022500
6192.787678,293.837000,-7.160000
6199.040859,293.891000,-1.441500
6205.291742,293.945000,-3.562000
6211.656022,294.000000,-4.781000
6217.902272,294.054000,-1.537500
6224.261835,294.109000,1.032500
6230.503456,294.163000,5.680000
6236.742786,294.217000,-5.038500
6243.095305,294.272000,-1.502500
6249.330014,294.326000,-0.364000
6255.677829,294.381000,0.429500
6261.907923,294.435000,-1.881500
6268.135731,294.489000,-2.245000
6274.476522,294.544000,-9.864500
6280.699722,294.598000,-1.298000
6286.920642,294.652000,1.650000
6293.139281,294.706000,1.574000
6299.470739,294.761000,-2.457000
6305.684781,294.815000,0.648500
6311.896546,294.869000,0.619500
6318.106037,294.923000,-1.799000
6324.428182,294.978000,-5.705000
6330.633085,295.032000,-16.815000
6336.835717,295.086000,-7.467000
6343.036080,295.140000,-1.919000
6349.234174,295.194000,0.555500
6355.544717,295.249000,-0.652500
6361.738236,295.303000,0.346500
6367.929490,295.357000,-0.262000
6374.118480,295.411000,0.866500
6380.305209,295.465000,-5.255500
6386.489676,295.519000,10.088000
6392.671884,295.573000,2.495000
6398.851833,295.627000,0.212500
6405.143905,295.682000,-0.419500
6411.319300,295.736000,3.221500
6417.492439,295.790000,1.415500
6423.663325,295.844000,0.617000
6429.831958,295.898000,1.166000
6435.998340,295.952000,-7.528500
6442.162473,296.006000,-1.538500
6448.324357,296.060000,-0.350500
6454.483993,296.114000,0.933000
6460.641384,296.168000,0.235500
6466.796529,296.222000,-0.635500
6472.949431,296.276000,0.497000
6479.100090,296.330000,-2.177000
6485.248508,296.384000,-6.299500
6491.280888,296.437000,-4.595500
6497.424869,296.491000,-6.034000
6503.566612,296.545000,-7.573000
6509.706118,296.599000,-1.427500
6515.843390,296.653000,-19.397500
6521.978427,296.707000,-4.039500
6528.111232,296.761000,-0.356000
6534.241805,296.815000,1.582500
6540.256681,296.868000,1.469000
6546.382836,296.922000,-8.776000
6552.506763,296.976000,1.113500
6558.628464,297.030000,1.778000
6564.747939,297.084000,3.719000
6570.751928,297.137000,0.544000
6576.866997,297.191000,-2.385000
6582.979845,297.245000,-6.231000
6589.090471,297.299000,-9.697000
6595.085780,297.352000,-0.441500
6601.192010,297.406000,-2.024000
6607.296023,297.460000,-5.775500
6613.397821,297.514000,-23.785500
6619.384468,297.567000,5.477000
6625.481879,297.621000,10.686000
6631.577077,297.675000,2.637000
6637.557251,297.728000,-0.221000
6643.648069,297.782000,-1.637500
6649.623947,297.835000,0.774000
6655.710390,297.889000,2.216500
6661.794627,297.943000,0.589500
6667.764048,297.996000,5.062000
6673.843917,298.050000,5.239000
6679.809053,298.103000,-0.013000
6685.884559,298.157000,-0.983500
6691.957864,298.211000,1.070000
6697.916562,298.264000,4.781000
6703.985510,298.318000,1.169500
6709.939935,298.371000,-0.690000
6716.004532,298.425000,3.197000
6721.954688,298.478000,-2.042500
6728.014938,298.532000,-1.162000
6733.960830,298.585000,-0.516500
6739.904611,298.638000,1.246500
6745.958369,298.692000,1.296000
6751.897893,298.745000,1.030000
6757.947317,298.799000,0.171500
6763.882588,298.852000,-0.096000
6769.927680,298.906000,0.819000
6775.858703,298.959000,-0.298500
6781.787624,299.012000,0.014500
6787.826249,299.066000,1.167000
6793.750928,299.119000,-0.234500
6799.673508,299.172000,-3.083500
6805.705677,299.226000,-0.205000
6811.624022,299.279000,0.548500
6817.540272,299.332000,-1.152000
6823.565994,299.386000,5.754500
6829.478016,299.439000,22.174000
6835.387945,299.492000,-3.206500
6841.407231,299.546000,-1.363500
6847.312940,299.599000,-10.683000
6853.216559,299.652000,0.647500
6859.118090,299.705000,-0.027500
6865.017534,299.758000,0.462000
6871.026143,299.812000,-12.522500
6876.921378,299.865000,-8.321000
6882.814529,299.918000,-1.219000
6888.705597,299.971000,-1.452500
6894.594584,300.024000,0.985500
6900.592545,300.078000,0.118500
6906.477333,300.131000,-3.271000
6912.360044,300.184000,2.778500
6918.240677,300.237000,0.788000
6924.119235,300.290000,2.054500
6929.995718,300.343000,2.128500
6935.870127,300.396000,2.175000
6941.742464,300.449000,2.181000
6947.612730,300.502000,0.169000
6953.480925,300.555000,-5.366500
6959.347051,300.608000,-0.088000
6965.211108,300.661000,-46.341000
6971.073099,300.714000,-22.513000
6976.933024,300.767000,-16.593500
6982.790884,300.820000,-3.757000
6988.646680,300.873000,1.065000
6994.500413,300.926000,-2.340500
7000.352085,300.979000,-0.555000
7006.201696,301.032000,0.641000
7012.049248,301.085000,-2.052500
7017.894742,301.138000,-0.025500
7023.738178,301.191000,-0.970000
7029.579559,301.244000,-0.504000
7035.418884,301.297000,1.390500
7041.256155,301.350000,1.160500
7047.091373,301.403000,-0.291000
7052.924539,301.456000,1.290000
7058.645653,301.508000,-1.047000
7064.474758,301.561000,2.457000
7070.301814,301.614000,-3.576500
7076.126822,301.667000,-0.545500
7081.949784,301.720000,-0.316500
7087.660892,301.772000,0.087000
7093.479803,301.825000,0.448500
7099.296670,301.878000,0.427000
7105.111496,301.931000,-12.446000
7110.814624,301.983000,-4.560000
7116.625408,302.036000,3.098000
7122.434152,302.089000,-2.394500
7128.240858,302.142000,-2.202000
7133.936024,302.194000,-1.244000
7139.738696,302.247000,12.710000
7145.539334,302.300000,5.533000
7151.228549,302.352000,1.314000
7157.025159,302.405000,2.333500
7162.819737,302.458000,1.901500
7168.503010,302.510000,-0.127000
7174.293567,302.563000,-9.373500
7180.082095,302.616000,0.327000
7185.759436,302.668000,-0.746500
7191.543949,302.721000,-4.470500
7197.217352,302.773000,-6.301000
7202.997854,302.826000,-5.375000
7208.667324,302.878000,-1.264000
7214.443819,302.931000,-5.427500
7220.109360,302.983000,-7.650500
7225.881853,303.036000,-6.868500
7231.543468,303.088000,0.149000
7237.311962,303.141000,0.174000
7242.969657,303.193000,-0.555000
7248.734156,303.246000,-1.137500
7254.387934,303.298000,-0.862000
7260.148443,303.351000,-0.821000
7265.798308,303.403000,1.915000
7271.554831,303.456000,-8.351000
7277.200787,303.508000,-2.130000
7282.953328,303.561000,-0.879500
7288.595379,303.613000,1.768500
7294.235498,303.665000,-0.525500
7299.982093,303.718000,1.542500
7305.618313,303.770000,0.267000
7311.252604,303.822000,1.447500
7316.993262,303.875000,-0.961000
7322.623660,303.927000,-0.076500
7328.252131,303.979000,0.572500
7333.986862,304.032000,-5.293000
7339.611446,304.084000,-11.036000
7345.234108,304.136000,-11.539000
7350.962920,304.189000,-2.953500
7356.581700,304.241000,-0.301500
7362.198561,304.293000,-1.110500
7367.813502,304.345000,3.184500
7373.426525,304.397000,2.197000
7379.145517,304.450000,-1.805000
7384.754669,304.502000,-1.534500
7390.361906,304.554000,-2.837000
7395.967228,304.606000,0.020000
7401.570637,304.658000,-3.387000
7407.279836,304.711000,-2.655000
7412.879384,304.763000,-3.572500
7418.477021,304.815000,-6.096500
7424.072749,304.867000,-0.334500
7429.666569,304.919000,-6.081000
7435.258480,304.971000,-7.279000
7440.848486,305.023000,-8.045000
7446.436585,305.075000,-6.315500
7452.022780,305.127000,4.765000
7457.607071,305.179000,-1.205500
7463.296795,305.232000,-8.087000
7468.877245,305.284000,0.914500
7474.455794,305.336000,8.066500
7480.032444,305.388000,-2.995500
7485.607195,305.440000,-3.693500
7491.180048,305.492000,-1.481500
7496.751004,305.544000,-4.375500
7502.212985,305.595000,-0.364500
7507.780187,305.647000,-2.477500
7513.345495,305.699000,-0.315000
7518.908909,305.751000,-1.800500
7524.470432,305.803000,-3.578000
7530.030064,305.855000,-3.519500
7535.587805,305.907000,-5.028000
7541.143658,305.959000,1.341500
7546.697622,306.011000,26.953000
7552.249699,306.063000,3.571000
7557.693173,306.114000,1.120500
7563.241514,306.166000,-3.696500
7568.787971,306.218000,-15.926500
7574.332545,306.270000,-3.268500
7579.875237,306.322000,-0.771500
7585.416047,306.374000,-0.202000
7590.848476,306.425000,1.597500
7596.385562,306.477000,4.893000
7601.920769,306.529000,2.228500
7607.454098,306.581000,-0.568500
7612.879195,306.632000,2.132000
7618.408808,306.684000,6.176000
7623.936546,306.736000,6.991500
7629.462411,306.788000,1.109000
7634.880189,306.839000,1.544500
7640.402345,306.891000,-2.504500
7645.922629,306.943000,-0.440000
7651.334938,306.994000,0.413500
7656.851519,307.046000,1.630000
7662.260197,307.097000,1.781500
7667.773079,307.149000,-1.290500
7673.284094,307.201000,-1.268000
7678.687317,307.252000,6.442500
7684.194638,307.304000,-3.008500
7689.700096,307.356000,-5.587000
7695.097870,307.407000,-9.634500
7700.599639,307.459000,-2.085000
7705.993798,307.510000,-1.970000
7711.491883,307.562000,2.140000
7716.882430,307.613000,-0.455000
7722.376833,307.665000,0.088500
7727.763772,307.716000,0.749500
7733.254498,307.768000,1.465000
7738.637831,307.819000,2.291000
7744.124884,307.871000,3.382500
7749.504617,307.922000,2.331000
7754.988000,307.974000,-0.233000
7760.364134,308.025000,-0.196000
7765.738489,308.076000,-2.629500
7771.216392,308.128000,-1.770500
7776.587155,308.179000,-2.088000
7782.061397,308.231000,-0.707500
7787.428571,308.282000,-0.048500
7792.793970,308.333000,-1.583500
7798.262745,308.385000,-1.750000
7803.624561,308.436000,-0.575500
7808.984603,308.487000,0.941500
7814.447920,308.539000,-0.894500
7819.804385,308.590000,-0.991500
7825.159080,308.641000,0.510500
7830.616947,308.693000,2.239500
7835.968069,308.744000,0.448000
7841.317424,308.795000,8.376000
7846.665012,308.846000,1.246000
7852.115636,308.898000,1.499000
7857.459659,308.949000,4.835000
7862.801917,309.000000,0.652000
7868.142413,309.051000,1.694500
7873.481146,309.102000,0.196000
7878.922746,309.154000,-0.175000
7884.257923,309.205000,-0.229000
7889.591340,309.256000,0.656500
7894.922998,309.307000,0.425000
7900.252898,309.358000,-5.046000
7905.581041,309.409000,-1.405000
7910.907428,309.460000,-4.355000
7916.336447,309.512000,-1.692000
7921.659290,309.563000,-0.417500
7926.980379,309.614000,-2.291000
7932.299715,309.665000,0.447000
7937.617300,309.716000,-1.573000
7942.933134,309.767000,0.123500
7948.247217,309.818000,3.101000
7953.559551,309.869000,0.297000
7958.870137,309.920000,-1.500000
7964.178976,309.971000,-1.707500
7969.486068,310.022000,2.891000
7974.791414,310.073000,3.394500
7980.095015,310.124000,3.650500
7985.396872,310.175000,14.143500
7990.696985,310.226000,3.544000
7995.995357,310.277000,3.153500
8001.291987,310.328000,-0.987000
8006.586876,310.379000,-0.547500
8011.880026,310.430000,-1.627500
8017.067700,310.480000,-4.063500
8022.357406,310.531000,0.788000
8027.645376,310.582000,0.423000
8032.931609,310.633000,-1.631000
8038.216106,310.684000,7.821000
8043.498869,310.735000,5.526500
8048.779898,310.786000,-1.304000
8053.955695,310.836000,0.185500
8059.233293,310.887000,1.869000
8064.509160,310.938000,-6.484500
8069.783296,310.989000,-28.574500
8074.952339,311.039000,-3.326000
8080.223051,311.090000,-1.331000
8085.492035,311.141000,1.739000
8090.759292,311.192000,0.092000
8095.921594,311.242000,-0.405000
8101.185433,311.293000,-0.467000
8106.447548,311.344000,-0.952000
8111.604811,311.394000,3.445000
8116.863513,311.445000,-3.165000
8122.120493,311.496000,-12.848500
8127.272724,311.546000,-7.280000
8132.526297,311.597000,-1.309000
8137.778150,311.648000,-2.227500
8142.925357,311.698000,-3.271500
8148.173807,311.749000,-0.146500
8153.420541,311.800000,-5.547500
8158.562731,311.850000,-2.742000
8163.806066,311.901000,-3.176000
8168.944927,311.951000,-6.615000
8174.184869,312.002000,-11.858000
8179.320403,312.052000,-11.433000
8184.556953,312.103000,-3.421500
8189.689165,312.153000,-10.603500
8194.922327,312.204000,-14.113000
8200.051219,312.254000,0.949000
8205.280996,312.305000,0.776500
8210.406572,312.355000,0.336500
8215.632968,312.406000,3.273000
8220.755230,312.456000,-3.760000
8225.978248,312.507000,0.268500
8231.097200,312.557000,-1.383000
8236.316843,312.608000,17.511000
8241.432488,312.658000,15.618000
8246.546497,312.708000,0.987500
8251.761101,312.759000,-0.407500
8256.871808,312.809000,1.153500
8261.980881,312.859000,0.699500
8267.190453,312.910000,4.386000
8272.296229,312.960000,1.633500
8277.400373,313.010000,1.470000
8282.604921,313.061000,-1.057500
8287.705773,313.111000,-0.798000
8292.804996,313.161000,-3.325000
8298.004526,313.212000,-2.082500
8303.100462,313.262000,10.026000
8308.194770,313.312000,11.176500
8313.287453,313.362000,1.600500
8318.480316,313.413000,-3.368500
8323.569717,313.463000,1.159500
8328.657496,313.513000,-3.973500
8333.743651,313.563000,-3.276500
8338.828185,313.613000,-1.507500
8344.012739,313.664000,2.253000
8349.094000,313.714000,-1.900500
8354.173640,313.764000,-2.368000
8359.251662,313.814000,0.888000
8364.328066,313.864000,-1.455500
8369.402853,313.914000,-0.068500
8374.476024,313.964000,-1.250000
8379.547579,314.014000,1.983000
8384.718901,314.065000,-0.287500
8389.787195,314.115000,0.237000
8394.853876,314.165000,0.155500
8399.918944,314.215000,0.849000
8404.982400,314.265000,-0.056500
8410.044246,314.315000,2.680500
8415.104481,314.365000,-0.117000
8420.163107,314.415000,0.935000
8425.220124,314.465000,4.360500
8430.275533,314.515000,-0.523000
8435.329336,314.565000,1.159000
8440.381532,314.615000,-0.315500
8445.432122,314.665000,-0.700500
8450.481107,314.715000,1.974500
8455.528489,314.765000,5.947500
8460.473367,314.814000,-2.305000
8465.517575,314.864000,-4.766000
8470.560181,314.914000,-2.717000
8475.601186,314.964000,-4.615500
8480.640590,315.014000,0.040000
8485.678395,315.064000,0.089500
8490.714602,315.114000,3.265500
8495.749210,315.164000,-0.133500
8500.681577,315.213000,-0.613500
8505.713024,315.263000,0.922000
8510.742875,315.313000,1.157000
8515.771131,315.363000,0.714000
8520.797793,315.413000,1.181500
8525.722375,315.462000,3.000000
8530.745883,315.512000,0.751500
8535.767799,315.562000,-5.465500
8540.788124,315.612000,-0.288500
8545.706499,315.661000,2.354000
8550.723675,315.711000,3.632000
8555.739262,315.761000,0.361500
8560.652997,315.810000,-3.111000
8565.665441,315.860000,0.607500
8570.676298,315.910000,0.495500
8575.585399,315.959000,-7.189500
8580.593116,316.009000,-4.058000
8585.599249,316.059000,-23.731500
8590.503723,316.108000,-14.452000
8595.506721,316.158000,-2.790500
8600.508137,316.208000,-1.024000
8605.407991,316.257000,-0.108000
8610.406276,316.307000,-2.225500
8615.303063,316.356000,-0.169000
8620.298221,316.406000,-0.822500
8625.191944,316.455000,-0.051000
8630.183977,316.505000,1.284000
8635.074640,316.554000,2.332000
8640.063551,316.604000,1.455500
8644.951156,316.653000,2.185000
8649.936949,316.703000,1.460000
8654.821499,316.752000,-0.627500
8659.804175,316.802000,1.074500
8664.685673,316.851000,6.683000
8669.665237,316.901000,-1.706500
8674.543685,316.950000,2.620000
8679.520139,317.000000,-2.751000
8684.395541,317.049000,-2.774000
8689.269436,317.098000,-0.857000
8694.241247,317.148000,1.457500
8699.112100,317.197000,2.133500
8703.981448,317.246000,0.840000
8708.948621,317.296000,5.986000
8713.814931,317.345000,3.528000
8718.779005,317.395000,-1.953500
8723.642281,317.444000,-0.807000
8728.504055,317.493000,-9.133500
8733.364329,317.542000,-3.773500
8738.322247,317.592000,-3.134000
8743.179491,317.641000,-2.238500
8748.035237,317.690000,-0.168500
8752.889486,317.739000,-0.706000
8757.841258,317.789000,-2.718500
8762.692483,317.838000,-2.727000
8767.542212,317.887000,-4.088000
8772.390446,317.936000,0.180000
8777.336084,317.986000,1.123500
8782.181300,318.035000,-9.707500
8787.025024,318.084000,-5.014500
8791.867255,318.133000,0.585500
8796.707995,318.182000,0.627000
8801.547244,318.231000,-1.420000
8806.385003,318.280000,2.873500
8811.319957,318.330000,-1.611500
8816.154708,318.379000,-30.297000
8820.987971,318.428000,-5.500000
8825.819746,318.477000,-5.557500
8830.650035,318.526000,-2.381000
8835.478838,318.575000,-1.805000
8840.306156,318.624000,-0.532000
8845.131990,318.673000,0.622000
8849.956339,318.722000,32.872500
8854.779206,318.771000,8.773500
8859.600590,318.820000,-2.007000
8864.420492,318.869000,0.207500
8869.238913,318.918000,-1.825500
8874.055854,318.967000,-1.604000
8878.871314,319.016000,0.514000
8883.685296,319.065000,-0.007500
8888.497800,319.114000,-1.569000
8893.308826,319.163000,-0.370500
8898.118374,319.212000,0.435000
8902.926447,319.261000,-0.121500
8907.634964,319.309000,2.508500
8912.440116,319.358000,0.081000
8917.243794,319.407000,4.686000
8922.045998,319.456000,0.791000
8926.846729,319.505000,-0.733500
8931.645988,319.554000,1.829500
8936.443775,319.603000,-1.954000
8941.142222,319.651000,1.360500
8945.937098,319.700000,-1.010000
8950.730504,319.749000,2.055500
8955.522441,319.798000,0.771500
8960.215161,319.846000,4.889000
8965.004192,319.895000,-0.082500
8969.791757,319.944000,3.840000
8974.577855,319.993000,0.468000
8979.264858,320.041000,1.824500
8984.048055,320.090000,-0.039500
8988.829789,320.139000,1.267500
8993.512517,320.187000,-0.888500
8998.291355,320.236000,-0.622000
9003.068730,320.285000,1.859000
9007.747190,320.333000,2.079000
9012.521672,320.382000,-6.880500
9017.294694,320.431000,-6.376500
9021.968893,320.479000,0.356500
9026.739026,320.528000,0.972500
9031.410396,320.576000,4.069000
9036.177644,320.625000,-44.321000
9040.943434,320.674000,-46.341500
9045.610552,320.722000,-5.815000
9050.373460,320.771000,4.644000
9055.037756,320.819000,2.854000
9059.797784,320.868000,1.488500
9064.459261,320.916000,-1.929500
9069.216413,320.965000,0.680000
9073.875072,321.013000,-0.963000
9078.629350,321.062000,0.616000
9083.285194,321.110000,3.967000
9088.036601,321.159000,7.355000
9092.689634,321.207000,1.650500
9097.438171,321.256000,-0.143000
9102.088394,321.304000,-0.379500
9106.737229,321.352000,-1.082000
9111.481482,321.401000,-0.282500
9116.127511,321.449000,3.821500
9120.868902,321.498000,0.976500
9125.512128,321.546000,-2.013500
9130.153968,321.594000,0.166500
9134.891085,321.643000,0.594000
9139.530126,321.691000,4.074500
9144.167783,321.739000,5.583000
9148.900630,321.788000,0.438500
9153.535492,321.836000,2.613500
9158.168971,321.884000,1.104500
9162.801069,321.932000,1.422000
9167.528244,321.981000,1.332500
9172.157551,322.029000,3.271000
9176.785479,322.077000,6.689000
9181.412027,322.125000,19.561000
9186.133540,322.174000,1.705000
9190.757302,322.222000,-3.199000
9195.379688,322.270000,-0.285500
9200.000697,322.318000,2.312500
9204.620330,322.366000,2.544000
9209.334786,322.415000,28.581500
9213.951640,322.463000,3.745000
9218.567119,322.511000,0.393500
9223.181225,322.559000,0.832000
9227.793957,322.607000,-0.230000
9232.405318,322.655000,2.377500
9237.015306,322.703000,0.340500
9241.623923,322.751000,-2.095000
9246.231170,322.799000,1.109500
9250.932988,322.848000,-1.596500
9255.537466,322.896000,-1.946000
9260.140576,322.944000,2.087000
9264.742318,322.992000,1.005000
9269.342693,323.040000,0.202000
9273.941700,323.088000,1.976500
9278.539341,323.136000,1.651000
9283.135616,323.184000,4.313500
9287.730527,323.232000,-0.455000
9292.324072,323.280000,-3.210500
9296.916254,323.328000,-5.503000
9301.411445,323.375000,-3.460500
9306.000929,323.423000,-1.533000
9310.589052,323.471000,-0.899500
9315.175812,323.519000,-1.514500
9319.761212,323.567000,2.191000
9324.345252,323.615000,1.240000
9328.927932,323.663000,0.591000
9333.509253,323.711000,-0.266000
9338.089216,323.759000,-4.058000
9342.572447,323.806000,-0.930500
9347.149722,323.854000,1.395000
9351.725642,323.902000,-0.350500
9356.300205,323.950000,0.845000
9360.873412,323.998000,8.974500
9365.350032,324.045000,-0.098000
9369.920559,324.093000,-1.393500
9374.489732,324.141000,-1.666000
9379.057552,324.189000,-2.385000
9383.528899,324.236000,-9.804000
9388.094043,324.284000,-5.390500
9392.657836,324.332000,7.376000
9397.125241,324.379000,4.554500
9401.686361,324.427000,3.499000
9406.246132,324.475000,-0.133500
9410.804554,324.523000,-0.191000
9415.266702,324.570000,-0.900000
9419.822456,324.618000,-0.948500
9424.281993,324.665000,-1.312500
9428.835082,324.713000,2.646500
9433.386824,324.761000,1.778500
9437.842435,324.808000,-8.862000
9442.391516,324.856000,-3.231500
9446.844521,324.903000,-2.695000
9451.390942,324.951000,-1.389000
9455.936020,324.999000,-2.082500
9460.385108,325.046000,-3.539000
9464.927530,325.094000,-15.880500
9469.374018,325.141000,-2.047500
9473.913786,325.189000,-1.354500
9478.357677,325.236000,1.427500
9482.894794,325.284000,-5.185500
9487.336090,325.331000,-1.634000
9491.870557,325.379000,-0.307000
9496.309260,325.426000,2.326500
9500.746681,325.473000,-0.994500
9505.277193,325.521000,-8.610000
9509.712024,325.568000,-2.097000
9514.239893,325.616000,-2.055000
9518.672137,325.663000,0.901000
9523.103102,325.710000,-0.614500
9527.627024,325.758000,1.610000
9532.055405,325.805000,35.345500
9536.576689,325.853000,3.663500
9541.002489,325.900000,-3.611000
9545.427013,325.947000,-1.773000
9549.850260,325.994000,-1.848500
9554.366303,326.042000,-1.821000
9558.786974,326.089000,0.976000
9563.206371,326.136000,9.508500
9567.718482,326.184000,4.495500
9572.135305,326.231000,0.775500
9576.550855,326.278000,-3.764500
9580.965134,326.325000,0.128000
9585.472021,326.373000,0.060000
9589.883730,326.420000,0.762000
9594.294169,326.467000,-1.587500
9598.703338,326.514000,-0.376000
9603.111238,326.561000,-1.405000
9607.611614,326.609000,4.733000
9612.016950,326.656000,30.554000
9616.421019,326.703000,-1.692500
9620.823821,326.750000,-2.397500
9625.225356,326.797000,-0.647000
9629.625626,326.844000,-1.103000
9634.024630,326.891000,-0.099500
9638.422369,326.938000,0.831000
9642.818845,326.985000,-1.931500
9647.214056,327.032000,1.125500
9651.701479,327.080000,-1.761500
9656.094138,327.127000,-1.069000
9660.485535,327.174000,-2.512000
9664.875670,327.221000,2.510000
9669.264544,327.268000,2.092000
9673.652158,327.315000,-0.095500
9678.038512,327.362000,-0.507000
9682.423607,327.409000,-1.279500
9686.807443,327.456000,-2.354000
9691.190021,327.503000,1.884000
9695.478134,327.549000,3.852500
9699.858224,327.596000,0.477500
9704.237057,327.643000,-0.457500
9708.614633,327.690000,1.003000
9712.990955,327.737000,-0.796500
9717.366021,327.784000,-1.393000
9721.739833,327.831000,-2.972500
9726.112390,327.878000,-7.963000
9730.483695,327.925000,-0.717500
9734.760780,327.971000,0.485500
9739.129606,328.018000,-0.401500
9743.497180,328.065000,1.899000
9747.863503,328.112000,0.843500
9752.228575,328.159000,2.088000
9756.499562,328.205000,0.737000
9760.862161,328.252000,1.323000
9765.223511,328.299000,1.496000
9769.583612,328.346000,3.791500
9773.849737,328.392000,-0.674000
9778.207369,328.439000,-0.547000
9782.563754,328.486000,0.203000
9786.918893,328.533000,0.415000
9791.180163,328.579000,2.060000
9795.532837,328.626000,-1.538500
9799.884266,328.673000,-0.038500
9804.141906,328.719000,0.243500
9808.490874,328.766000,0.426500
9812.838598,328.813000,7.204500
9817.092614,328.859000,1.807000
9821.437879,328.906000,1.024000
9825.689490,328.952000,-0.522000
9830.032299,328.999000,-1.450500
9834.373868,329.046000,0.560000
9838.621862,329.092000,-0.781500
9842.960977,329.139000,-5.114000
9847.206571,329.185000,-4.542000
9851.543235,329.232000,-0.196500
9855.786431,329.278000,-0.038500
9860.120646,329.325000,-3.133500
9864.361446,329.371000,-2.821000
9868.693214,329.418000,-2.656000
9872.931619,329.464000,-0.795000
9877.260942,329.511000,5.248500
9881.496956,329.557000,0.248000
9885.823836,329.604000,1.312500
9890.057460,329.650000,-3.246000
9894.289903,329.696000,-2.348000
9898.613135,329.743000,-1.280000
9902.843191,329.789000,-1.754000
9907.163985,329.836000,10.608000
9911.391656,329.882000,-2.179500
9915.618148,329.928000,-0.808000
9919.935303,329.975000,0.933500
9924.159413,330.021000,0.697500
9928.382346,330.067000,-0.179500
9932.695866,330.114000,-1.028500
9936.916419,330.160000,-3.281000
9941.135797,330.206000,-2.988500
9945.445687,330.253000,-3.470500
9949.662689,330.299000,2.589500
9953.878516,330.345000,-1.621500
9958.093170,330.391000,-1.434000
9962.398234,330.438000,-0.376500
9966.610516,330.484000,0.578000
9970.821625,330.530000,-0.547500
9975.031562,330.576000,-1.526000
9979.240328,330.622000,-5.513500
9983.539380,330.669000,-2.350000
9987.745778,330.715000,0.634000
9991.951007,330.761000,1.307000
9996.155067,330.807000,-1.222000
10000.357957,330.853000,-1.116500
10004.559679,330.899000,0.289500
10008.760233,330.945000,1.189500
10013.050897,330.992000,1.649000
10017.249091,331.038000,0.490500
10021.446118,331.084000,-0.925000
10025.641979,331.130000,-0.236000
10029.836675,331.176000,-1.993000
10034.030205,331.222000,1.670500
10038.222571,331.268000,-1.307500
10042.413773,331.314000,-0.390000
10046.603811,331.360000,0.267500
10050.792686,331.406000,6.762000
10054.980398,331.452000,1.278500
10059.166948,331.498000,-1.574000
10063.352336,331.544000,-0.195000
10067.536563,331.590000,-2.268000
10071.719629,331.636000,0.905000
10075.901535,331.682000,0.697500
10080.082281,331.728000,-3.041000
10084.261868,331.774000,-0.366500
10088.440296,331.820000,2.015000
10092.526768,331.865000,-0.481500
10096.702905,331.911000,-1.022500
10100.877884,331.957000,1.329500
10105.051707,332.003000,-0.434500
10109.224373,332.049000,-0.858000
10113.395884,332.095000,4.557000
10117.475591,332.140000,0.378000
10121.644816,332.186000,0.652000
10125.812886,332.232000,-2.190000
10129.979802,332.278000,0.154000
10134.145565,332.324000,-1.299000
10138.219652,332.369000,-1.329000
10142.383134,332.415000,-0.174500
10146.545464,332.461000,-1.817500
10150.706643,332.507000,0.234000
10154.776247,332.552000,3.378500
10158.935148,332.598000,9.874500
10163.092900,332.644000,-5.144500
10167.159152,332.689000,1.167500
10171.314630,332.735000,-1.425500
10175.468958,332.781000,0.700000
10179.531864,332.826000,2.798000
10183.683921,332.872000,0.132000
10187.834831,332.918000,-1.100000
10191.894393,332.963000,-0.315000
10196.043035,333.009000,-0.599500
10200.190530,333.055000,0.507000
10204.246754,333.100000,-12.984000
10208.391984,333.146000,0.005500
10212.445992,333.191000,0.377500
10216.588958,333.237000,0.838500
10220.640753,333.282000,-0.111000
10224.781457,333.328000,-1.297500
10228.831039,333.373000,1.246000
10232.969483,333.419000,-1.175500
10237.016856,333.464000,-0.544000
10241.153042,333.510000,1.473000
10245.198206,333.555000,1.461500
10249.332135,333.601000,-0.038000
10253.375094,333.646000,0.949500
10257.506768,333.692000,-1.885500
10261.547522,333.737000,-0.626000
10265.587186,333.782000,-0.386500
10269.715494,333.828000,-1.615000
10273.752956,333.873000,-6.104500
10277.879015,333.919000,-1.194500
10281.914277,333.964000,-2.602000
10285.948452,334.009000,-0.155000
10290.071151,334.055000,-0.885000
10294.103128,334.100000,7.063000
10298.134020,334.145000,8.907500
10302.253364,334.191000,9.574000
10306.282060,334.236000,2.878000
10310.309672,334.281000,1.334500
10314.425666,334.327000,-1.361000
10318.451085,334.372000,1.568000
10322.475422,334.417000,2.224500
10326.498675,334.462000,-0.680000
10330.610215,334.508000,2.726000
10334.631280,334.553000,0.180500
10338.651263,334.598000,-1.858000
10342.670165,334.643000,-4.544500
10346.687987,334.688000,-0.141500
10350.704728,334.733000,-2.355000
10354.809614,334.779000,-0.575500
10358.824172,334.824000,-0.254000
10362.837651,334.869000,0.641500
10366.850051,334.914000,-1.248000
10370.861373,334.959000,2.357000
10374.871618,335.004000,4.460500
10378.880786,335.049000,-3.219500
10382.888876,335.094000,-1.987000
10386.984923,335.140000,0.779500
10390.990838,335.185000,2.642500
10394.995677,335.230000,0.777500
10398.999440,335.275000,0.737500
10403.002130,335.320000,-0.796000
10407.003745,335.365000,0.923500
10411.004286,335.410000,-0.871500
10415.003755,335.455000,0.001000
10419.002150,335.500000,-0.438500
10422.999473,335.545000,-1.715000
10426.995723,335.590000,-3.458500
10430.990902,335.635000,-7.520000
10434.985010,335.680000,-2.950500
10438.889325,335.724000,7.549000
10442.881316,335.769000,6.296000
10446.872237,335.814000,-1.080500
10450.862088,335.859000,-0.504000
10454.850871,335.904000,0.761000
10458.838585,335.949000,-0.982000
10462.825230,335.994000,-0.453000
10466.810808,336.039000,5.746500
10470.706786,336.083000,-2.056000
10474.690253,336.128000,-4.139500
10478.672654,336.173000,1.414000
10482.653989,336.218000,0.822500
10486.634259,336.263000,3.310000
10490.525048,336.307000,5.715500
10494.503211,336.352000,2.984000
10498.480310,336.397000,-0.441500
10502.456345,336.442000,-0.954000
10506.342995,336.486000,-11.717000
10510.316927,336.531000,22.152500
10514.289797,336.576000,37.178000
10518.261604,336.621000,13.598000
10522.144122,336.665000,-16.562500
10526.113830,336.710000,-3.278000
10530.082477,336.755000,2.519000
10533.961906,336.799000,2.001500
10537.928455,336.844000,1.678000
10541.893946,336.889000,0.316000
10545.770289,336.933000,0.145500
10549.733685,336.978000,-4.836000
10553.607982,337.022000,0.590000
10557.569284,337.067000,0.069000
10561.529529,337.112000,2.971000
10565.400747,337.156000,0.871500
10569.358902,337.201000,0.773000
10573.228076,337.245000,1.293000
10577.184142,337.290000,0.623500
10581.051275,337.334000,0.718500
10585.005254,337.379000,-0.579500
10588.870347,337.423000,1.122000
10592.822240,337.468000,2.474500
10596.685295,337.512000,7.772000
10600.635105,337.557000,3.741500
10604.496123,337.601000,4.923500
10608.443850,337.646000,5.473000
10612.302834,337.690000,8.061000
10616.160811,337.734000,9.428000
10620.105430,337.779000,13.420500
10623.961375,337.823000,13.955500
10627.903916,337.868000,21.743000
10631.757830,337.912000,17.679000
10635.610740,337.956000,19.293000
10639.550179,338.001000,17.379000
10643.401061,338.045000,15.937000
10647.250940,338.089000,16.488500
10651.187281,338.134000,19.694500
10655.035134,338.178000,20.106500
10658.881986,338.222000,20.907000
10662.815231,338.267000,24.924500
10666.660059,338.311000,22.540000
10670.503887,338.355000,25.204500
10674.346716,338.399000,22.952000
10678.275848,338.444000,17.412000
10682.116656,338.488000,21.067000
10685.956465,338.532000,20.750500
10689.795276,338.576000,21.801000
10693.633090,338.620000,39.159000
10697.557096,338.665000,22.687500
10701.392893,338.709000,20.437000
10705.227693,338.753000,27.949000
10709.061498,338.797000,22.576500
10712.894307,338.841000,21.088000
10716.726120,338.885000,20.913000
10720.556939,338.929000,21.089000
10724.386763,338.973000,30.516500
10728.302601,339.018000,21.281500
10732.130414,339.062000,17.982500
10735.957235,339.106000,18.927000
10739.783062,339.150000,21.054500
10743.607897,339.194000,20.734500
10747.431740,339.238000,20.555000
10751.254591,339.282000,24.463500
10755.076450,339.326000,29.607000
10758.897319,339.370000,21.440500
10762.717197,339.414000,23.218500
10766.536084,339.458000,22.939500
10770.353982,339.502000,20.924000
10774.170890,339.546000,21.338500
10777.986809,339.590000,24.546500
10781.801740,339.634000,24.580000
10785.615682,339.678000,23.453500
10789.341989,339.721000,26.105000
10793.153978,339.765000,25.612500
10796.964980,339.809000,25.695500
10800.774995,339.853000,22.841000
10804.584024,339.897000,18.938500
10808.392066,339.941000,21.142000
10812.199123,339.985000,23.996500
10816.005195,340.029000,36.348000
10819.723813,340.072000,28.328000
10823.527938,340.116000,23.595500
10827.331078,340.160000,23.194000
10831.133235,340.204000,22.871500
10834.848029,340.247000,23.195500
10838.648242,340.291000,23.959000
10842.447472,340.335000,21.479000
10846.245720,340.379000,21.997000
10849.956695,340.422000,24.752500
10853.753002,340.466000,20.280000
10857.548328,340.510000,25.690500
10861.342673,340.554000,26.829500
10865.049836,340.597000,30.696500
10868.842243,340.641000,23.485500
10872.633670,340.685000,20.432500
10876.337983,340.728000,20.726000
10880.127474,340.772000,23.958500
10883.829896,340.815000,24.896000
10887.617453,340.859000,24.963000
10891.404033,340.903000,15.290000
10895.103609,340.946000,22.400500
10898.888257,340.990000,23.368000
10902.585946,341.033000,22.442000
10906.368663,341.077000,21.858000
10910.150404,341.121000,21.658000
10913.845254,341.164000,23.192000
10917.625066,341.208000,18.175000
10921.318033,341.251000,22.782500
10925.095918,341.295000,19.593500
10928.787002,341.338000,23.334000
10932.562962,341.382000,22.043500
10936.252165,341.425000,21.330500
10939.940439,341.468000,23.251500
10943.713524,341.512000,21.201000
10947.399919,341.555000,17.481500
10951.171083,341.599000,23.477500
10954.855601,341.642000,17.855500
10958.624845,341.686000,21.526500
10962.307486,341.729000,22.051000
10965.989201,341.772000,22.092500
10969.755578,341.816000,21.609500
10973.435419,341.859000,21.262000
10977.114334,341.902000,20.287000
10980.877848,341.946000,13.770000
10984.554892,341.989000,-5.836500
10988.231011,342.032000,15.153500
10991.991665,342.076000,20.747500
10995.665914,342.119000,21.596500
10999.339240,342.162000,19.625500
11003.011643,342.205000,21.368500
11006.768496,342.249000,20.699500
11010.439032,342.292000,21.391000
11014.108646,342.335000,22.421500
11017.777338,342.378000,21.311500
11021.530396,342.422000,29.447500
11025.197224,342.465000,19.405500
11028.863132,342.508000,29.828000
11032.528119,342.551000,26.761500
11036.192187,342.594000,35.139000
11039.855335,342.637000,23.634000
11043.602720,342.681000,21.927500
11047.264009,342.724000,18.209000
11050.924378,342.767000,22.295000
11054.583829,342.810000,23.206000
11058.242363,342.853000,19.695000
11061.899979,342.896000,18.949500
11065.556677,342.939000,20.370000
11069.212459,342.982000,20.634500
11072.867324,343.025000,21.298000
11076.521273,343.068000,23.852500
11080.174306,343.111000,18.667500
11083.826423,343.154000,16.950500
11087.477626,343.197000,19.564000
11091.127913,343.240000,22.032500
11094.777286,343.283000,25.732500
11098.425745,343.326000,26.845000
11102.073291,343.369000,22.194500
11105.719922,343.412000,20.157500
11109.365641,343.455000,20.132000
11113.010447,343.498000,19.131000
11116.654340,343.541000,20.052500
11120.297322,343.584000,22.672500
11123.939391,343.627000,20.039500
11127.580549,343.670000,20.590000
11131.220797,343.713000,21.881000
11134.775508,343.755000,22.002500
11138.413955,343.798000,19.037000
11142.051492,343.841000,22.937000
11145.688120,343.884000,23.555500
11149.323838,343.927000,26.280000
11152.958647,343.970000,22.869500
11156.508049,344.012000,22.694500
11160.141062,344.055000,22.806500
11163.773167,344.098000,25.037000
11167.404365,344.141000,20.646500
11170.950240,344.183000,24.812000
11174.579645,344.226000,16.723000
11178.208143,344.269000,22.751500
11181.751382,344.311000,24.062500
11185.378088,344.354000,23.150500
11189.003889,344.397000,28.475500
11192.628785,344.440000,26.000500
11196.168507,344.482000,26.230000
11199.791614,344.525000,22.639000
11203.413817,344.568000,22.253000
11206.950910,344.610000,24.200500
11210.571327,344.653000,22.380000
11214.106675,344.695000,18.981500
11217.725306,344.738000,23.365000
11221.343035,344.781000,20.895000
11224.875759,344.823000,23.087000
11228.491704,344.866000,20.027000
11232.022687,344.908000,22.477000
11235.636851,344.951000,23.689000
11239.166094,344.993000,16.215500
11242.778477,345.036000,18.354000
11246.305982,345.078000,22.382500
11249.916585,345.121000,20.802500
11253.442353,345.163000,33.221500
11257.051178,345.206000,24.816500
11260.575210,345.248000,18.799500
11264.182259,345.291000,22.896000
11267.704555,345.333000,19.216500
11271.309829,345.376000,19.966500
11274.830392,345.418000,20.946500
11278.350100,345.460000,20.405500
11281.952723,345.503000,21.250000
11285.470699,345.545000,20.637000
11288.987820,345.587000,23.946500
11292.587796,345.630000,25.376000
11296.103187,345.672000,23.327000
11299.701393,345.715000,23.246500
11303.215056,345.757000,22.164500
11306.727865,345.799000,23.712500
11310.239821,345.841000,22.296000
11313.834512,345.884000,24.517000
11317.344742,345.926000,25.431500
11320.854120,345.968000,26.136500
11324.446172,346.011000,26.775500
11327.953826,346.053000,27.132000
11331.460629,346.095000,20.579000
11334.966581,346.137000,21.579000
11338.471682,346.179000,21.315000
11342.059357,346.222000,22.312500
11345.562737,346.264000,20.145000
11349.065268,346.306000,20.592000
11352.566949,346.348000,11.035500
11356.067781,346.390000,20.385500
11359.567764,346.432000,20.862500
11363.150201,346.475000,20.947500
11366.648467,346.517000,19.320000
11370.145885,346.559000,21.493000
11373.642456,346.601000,22.062500
11377.138179,346.643000,19.673500
11380.633055,346.685000,21.487000
11384.127085,346.727000,20.137000
11387.620268,346.769000,19.294000
11391.112605,346.811000,19.152500
11394.604096,346.853000,20.194500
11398.094742,346.895000,21.471000
11401.584543,346.937000,19.111000
11405.073499,346.979000,18.325000
11408.561610,347.021000,16.399000
11412.048877,347.063000,17.946000
11415.535301,347.105000,29.339500
11419.020880,347.147000,58.917500
11422.505617,347.189000,68.050000
11425.989510,347.231000,24.515500
11429.472560,347.273000,21.569000
11432.954769,347.315000,23.875000
11436.436135,347.357000,35.102500
11439.916659,347.399000,40.702000
11443.313502,347.440000,25.368000
11446.792364,347.482000,23.304500
11450.270384,347.524000,21.205000
11453.747565,347.566000,20.382000
11457.223905,347.608000,37.317000
11460.699405,347.650000,26.378000
11464.091345,347.691000,24.371000
11467.565186,347.733000,24.235000
11471.038188,347.775000,27.866500
11474.510351,347.817000,24.903000
11477.981676,347.859000,29.174500
11481.369541,347.900000,25.375500
11484.839210,347.942000,29.102000
11488.308041,347.984000,32.594000
11491.693473,348.025000,27.531000
11495.160650,348.067000,21.369000
11498.626991,348.109000,9.275500
11502.092494,348.151000,21.987500
11505.474680,348.192000,21.743500
11508.938532,348.234000,22.037500
11512.401549,348.276000,25.064000
11515.781307,348.317000,21.074000
11519.242673,348.359000,21.051500
11522.620821,348.400000,24.085000
11526.080539,348.442000,18.787500
11529.539422,348.484000,16.600500
11532.915148,348.525000,23.511500
11536.372384,348.567000,23.241500
11539.746502,348.608000,20.724000
11543.202092,348.650000,22.462000
11546.574604,348.691000,23.887000
11550.028550,348.733000,18.893500
11553.399456,348.774000,19.417000
11556.851758,348.816000,20.380500
11560.221061,348.857000,8.562500
11563.671720,348.899000,21.745500
11567.039420,348.940000,25.450500
11570.488439,348.982000,29.467500
11573.854537,349.023000,35.147500
11577.301915,349.065000,24.200000
11580.666413,349.106000,18.442000
11584.030120,349.147000,21.331000
11587.475051,349.189000,20.155000
11590.837159,349.230000,17.102000
11594.280452,349.272000,19.919000
11597.640963,349.313000,26.824000
11601.000686,349.354000,24.255000
11604.441535,349.396000,29.039000
11607.799661,349.437000,21.961500
11611.157000,349.478000,22.715500
11614.595408,349.520000,15.257000
11617.951152,349.561000,19.572500
11621.306109,349.602000,22.054000
11624.660280,349.643000,22.280000
11628.095443,349.685000,22.994000
11631.448022,349.726000,29.207000
11634.799814,349.767000,25.211000
11638.150821,349.808000,21.514000
11641.582745,349.850000,21.242000
11644.932162,349.891000,17.181500
11648.280794,349.932000,13.913500
11651.628641,349.973000,19.892500
11654.975704,350.014000,18.008000
11658.403590,350.056000,17.768500
11661.749066,350.097000,14.760500
11665.093759,350.138000,20.360500
11668.437668,350.179000,19.903500
11671.780795,350.220000,22.439000
11675.123139,350.261000,19.192000
11678.464700,350.302000,20.281500
11681.805480,350.343000,22.496500
11685.145477,350.384000,21.531500
11688.484693,350.425000,21.352500
11691.904543,350.467000,21.652500
11695.242178,350.508000,21.193000
11698.579032,350.549000,21.334000
11701.915105,350.590000,21.267500
11705.250398,350.631000,19.193500
11708.584912,350.672000,20.739500
11711.918645,350.713000,17.620000
11715.251600,350.754000,18.364000
11718.502512,350.794000,19.868000
11721.833927,350.835000,19.609500
11725.164564,350.876000,20.456000
11728.494422,350.917000,18.663500
11731.823503,350.958000,21.353000
11735.151806,350.999000,21.525500
11738.479331,351.040000,22.753000
11741.806079,351.081000,21.011500
11745.132050,351.122000,19.194000
11748.457245,351.163000,19.386000
11751.700589,351.203000,23.360500
11755.024250,351.244000,24.155000
11758.347135,351.285000,21.234500
11761.669245,351.326000,21.090000
11764.990579,351.367000,24.079500
11768.230159,351.407000,20.183500
11771.549962,351.448000,21.759500
11774.868991,351.489000,21.277000
11778.187246,351.530000,22.007500
11781.423822,351.570000,21.561500
11784.740548,351.611000,21.830000
11788.056500,351.652000,22.774500
11791.371680,351.693000,24.531500
11794.605256,351.733000,20.981500
11797.918909,351.774000,10.912500
11801.231790,351.815000,16.653000
11804.463124,351.855000,19.319500
11807.774479,351.896000,20.817500
11811.085063,351.937000,22.186500
11814.314158,351.977000,20.213000
11817.623218,352.018000,21.374500
11820.850827,352.058000,17.578500
11824.158365,352.099000,17.828500
11827.465133,352.140000,19.112000
11830.690506,352.180000,19.404000
11833.995753,352.221000,21.084500
11837.219643,352.261000,23.813500
11840.523370,352.302000,21.546500
11843.745778,352.342000,19.838000
11847.047986,352.383000,21.382500
11850.268913,352.423000,21.630000
11853.569603,352.464000,20.445500
11856.789050,352.504000,28.063500
11860.088224,352.545000,29.997000
11863.306191,352.585000,23.804000
11866.603850,352.626000,16.263000
11869.820339,352.666000,18.504500
11873.116483,352.707000,18.795500
11876.331495,352.747000,17.957500
11879.545777,352.787000,23.696000
11882.839661,352.828000,21.162500
11886.052468,352.868000,20.772500
11889.264547,352.908000,19.478500
11892.556173,352.949000,18.123500
11895.766777,352.989000,18.734500
11899.056892,353.030000,20.762000
11902.266024,353.070000,19.207500
11905.474429,353.110000,35.143000
11908.682107,353.150000,27.949000
11911.969223,353.191000,21.289000
11915.175430,353.231000,20.543000
11918.380911,353.271000,22.084000
11921.665775,353.312000,20.076000
11924.869787,353.352000,22.976000
11928.073073,353.392000,21.413500
11931.275634,353.432000,16.213000
11934.477470,353.472000,17.609500
11937.758600,353.513000,13.338000
11940.958969,353.553000,18.606000
11944.158614,353.593000,21.165500
11947.357536,353.633000,17.327000
11950.555733,353.673000,19.786000
11953.753208,353.713000,19.481000
11957.029868,353.754000,20.916000
11960.225879,353.794000,20.478000
11963.421166,353.834000,13.376000
11966.615732,353.874000,11.236000
11969.809575,353.914000,17.473000
11973.002696,353.954000,19.301000
11976.195096,353.994000,18.460000
11979.386774,354.034000,16.811500
11982.577731,354.074000,21.577500
11985.767968,354.114000,16.241500
11988.957483,354.154000,13.190500
11992.146279,354.194000,16.623500
11995.334354,354.234000,16.942500
11998.521709,354.274000,20.009500
12001.708345,354.314000,13.768500
12004.894261,354.354000,19.365000
12008.079458,354.394000,17.645500
12011.263936,354.434000,19.057500
12014.447695,354.474000,17.427500
12017.630736,354.514000,18.830000
12020.813059,354.554000,20.599000
12023.994663,354.594000,18.423000
12027.175550,354.634000,17.146500
12030.276224,354.673000,11.396000
12033.455694,354.713000,13.530000
12036.634448,354.753000,13.557000
12039.812484,354.793000,13.850000
12042.989804,354.833000,13.082000
12046.166408,354.873000,15.107000
12049.262907,354.912000,15.613500
12052.438097,354.952000,13.774000
12055.612571,354.992000,12.259500
12058.786330,355.032000,13.074500
12061.880056,355.071000,12.092500
12065.052403,355.111000,3.625000
12068.224035,355.151000,-1.826500
12071.394953,355.191000,7.441000
12074.485910,355.230000,9.380500
12077.655418,355.270000,5.407500
12080.824212,355.310000,4.915000
12083.913100,355.349000,2.175500
12087.080485,355.389000,4.941000
12090.247158,355.429000,4.253000
12093.333977,355.468000,28.189500
12096.499242,355.508000,18.100000
12099.663795,355.548000,-0.452500
12102.748549,355.587000,-0.032500
12105.911696,355.627000,0.171500
12108.995079,355.666000,-0.505500
12112.156822,355.706000,-0.515500
12115.317853,355.746000,-0.099000
12118.399174,355.785000,0.838000
12121.558801,355.825000,-0.615000
12124.638754,355.864000,-0.430500
12127.796979,355.904000,0.042500
12130.875565,355.943000,0.395000
12134.032389,355.983000,0.805500
12137.109608,356.022000,-0.375500
12140.265031,356.062000,-0.200000
12143.340885,356.101000,0.260000
12146.494908,356.141000,0.019500
12149.569398,356.180000,0.161000
12152.643215,356.219000,-0.715000
12155.795149,356.259000,-0.615000
12158.867603,356.298000,0.177000
12162.018139,356.338000,-0.682500
12165.089231,356.377000,-0.450000
12168.159651,356.416000,0.156000
12171.308101,356.456000,-0.205500
12174.377160,356.495000,0.078500
12177.445548,356.534000,-0.513000
12180.591915,356.574000,0.593500
12183.658943,356.613000,-0.151000
12186.725300,356.652000,0.341000
12189.869585,356.692000,0.133000
12192.934585,356.731000,-0.194500
12195.998914,356.770000,0.027000
12199.062573,356.809000,-0.203000
12202.204093,356.849000,-0.086000
12205.266396,356.888000,-0.041000
12208.328030,356.927000,-1.059000
12211.388995,356.966000,-0.506000
12214.527751,357.006000,0.449000
12217.587361,357.045000,0.760000
12220.646304,357.084000,0.680500
12223.704578,357.123000,-0.125000
12226.762184,357.162000,0.032500
12229.819122,357.201000,0.270500
12232.953750,357.241000,-0.182000
12236.009337,357.280000,-0.457500
12239.064257,357.319000,0.426000
12242.118510,357.358000,0.173000
12245.172096,357.397000,-0.206000
12248.225016,357.436000,0.604000
