raman_shift_cm-1,wavelength_nm,intensity
-311.444523,246.690000,0.000000
-300.766377,246.755000,0.000000
-290.093855,246.820000,0.000000
-279.262891,246.886000,0.000000
-268.601691,246.951000,0.012500
-257.946101,247.016000,0.085500
-247.296118,247.081000,-0.009000
-236.651737,247.146000,0.724000
-226.012953,247.211000,-0.041500
-215.216219,247.277000,0.028000
-204.588703,247.342000,0.376000
-193.966771,247.407000,-0.640500
-183.350419,247.472000,-0.015500
-172.739643,247.537000,0.089500
-162.134437,247.602000,0.329500
-151.534799,247.667000,0.000000
-140.940722,247.732000,-0.771000
-130.352203,247.797000,0.107000
-119.769238,247.862000,0.229500
-109.191822,247.927000,-0.229000
-98.619951,247.992000,0.525500
-88.053621,248.057000,-0.549500
-77.655258,248.121000,0.201500
-67.099910,248.186000,-0.356000
-56.550089,248.251000,-0.115000
-46.005792,248.316000,0.336000
-35.467013,248.381000,0.882500
-24.933749,248.446000,0.208000
-14.405995,248.511000,-0.839500
-4.045586,248.575000,-1.443000
6.471245,248.640000,-0.078500
16.982580,248.705000,0.038500
27.488421,248.770000,0.922000
37.827271,248.834000,0.085000
48.322224,248.899000,0.824500
58.811696,248.964000,0.585000
69.134442,249.028000,0.915000
79.613052,249.093000,0.082000
90.086194,249.158000,0.166500
100.392873,249.222000,0.392500
110.855177,249.287000,0.063000
121.312027,249.352000,-0.157000
131.602677,249.416000,0.719000
142.048715,249.481000,0.505000
152.328727,249.545000,-0.169000
162.763968,249.610000,0.322000
173.033359,249.674000,0.826500
183.457821,249.739000,0.259500
193.716607,249.803000,0.088000
204.130307,249.868000,-0.378000
214.378504,249.932000,0.326500
224.781458,249.997000,-1.605000
235.019083,250.061000,0.668500
245.411309,250.126000,0.083500
255.638378,250.190000,0.722000
265.860216,250.254000,0.783500
276.236420,250.319000,-0.440000
286.447727,250.383000,2.023500
296.813243,250.448000,-1.269000
307.014035,250.512000,6.228500
317.209616,250.576000,0.195500
327.399990,250.640000,-1.376000
337.744263,250.705000,-1.906500
347.924154,250.769000,0.739000
358.098850,250.833000,-2.690000
368.268355,250.897000,-2.809000
378.591450,250.962000,-0.940500
388.750505,251.026000,-1.076500
398.904381,251.090000,-1.761000
409.053082,251.154000,-1.657500
419.196612,251.218000,-11.352000
429.334975,251.282000,-30.225000
439.626466,251.347000,-2.496000
449.754426,251.411000,0.156000
459.877231,251.475000,-2.188500
469.994885,251.539000,-1.483500
480.107392,251.603000,-1.470500
490.214756,251.667000,-0.816500
500.316980,251.731000,-2.343500
510.414069,251.795000,0.410000
520.506026,251.859000,6.512500
530.592855,251.923000,8.504500
540.674561,251.987000,0.618500
550.751147,252.051000,8.923000
560.822617,252.115000,13.754000
570.888975,252.179000,4.382000
580.950225,252.243000,0.146500
590.849282,252.306000,-1.484500
600.900407,252.370000,-0.679000
610.946435,252.434000,-1.308000
620.987371,252.498000,1.536500
631.023218,252.562000,1.136500
641.053980,252.626000,-0.704000
650.923048,252.689000,0.610000
660.943731,252.753000,2.079500
670.959341,252.817000,0.251500
680.969880,252.881000,-2.601500
690.819058,252.944000,-0.778000
700.819549,253.008000,-1.539500
710.814983,253.072000,-0.232500
720.805362,253.136000,1.095500
730.634708,253.199000,6.624000
740.615069,253.263000,11.802500
750.434561,253.326000,5.213500
760.404919,253.390000,3.298000
770.370241,253.454000,1.822500
780.174941,253.517000,2.387500
790.130283,253.581000,38.152500
799.925166,253.644000,41.426000
809.870542,253.708000,15.754500
819.655623,253.771000,-1.158500
829.591048,253.835000,0.827500
839.366341,253.898000,0.747500
849.291831,253.962000,0.036000
859.057350,254.025000,0.643000
868.972920,254.089000,0.491500
878.728681,254.152000,-0.423000
888.634344,254.216000,-0.377500
898.380361,254.279000,1.399500
908.121550,254.342000,-0.276500
918.012421,254.406000,0.997500
927.743888,254.469000,0.176500
937.470538,254.532000,2.756000
947.346650,254.596000,1.848000
957.063600,254.659000,-0.500000
966.775743,254.722000,-0.773500
976.637128,254.786000,3.256500
986.339593,254.849000,-7.365000
996.037261,254.912000,0.077500
1005.730138,254.975000,0.516000
1015.571966,255.039000,0.090500
1025.255192,255.102000,-0.049500
1034.933637,255.165000,-0.376500
1044.607304,255.228000,0.261500
1054.276196,255.291000,-4.935500
1063.940318,255.354000,0.045500
1073.599672,255.417000,2.268500
1083.407471,255.481000,0.906500
1093.057225,255.544000,-0.401000
1102.702223,255.607000,-0.632500
1112.342467,255.670000,1.182000
1121.977961,255.733000,2.801000
1131.608710,255.796000,2.726000
1141.234715,255.859000,0.939000
1150.855981,255.922000,1.159000
1160.472512,255.985000,1.869000
1170.084310,256.048000,0.025000
1179.691379,256.111000,0.634000
1189.293724,256.174000,1.519000
1198.739040,256.236000,2.430500
1208.332019,256.299000,0.574000
1217.920283,256.362000,-0.325000
1227.503835,256.425000,-1.224000
1237.082680,256.488000,-2.610000
1246.656820,256.551000,4.410500
1256.226260,256.614000,6.555500
1265.639217,256.676000,-0.231500
1275.199339,256.739000,-1.433000
1284.754770,256.802000,-4.997000
1294.305515,256.865000,-3.576500
1303.700087,256.927000,-1.479000
1313.241541,256.990000,-1.146000
1322.778319,257.053000,-0.346000
1332.310423,257.116000,-0.525500
1341.686664,257.178000,0.385000
1351.209505,257.241000,1.032500
1360.727683,257.304000,-0.545500
1370.090229,257.366000,-0.999000
1379.599165,257.429000,0.413500
1388.952622,257.491000,0.515000
1398.452329,257.554000,0.477500
1407.796710,257.616000,0.112500
1417.287202,257.679000,-2.410000
1426.773053,257.742000,0.954500
1436.103810,257.804000,8.556500
1445.580466,257.867000,2.068500
1454.902179,257.929000,0.310000
1464.369654,257.992000,2.075500
1473.682337,258.054000,13.178000
1482.990547,258.116000,15.328500
1492.444310,258.179000,0.370500
1501.743510,258.241000,-1.689000
1511.188124,258.304000,1.167500
1520.478327,258.366000,-0.866500
1529.764072,258.428000,-1.625000
1539.195025,258.491000,-0.173500
1548.471792,258.553000,-0.168000
1557.744112,258.615000,-2.526000
1567.161432,258.678000,-3.287000
1576.424794,258.740000,-6.683000
1585.683718,258.802000,-5.287000
1594.938206,258.864000,-1.683500
1604.337420,258.927000,-2.267000
1613.582976,258.989000,-0.314000
1622.824106,259.051000,-1.396500
1632.060814,259.113000,1.982000
1641.293103,259.175000,9.388000
1650.669776,259.238000,3.463500
1659.893165,259.300000,0.005500
1669.112144,259.362000,0.665500
1678.326716,259.424000,0.263000
1687.536886,259.486000,-1.593500
1696.742655,259.548000,-3.723000
1705.944027,259.610000,-0.030000
1715.141005,259.672000,-0.167500
1724.333592,259.734000,2.544500
1733.521792,259.796000,-0.769000
1742.705607,259.858000,-2.713000
1751.885041,259.920000,-5.043500
1761.060096,259.982000,-5.185000
1770.230777,260.044000,-1.179000
1779.397086,260.106000,1.971500
1788.559026,260.168000,-2.430500
1797.716600,260.230000,-2.688000
1806.869812,260.292000,-0.947500
1816.018664,260.354000,1.336500
1825.163160,260.416000,-2.466000
1834.155916,260.477000,-0.374000
1843.291778,260.539000,-0.055500
1852.423294,260.601000,-1.262000
1861.550466,260.663000,8.465000
1870.673297,260.725000,-1.181500
1879.644752,260.786000,-2.128000
1888.758980,260.848000,3.245500
1897.868877,260.910000,1.831500
1906.974445,260.972000,1.595500
1915.928928,261.033000,0.771500
1925.025918,261.095000,-0.566000
1934.118588,261.157000,-0.397000
1943.060391,261.218000,-1.888500
1952.144502,261.280000,-1.976000
1961.224302,261.342000,-1.101500
1970.153451,261.403000,-0.192000
1979.224710,261.465000,1.562500
1988.145460,261.526000,10.967500
1997.208190,261.588000,0.593500
2006.120554,261.649000,-3.630000
2015.174766,261.711000,-0.068000
2024.078756,261.772000,-0.105500
2033.124461,261.834000,0.961500
2042.020089,261.895000,0.080500
2051.057301,261.957000,-5.376500
2059.944578,262.018000,-0.640500
2068.973308,262.080000,-0.213000
2077.852245,262.141000,-2.697500
2086.872506,262.203000,-4.632500
2095.743116,262.264000,-2.490000
2104.609601,262.325000,1.026000
2113.617214,262.387000,-0.656000
2122.475388,262.448000,0.957000
2131.329447,262.509000,0.059500
2140.324438,262.571000,-2.176500
2149.170203,262.632000,-0.257000
2158.011861,262.693000,-0.227500
2166.994257,262.755000,1.479000
2175.827640,262.816000,-1.720000
2184.656923,262.877000,0.777000
2193.482109,262.938000,-4.636500
2202.303202,262.999000,-4.268500
2211.264711,263.061000,-0.342500
2220.077557,263.122000,2.004000
2228.886318,263.183000,0.783000
2237.690997,263.244000,2.692500
2246.491597,263.305000,-0.398000
2255.288119,263.366000,-9.765500
2264.080568,263.427000,-0.875000
2272.868945,263.488000,3.266000
2281.653255,263.549000,1.107500
2290.577403,263.611000,-0.527000
2299.353518,263.672000,-0.913500
2308.125573,263.733000,-1.845000
2316.893571,263.794000,-7.919500
2325.657515,263.855000,-10.448500
2334.273836,263.915000,-15.003000
2343.029746,263.976000,1.717500
2351.781611,264.037000,-2.171500
2360.529433,264.098000,-0.409000
2369.273215,264.159000,0.890500
2378.012959,264.220000,0.605000
2386.748669,264.281000,-1.864000
2395.480347,264.342000,-1.971500
2404.207997,264.403000,0.247500
2412.788642,264.463000,-8.452000
2421.508308,264.524000,-7.884000
2430.223953,264.585000,-1.521500
2438.935580,264.646000,1.450500
2447.643192,264.707000,-1.502500
2456.204142,264.767000,-5.959000
2464.903798,264.828000,1.322500
2473.599447,264.889000,-0.890500
2482.148639,264.949000,0.219000
2490.836348,265.010000,5.586500
2499.520059,265.071000,-0.408000
2508.057516,265.131000,-0.751000
2516.733303,265.192000,-3.829500
2525.405101,265.253000,-7.162000
2533.930847,265.313000,1.830000
2542.594737,265.374000,1.813500
2551.112712,265.434000,1.557000
2559.768705,265.495000,3.829500
2568.278918,265.555000,0.241500
2576.927027,265.616000,-0.151500
2585.571164,265.677000,-0.369500
2594.069722,265.737000,-1.855500
2602.564444,265.797000,-0.012500
2611.196813,265.858000,-0.632000
2619.683805,265.918000,-0.830500
2628.308321,265.979000,0.171500
2636.787594,266.039000,1.656000
2645.404268,266.100000,1.116500
2653.875831,266.160000,1.424500
2662.343577,266.220000,0.503000
2670.948539,266.281000,2.831000
2679.408591,266.341000,-0.128000
2687.864833,266.401000,-0.725000
2696.458108,266.462000,10.325000
2704.906672,266.522000,-0.378000
2713.351433,266.582000,-6.855000
2721.792393,266.642000,-2.607000
2730.370143,266.703000,-4.296500
2738.803447,266.763000,-3.847000
2747.232958,266.823000,0.711500
2755.658679,266.883000,-0.079500
2764.220946,266.944000,0.053500
2772.639032,267.004000,-0.962000
2781.053334,267.064000,0.560500
2789.463857,267.124000,-0.909000
2797.870602,267.184000,-1.406500
2806.273573,267.244000,-1.559500
2814.672771,267.304000,0.078000
2823.068200,267.364000,-1.505500
2831.459861,267.424000,-0.030000
2839.847757,267.484000,0.476000
2848.231891,267.544000,0.057000
2856.612266,267.604000,-0.050000
2864.988884,267.664000,2.689000
2873.361747,267.724000,1.994500
2881.730857,267.784000,3.139500
2890.096219,267.844000,0.406500
2898.457833,267.904000,0.858500
2906.815703,267.964000,-1.130500
2915.169831,268.024000,-0.277000
2923.520219,268.084000,-0.916500
2931.866870,268.144000,3.380500
2940.209787,268.204000,-1.679000
2948.410016,268.263000,-0.760000
2956.745534,268.323000,1.358000
2965.077324,268.383000,-0.960500
2973.405390,268.443000,-1.122500
2981.729735,268.503000,-1.926500
2989.911713,268.562000,4.381000
2998.228682,268.622000,-0.148500
3006.541937,268.682000,1.870500
3014.851480,268.742000,-0.823500
3023.018913,268.801000,0.428000
3031.321101,268.861000,-1.852500
3039.619584,268.921000,-1.595000
3047.776149,268.980000,-0.447000
3056.067292,269.040000,-0.626500
3064.216644,269.099000,-3.370000
3072.500457,269.159000,0.899000
3080.780577,269.219000,-2.539000
3088.919097,269.278000,-6.088000
3097.191901,269.338000,0.569500
3105.323232,269.397000,-3.914500
3113.588730,269.457000,-3.572500
3121.712881,269.516000,-0.764000
3129.971082,269.576000,1.156500
3138.088063,269.635000,0.450000
3146.338978,269.695000,-0.544000
3154.448798,269.754000,-0.282000
3162.692435,269.814000,-1.545500
3170.795104,269.873000,-1.079500
3178.894231,269.932000,-14.181500
3187.127001,269.992000,-19.551500
3195.218991,270.051000,-2.624500
3203.307445,270.110000,-1.223000
3211.529370,270.170000,-0.697500
3219.610701,270.229000,0.814500
3227.688505,270.288000,-3.831500
3235.899605,270.348000,-1.958500
3243.970299,270.407000,-3.574000
3252.037473,270.466000,1.358000
3260.101128,270.525000,0.947000
3268.297848,270.585000,-0.611000
3276.354413,270.644000,-0.858500
3284.407466,270.703000,0.456500
3292.457009,270.762000,-1.085500
3300.503044,270.821000,1.733000
3308.545575,270.880000,-1.152000
3316.720828,270.940000,-3.599500
3324.756296,270.999000,-1.074500
3332.788267,271.058000,0.233500
3340.816741,271.117000,1.774500
3348.841722,271.176000,0.441500
3356.863212,271.235000,-0.572500
3364.881213,271.294000,-1.365000
3372.895727,271.353000,0.369500
3380.906756,271.412000,2.713000
3388.914304,271.471000,-0.699000
3396.918371,271.530000,2.279500
3404.918961,271.589000,-0.091500
3412.916076,271.648000,1.392500
3420.909718,271.707000,-0.357500
3428.899888,271.766000,-2.752000
3436.886591,271.825000,-17.160500
3444.734546,271.883000,-0.217000
3452.714377,271.942000,0.785000
3460.690746,272.001000,-1.572500
3468.663655,272.060000,-0.892500
3476.633107,272.119000,-0.184500
3484.599104,272.178000,-0.025000
3492.426718,272.236000,0.809000
3500.385870,272.295000,-1.607000
3508.341573,272.354000,-3.246500
3516.293830,272.413000,-1.889500
3524.107947,272.471000,9.461500
3532.053377,272.530000,1.039500
3539.995368,272.589000,1.255500
3547.799398,272.647000,-0.962500
3555.734574,272.706000,0.996000
3563.666318,272.765000,0.007000
3571.460282,272.823000,6.825500
3579.385225,272.882000,4.440000
3587.306741,272.941000,-1.974000
3595.090658,272.999000,-1.837000
3603.005387,273.058000,-17.146000
3610.782635,273.116000,-3.422000
3618.690585,273.175000,-1.159000
3626.461173,273.233000,1.059000
3634.362353,273.292000,-0.250000
3642.126290,273.350000,0.359500
3650.020708,273.409000,0.265000
3657.778002,273.467000,1.101500
3665.665667,273.526000,0.302000
3673.416327,273.584000,0.731000
3681.163701,273.642000,-1.920500
3689.041282,273.701000,-2.067500
3696.782035,273.759000,0.032500
3704.652885,273.818000,2.897500
3712.387025,273.876000,0.747000
3720.117889,273.934000,1.316500
3727.845481,273.992000,1.056000
3735.702951,274.051000,0.773000
3743.423947,274.109000,0.737000
3751.141676,274.167000,-0.796500
3758.989119,274.226000,0.214000
3766.700265,274.284000,-1.329000
3774.408150,274.342000,6.743500
3782.112776,274.400000,7.230000
3789.814146,274.458000,15.115500
3797.644960,274.517000,0.371500
3805.339767,274.575000,-1.666000
3813.031324,274.633000,-3.801500
3820.719634,274.691000,-5.299500
3828.404697,274.749000,-4.070000
3836.086516,274.807000,0.791500
3843.765093,274.865000,-0.808500
3851.440431,274.923000,-1.659500
3859.112530,274.981000,0.026500
3866.781394,275.039000,-0.358000
3874.447024,275.097000,1.231500
3882.109423,275.155000,1.082500
3889.768591,275.213000,-0.605500
3897.424533,275.271000,-1.290000
3905.077248,275.329000,-2.697500
3912.726740,275.387000,1.071000
3920.373011,275.445000,1.001500
3928.016062,275.503000,1.639500
3935.655896,275.561000,0.932000
3943.292514,275.619000,-1.480500
3950.925919,275.677000,1.090000
3958.424585,275.734000,1.409000
3966.051625,275.792000,-0.143500
3973.675457,275.850000,0.798500
3981.296084,275.908000,0.110000
3988.913508,275.966000,-1.790000
3996.396478,276.023000,-0.004500
4004.007557,276.081000,0.596500
4011.615438,276.139000,-0.172000
4019.220124,276.197000,1.729500
4026.690584,276.254000,-0.364500
4034.288940,276.312000,0.334500
4041.884108,276.370000,0.145500
4049.345219,276.427000,-1.218000
4056.934068,276.485000,0.135000
4064.519735,276.543000,-0.457000
4071.971515,276.600000,2.947500
4079.550876,276.658000,-0.543000
4086.996462,276.715000,-1.863500
4094.569525,276.773000,-8.265500
4102.008927,276.830000,-4.556500
4109.575700,276.888000,0.829000
4117.008923,276.945000,-0.232500
4124.569414,277.003000,-7.480000
4131.996467,277.060000,0.848000
4139.550684,277.118000,0.837000
4146.971575,277.175000,-1.245500
4154.519525,277.233000,-2.845000
4161.934262,277.290000,-2.163000
4169.475953,277.348000,-1.362000
4228.011654,277.799000,-0.724500
4235.396210,277.856000,0.243500
4242.907211,277.914000,-0.458500
4250.415077,277.972000,0.045500
4257.790445,278.029000,-0.254000
4265.292102,278.087000,-11.308500
4272.790631,278.145000,-2.299000
4280.156828,278.202000,3.437500
4287.649159,278.260000,11.109000
4295.138368,278.318000,-0.779500
4302.495411,278.375000,0.690000
4309.978434,278.433000,0.947500
4317.329402,278.490000,-2.324000
4324.806246,278.548000,0.819000
4332.151147,278.605000,-0.302000
4339.621821,278.663000,3.777000
4346.960661,278.720000,-1.210500
4354.425172,278.778000,0.121500
4361.757959,278.835000,-0.229000
4369.216314,278.893000,1.001500
4376.543056,278.950000,1.336500
4383.995264,279.008000,-0.092000
4391.315968,279.065000,-10.440000
4398.762036,279.123000,-6.803500
4406.076709,279.180000,-8.430500
4413.516644,279.238000,-13.451500
4420.825295,279.295000,-11.434500
4428.130962,279.352000,1.305500
4435.561740,279.410000,0.023000
4442.861395,279.467000,-1.687500
4450.158074,279.524000,-2.849500
4457.579711,279.582000,-0.887500
4464.870389,279.639000,0.381000
4472.158095,279.696000,-1.079500
4479.570607,279.754000,0.805500
4486.852324,279.811000,2.497500
4494.131074,279.868000,-0.209500
4501.534479,279.926000,0.619000
4508.807251,279.983000,3.787000
4516.077062,280.040000,7.885500
4523.343914,280.097000,1.848500
4530.735220,280.155000,-0.186000
4537.996108,280.212000,-0.690000
4545.254043,280.269000,-0.441500
4552.509026,280.326000,-0.230500
4559.888262,280.384000,0.468500
4567.137295,280.441000,6.659000
4574.383383,280.498000,5.038500
4581.626526,280.555000,6.202500
4588.866727,280.612000,0.915000
4596.103987,280.669000,-1.007000
4603.338308,280.726000,-1.225500
4610.696532,280.784000,-0.174500
4617.924929,280.841000,-0.030000
4625.150392,280.898000,-0.135000
4632.372923,280.955000,-0.527000
4639.592525,281.012000,3.293000
4646.809198,281.069000,-1.242500
4654.022945,281.126000,-0.127000
4661.233767,281.183000,-3.120000
4668.441666,281.240000,-22.105500
4675.646644,281.297000,-7.011000
4682.848703,281.354000,-1.318500
4690.047844,281.411000,1.520000
4697.244070,281.468000,3.102500
4704.437381,281.525000,4.282500
4711.627780,281.582000,6.962500
4718.815269,281.639000,10.785500
4725.999849,281.696000,0.770000
4733.181522,281.753000,-1.389500
4740.360290,281.810000,-7.059000
4747.536154,281.867000,-7.283500
4754.583300,281.923000,-4.256000
4761.753414,281.980000,-2.932500
4768.920629,282.037000,-8.157000
4776.084949,282.094000,-7.476000
4783.246373,282.151000,-2.337000
4790.404904,282.208000,-1.534000
4797.435032,282.264000,-2.578500
4804.587834,282.321000,-5.187500
4811.737748,282.378000,-10.021500
4818.884776,282.435000,-6.281000
4826.028920,282.492000,-6.772000
4833.044920,282.548000,-6.199500
4840.183352,282.605000,-4.528500
4847.318904,282.662000,-3.474500
4854.451579,282.719000,-0.221500
4861.456319,282.775000,-0.739500
4868.583295,282.832000,-1.790000
4875.707399,282.889000,-3.745500
4882.703723,282.945000,-0.069500
4889.822139,283.002000,1.629500
4896.937687,283.059000,2.437500
4903.925611,283.115000,-1.001000
4911.035481,283.172000,0.095500
4918.142490,283.229000,0.224500
4925.122029,283.285000,0.865000
4932.223369,283.342000,-0.930000
4939.197342,283.398000,1.052500
4946.293021,283.455000,1.075500
4953.385847,283.512000,-1.525500
4960.351460,283.568000,1.025500
4967.438635,283.625000,-2.154500
4974.398699,283.681000,-7.311500
4981.480229,283.738000,-0.990000
4988.434752,283.794000,-0.841500
4995.510644,283.851000,0.400500
5002.459631,283.907000,15.305000
5009.529893,283.964000,7.510500
5016.473351,284.020000,-0.813000
5023.537988,284.077000,-0.838000
5030.475924,284.133000,-3.217000
5037.534943,284.190000,-9.937000
5044.467363,284.246000,-3.995000
5051.397052,284.302000,0.047000
5058.447683,284.359000,12.784500
5065.371866,284.415000,0.654500
5072.416896,284.472000,1.591500
5079.335580,284.528000,0.579000
5086.251541,284.584000,-0.697000
5093.288207,284.641000,-1.975000
5100.198678,284.697000,-0.653000
5107.106432,284.753000,1.264500
5114.134748,284.810000,1.601500
5121.037022,284.866000,1.708000
5127.936582,284.922000,1.866500
5134.833431,284.978000,-0.410500
5141.850655,285.035000,1.859500
5148.742037,285.091000,3.031000
5155.630712,285.147000,0.119000
5162.516682,285.203000,-0.997000
5169.522840,285.260000,0.524000
5176.403356,285.316000,-0.268000
5183.281172,285.372000,1.136500
5190.156289,285.428000,0.601500
5197.028709,285.484000,-1.112500
5204.021082,285.541000,0.575000
5210.888064,285.597000,-1.133500
5217.752353,285.653000,0.681500
5224.613952,285.709000,1.529000
5231.472862,285.765000,0.606500
5238.329083,285.821000,-8.276000
5245.182619,285.877000,-16.508000
5252.033470,285.933000,2.450000
5258.881638,285.989000,0.818500
5265.727125,286.045000,1.136500
5272.569932,286.101000,1.844500
5279.532182,286.158000,1.643500
5286.369586,286.214000,-0.225000
5293.204315,286.270000,1.799500
5300.036371,286.326000,2.206500
5306.865755,286.382000,7.160500
5313.692468,286.438000,1.159000
5320.516513,286.494000,0.968500
5327.216104,286.549000,1.634000
5334.034863,286.605000,3.554500
5340.850958,286.661000,0.111000
5347.664391,286.717000,0.319500
5354.475163,286.773000,0.960500
5361.283275,286.829000,0.933500
5368.088729,286.885000,2.666500
5374.891528,286.941000,0.909000
5381.691671,286.997000,-0.054000
5388.489161,287.053000,3.456000
5395.162686,287.108000,2.265500
5401.954922,287.164000,5.395000
5408.744509,287.220000,4.214500
5415.531448,287.276000,1.933500
5422.315743,287.332000,4.540500
5428.976316,287.387000,1.118000
5435.755371,287.443000,1.424000
5442.531785,287.499000,5.228000
5449.305560,287.555000,0.621000
5456.076697,287.611000,1.483000
5462.724355,287.666000,0.783000
5469.490268,287.722000,1.332500
5476.253548,287.778000,0.879500
5482.893494,287.833000,2.514000
5489.651559,287.889000,0.611000
5496.406995,287.945000,2.480000
5503.039242,288.000000,0.220000
5509.789473,288.056000,2.029500
5516.537079,288.112000,2.129500
5523.161640,288.167000,0.976500
5529.904050,288.223000,0.586500
5536.643840,288.279000,3.386000
5543.260729,288.334000,29.599500
5549.995332,288.390000,23.595000
5556.607128,288.445000,0.985500
5563.336549,288.501000,2.573000
5569.943259,288.556000,3.652000
5576.667504,288.612000,-1.746500
5583.269134,288.667000,1.749000
5589.988209,288.723000,3.835000
5596.584764,288.778000,1.416500
5603.298676,288.834000,-6.833500
5609.890162,288.889000,11.196500
5616.598916,288.945000,7.213500
5623.185340,289.000000,3.025000
5629.888941,289.056000,1.540500
5636.470308,289.111000,1.886000
5643.168763,289.167000,3.687500
5649.745079,289.222000,5.245500
5656.438394,289.278000,-7.317000
5663.009664,289.333000,2.189000
5669.578437,289.388000,2.031000
5676.264076,289.444000,2.081000
5682.827812,289.499000,1.975500
5689.389054,289.554000,3.038500
5696.067030,289.610000,3.324000
5702.623244,289.665000,3.473500
5709.176969,289.720000,1.078000
5715.847296,289.776000,2.932000
5722.396001,289.831000,2.095000
5728.942221,289.886000,6.068000
5735.485958,289.941000,5.417000
5742.146122,289.997000,9.511000
5748.684850,290.052000,7.105500
5755.221100,290.107000,5.057000
5761.754871,290.162000,3.043000
5768.404894,290.218000,2.696000
5774.933669,290.273000,0.990000
5781.459971,290.328000,4.064000
5787.983800,290.383000,1.050500
5794.505158,290.438000,1.129500
5801.142550,290.494000,-0.172000
5807.658926,290.549000,0.736000
5814.172835,290.604000,2.280000
5820.684279,290.659000,3.011500
5827.193260,290.714000,0.976500
5833.699778,290.769000,1.006500
5840.203835,290.824000,2.882000
5846.705432,290.879000,-2.530500
5853.204572,290.934000,-3.713000
5859.701254,290.989000,0.787000
5866.195481,291.044000,5.270000
5872.687254,291.099000,1.349000
5879.176574,291.154000,0.198000
5885.663444,291.209000,1.930000
5892.147863,291.264000,5.258500
5898.629834,291.319000,1.430000
5905.109357,291.374000,1.288000
5911.586435,291.429000,0.298000
5918.061069,291.484000,2.281500
5924.533260,291.539000,3.737000
5931.003009,291.594000,3.240000
5937.470318,291.649000,1.307000
5943.935188,291.704000,-2.081000
5950.397621,291.759000,2.626500
5956.857618,291.814000,5.825500
5963.315180,291.869000,10.082000
5969.770309,291.924000,3.297000
5976.105706,291.978000,1.849500
5982.556017,292.033000,2.024500
5989.003898,292.088000,-4.993500
5995.449352,292.143000,-1.057500
6001.892379,292.198000,2.039500
6008.215901,292.252000,6.424500
6014.654123,292.307000,2.067500
6021.089923,292.362000,4.024500
6027.523303,292.417000,4.061000
6033.954262,292.472000,3.505000
6040.265942,292.526000,5.185000
6046.692111,292.581000,-0.089500
6053.115864,292.636000,1.440500
6059.420472,292.690000,1.653000
6065.839442,292.745000,1.361500
6072.256000,292.800000,3.185500
6078.553548,292.854000,2.133000
6084.965331,292.909000,2.650500
6091.374707,292.964000,0.592000
6097.665207,293.018000,1.658000
6104.069816,293.073000,1.830500
6110.472021,293.128000,1.946000
6116.755485,293.182000,2.681500
6123.152931,293.237000,2.400000
6129.431725,293.291000,2.045000
6135.824417,293.346000,2.075500
6142.098547,293.400000,1.638000
6148.486490,293.455000,1.122000
6154.872040,293.510000,4.487500
6161.139160,293.564000,2.223000
6167.519969,293.619000,1.312000
6173.782438,293.673000,4.503000
6180.158512,293.728000,0.890500
6186.416334,293.782000,1.465500
6192.787678,293.837000,0.686500
6199.040859,293.891000,-1.165500
6205.291742,293.945000,0.146500
6211.656022,294.000000,-1.240000
6217.902272,294.054000,1.898000
6224.261835,294.109000,2.410500
6230.503456,294.163000,-0.628000
6236.742786,294.217000,0.914500
6243.095305,294.272000,0.850500
6249.330014,294.326000,6.785500
6255.677829,294.381000,3.379500
6261.907923,294.435000,0.789500
6268.135731,294.489000,4.018000
6274.476522,294.544000,5.957500
6280.699722,294.598000,1.815500
6286.920642,294.652000,0.814000
6293.139281,294.706000,0.758500
6299.470739,294.761000,1.626000
6305.684781,294.815000,0.960000
6311.896546,294.869000,2.863000
6318.106037,294.923000,2.214500
6324.428182,294.978000,0.789000
6330.633085,295.032000,2.845000
6336.835717,295.086000,2.782000
6343.036080,295.140000,-0.162000
6349.234174,295.194000,0.616500
6355.544717,295.249000,1.670500
6361.738236,295.303000,0.625000
6367.929490,295.357000,2.392000
6374.118480,295.411000,1.203000
6380.305209,295.465000,2.823000
6386.489676,295.519000,2.729000
6392.671884,295.573000,1.122500
6398.851833,295.627000,1.855000
6405.143905,295.682000,8.051000
6411.319300,295.736000,7.074000
6417.492439,295.790000,2.662000
6423.663325,295.844000,2.348000
6429.831958,295.898000,3.399000
6435.998340,295.952000,-3.173500
6442.162473,296.006000,-0.204000
6448.324357,296.060000,2.771500
6454.483993,296.114000,22.020000
6460.641384,296.168000,6.774000
6466.796529,296.222000,2.816000
6472.949431,296.276000,4.677500
6479.100090,296.330000,1.363500
6485.248508,296.384000,10.221500
6491.280888,296.437000,1.604000
6497.424869,296.491000,1.444500
6503.566612,296.545000,2.912000
6509.706118,296.599000,5.427500
6515.843390,296.653000,0.508500
6521.978427,296.707000,0.954500
6528.111232,296.761000,1.741500
6534.241805,296.815000,1.709500
6540.256681,296.868000,5.411000
6546.382836,296.922000,1.958500
6552.506763,296.976000,0.769500
6558.628464,297.030000,1.314500
6564.747939,297.084000,0.841500
6570.751928,297.137000,1.197000
6576.866997,297.191000,-0.750000
6582.979845,297.245000,-12.088500
6589.090471,297.299000,-8.102000
6595.085780,297.352000,-2.090000
6601.192010,297.406000,0.856500
6607.296023,297.460000,4.051500
6613.397821,297.514000,0.658500
6619.384468,297.567000,3.971500
6625.481879,297.621000,5.548000
6631.577077,297.675000,5.212000
6637.557251,297.728000,2.980000
6643.648069,297.782000,0.564000
6649.623947,297.835000,-5.210000
6655.710390,297.889000,0.592500
6661.794627,297.943000,2.975500
6667.764048,297.996000,1.588000
6673.843917,298.050000,2.485000
6679.809053,298.103000,3.430000
6685.884559,298.157000,3.589000
6691.957864,298.211000,1.562500
6697.916562,298.264000,1.561500
6703.985510,298.318000,2.680500
6709.939935,298.371000,1.787000
6716.004532,298.425000,1.920500
6721.954688,298.478000,1.206000
6728.014938,298.532000,-0.618000
6733.960830,298.585000,3.481500
6739.904611,298.638000,1.283000
6745.958369,298.692000,3.698000
6751.897893,298.745000,2.714000
6757.947317,298.799000,-2.861000
6763.882588,298.852000,-8.229000
6769.927680,298.906000,-17.287000
6775.858703,298.959000,0.205000
6781.787624,299.012000,2.212500
6787.826249,299.066000,1.002500
6793.750928,299.119000,3.039000
6799.673508,299.172000,3.227500
6805.705677,299.226000,2.808500
6811.624022,299.279000,-0.440500
6817.540272,299.332000,-0.073000
6823.565994,299.386000,4.314500
6829.478016,299.439000,1.615500
6835.387945,299.492000,0.575500
6841.407231,299.546000,-2.726000
6847.312940,299.599000,4.476500
6853.216559,299.652000,3.366000
6859.118090,299.705000,7.780000
6865.017534,299.758000,2.246000
6871.026143,299.812000,3.893500
6876.921378,299.865000,2.632000
6882.814529,299.918000,1.911500
6888.705597,299.971000,4.145000
6894.594584,300.024000,6.349500
6900.592545,300.078000,0.932000
6906.477333,300.131000,2.068000
6912.360044,300.184000,2.880000
6918.240677,300.237000,1.873500
6924.119235,300.290000,1.633500
6929.995718,300.343000,1.040000
6935.870127,300.396000,3.115000
6941.742464,300.449000,2.748500
6947.612730,300.502000,4.901500
6953.480925,300.555000,7.156500
6959.347051,300.608000,4.171000
6965.211108,300.661000,4.383000
6971.073099,300.714000,1.989000
6976.933024,300.767000,1.185000
6982.790884,300.820000,2.383000
6988.646680,300.873000,2.341000
6994.500413,300.926000,1.383500
7000.352085,300.979000,3.769500
7006.201696,301.032000,2.626000
7012.049248,301.085000,0.039500
7017.894742,301.138000,3.538500
7023.738178,301.191000,8.205500
7029.579559,301.244000,5.247000
7035.418884,301.297000,2.042500
7041.256155,301.350000,2.964500
7047.091373,301.403000,1.229500
7052.924539,301.456000,5.245500
7058.645653,301.508000,2.152500
7064.474758,301.561000,5.074000
7070.301814,301.614000,6.341000
7076.126822,301.667000,8.894500
7081.949784,301.720000,6.990000
7087.660892,301.772000,6.302500
7093.479803,301.825000,5.390500
7099.296670,301.878000,-1.649500
7105.111496,301.931000,1.623500
7110.814624,301.983000,2.090500
7116.625408,302.036000,3.521500
7122.434152,302.089000,-0.037000
7128.240858,302.142000,1.497000
7133.936024,302.194000,11.295500
7139.738696,302.247000,9.847500
7145.539334,302.300000,3.412000
7151.228549,302.352000,1.971000
7157.025159,302.405000,2.714500
7162.819737,302.458000,1.473000
7168.503010,302.510000,3.411000
7174.293567,302.563000,3.294000
7180.082095,302.616000,1.985000
7185.759436,302.668000,5.069500
7191.543949,302.721000,3.130500
7197.217352,302.773000,1.664500
7202.997854,302.826000,0.957500
7208.667324,302.878000,2.773500
7214.443819,302.931000,2.261000
7220.109360,302.983000,2.423000
7225.881853,303.036000,2.261500
7231.543468,303.088000,2.512500
7237.311962,303.141000,14.460500
7242.969657,303.193000,3.933000
7248.734156,303.246000,0.478500
7254.387934,303.298000,1.569000
7260.148443,303.351000,2.563500
7265.798308,303.403000,2.630500
7271.554831,303.456000,4.840500
7277.200787,303.508000,2.160500
7282.953328,303.561000,4.177500
7288.595379,303.613000,2.652500
7294.235498,303.665000,3.651000
7299.982093,303.718000,5.530500
7305.618313,303.770000,0.558500
7311.252604,303.822000,2.619000
7316.993262,303.875000,4.596500
7322.623660,303.927000,2.884500
7328.252131,303.979000,1.812500
7333.986862,304.032000,2.007500
7339.611446,304.084000,2.896500
7345.234108,304.136000,3.517500
7350.962920,304.189000,0.215000
7356.581700,304.241000,4.396000
7362.198561,304.293000,5.067000
7367.813502,304.345000,-0.462000
7373.426525,304.397000,0.879000
7379.145517,304.450000,1.406500
7384.754669,304.502000,1.763000
7390.361906,304.554000,0.061500
7395.967228,304.606000,1.304000
7401.570637,304.658000,3.515000
7407.279836,304.711000,2.394000
7412.879384,304.763000,-1.968000
7418.477021,304.815000,0.287000
7424.072749,304.867000,2.988500
7429.666569,304.919000,10.251500
7435.258480,304.971000,4.697500
7440.848486,305.023000,-0.265500
7446.436585,305.075000,-0.407500
7452.022780,305.127000,1.457500
7457.607071,305.179000,-1.258000
7463.296795,305.232000,2.438500
7468.877245,305.284000,2.689000
7474.455794,305.336000,1.645000
7480.032444,305.388000,4.832500
7485.607195,305.440000,2.323000
7491.180048,305.492000,3.095000
7496.751004,305.544000,-2.972500
7502.212985,305.595000,3.476000
7507.780187,305.647000,2.386500
7513.345495,305.699000,2.142000
7518.908909,305.751000,0.707000
7524.470432,305.803000,1.270500
7530.030064,305.855000,-0.190000
7535.587805,305.907000,3.320500
7541.143658,305.959000,2.046000
7546.697622,306.011000,3.591000
7552.249699,306.063000,0.873500
7557.693173,306.114000,4.539500
7563.241514,306.166000,4.546500
7568.787971,306.218000,0.876500
7574.332545,306.270000,3.037500
7579.875237,306.322000,10.031500
7585.416047,306.374000,3.063500
7590.848476,306.425000,3.263000
7596.385562,306.477000,4.577000
7601.920769,306.529000,3.705000
7607.454098,306.581000,3.892500
7612.879195,306.632000,4.744500
7618.408808,306.684000,0.997000
7623.936546,306.736000,4.991000
7629.462411,306.788000,2.980500
7634.880189,306.839000,7.665000
7640.402345,306.891000,3.604500
7645.922629,306.943000,5.866500
7651.334938,306.994000,2.462500
7656.851519,307.046000,2.410000
7662.260197,307.097000,4.611500
7667.773079,307.149000,0.223000
7673.284094,307.201000,-2.358000
7678.687317,307.252000,-0.730000
7684.194638,307.304000,4.772000
7689.700096,307.356000,3.109000
7695.097870,307.407000,-2.216000
7700.599639,307.459000,5.199000
7705.993798,307.510000,1.410000
7711.491883,307.562000,1.068500
7716.882430,307.613000,0.038500
7722.376833,307.665000,43.602500
7727.763772,307.716000,46.342000
7733.254498,307.768000,48.558000
7738.637831,307.819000,6.292500
7744.124884,307.871000,5.145500
7749.504617,307.922000,3.760500
7754.988000,307.974000,4.562000
7760.364134,308.025000,4.614500
7765.738489,308.076000,2.541500
7771.216392,308.128000,-0.435000
7776.587155,308.179000,-3.260000
7782.061397,308.231000,0.695000
7787.428571,308.282000,0.669500
7792.793970,308.333000,0.247000
7798.262745,308.385000,1.166000
7803.624561,308.436000,1.635000
7808.984603,308.487000,2.276500
7814.447920,308.539000,14.042500
7819.804385,308.590000,-0.121500
7825.159080,308.641000,1.288000
7830.616947,308.693000,4.093000
7835.968069,308.744000,2.753000
7841.317424,308.795000,1.892000
7846.665012,308.846000,3.008000
7852.115636,308.898000,3.025000
7857.459659,308.949000,2.473000
7862.801917,309.000000,3.953000
7868.142413,309.051000,3.380000
7873.481146,309.102000,1.673000
7878.922746,309.154000,4.114500
7884.257923,309.205000,2.287000
7889.591340,309.256000,2.943000
7894.922998,309.307000,4.854000
7900.252898,309.358000,1.916000
7905.581041,309.409000,15.309000
7910.907428,309.460000,7.573000
7916.336447,309.512000,3.734500
7921.659290,309.563000,3.987000
7926.980379,309.614000,2.656500
7932.299715,309.665000,0.704500
7937.617300,309.716000,1.403500
7942.933134,309.767000,3.463000
7948.247217,309.818000,-1.249500
7953.559551,309.869000,4.276000
7958.870137,309.920000,4.258500
7964.178976,309.971000,3.686500
7969.486068,310.022000,3.130000
7974.791414,310.073000,2.194500
7980.095015,310.124000,1.136000
7985.396872,310.175000,2.862000
7990.696985,310.226000,2.827000
7995.995357,310.277000,0.872000
8001.291987,310.328000,2.184500
8006.586876,310.379000,-10.956500
8011.880026,310.430000,3.393500
8017.067700,310.480000,6.578000
8022.357406,310.531000,3.901000
8027.645376,310.582000,2.783000
8032.931609,310.633000,4.242000
8038.216106,310.684000,2.440000
8043.498869,310.735000,5.730000
8048.779898,310.786000,3.101500
8053.955695,310.836000,1.816000
8059.233293,310.887000,2.498500
8064.509160,310.938000,-1.345500
8069.783296,310.989000,5.259000
8074.952339,311.039000,3.390000
8080.223051,311.090000,1.495500
8085.492035,311.141000,9.943000
8090.759292,311.192000,3.396000
8095.921594,311.242000,4.064500
8101.185433,311.293000,4.333500
8106.447548,311.344000,-0.750000
8111.604811,311.394000,1.323000
8116.863513,311.445000,3.093500
8122.120493,311.496000,6.906500
8127.272724,311.546000,3.841500
8132.526297,311.597000,4.010500
8137.778150,311.648000,0.210500
8142.925357,311.698000,-0.040000
8148.173807,311.749000,12.003000
8153.420541,311.800000,9.835000
8158.562731,311.850000,4.249500
8163.806066,311.901000,-14.635000
8168.944927,311.951000,5.361500
8174.184869,312.002000,1.926000
8179.320403,312.052000,2.758500
8184.556953,312.103000,5.512000
8189.689165,312.153000,1.564000
8194.922327,312.204000,6.356500
8200.051219,312.254000,8.255500
8205.280996,312.305000,3.981500
8210.406572,312.355000,15.663500
8215.632968,312.406000,3.886000
8220.755230,312.456000,4.178000
8225.978248,312.507000,4.654500
8231.097200,312.557000,3.042000
8236.316843,312.608000,2.889500
8241.432488,312.658000,2.740500
8246.546497,312.708000,2.710500
8251.761101,312.759000,35.544500
8256.871808,312.809000,26.786000
8261.980881,312.859000,57.484500
8267.190453,312.910000,37.648000
8272.296229,312.960000,26.907500
8277.400373,313.010000,13.681000
8282.604921,313.061000,10.878000
8287.705773,313.111000,4.543000
8292.804996,313.161000,3.693500
8298.004526,313.212000,1.852000
8303.100462,313.262000,2.650500
8308.194770,313.312000,1.459500
8313.287453,313.362000,2.390500
8318.480316,313.413000,4.007000
8323.569717,313.463000,4.631000
8328.657496,313.513000,3.275500
8333.743651,313.563000,3.799000
8338.828185,313.613000,1.552500
8344.012739,313.664000,4.602500
8349.094000,313.714000,6.337000
8354.173640,313.764000,4.024000
8359.251662,313.814000,-5.319500
8364.328066,313.864000,-0.559000
8369.402853,313.914000,8.881000
8374.476024,313.964000,5.088000
8379.547579,314.014000,5.602000
8384.718901,314.065000,1.799500
8389.787195,314.115000,2.892000
8394.853876,314.165000,2.378000
8399.918944,314.215000,-1.683500
8404.982400,314.265000,-0.602500
8410.044246,314.315000,2.170500
8415.104481,314.365000,3.146000
8420.163107,314.415000,2.551500
8425.220124,314.465000,3.088000
8430.275533,314.515000,5.390500
8435.329336,314.565000,0.825500
8440.381532,314.615000,2.870500
8445.432122,314.665000,5.558500
8450.481107,314.715000,4.518500
8455.528489,314.765000,4.726000
8460.473367,314.814000,4.932000
8465.517575,314.864000,4.159000
8470.560181,314.914000,2.504000
8475.601186,314.964000,4.180000
8480.640590,315.014000,4.020500
8485.678395,315.064000,1.855000
8490.714602,315.114000,-2.761000
8495.749210,315.164000,0.166000
8500.681577,315.213000,-0.500500
8505.713024,315.263000,0.131000
8510.742875,315.313000,0.463500
8515.771131,315.363000,1.920500
8520.797793,315.413000,1.971500
8525.722375,315.462000,-3.082500
8530.745883,315.512000,-0.894500
8535.767799,315.562000,4.247500
8540.788124,315.612000,4.887500
8545.706499,315.661000,0.726000
8550.723675,315.711000,-4.816500
8555.739262,315.761000,-10.267000
8560.652997,315.810000,-0.734000
8565.665441,315.860000,0.811000
8570.676298,315.910000,-0.298500
8575.585399,315.959000,4.982000
8580.593116,316.009000,7.439500
8585.599249,316.059000,5.679000
8590.503723,316.108000,6.342500
8595.506721,316.158000,3.684500
8600.508137,316.208000,3.946500
8605.407991,316.257000,6.447000
8610.406276,316.307000,13.253000
8615.303063,316.356000,9.119500
8620.298221,316.406000,4.045000
8625.191944,316.455000,9.325000
8630.183977,316.505000,4.004500
8635.074640,316.554000,9.911500
8640.063551,316.604000,4.535500
8644.951156,316.653000,3.689000
8649.936949,316.703000,3.159000
8654.821499,316.752000,4.941000
8659.804175,316.802000,7.395000
8664.685673,316.851000,6.213000
8669.665237,316.901000,8.312500
8674.543685,316.950000,8.602500
8679.520139,317.000000,1.199000
8684.395541,317.049000,8.362000
8689.269436,317.098000,4.764000
8694.241247,317.148000,8.417500
8699.112100,317.197000,-4.049000
8703.981448,317.246000,3.206000
8708.948621,317.296000,9.815500
8713.814931,317.345000,9.685500
8718.779005,317.395000,5.560000
8723.642281,317.444000,4.556000
8728.504055,317.493000,4.653000
8733.364329,317.542000,5.551500
8738.322247,317.592000,4.687500
8743.179491,317.641000,2.933000
8748.035237,317.690000,3.372500
8752.889486,317.739000,-4.454500
8757.841258,317.789000,0.926000
8762.692483,317.838000,5.504500
8767.542212,317.887000,6.609000
8772.390446,317.936000,8.175500
8777.336084,317.986000,5.816500
8782.181300,318.035000,5.255500
8787.025024,318.084000,8.663000
8791.867255,318.133000,7.994500
8796.707995,318.182000,11.061000
8801.547244,318.231000,5.808500
8806.385003,318.280000,4.767500
8811.319957,318.330000,8.036500
8816.154708,318.379000,6.268500
8820.987971,318.428000,4.936000
8825.819746,318.477000,5.020500
8830.650035,318.526000,2.435000
8835.478838,318.575000,3.673000
8840.306156,318.624000,5.620500
8845.131990,318.673000,6.537500
8849.956339,318.722000,4.625000
8854.779206,318.771000,3.517000
8859.600590,318.820000,6.579500
8864.420492,318.869000,5.995000
8869.238913,318.918000,3.546500
8874.055854,318.967000,5.416000
8878.871314,319.016000,5.157500
8883.685296,319.065000,2.622500
8888.497800,319.114000,4.416500
8893.308826,319.163000,3.624000
8898.118374,319.212000,1.416000
8902.926447,319.261000,5.958000
8907.634964,319.309000,6.256000
8912.440116,319.358000,5.274000
8917.243794,319.407000,5.604500
8922.045998,319.456000,5.858000
8926.846729,319.505000,5.152000
8931.645988,319.554000,-0.119000
8936.443775,319.603000,4.562500
8941.142222,319.651000,2.284000
8945.937098,319.700000,-1.416000
8950.730504,319.749000,8.332000
8955.522441,319.798000,8.277500
8960.215161,319.846000,8.273000
8965.004192,319.895000,6.713500
8969.791757,319.944000,6.237500
8974.577855,319.993000,9.984000
8979.264858,320.041000,8.234000
8984.048055,320.090000,7.238000
8988.829789,320.139000,6.109500
8993.512517,320.187000,5.453000
8998.291355,320.236000,4.156000
9003.068730,320.285000,8.019000
9007.747190,320.333000,5.302000
9012.521672,320.382000,3.118000
9017.294694,320.431000,5.710000
9021.968893,320.479000,6.369500
9026.739026,320.528000,5.658500
9031.410396,320.576000,7.266000
9036.177644,320.625000,6.488500
9040.943434,320.674000,5.500000
9045.610552,320.722000,6.126000
9050.373460,320.771000,6.545000
9055.037756,320.819000,4.600500
9059.797784,320.868000,6.004000
9064.459261,320.916000,5.085000
9069.216413,320.965000,4.270000
9073.875072,321.013000,5.281000
9078.629350,321.062000,3.734500
9083.285194,321.110000,2.547000
9088.036601,321.159000,3.823500
9092.689634,321.207000,6.315500
9097.438171,321.256000,5.926000
9102.088394,321.304000,6.923500
9106.737229,321.352000,5.091500
9111.481482,321.401000,5.716000
9116.127511,321.449000,7.017000
9120.868902,321.498000,5.182000
9125.512128,321.546000,4.263000
9130.153968,321.594000,6.962000
9134.891085,321.643000,6.354000
9139.530126,321.691000,6.705500
9144.167783,321.739000,5.242500
9148.900630,321.788000,5.548500
9153.535492,321.836000,7.676500
9158.168971,321.884000,7.361500
9162.801069,321.932000,8.051000
9167.528244,321.981000,9.840000
9172.157551,322.029000,15.905500
9176.785479,322.077000,6.406000
9181.412027,322.125000,6.156500
9186.133540,322.174000,5.875000
9190.757302,322.222000,6.882500
9195.379688,322.270000,6.216000
9200.000697,322.318000,4.086000
9204.620330,322.366000,6.251500
9209.334786,322.415000,4.425000
9213.951640,322.463000,5.761500
9218.567119,322.511000,4.264000
9223.181225,322.559000,6.821000
9227.793957,322.607000,5.403500
9232.405318,322.655000,6.686000
9237.015306,322.703000,6.468500
9241.623923,322.751000,5.609500
9246.231170,322.799000,5.355500
9250.932988,322.848000,7.361000
9255.537466,322.896000,8.066500
9260.140576,322.944000,8.230500
9264.742318,322.992000,7.269000
9269.342693,323.040000,13.845000
9273.941700,323.088000,15.300000
9278.539341,323.136000,8.976000
9283.135616,323.184000,0.168500
9287.730527,323.232000,7.158000
9292.324072,323.280000,3.999000
9296.916254,323.328000,6.680500
9301.411445,323.375000,1.114500
9306.000929,323.423000,4.912000
9310.589052,323.471000,7.818000
9315.175812,323.519000,8.250000
9319.761212,323.567000,5.332500
9324.345252,323.615000,11.864000
9328.927932,323.663000,5.780000
9333.509253,323.711000,5.732000
9338.089216,323.759000,7.593500
9342.572447,323.806000,7.277500
9347.149722,323.854000,5.508500
9351.725642,323.902000,8.886500
9356.300205,323.950000,11.756500
9360.873412,323.998000,6.547000
9365.350032,324.045000,5.926000
9369.920559,324.093000,7.832000
9374.489732,324.141000,7.104000
9379.057552,324.189000,5.929500
9383.528899,324.236000,9.272000
9388.094043,324.284000,6.079500
9392.657836,324.332000,7.162500
9397.125241,324.379000,8.013500
9401.686361,324.427000,6.410000
9406.246132,324.475000,5.119000
9410.804554,324.523000,7.738500
9415.266702,324.570000,8.947500
9419.822456,324.618000,12.777000
9424.281993,324.665000,7.219500
9428.835082,324.713000,8.868500
9433.386824,324.761000,5.425500
9437.842435,324.808000,6.527000
9442.391516,324.856000,8.156500
9446.844521,324.903000,5.137500
9451.390942,324.951000,7.408000
9455.936020,324.999000,6.350500
9460.385108,325.046000,11.301500
9464.927530,325.094000,26.402000
9469.374018,325.141000,10.426000
9473.913786,325.189000,6.753500
9478.357677,325.236000,5.100500
9482.894794,325.284000,5.081500
9487.336090,325.331000,8.050500
9491.870557,325.379000,6.464500
9496.309260,325.426000,7.235000
9500.746681,325.473000,2.679000
9505.277193,325.521000,5.262500
9509.712024,325.568000,13.273500
9514.239893,325.616000,6.284000
9518.672137,325.663000,2.925500
9523.103102,325.710000,3.011500
9527.627024,325.758000,5.613500
9532.055405,325.805000,5.359500
9536.576689,325.853000,5.760000
9541.002489,325.900000,8.267000
9545.427013,325.947000,5.923000
9549.850260,325.994000,4.592000
9554.366303,326.042000,8.652500
9558.786974,326.089000,7.613500
9563.206371,326.136000,8.645000
9567.718482,326.184000,8.263500
9572.135305,326.231000,4.587000
9576.550855,326.278000,6.771000
9580.965134,326.325000,9.116500
9585.472021,326.373000,9.678500
9589.883730,326.420000,7.343000
9594.294169,326.467000,7.148500
9598.703338,326.514000,4.859500
9603.111238,326.561000,3.898500
9607.611614,326.609000,8.485500
9612.016950,326.656000,9.921500
9616.421019,326.703000,5.983500
9620.823821,326.750000,4.556500
9625.225356,326.797000,7.933500
9629.625626,326.844000,6.382000
9634.024630,326.891000,7.030000
9638.422369,326.938000,9.009000
9642.818845,326.985000,7.963000
9647.214056,327.032000,8.276500
9651.701479,327.080000,7.392000
9656.094138,327.127000,6.321000
9660.485535,327.174000,5.523000
9664.875670,327.221000,6.547000
9669.264544,327.268000,7.829500
9673.652158,327.315000,6.787000
9678.038512,327.362000,7.164500
9682.423607,327.409000,6.440500
9686.807443,327.456000,7.631000
9691.190021,327.503000,8.640000
9695.478134,327.549000,7.292500
9699.858224,327.596000,7.189500
9704.237057,327.643000,9.651000
9708.614633,327.690000,7.158000
9712.990955,327.737000,8.621500
9717.366021,327.784000,8.471500
9721.739833,327.831000,8.953000
9726.112390,327.878000,6.820500
9730.483695,327.925000,6.212000
9734.760780,327.971000,7.759500
9739.129606,328.018000,6.851500
9743.497180,328.065000,5.185500
9747.863503,328.112000,7.915500
9752.228575,328.159000,7.365000
9756.499562,328.205000,8.372500
9760.862161,328.252000,8.392000
9765.223511,328.299000,6.728500
9769.583612,328.346000,5.764500
9773.849737,328.392000,0.801000
9778.207369,328.439000,3.697000
9782.563754,328.486000,5.903000
9786.918893,328.533000,8.312000
9791.180163,328.579000,8.258500
9795.532837,328.626000,5.502000
9799.884266,328.673000,8.262500
9804.141906,328.719000,11.699000
9808.490874,328.766000,11.140000
9812.838598,328.813000,8.141000
9817.092614,328.859000,13.954500
9821.437879,328.906000,11.361500
9825.689490,328.952000,7.966500
9830.032299,328.999000,8.205000
9834.373868,329.046000,7.387000
9838.621862,329.092000,8.361500
9842.960977,329.139000,8.816500
9847.206571,329.185000,7.481000
9851.543235,329.232000,8.275500
9855.786431,329.278000,7.274500
9860.120646,329.325000,4.920500
9864.361446,329.371000,7.887500
9868.693214,329.418000,7.968000
9872.931619,329.464000,7.074500
9877.260942,329.511000,5.422000
9881.496956,329.557000,4.014500
9885.823836,329.604000,5.502500
9890.057460,329.650000,6.680000
9894.289903,329.696000,8.818500
9898.613135,329.743000,6.960000
9902.843191,329.789000,7.428000
9907.163985,329.836000,6.680500
9911.391656,329.882000,7.774000
9915.618148,329.928000,6.977000
9919.935303,329.975000,6.947500
9924.159413,330.021000,8.019500
9928.382346,330.067000,8.887500
9932.695866,330.114000,8.065000
9936.916419,330.160000,4.704500
9941.135797,330.206000,-43.464500
9945.445687,330.253000,-1.088500
9949.662689,330.299000,6.687500
9953.878516,330.345000,8.236500
9958.093170,330.391000,8.945500
9962.398234,330.438000,9.442000
9966.610516,330.484000,8.385000
9970.821625,330.530000,14.826500
9975.031562,330.576000,36.718000
9979.240328,330.622000,49.443000
9983.539380,330.669000,55.720000
9987.745778,330.715000,20.044500
9991.951007,330.761000,10.924000
9996.155067,330.807000,10.158000
10000.357957,330.853000,8.508000
10004.559679,330.899000,9.114000
10008.760233,330.945000,8.698000
10013.050897,330.992000,7.316500
10017.249091,331.038000,8.362500
10021.446118,331.084000,7.370500
10025.641979,331.130000,10.829500
10029.836675,331.176000,27.879500
10034.030205,331.222000,12.458000
10038.222571,331.268000,13.315000
10042.413773,331.314000,9.749500
10046.603811,331.360000,8.699000
10050.792686,331.406000,15.025500
10054.980398,331.452000,8.933500
10059.166948,331.498000,8.197500
10063.352336,331.544000,10.112000
10067.536563,331.590000,9.127000
10071.719629,331.636000,8.189000
10075.901535,331.682000,7.954500
10080.082281,331.728000,6.113500
10084.261868,331.774000,8.123000
10088.440296,331.820000,7.788000
10092.526768,331.865000,5.257500
10096.702905,331.911000,1.448500
10100.877884,331.957000,5.587000
10105.051707,332.003000,5.200000
10109.224373,332.049000,6.682000
10113.395884,332.095000,7.416000
10117.475591,332.140000,8.444500
10121.644816,332.186000,8.610500
10125.812886,332.232000,7.992000
10129.979802,332.278000,8.687500
10134.145565,332.324000,7.843500
10138.219652,332.369000,8.220500
10142.383134,332.415000,10.348000
10146.545464,332.461000,8.899500
10150.706643,332.507000,9.417500
10154.776247,332.552000,9.335500
10158.935148,332.598000,7.714500
10163.092900,332.644000,24.038500
10167.159152,332.689000,14.892000
10171.314630,332.735000,13.427500
10175.468958,332.781000,9.248000
10179.531864,332.826000,9.207000
10183.683921,332.872000,8.729500
10187.834831,332.918000,11.320000
10191.894393,332.963000,10.252000
10196.043035,333.009000,10.342500
10200.190530,333.055000,10.073500
10204.246754,333.100000,11.532500
10208.391984,333.146000,9.785500
10212.445992,333.191000,8.967500
10216.588958,333.237000,8.853000
10220.640753,333.282000,8.941500
10224.781457,333.328000,8.531500
10228.831039,333.373000,11.514000
10232.969483,333.419000,8.986500
10237.016856,333.464000,9.529000
10241.153042,333.510000,10.218500
10245.198206,333.555000,7.990000
10249.332135,333.601000,10.404500
10253.375094,333.646000,9.644500
10257.506768,333.692000,6.843000
10261.547522,333.737000,10.237000
10265.587186,333.782000,9.918500
10269.715494,333.828000,8.656000
10273.752956,333.873000,15.193500
10277.879015,333.919000,8.997500
10281.914277,333.964000,8.031500
10285.948452,334.009000,10.493000
10290.071151,334.055000,8.311500
10294.103128,334.100000,7.981500
10298.134020,334.145000,8.077500
10302.253364,334.191000,9.274000
10306.282060,334.236000,7.334000
10310.309672,334.281000,9.802000
10314.425666,334.327000,9.157000
10318.451085,334.372000,9.568500
10322.475422,334.417000,7.300000
10326.498675,334.462000,8.619000
10330.610215,334.508000,8.970000
10334.631280,334.553000,9.464000
10338.651263,334.598000,10.167500
10342.670165,334.643000,7.905000
10346.687987,334.688000,10.028500
10350.704728,334.733000,8.618000
10354.809614,334.779000,9.703000
10358.824172,334.824000,6.162000
10362.837651,334.869000,7.258500
10366.850051,334.914000,7.320000
10370.861373,334.959000,9.032000
10374.871618,335.004000,10.254500
10378.880786,335.049000,12.236500
10382.888876,335.094000,13.071000
10386.984923,335.140000,8.812500
10390.990838,335.185000,6.947500
10394.995677,335.230000,8.937500
10398.999440,335.275000,7.587000
10403.002130,335.320000,14.720000
10407.003745,335.365000,9.555000
10411.004286,335.410000,8.718000
10415.003755,335.455000,11.634000
10419.002150,335.500000,9.575500
10422.999473,335.545000,9.225000
10426.995723,335.590000,9.446500
10430.990902,335.635000,11.549500
10434.985010,335.680000,8.064000
10438.889325,335.724000,9.177500
10442.881316,335.769000,7.954000
10446.872237,335.814000,7.112000
10450.862088,335.859000,9.619000
10454.850871,335.904000,5.275500
10458.838585,335.949000,-7.782000
10462.825230,335.994000,5.495500
10466.810808,336.039000,8.534000
10470.706786,336.083000,9.136500
10474.690253,336.128000,17.262000
10478.672654,336.173000,29.652000
10482.653989,336.218000,12.200000
10486.634259,336.263000,9.796500
10490.525048,336.307000,8.852000
10494.503211,336.352000,6.027000
10498.480310,336.397000,4.821000
10502.456345,336.442000,6.233000
10506.342995,336.486000,8.135500
10510.316927,336.531000,10.227500
10514.289797,336.576000,6.166500
10518.261604,336.621000,4.866500
10522.144122,336.665000,9.628000
10526.113830,336.710000,8.470500
10530.082477,336.755000,9.175500
10533.961906,336.799000,9.034500
10537.928455,336.844000,8.415500
10541.893946,336.889000,7.834500
10545.770289,336.933000,11.571000
10549.733685,336.978000,11.530000
10553.607982,337.022000,10.615000
10557.569284,337.067000,7.838000
10561.529529,337.112000,11.725000
10565.400747,337.156000,9.159000
10569.358902,337.201000,6.872000
10573.228076,337.245000,6.557000
10577.184142,337.290000,9.893500
10581.051275,337.334000,8.612000
10585.005254,337.379000,8.921000
10588.870347,337.423000,8.397000
10592.822240,337.468000,8.513000
10596.685295,337.512000,1.990000
10600.635105,337.557000,6.248500
10604.496123,337.601000,7.328000
10608.443850,337.646000,6.380000
10612.302834,337.690000,2.259000
10616.160811,337.734000,-24.703500
10620.105430,337.779000,1.598500
10623.961375,337.823000,1.895000
10627.903916,337.868000,5.448500
10631.757830,337.912000,-10.723500
10635.610740,337.956000,-16.812000
10639.550179,338.001000,5.567500
10643.401061,338.045000,3.276000
10647.250940,338.089000,2.503000
10651.187281,338.134000,3.644000
10655.035134,338.178000,2.939000
10658.881986,338.222000,3.625500
10662.815231,338.267000,3.064500
10666.660059,338.311000,1.454000
10670.503887,338.355000,0.038000
10674.346716,338.399000,0.500500
10678.275848,338.444000,1.289500
10682.116656,338.488000,1.463500
10685.956465,338.532000,0.180500
10689.795276,338.576000,1.702500
10693.633090,338.620000,-1.059000
10697.557096,338.665000,0.705500
10701.392893,338.709000,3.045000
10705.227693,338.753000,15.727000
10709.061498,338.797000,3.000000
10712.894307,338.841000,-0.483500
10716.726120,338.885000,2.094000
10720.556939,338.929000,0.008500
10724.386763,338.973000,5.804000
10728.302601,339.018000,2.671500
10732.130414,339.062000,0.154500
10735.957235,339.106000,4.163500
10739.783062,339.150000,0.225000
10743.607897,339.194000,22.222000
10747.431740,339.238000,14.704500
10751.254591,339.282000,2.940000
10755.076450,339.326000,2.028000
10758.897319,339.370000,-0.267500
10762.717197,339.414000,0.542500
10766.536084,339.458000,4.841500
10770.353982,339.502000,3.179000
10774.170890,339.546000,0.126000
10777.986809,339.590000,0.967500
10781.801740,339.634000,1.525000
10785.615682,339.678000,-0.989500
10789.341989,339.721000,0.356000
10793.153978,339.765000,2.443000
10796.964980,339.809000,-3.709500
10800.774995,339.853000,-0.102000
10804.584024,339.897000,1.153500
10808.392066,339.941000,4.268500
10812.199123,339.985000,1.412000
10816.005195,340.029000,3.622000
10819.723813,340.072000,-2.362000
10823.527938,340.116000,2.676500
10827.331078,340.160000,0.380000
10831.133235,340.204000,-2.129000
10834.848029,340.247000,-3.159500
10838.648242,340.291000,2.666000
10842.447472,340.335000,5.928000
10846.245720,340.379000,2.451500
10849.956695,340.422000,1.370500
10853.753002,340.466000,1.449500
10857.548328,340.510000,1.926000
10861.342673,340.554000,1.718000
10865.049836,340.597000,-3.135000
10868.842243,340.641000,0.750500
10872.633670,340.685000,0.962500
10876.337983,340.728000,2.023000
10880.127474,340.772000,0.372500
10883.829896,340.815000,-1.270000
10887.617453,340.859000,3.862500
10891.404033,340.903000,0.709500
10895.103609,340.946000,1.082500
10898.888257,340.990000,-1.107000
10902.585946,341.033000,1.386000
10906.368663,341.077000,1.404000
10910.150404,341.121000,0.332000
10913.845254,341.164000,-1.083000
10917.625066,341.208000,2.858000
10921.318033,341.251000,-0.599000
10925.095918,341.295000,-8.154000
10928.787002,341.338000,-1.098500
10932.562962,341.382000,0.000500
10936.252165,341.425000,1.076500
10939.940439,341.468000,-1.174500
10943.713524,341.512000,2.907500
10947.399919,341.555000,4.361000
10951.171083,341.599000,6.527500
10954.855601,341.642000,5.470500
10958.624845,341.686000,2.514000
10962.307486,341.729000,2.360500
10965.989201,341.772000,3.529500
10969.755578,341.816000,3.775500
10973.435419,341.859000,3.323500
10977.114334,341.902000,1.105000
10980.877848,341.946000,-2.390000
10984.554892,341.989000,3.282500
10988.231011,342.032000,0.900500
10991.991665,342.076000,7.973500
10995.665914,342.119000,2.076000
10999.339240,342.162000,-1.078500
11003.011643,342.205000,1.328500
11006.768496,342.249000,0.814500
11010.439032,342.292000,1.625500
11014.108646,342.335000,3.031000
11017.777338,342.378000,-1.257000
11021.530396,342.422000,6.641500
11025.197224,342.465000,3.055500
11028.863132,342.508000,-0.303500
11032.528119,342.551000,1.671500
11036.192187,342.594000,-0.706500
11039.855335,342.637000,-4.365500
11043.602720,342.681000,-2.417500
11047.264009,342.724000,-0.942000
11050.924378,342.767000,1.761500
11054.583829,342.810000,0.495000
11058.242363,342.853000,0.791500
11061.899979,342.896000,-2.209000
11065.556677,342.939000,-5.429000
11069.212459,342.982000,1.524500
11072.867324,343.025000,1.507000
11076.521273,343.068000,2.192000
11080.174306,343.111000,-0.689000
11083.826423,343.154000,1.712000
11087.477626,343.197000,-2.562500
11091.127913,343.240000,-2.971500
11094.777286,343.283000,-2.192500
11098.425745,343.326000,-0.220000
11102.073291,343.369000,-4.006500
11105.719922,343.412000,0.942500
11109.365641,343.455000,-0.764000
11113.010447,343.498000,-0.095000
11116.654340,343.541000,1.135000
11120.297322,343.584000,1.107000
11123.939391,343.627000,-2.925000
11127.580549,343.670000,0.306500
11131.220797,343.713000,1.297500
11134.775508,343.755000,-2.364500
11138.413955,343.798000,-0.862000
11142.051492,343.841000,3.080500
11145.688120,343.884000,5.108000
11149.323838,343.927000,3.266500
11152.958647,343.970000,0.516000
11156.508049,344.012000,-0.756000
11160.141062,344.055000,-1.602500
11163.773167,344.098000,2.513500
11167.404365,344.141000,0.289000
11170.950240,344.183000,-0.778500
11174.579645,344.226000,0.910000
11178.208143,344.269000,-3.169500
11181.751382,344.311000,-4.517500
11185.378088,344.354000,-1.049000
11189.003889,344.397000,1.965500
11192.628785,344.440000,0.996000
11196.168507,344.482000,1.539500
11199.791614,344.525000,2.967500
11203.413817,344.568000,-0.461500
11206.950910,344.610000,0.737500
11210.571327,344.653000,4.300000
11214.106675,344.695000,2.877000
11217.725306,344.738000,-1.592500
11221.343035,344.781000,0.491500
11224.875759,344.823000,0.499000
11228.491704,344.866000,1.280500
11232.022687,344.908000,-4.270000
11235.636851,344.951000,-1.482000
11239.166094,344.993000,1.486000
11242.778477,345.036000,-1.127500
11246.305982,345.078000,0.009500
11249.916585,345.121000,-5.615500
11253.442353,345.163000,-2.429000
11257.051178,345.206000,1.481000
11260.575210,345.248000,2.988500
11264.182259,345.291000,2.510000
11267.704555,345.333000,5.404000
11271.309829,345.376000,5.815500
11274.830392,345.418000,2.267500
11278.350100,345.460000,3.187500
11281.952723,345.503000,-1.142500
11285.470699,345.545000,-13.192500
11288.987820,345.587000,-3.769500
11292.587796,345.630000,-16.976500
11296.103187,345.672000,-2.092500
11299.701393,345.715000,0.581000
11303.215056,345.757000,0.265500
11306.727865,345.799000,-0.400500
11310.239821,345.841000,-2.048500
11313.834512,345.884000,-0.942000
11317.344742,345.926000,-3.929000
11320.854120,345.968000,-4.566500
11324.446172,346.011000,-2.084000
11327.953826,346.053000,-2.367000
11331.460629,346.095000,0.957500
11334.966581,346.137000,-3.015500
11338.471682,346.179000,0.661500
11342.059357,346.222000,6.727500
11345.562737,346.264000,0.420000
11349.065268,346.306000,-0.544000
11352.566949,346.348000,-0.237000
11356.067781,346.390000,-1.483000
11359.567764,346.432000,-3.759000
11363.150201,346.475000,-4.623000
11366.648467,346.517000,-3.676000
11370.145885,346.559000,-0.895000
11373.642456,346.601000,-2.920000
11377.138179,346.643000,-2.823000
11380.633055,346.685000,-1.345500
11384.127085,346.727000,-1.436500
11387.620268,346.769000,3.569500
11391.112605,346.811000,0.163000
11394.604096,346.853000,-1.777500
11398.094742,346.895000,2.892500
11401.584543,346.937000,-0.318000
11405.073499,346.979000,5.015500
11408.561610,347.021000,2.215500
11412.048877,347.063000,3.343500
11415.535301,347.105000,3.008500
11419.020880,347.147000,0.108000
11422.505617,347.189000,-2.791000
11425.989510,347.231000,-2.048000
11429.472560,347.273000,-0.565500
11432.954769,347.315000,0.399500
11436.436135,347.357000,2.913500
11439.916659,347.399000,-1.534000
11443.313502,347.440000,3.747500
11446.792364,347.482000,0.432000
11450.270384,347.524000,-1.191500
11453.747565,347.566000,0.108000
11457.223905,347.608000,0.420000
11460.699405,347.650000,-0.120000
11464.091345,347.691000,-2.095500
11467.565186,347.733000,0.682500
11471.038188,347.775000,0.507500
11474.510351,347.817000,2.458500
11477.981676,347.859000,0.419000
11481.369541,347.900000,-0.216000
11484.839210,347.942000,-2.716000
11488.308041,347.984000,-0.704500
11491.693473,348.025000,0.451000
11495.160650,348.067000,-1.136500
11498.626991,348.109000,-1.889500
11502.092494,348.151000,0.650500
11505.474680,348.192000,-0.099000
11508.938532,348.234000,1.768500
11512.401549,348.276000,-1.400000
11515.781307,348.317000,-0.859500
11519.242673,348.359000,0.160500
11522.620821,348.400000,0.579500
11526.080539,348.442000,-0.122000
11529.539422,348.484000,-15.642000
11532.915148,348.525000,-5.828500
11536.372384,348.567000,0.525000
11539.746502,348.608000,0.602500
11543.202092,348.650000,1.583500
11546.574604,348.691000,-1.990000
11550.028550,348.733000,-1.850000
11553.399456,348.774000,-0.936000
11556.851758,348.816000,2.411500
11560.221061,348.857000,3.353000
11563.671720,348.899000,1.117500
11567.039420,348.940000,1.591500
11570.488439,348.982000,-3.765500
11573.854537,349.023000,-2.133000
11577.301915,349.065000,-3.847000
11580.666413,349.106000,1.349500
11584.030120,349.147000,1.118000
11587.475051,349.189000,1.472000
11590.837159,349.230000,-1.179000
11594.280452,349.272000,-0.651500
11597.640963,349.313000,-3.157000
11601.000686,349.354000,-3.105500
11604.441535,349.396000,-0.578000
11607.799661,349.437000,-5.066500
11611.157000,349.478000,-3.466000
11614.595408,349.520000,-6.660500
11617.951152,349.561000,-16.086500
11621.306109,349.602000,-14.171500
11624.660280,349.643000,-1.711500
11628.095443,349.685000,-1.540000
11631.448022,349.726000,-0.646000
11634.799814,349.767000,-0.847500
11638.150821,349.808000,-0.873500
11641.582745,349.850000,2.667500
11644.932162,349.891000,3.151500
11648.280794,349.932000,4.724500
11651.628641,349.973000,2.429000
11654.975704,350.014000,2.016500
11658.403590,350.056000,3.533500
11661.749066,350.097000,1.631500
11665.093759,350.138000,0.589500
11668.437668,350.179000,0.223500
11671.780795,350.220000,10.192000
11675.123139,350.261000,16.281500
11678.464700,350.302000,-0.398000
11681.805480,350.343000,-0.033500
11685.145477,350.384000,2.692000
11688.484693,350.425000,-1.735000
11691.904543,350.467000,0.335500
11695.242178,350.508000,-2.507000
11698.579032,350.549000,-4.336500
11701.915105,350.590000,-1.402000
11705.250398,350.631000,-2.524000
11708.584912,350.672000,-4.736000
11711.918645,350.713000,-4.423000
11715.251600,350.754000,-6.880500
11718.502512,350.794000,-3.345000
11721.833927,350.835000,-2.619000
11725.164564,350.876000,-1.548000
11728.494422,350.917000,-2.940000
11731.823503,350.958000,0.127500
11735.151806,350.999000,-2.718000
11738.479331,351.040000,-0.408000
11741.806079,351.081000,-2.395000
11745.132050,351.122000,-1.500000
11748.457245,351.163000,2.832500
11751.700589,351.203000,-0.346000
11755.024250,351.244000,-1.197500
11758.347135,351.285000,-2.778500
11761.669245,351.326000,-8.754000
11764.990579,351.367000,-6.496000
11768.230159,351.407000,-6.377000
11771.549962,351.448000,-2.683000
11774.868991,351.489000,-1.147000
11778.187246,351.530000,2.860000
11781.423822,351.570000,0.079000
11784.740548,351.611000,-0.458500
11788.056500,351.652000,1.170500
11791.371680,351.693000,-1.803000
11794.605256,351.733000,-0.393000
11797.918909,351.774000,-0.050500
11801.231790,351.815000,-0.281500
11804.463124,351.855000,-1.407000
11807.774479,351.896000,0.215000
11811.085063,351.937000,-0.345500
11814.314158,351.977000,-3.547000
11817.623218,352.018000,0.876500
11820.850827,352.058000,-1.274500
11824.158365,352.099000,-1.144000
11827.465133,352.140000,-0.432000
11830.690506,352.180000,-0.988000
11833.995753,352.221000,-0.811000
11837.219643,352.261000,-0.397000
11840.523370,352.302000,-2.184500
11843.745778,352.342000,-1.241500
11847.047986,352.383000,-5.611000
11850.268913,352.423000,-0.648500
11853.569603,352.464000,0.106500
11856.789050,352.504000,3.039500
11860.088224,352.545000,1.781500
11863.306191,352.585000,0.744000
11866.603850,352.626000,-7.845500
11869.820339,352.666000,-3.087500
11873.116483,352.707000,0.783000
11876.331495,352.747000,-0.602000
11879.545777,352.787000,-3.013500
11882.839661,352.828000,-3.060500
11886.052468,352.868000,-1.411000
11889.264547,352.908000,-2.395500
11892.556173,352.949000,-0.208500
11895.766777,352.989000,0.515500
11899.056892,353.030000,-0.133000
11902.266024,353.070000,0.759500
11905.474429,353.110000,-1.536500
11908.682107,353.150000,2.130500
11911.969223,353.191000,1.785000
11915.175430,353.231000,-1.630000
11918.380911,353.271000,0.041000
11921.665775,353.312000,-0.358500
11924.869787,353.352000,-1.133000
11928.073073,353.392000,-1.872000
11931.275634,353.432000,0.098500
11934.477470,353.472000,-0.113000
11937.758600,353.513000,-3.690500
11940.958969,353.553000,0.739500
11944.158614,353.593000,-4.900500
11947.357536,353.633000,-1.183500
11950.555733,353.673000,5.027000
11953.753208,353.713000,-3.879500
11957.029868,353.754000,-1.772500
11960.225879,353.794000,-0.653500
11963.421166,353.834000,-0.709500
11966.615732,353.874000,0.169000
11969.809575,353.914000,-3.643500
11973.002696,353.954000,0.082000
11976.195096,353.994000,9.832500
11979.386774,354.034000,13.274000
11982.577731,354.074000,-0.246500
11985.767968,354.114000,-2.229500
11988.957483,354.154000,-3.740000
11992.146279,354.194000,-0.065500
11995.334354,354.234000,0.644500
11998.521709,354.274000,0.505500
12001.708345,354.314000,47.166000
12004.894261,354.354000,34.010000
12008.079458,354.394000,5.196000
12011.263936,354.434000,-1.218000
12014.447695,354.474000,-0.050000
12017.630736,354.514000,-2.014000
12020.813059,354.554000,-0.963000
12023.994663,354.594000,-6.548000
12027.175550,354.634000,0.023000
12030.276224,354.673000,2.150500
12033.455694,354.713000,3.226000
12036.634448,354.753000,0.780000
12039.812484,354.793000,-1.476000
12042.989804,354.833000,0.685500
12046.166408,354.873000,-0.994500
12049.262907,354.912000,1.533500
12052.438097,354.952000,0.348500
12055.612571,354.992000,-0.121000
12058.786330,355.032000,0.390500
12061.880056,355.071000,-2.446000
12065.052403,355.111000,-0.423500
12068.224035,355.151000,-0.890000
12071.394953,355.191000,-1.959500
12074.485910,355.230000,-0.965500
12077.655418,355.270000,-1.648000
12080.824212,355.310000,-3.624000
12083.913100,355.349000,-2.825000
12087.080485,355.389000,-2.072500
12090.247158,355.429000,-2.263000
12093.333977,355.468000,-5.906000
12096.499242,355.508000,-3.493000
12099.663795,355.548000,-0.251000
12102.748549,355.587000,0.527500
12105.911696,355.627000,-0.177000
12108.995079,355.666000,-1.025500
12112.156822,355.706000,-0.525500
12115.317853,355.746000,0.153500
12118.399174,355.785000,0.407500
12121.558801,355.825000,0.291500
12124.638754,355.864000,-1.128000
12127.796979,355.904000,0.207500
12130.875565,355.943000,0.425000
12134.032389,355.983000,0.539500
12137.109608,356.022000,0.156500
12140.265031,356.062000,-0.424000
12143.340885,356.101000,0.612500
12146.494908,356.141000,-1.068500
12149.569398,356.180000,-0.254500
12152.643215,356.219000,0.024000
12155.795149,356.259000,0.912500
12158.867603,356.298000,-0.668500
12162.018139,356.338000,-0.092000
12165.089231,356.377000,0.072500
12168.159651,356.416000,0.288500
12171.308101,356.456000,-0.825500
12174.377160,356.495000,-0.139500
12177.445548,356.534000,0.326500
12180.591915,356.574000,-0.249500
12183.658943,356.613000,-0.121000
12186.725300,356.652000,-1.024500
12189.869585,356.692000,0.148500
12192.934585,356.731000,-0.406000
12195.998914,356.770000,-0.394000
12199.062573,356.809000,0.416500
12202.204093,356.849000,-0.207500
12205.266396,356.888000,0.277000
12208.328030,356.927000,0.606500
12211.388995,356.966000,-0.043000
12214.527751,357.006000,-0.631000
12217.587361,357.045000,-0.407500
12220.646304,357.084000,0.504500
12223.704578,357.123000,-0.511000
12226.762184,357.162000,0.096000
12229.819122,357.201000,-0.139000
12232.953750,357.241000,-0.331000
12236.009337,357.280000,-0.393500
12239.064257,357.319000,0.175000
12242.118510,357.358000,-0.998000
12245.172096,357.397000,-0.924500
12248.225016,357.436000,-0.500000
