raman_shift_cm-1,wavelength_nm,intensity
-323.608033,246.616000,0.000000
-312.759145,246.682000,0.000000
-301.916061,246.748000,0.000000
-291.078776,246.814000,0.000000
-280.083216,246.881000,0.000000
-269.257603,246.947000,0.013889
-258.437774,247.013000,-0.012346
-247.623726,247.079000,0.145833
-236.815454,247.145000,0.729938
-226.012953,247.211000,-0.031636
-215.216219,247.277000,0.106481
-204.425246,247.343000,-0.084105
-193.640031,247.409000,0.047068
-182.860568,247.475000,0.006944
-172.086854,247.541000,-0.216821
-161.318883,247.607000,0.034722
-150.556651,247.673000,-0.027006
-139.800153,247.739000,-0.315586
-129.049385,247.805000,-0.100309
-118.467103,247.870000,-0.229938
-107.727694,247.936000,0.219136
-96.994001,248.002000,0.053241
-86.266020,248.068000,-0.245370
-75.543746,248.134000,-0.126543
-64.827174,248.200000,0.129630
-54.278543,248.265000,-0.091821
-43.573277,248.331000,0.298611
-32.873698,248.397000,-0.007716
-22.179805,248.463000,-0.026235
-11.653491,248.528000,-0.183642
-0.970866,248.594000,-0.244599
9.706087,248.660000,0.074074
20.377375,248.726000,0.019290
30.881442,248.791000,-0.328704
41.541497,248.857000,-0.037037
52.195898,248.923000,-0.039352
62.683348,248.988000,-0.074074
73.326542,249.054000,-0.053241
83.802964,249.119000,-0.157407
94.434970,249.185000,-0.280864
104.900381,249.250000,-0.412809
115.521215,249.316000,0.383488
125.975632,249.381000,0.082562
136.585313,249.447000,0.481481
147.028754,249.512000,-0.571759
157.627298,249.578000,0.012346
168.059780,249.643000,0.121914
178.647205,249.709000,-0.201389
189.068746,249.774000,0.219136
199.645070,249.840000,0.018519
210.055686,249.905000,-0.255401
220.620926,249.971000,-2.011574
231.020635,250.036000,-6.386574
241.414938,250.101000,0.314815
251.963627,250.167000,-0.523148
262.347049,250.232000,-0.283951
272.725077,250.297000,0.574846
283.097717,250.362000,5.960648
293.624427,250.428000,3.365741
303.986219,250.493000,-0.927469
314.342635,250.558000,-0.483025
324.693679,250.623000,2.522377
335.198478,250.689000,-0.983796
345.538708,250.754000,1.141204
355.873579,250.819000,-2.506173
366.203095,250.884000,-3.182870
376.527259,250.949000,-1.627315
386.846077,251.014000,0.054784
397.318179,251.080000,-0.423611
407.626234,251.145000,0.836420
417.928954,251.210000,0.146605
428.226343,251.275000,-0.036265
438.518407,251.340000,-6.709877
448.805149,251.405000,-3.130401
459.086573,251.470000,-0.849537
469.362683,251.535000,0.462963
479.633483,251.600000,1.238426
489.898978,251.665000,0.246914
500.159172,251.730000,0.091821
510.414069,251.795000,7.523148
520.663672,251.860000,-1.138889
530.907986,251.925000,-0.556327
541.147015,251.990000,-0.051698
551.223361,252.054000,-1.895062
561.451914,252.119000,1.029321
571.675194,252.184000,0.856481
581.893205,252.249000,0.961420
592.105952,252.314000,0.765432
602.313438,252.379000,1.549383
612.358750,252.443000,1.104938
622.555807,252.508000,-0.910494
632.747617,252.573000,-1.349537
642.934182,252.638000,-3.587963
652.958910,252.702000,-0.012346
663.135079,252.767000,-1.290123
673.306016,252.832000,0.965278
683.315368,252.896000,-0.295525
693.475932,252.961000,0.996914
703.631276,253.026000,-0.610340
713.625287,253.090000,0.295525
723.770283,253.155000,1.887346
733.910070,253.220000,2.917438
743.888776,253.284000,1.185957
754.018238,253.349000,0.276235
763.986786,253.413000,-3.526235
774.105940,253.478000,-1.567901
784.064345,253.542000,0.048611
794.173206,253.607000,0.667438
804.121484,253.671000,0.652778
814.220067,253.736000,1.323302
824.158233,253.800000,-0.057099
834.246555,253.865000,-0.116512
844.174625,253.929000,-1.837191
854.252700,253.994000,-0.164352
864.170690,254.058000,-1.034722
874.083683,254.122000,-4.547068
884.146458,254.187000,0.137346
894.049394,254.251000,1.295525
903.947346,254.315000,-1.600309
913.994855,254.380000,0.807099
923.882772,254.444000,-0.520833
933.765716,254.508000,-0.091821
943.797994,254.573000,2.405864
953.670926,254.637000,2.121914
963.538895,254.701000,0.601852
973.401907,254.765000,-2.376543
983.259965,254.829000,-7.817130
993.266988,254.894000,0.682870
1003.115071,254.958000,1.094136
1012.958212,255.022000,-2.172840
1022.796413,255.086000,-6.584105
1032.629679,255.150000,-2.659722
1042.458013,255.214000,-5.333333
1052.281419,255.278000,-2.268519
1062.253275,255.343000,-4.008488
1072.066759,255.407000,0.770062
1081.875326,255.471000,-0.561728
1091.678980,255.535000,-1.162037
1101.477725,255.599000,-0.891204
1111.271563,255.663000,-2.213735
1121.060500,255.727000,0.006944
1130.844538,255.791000,0.625772
1140.623681,255.855000,2.108796
1150.397933,255.919000,-5.172068
1160.014689,255.982000,-0.979167
1169.779246,256.046000,-5.138117
1179.538923,256.110000,-4.927469
1189.293724,256.174000,-0.139660
1199.043651,256.238000,-0.003858
1208.788709,256.302000,-1.395062
1218.528902,256.366000,1.782407
1228.112156,256.429000,1.917438
1237.842704,256.493000,0.932099
1247.568398,256.557000,0.060957
1257.289241,256.621000,-1.993827
1267.005236,256.685000,0.277778
1276.564688,256.748000,-3.161265
1286.271074,256.812000,0.721451
1295.972624,256.876000,2.346451
1305.517867,256.939000,-1.574846
1315.209831,257.003000,-0.343364
1324.896968,257.067000,0.534722
1334.428034,257.130000,0.543981
1344.105605,257.194000,-1.508488
1353.778362,257.258000,-1.121142
1363.295282,257.321000,0.599537
1372.958494,257.385000,-0.892747
1382.466026,257.448000,-0.135802
1392.119708,257.512000,2.644290
1401.617865,257.575000,4.821759
1411.262031,257.639000,0.647377
1420.750828,257.702000,-0.977623
1430.385491,257.766000,-2.027778
1439.864942,257.829000,-0.499228
1449.490117,257.893000,-0.517747
1458.960235,257.956000,0.817901
1468.575936,258.020000,0.592593
1478.036734,258.083000,-0.118056
1487.492915,258.146000,-0.033951
1497.094468,258.210000,0.786265
1506.541350,258.273000,1.469907
1516.133465,258.337000,-1.110340
1525.571062,258.400000,-1.522377
1535.004058,258.463000,-6.765432
1544.432457,258.526000,-15.554012
1554.005809,258.590000,-4.926698
1563.424950,258.653000,1.663580
1572.839503,258.716000,0.258488
1582.249473,258.779000,-1.304784
1591.804117,258.843000,0.733025
1601.204857,258.906000,1.543981
1610.601022,258.969000,-2.425926
1619.992617,259.032000,0.214506
1629.379645,259.095000,0.259259
1638.911000,259.159000,-0.124228
1648.288831,259.222000,0.204475
1657.662104,259.285000,-0.844136
1667.030824,259.348000,-0.470679
1676.394994,259.411000,0.462191
1685.754616,259.474000,-1.748457
1695.109694,259.537000,-0.885802
1704.460232,259.600000,-0.282407
1713.806232,259.663000,-0.954475
1723.147698,259.726000,-0.552469
1732.484634,259.789000,2.202932
1741.817042,259.852000,6.904321
1751.144926,259.915000,1.353395
1760.468289,259.978000,18.168210
1769.787135,260.041000,1.486883
1779.101467,260.104000,-0.763889
1788.411287,260.167000,-0.072531
1797.568932,260.229000,0.727623
1806.869812,260.292000,-0.340278
1816.166190,260.355000,-1.611883
1825.458071,260.418000,-0.049383
1834.745457,260.481000,-0.743827
1844.028352,260.544000,-2.268519
1853.159517,260.606000,-0.185185
1862.433510,260.669000,4.054784
1871.703021,260.732000,2.672068
1880.968054,260.795000,0.235340
1890.081653,260.857000,0.858025
1899.337809,260.920000,0.161265
1908.589497,260.983000,-1.046296
1917.689973,261.045000,1.795525
1926.932803,261.108000,0.898920
1936.171175,261.171000,0.781636
1945.258555,261.233000,-1.787037
1954.488088,261.296000,-2.070988
1963.566777,261.358000,3.072531
1972.787485,261.421000,1.150463
1982.003751,261.484000,2.880401
1991.069391,261.546000,1.131173
2000.276850,261.609000,0.364198
2009.333830,261.671000,4.925926
2018.532495,261.734000,-0.556327
2027.580827,261.796000,2.097222
2036.770712,261.859000,1.847994
2045.810408,261.921000,-1.527006
2054.845827,261.983000,-2.410494
2064.022598,262.046000,-0.455247
2073.049399,262.108000,1.016204
2082.217420,262.171000,1.819444
2091.235617,262.233000,-0.219136
2100.249550,262.295000,0.461420
2109.404505,262.358000,0.583333
2118.409852,262.420000,0.118827
2127.410945,262.482000,-0.604938
2136.552862,262.545000,0.976080
2145.545387,262.607000,0.925926
2154.533666,262.669000,4.078704
2163.517703,262.731000,0.885031
2172.642302,262.794000,-0.800154
2181.617796,262.856000,0.778549
2190.589057,262.918000,-0.745370
2199.556087,262.980000,0.603395
2208.518891,263.042000,1.594907
2217.621929,263.105000,1.344136
2226.576219,263.167000,-0.537037
2235.526291,263.229000,2.615741
2244.472147,263.291000,2.632716
2253.413792,263.353000,-1.820988
2262.351228,263.415000,-0.068673
2271.284457,263.477000,-1.247685
2280.213483,263.539000,-1.128858
2289.138308,263.601000,-2.012346
2298.058937,263.663000,-0.554784
2306.975371,263.725000,-1.121914
2315.887613,263.787000,-3.219136
2324.795667,263.849000,0.300926
2333.699536,263.911000,-0.208333
2342.599222,263.973000,-0.103395
2351.494729,264.035000,-2.130401
2360.386059,264.097000,-1.999228
2369.273215,264.159000,-2.266204
2378.156200,264.221000,-0.949074
2386.891844,264.282000,0.867284
2395.766564,264.344000,0.707562
2404.637121,264.406000,1.028549
2413.503520,264.468000,0.449846
2422.365762,264.530000,0.760802
2431.081012,264.591000,6.631173
2439.935018,264.653000,2.644290
2448.784876,264.715000,2.665123
2457.630590,264.777000,2.581790
2466.329589,264.838000,0.549383
2475.167089,264.900000,-0.948302
2484.000453,264.962000,-1.631173
2492.687310,265.023000,0.905093
2501.512478,265.085000,0.012346
2510.333519,265.147000,0.554784
2519.008259,265.208000,-1.776235
2527.821120,265.270000,-0.900463
2536.487819,265.331000,-0.005401
2545.292512,265.393000,-0.540895
2554.093093,265.455000,-0.296296
2562.747717,265.516000,0.300154
2571.540147,265.578000,0.832562
2580.186758,265.639000,1.313272
2588.971048,265.701000,0.625772
2597.609655,265.762000,-0.050154
2606.385817,265.824000,-0.134259
2615.016433,265.885000,1.163580
2623.643091,265.946000,3.085648
2632.407114,266.008000,-11.683642
2641.025796,266.069000,-16.685957
2649.781719,266.131000,-5.083333
2658.392437,266.192000,-1.391975
2666.999210,266.253000,-1.502315
2675.743037,266.315000,0.255401
2684.341862,266.376000,-1.800926
2692.936750,266.437000,-2.472222
2701.668505,266.499000,0.246142
2710.255462,266.560000,0.591049
2718.838489,266.621000,0.901235
2727.417590,266.682000,-1.325617
2736.133311,266.744000,-0.310957
2744.704503,266.805000,-7.467593
2753.271776,266.866000,-3.327160
2761.835134,266.927000,0.082562
2770.394579,266.988000,-0.596451
2778.950113,267.049000,-0.151235
2787.641898,267.111000,-0.675154
2796.189555,267.172000,-0.605710
2804.733311,267.233000,-0.357253
2813.273167,267.294000,0.424383
2821.809126,267.355000,0.928241
2830.341190,267.416000,0.211420
2838.869363,267.477000,-2.929012
2847.393647,267.538000,-0.641204
2855.914045,267.599000,-1.695988
2864.430559,267.660000,2.607253
2872.943193,267.721000,0.297840
2881.451948,267.782000,-0.809414
2889.956827,267.843000,-1.252315
2898.457833,267.904000,0.365741
2906.954969,267.965000,7.356481
2915.448237,268.026000,0.920525
2923.937640,268.087000,-1.283951
2932.284105,268.147000,0.234568
2940.765849,268.208000,0.063272
2949.243736,268.269000,-0.432099
2957.717768,268.330000,-0.352623
2966.187948,268.391000,-2.873457
2974.515518,268.451000,0.079475
2982.978065,268.512000,-0.046296
2991.436768,268.573000,-8.898148
2999.891630,268.634000,2.841049
3008.204142,268.694000,1.036265
3016.651392,268.755000,-2.708333
3025.094807,268.816000,0.432870
3033.396069,268.876000,-1.432099
3041.831888,268.937000,2.208333
3050.263881,268.998000,0.885802
3058.553914,269.058000,-2.963735
3066.978326,269.119000,0.390432
3075.398919,269.180000,-1.626543
3083.677747,269.240000,-0.408179
3092.090774,269.301000,4.895833
3100.362165,269.361000,1.871142
3108.767637,269.422000,-1.281636
3117.031601,269.482000,1.735340
3125.429526,269.543000,-0.740741
3133.686074,269.603000,-0.401235
3142.076464,269.664000,0.093364
3150.325604,269.724000,-0.584105
3158.708468,269.785000,-0.809414
3166.950211,269.845000,2.268519
3175.325561,269.906000,-1.444444
3183.559917,269.966000,-2.881944
3191.790613,270.026000,-0.109568
3200.154739,270.087000,-1.400463
3208.378064,270.147000,-0.905093
3216.597736,270.207000,-0.123457
3224.950662,270.268000,-0.327160
3233.162976,270.328000,-2.496142
3241.371647,270.388000,-0.981481
3249.576675,270.448000,-0.919753
3257.914722,270.509000,-1.349537
3266.112412,270.569000,1.462963
3274.306467,270.629000,0.279321
3282.496889,270.689000,-1.222222
3290.820098,270.750000,-1.271605
3299.003202,270.810000,1.202932
3307.182681,270.870000,0.715278
3315.358537,270.930000,0.197531
3323.530773,270.990000,1.048611
3331.699391,271.050000,0.375772
3339.864393,271.110000,-3.777006
3348.025782,271.170000,-0.579475
3356.319492,271.231000,0.582562
3364.473602,271.291000,0.648148
3372.624105,271.351000,0.726852
3380.771005,271.411000,-0.607253
3388.914304,271.471000,-0.376543
3397.054004,271.531000,0.652006
3405.190107,271.591000,-2.446759
3413.322616,271.651000,-23.324074
3421.316081,271.710000,-0.722222
3429.441469,271.770000,-0.043210
3437.563270,271.830000,-6.786265
3445.681487,271.890000,-1.689815
3453.796121,271.950000,0.799383
3461.907176,272.010000,-0.679784
3470.014653,272.070000,-0.145833
3478.118555,272.130000,21.802469
3486.083907,272.189000,3.001543
3494.180726,272.249000,10.817130
3502.273976,272.309000,40.307099
3510.363660,272.369000,25.434414
3518.315042,272.428000,1.562500
3526.397661,272.488000,0.871914
3534.476722,272.548000,0.204475
3542.552226,272.608000,-0.275463
3550.489673,272.667000,-1.346451
3558.558131,272.727000,-1.243056
3566.623039,272.787000,0.050926
3574.550074,272.846000,-0.022377
3582.607950,272.906000,0.043210
3590.528073,272.965000,1.735340
3598.578926,273.025000,-3.781636
3606.626241,273.085000,-33.405864
3614.535986,273.144000,-1.304784
3622.576291,273.204000,0.392747
3630.479148,273.263000,1.300926
3638.512453,273.323000,0.134259
3646.408431,273.382000,0.227623
3654.434744,273.442000,0.431327
3662.323852,273.501000,-0.999228
3670.343183,273.561000,-1.968364
3678.225429,273.620000,-0.607253
3686.237787,273.680000,1.871142
3694.113181,273.739000,1.404321
3701.985180,273.798000,0.236111
3709.987125,273.858000,-0.950617
3717.852286,273.917000,-1.020833
3725.714059,273.976000,0.626543
3733.705610,274.036000,-1.184414
3741.560558,274.095000,-0.983025
3749.412124,274.154000,-0.206019
3757.393303,274.214000,-2.915895
3765.238057,274.273000,-7.447531
3773.079437,274.332000,-0.390432
3780.917444,274.391000,0.817901
3788.884843,274.451000,1.341049
3796.716056,274.510000,0.662037
3804.543903,274.569000,2.938272
3812.368387,274.628000,-3.032407
3820.189510,274.687000,-0.682870
3828.007273,274.746000,0.414352
3835.821680,274.805000,2.307099
3843.765093,274.865000,0.087191
3851.572736,274.924000,-1.213735
3859.377028,274.983000,-0.550154
3867.177971,275.042000,0.674383
3874.975569,275.101000,-1.277006
3882.769823,275.160000,-1.261574
3890.560735,275.219000,-0.593364
3898.348307,275.278000,1.893519
3906.132542,275.337000,0.229167
3913.913442,275.396000,0.988426
3921.691008,275.455000,-0.617284
3929.465243,275.514000,0.658951
3937.236150,275.573000,0.560957
3944.872103,275.631000,-1.039352
3952.636414,275.690000,0.237654
3960.397403,275.749000,-0.766204
3968.155071,275.808000,0.067130
3975.909421,275.867000,-2.342593
3983.660455,275.926000,-0.729938
3991.408175,275.985000,1.024691
3999.021349,276.043000,0.402778
4006.762504,276.102000,1.997685
4014.500350,276.161000,0.183642
4022.234891,276.220000,1.408179
4029.835118,276.278000,1.101852
4037.563110,276.337000,0.859568
4045.287803,276.396000,-0.232253
4052.878355,276.454000,0.331790
4060.596512,276.513000,-0.962191
4068.311375,276.572000,0.259259
4075.892271,276.630000,-0.201389
4083.600610,276.689000,-5.773148
4091.305663,276.748000,4.067130
4098.876921,276.806000,4.000000
4106.575462,276.865000,0.723765
4114.140322,276.923000,-2.481481
4121.832361,276.982000,1.530864
4129.390832,277.040000,-1.204475
4137.076375,277.099000,0.830247
4144.628466,277.157000,0.067901
4152.307522,277.216000,0.073302
4159.853240,277.274000,-0.466049
4167.525818,277.333000,3.244599
4175.065171,277.391000,0.303241
4182.731279,277.450000,-1.265432
4190.264275,277.508000,0.628086
4197.794123,277.566000,-0.945988
4205.450568,277.625000,-2.124228
4212.974072,277.683000,-6.868827
4220.494433,277.741000,-8.925926
4228.011654,277.799000,-13.924383
4235.396210,277.856000,-2.319444
4242.907211,277.914000,-0.724537
4250.415077,277.972000,0.058642
4257.790445,278.029000,-0.521605
4265.292102,278.087000,2.631173
4272.790631,278.145000,0.379630
4280.156828,278.202000,2.038580
4287.649159,278.260000,2.284722
4295.138368,278.318000,-9.145062
4302.495411,278.375000,-6.942130
4309.978434,278.433000,-0.168210
4317.329402,278.490000,-0.118827
4324.806246,278.548000,2.292438
4332.151147,278.605000,-2.051698
4339.621821,278.663000,0.161265
4346.960661,278.720000,1.608796
4354.425172,278.778000,-0.094136
4361.757959,278.835000,-3.589506
4369.216314,278.893000,-0.827160
4376.543056,278.950000,-5.200617
4383.995264,279.008000,-3.003858
4391.315968,279.065000,1.090278
4398.762036,279.123000,1.489969
4406.076709,279.180000,2.476852
4413.516644,279.238000,1.899691
4420.825295,279.295000,4.683642
4428.130962,279.352000,2.147377
4435.561740,279.410000,-2.408951
4442.861395,279.467000,0.031636
4450.158074,279.524000,-0.587191
4457.579711,279.582000,-1.300154
4464.870389,279.639000,7.245370
4472.158095,279.696000,11.233025
4479.570607,279.754000,0.885031
4486.852324,279.811000,0.615741
4494.131074,279.868000,2.546296
4501.534479,279.926000,-1.380401
4508.807251,279.983000,2.294753
4516.077062,280.040000,-1.526235
4523.343914,280.097000,-0.462191
4530.735220,280.155000,1.389660
4537.996108,280.212000,-1.074074
4545.254043,280.269000,-2.543981
4552.509026,280.326000,-3.756944
4559.888262,280.384000,-0.123457
4567.137295,280.441000,14.158951
4574.383383,280.498000,7.125000
4581.626526,280.555000,3.067130
4588.866727,280.612000,-1.932099
4596.103987,280.669000,-4.556327
4603.338308,280.726000,-5.357253
4610.696532,280.784000,-1.807870
4617.924929,280.841000,2.212191
4625.150392,280.898000,-0.716821
4632.372923,280.955000,-8.889660
4639.592525,281.012000,-25.329475
4646.809198,281.069000,-3.904321
4654.022945,281.126000,1.027778
4661.233767,281.183000,-0.376543
4668.441666,281.240000,-1.941358
4675.646644,281.297000,-0.692130
4682.848703,281.354000,-0.703704
4690.047844,281.411000,0.564815
4697.244070,281.468000,2.358025
4704.437381,281.525000,7.933642
4711.627780,281.582000,0.700617
4718.815269,281.639000,0.146605
4725.999849,281.696000,-0.360340
4733.181522,281.753000,0.314043
4740.360290,281.810000,1.243056
4747.536154,281.867000,0.227623
4754.583300,281.923000,-5.817130
4761.753414,281.980000,-3.983796
4768.920629,282.037000,2.337191
4776.084949,282.094000,0.746914
4783.246373,282.151000,-0.006173
4790.404904,282.208000,-0.348765
4797.435032,282.264000,-14.037037
4804.587834,282.321000,-23.626543
4811.737748,282.378000,-3.959877
4818.884776,282.435000,-5.347222
4826.028920,282.492000,-1.582562
4833.044920,282.548000,0.776235
4840.183352,282.605000,3.252315
4847.318904,282.662000,-4.831790
4854.451579,282.719000,0.135802
4861.456319,282.775000,-0.584105
4868.583295,282.832000,1.492284
4875.707399,282.889000,1.642747
4882.703723,282.945000,-0.867284
4889.822139,283.002000,-0.075617
4896.937687,283.059000,0.449074
4903.925611,283.115000,-0.445216
4911.035481,283.172000,7.432870
4918.142490,283.229000,16.373457
4925.122029,283.285000,1.253858
4932.223369,283.342000,0.796296
4939.197342,283.398000,2.091049
4946.293021,283.455000,2.303241
4953.385847,283.512000,0.770833
4960.351460,283.568000,1.080247
4967.438635,283.625000,-2.668981
4974.398699,283.681000,-1.365741
4981.480229,283.738000,-2.233025
4988.434752,283.794000,-4.206790
4995.510644,283.851000,-3.715278
5002.459631,283.907000,-2.891204
5009.529893,283.964000,-3.979167
5016.473351,284.020000,-1.759259
5023.537988,284.077000,1.157407
5030.475924,284.133000,0.039352
5037.534943,284.190000,-1.524691
5044.467363,284.246000,-1.908951
5051.397052,284.302000,-7.149691
5058.447683,284.359000,-3.833333
5065.371866,284.415000,1.946759
5072.416896,284.472000,0.871914
5079.335580,284.528000,0.164352
5086.251541,284.584000,-1.473765
5093.288207,284.641000,-0.103395
5100.198678,284.697000,-0.230710
5107.106432,284.753000,-0.291667
5114.134748,284.810000,2.382716
5121.037022,284.866000,0.837963
5127.936582,284.922000,-0.638889
5134.833431,284.978000,-2.114969
5141.850655,285.035000,1.135802
5148.742037,285.091000,1.472994
5155.630712,285.147000,0.954475
5162.516682,285.203000,0.658179
5169.522840,285.260000,7.351080
5176.403356,285.316000,11.775463
5183.281172,285.372000,-2.705247
5190.156289,285.428000,1.435185
5197.028709,285.484000,1.614198
5204.021082,285.541000,0.518519
5210.888064,285.597000,-0.146605
5217.752353,285.653000,2.111883
5224.613952,285.709000,1.557870
5231.472862,285.765000,1.656636
5238.329083,285.821000,2.304012
5245.182619,285.877000,-0.865741
5252.033470,285.933000,-0.092593
5258.881638,285.989000,1.133488
5265.727125,286.045000,-0.207562
5272.569932,286.101000,1.416667
5279.532182,286.158000,-1.304012
5286.369586,286.214000,-0.399691
5293.204315,286.270000,-0.081790
5300.036371,286.326000,-0.794753
5306.865755,286.382000,1.003858
5313.692468,286.438000,0.888117
5320.516513,286.494000,-0.895062
5327.216104,286.549000,-0.187500
5334.034863,286.605000,0.081790
5340.850958,286.661000,-0.233796
5347.664391,286.717000,0.261574
5354.475163,286.773000,1.234568
5361.283275,286.829000,2.048611
5368.088729,286.885000,1.926698
5374.891528,286.941000,1.766204
5381.691671,286.997000,3.494599
5388.489161,287.053000,-1.202160
5395.162686,287.108000,-2.537809
5401.954922,287.164000,-2.781636
5408.744509,287.220000,2.712191
5415.531448,287.276000,0.662037
5422.315743,287.332000,-3.880401
5428.976316,287.387000,-2.037809
5435.755371,287.443000,0.786265
5442.531785,287.499000,2.388117
5449.305560,287.555000,1.880401
5456.076697,287.611000,13.233025
5462.724355,287.666000,3.149691
5469.490268,287.722000,3.039352
5476.253548,287.778000,0.638889
5482.893494,287.833000,1.040895
5489.651559,287.889000,1.487654
5496.406995,287.945000,1.166667
5503.039242,288.000000,0.743056
5509.789473,288.056000,-0.262346
5516.537079,288.112000,1.429012
5523.161640,288.167000,-1.418981
5529.904050,288.223000,0.378858
5536.643840,288.279000,1.306327
5543.260729,288.334000,0.731481
5549.995332,288.390000,6.425926
5556.607128,288.445000,-1.052469
5563.336549,288.501000,7.724537
5569.943259,288.556000,1.226080
5576.667504,288.612000,1.172068
5583.269134,288.667000,-0.984568
5589.988209,288.723000,3.717593
5596.584764,288.778000,0.722222
5603.298676,288.834000,1.500772
5609.890162,288.889000,1.979167
5616.598916,288.945000,-0.024691
5623.185340,289.000000,3.121142
5629.888941,289.056000,3.527778
5636.470308,289.111000,1.911265
5643.168763,289.167000,-1.738426
5649.745079,289.222000,0.764660
5656.438394,289.278000,1.125772
5663.009664,289.333000,0.138889
5669.578437,289.388000,1.239969
5676.264076,289.444000,-0.014660
5682.827812,289.499000,0.796296
5689.389054,289.554000,1.973765
5696.067030,289.610000,-0.660494
5702.623244,289.665000,2.023920
5709.176969,289.720000,1.370370
5715.847296,289.776000,2.105710
5722.396001,289.831000,-1.292438
5728.942221,289.886000,-0.842593
5735.485958,289.941000,1.154321
5742.146122,289.997000,-0.414352
5748.684850,290.052000,0.820216
5755.221100,290.107000,0.768519
5761.754871,290.162000,1.464506
5768.404894,290.218000,-0.446759
5774.933669,290.273000,-1.035494
5781.459971,290.328000,0.723765
5787.983800,290.383000,-0.480710
5794.505158,290.438000,0.003858
5801.142550,290.494000,-0.537037
5807.658926,290.549000,0.152778
5814.172835,290.604000,4.219907
5820.684279,290.659000,0.687500
5827.193260,290.714000,7.418210
5833.699778,290.769000,2.211420
5840.203835,290.824000,0.462191
5846.705432,290.879000,0.095679
5853.204572,290.934000,0.405864
5859.701254,290.989000,0.031636
5866.195481,291.044000,2.368056
5872.687254,291.099000,-0.652778
5879.176574,291.154000,-2.038580
5885.663444,291.209000,-0.067130
5892.147863,291.264000,1.172840
5898.629834,291.319000,0.645062
5905.109357,291.374000,-1.138117
5911.586435,291.429000,1.809414
5918.061069,291.484000,0.635031
5924.533260,291.539000,0.554012
5931.003009,291.594000,-1.122685
5937.470318,291.649000,1.419753
5943.935188,291.704000,1.645062
5950.397621,291.759000,1.233025
5956.857618,291.814000,0.428241
5963.315180,291.869000,0.479167
5969.770309,291.924000,-1.043981
5976.105706,291.978000,2.743056
5982.556017,292.033000,1.530864
5989.003898,292.088000,0.216821
5995.449352,292.143000,0.737654
6001.892379,292.198000,3.522377
6008.215901,292.252000,-0.606481
6014.654123,292.307000,-1.071759
6021.089923,292.362000,1.888117
6027.523303,292.417000,4.607253
6033.954262,292.472000,0.061728
6040.265942,292.526000,1.030864
6046.692111,292.581000,-0.953704
6053.115864,292.636000,1.410494
6059.420472,292.690000,-0.130401
6065.839442,292.745000,2.215278
6072.256000,292.800000,1.567130
6078.553548,292.854000,0.864969
6084.965331,292.909000,-0.628858
6091.374707,292.964000,0.521605
6097.665207,293.018000,0.158951
6104.069816,293.073000,1.823302
6110.472021,293.128000,-0.176698
6116.755485,293.182000,1.731481
6123.152931,293.237000,1.332562
6129.431725,293.291000,1.444444
6135.824417,293.346000,1.992284
6142.098547,293.400000,2.351852
6148.486490,293.455000,1.313272
6154.872040,293.510000,0.733025
6161.139160,293.564000,-30.226852
6167.519969,293.619000,-44.876543
6173.782438,293.673000,-47.153549
6180.158512,293.728000,-0.896605
6186.416334,293.782000,-3.280093
6192.787678,293.837000,-8.277006
6199.040859,293.891000,1.500772
6205.291742,293.945000,0.303241
6211.656022,294.000000,0.378858
6217.902272,294.054000,1.113426
6224.261835,294.109000,0.772377
6230.503456,294.163000,2.675154
6236.742786,294.217000,0.994599
6243.095305,294.272000,-0.963735
6249.330014,294.326000,-2.001543
6255.677829,294.381000,1.346451
6261.907923,294.435000,1.205247
6268.135731,294.489000,1.245370
6274.476522,294.544000,1.416667
6280.699722,294.598000,4.138117
6286.920642,294.652000,1.734568
6293.139281,294.706000,2.160494
6299.470739,294.761000,-0.045525
6305.684781,294.815000,-2.942130
6311.896546,294.869000,-39.097222
6318.106037,294.923000,-45.343364
6324.428182,294.978000,-47.196759
6330.633085,295.032000,-5.540895
6336.835717,295.086000,-7.676698
6343.036080,295.140000,-2.601080
6349.234174,295.194000,-4.380401
6355.544717,295.249000,-3.018519
6361.738236,295.303000,-33.583333
6367.929490,295.357000,-10.312500
6374.118480,295.411000,0.260031
6380.305209,295.465000,1.852623
6386.489676,295.519000,0.300154
6392.671884,295.573000,1.188272
6398.851833,295.627000,-0.974537
6405.143905,295.682000,-0.271605
6411.319300,295.736000,0.357253
6417.492439,295.790000,2.172068
6423.663325,295.844000,2.524691
6429.831958,295.898000,1.540895
6435.998340,295.952000,-0.434414
6442.162473,296.006000,-0.813272
6448.324357,296.060000,2.456019
6454.483993,296.114000,2.679784
6460.641384,296.168000,3.327160
6466.796529,296.222000,1.152006
6472.949431,296.276000,0.014660
6479.100090,296.330000,0.814815
6485.248508,296.384000,3.250000
6491.280888,296.437000,5.837191
6497.424869,296.491000,0.469907
6503.566612,296.545000,1.441358
6509.706118,296.599000,1.527778
6515.843390,296.653000,0.908179
6521.978427,296.707000,2.653549
6528.111232,296.761000,0.860340
6534.241805,296.815000,8.164352
6540.256681,296.868000,31.914352
6546.382836,296.922000,8.510802
6552.506763,296.976000,1.428241
6558.628464,297.030000,1.179012
6564.747939,297.084000,0.954475
6570.751928,297.137000,-0.647377
6576.866997,297.191000,0.918981
6582.979845,297.245000,0.055556
6589.090471,297.299000,2.224537
6595.085780,297.352000,2.942901
6601.192010,297.406000,3.279321
6607.296023,297.460000,1.614969
6613.397821,297.514000,-0.091821
6619.384468,297.567000,-0.699074
6625.481879,297.621000,2.064815
6631.577077,297.675000,0.746914
6637.557251,297.728000,5.092593
6643.648069,297.782000,3.612654
6649.623947,297.835000,0.780864
6655.710390,297.889000,-0.939043
6661.794627,297.943000,0.683642
6667.764048,297.996000,-2.624228
6673.843917,298.050000,-0.768519
6679.809053,298.103000,0.191358
6685.884559,298.157000,1.922068
6691.957864,298.211000,0.522377
6697.916562,298.264000,1.263117
6703.985510,298.318000,-2.881944
6709.939935,298.371000,-0.553241
6716.004532,298.425000,-2.699846
6721.954688,298.478000,-0.868827
6728.014938,298.532000,2.427469
6733.960830,298.585000,-0.702160
6739.904611,298.638000,-18.663580
6745.958369,298.692000,-0.173611
6751.897893,298.745000,1.486111
6757.947317,298.799000,1.146605
6763.882588,298.852000,9.404321
6769.927680,298.906000,2.553241
6775.858703,298.959000,2.815586
6781.787624,299.012000,18.159722
6787.826249,299.066000,12.325617
6793.750928,299.119000,5.585648
6799.673508,299.172000,1.166667
6805.705677,299.226000,1.219907
6811.624022,299.279000,0.234568
6817.540272,299.332000,-3.171296
6823.565994,299.386000,-4.845679
6829.478016,299.439000,-2.095679
6835.387945,299.492000,0.589506
6841.407231,299.546000,-0.496142
6847.312940,299.599000,-0.199074
6853.216559,299.652000,1.635802
6859.118090,299.705000,2.131173
6865.017534,299.758000,1.391204
6871.026143,299.812000,1.440586
6876.921378,299.865000,3.253858
6882.814529,299.918000,-1.047840
6888.705597,299.971000,1.027778
6894.594584,300.024000,1.511574
6900.592545,300.078000,0.867284
6906.477333,300.131000,1.550926
6912.360044,300.184000,0.751543
6918.240677,300.237000,1.859568
6924.119235,300.290000,-0.439043
6929.995718,300.343000,3.014660
6935.870127,300.396000,1.923611
6941.742464,300.449000,1.902006
6947.612730,300.502000,2.804012
6953.480925,300.555000,2.865741
6959.347051,300.608000,5.594136
6965.211108,300.661000,11.116512
6971.073099,300.714000,2.797068
6976.933024,300.767000,1.945988
6982.790884,300.820000,1.144290
6988.646680,300.873000,-0.620370
6994.500413,300.926000,0.641204
7000.352085,300.979000,0.560185
7006.201696,301.032000,0.195988
7012.049248,301.085000,0.357253
7017.894742,301.138000,1.496914
7023.738178,301.191000,2.531636
7029.579559,301.244000,-0.870370
7035.418884,301.297000,1.673611
7041.256155,301.350000,1.249228
7047.091373,301.403000,1.621142
7052.924539,301.456000,2.858025
7058.645653,301.508000,-1.087191
7064.474758,301.561000,-3.448302
7070.301814,301.614000,1.306327
7076.126822,301.667000,0.978395
7081.949784,301.720000,2.726080
7087.660892,301.772000,1.635802
7093.479803,301.825000,-0.127315
7099.296670,301.878000,1.091821
7105.111496,301.931000,0.507716
7110.814624,301.983000,2.827932
7116.625408,302.036000,7.143519
7122.434152,302.089000,3.469136
7128.240858,302.142000,1.851080
7133.936024,302.194000,1.769290
7139.738696,302.247000,1.233796
7145.539334,302.300000,1.365741
7151.228549,302.352000,2.121914
7157.025159,302.405000,2.258488
7162.819737,302.458000,2.074846
7168.503010,302.510000,1.577160
7174.293567,302.563000,1.962191
7180.082095,302.616000,0.572531
7185.759436,302.668000,0.498457
7191.543949,302.721000,1.165123
7197.217352,302.773000,1.726852
7202.997854,302.826000,9.625000
7208.667324,302.878000,2.013117
7214.443819,302.931000,4.300154
7220.109360,302.983000,7.320988
7225.881853,303.036000,7.184414
7231.543468,303.088000,9.431327
7237.311962,303.141000,6.032407
7242.969657,303.193000,2.716049
7248.734156,303.246000,1.209877
7254.387934,303.298000,0.963735
7260.148443,303.351000,1.789352
7265.798308,303.403000,1.852623
7271.554831,303.456000,1.503086
7277.200787,303.508000,0.821759
7282.953328,303.561000,-0.736883
7288.595379,303.613000,2.137346
7294.235498,303.665000,6.228395
7299.982093,303.718000,2.963735
7305.618313,303.770000,1.137346
7311.252604,303.822000,3.334877
7316.993262,303.875000,1.669753
7322.623660,303.927000,2.444444
7328.252131,303.979000,1.378086
7333.986862,304.032000,0.075617
7339.611446,304.084000,1.567130
7345.234108,304.136000,0.475309
7350.962920,304.189000,-2.007716
7356.581700,304.241000,-1.999228
7362.198561,304.293000,-1.273920
7367.813502,304.345000,0.180556
7373.426525,304.397000,-1.447531
7379.145517,304.450000,-0.899691
7384.754669,304.502000,-1.767747
7390.361906,304.554000,-0.288580
7395.967228,304.606000,2.608796
7401.570637,304.658000,-0.320988
7407.279836,304.711000,1.152006
7412.879384,304.763000,2.243056
7418.477021,304.815000,2.477623
7424.072749,304.867000,2.361111
7429.666569,304.919000,1.590278
7435.258480,304.971000,1.768519
7440.848486,305.023000,1.828704
7446.436585,305.075000,-2.763889
7452.022780,305.127000,-6.347994
7457.607071,305.179000,-12.034722
7463.296795,305.232000,-2.986111
7468.877245,305.284000,-0.810185
7474.455794,305.336000,-0.624228
7480.032444,305.388000,1.422840
7485.607195,305.440000,2.311728
7491.180048,305.492000,1.151235
7496.751004,305.544000,3.630401
7502.212985,305.595000,5.417438
7507.780187,305.647000,4.113426
7513.345495,305.699000,2.114969
7518.908909,305.751000,2.040895
7524.470432,305.803000,3.413580
7530.030064,305.855000,-3.903549
7535.587805,305.907000,-2.580247
7541.143658,305.959000,0.403549
7546.697622,306.011000,5.905093
7552.249699,306.063000,10.452932
7557.693173,306.114000,1.760802
7563.241514,306.166000,3.494599
7568.787971,306.218000,2.460648
7574.332545,306.270000,3.574074
7579.875237,306.322000,2.609568
7585.416047,306.374000,2.449074
7590.848476,306.425000,2.400463
7596.385562,306.477000,2.797840
7601.920769,306.529000,2.655864
7607.454098,306.581000,2.381944
7612.879195,306.632000,1.187500
7618.408808,306.684000,3.799383
7623.936546,306.736000,2.673611
7629.462411,306.788000,1.287809
7634.880189,306.839000,0.309414
7640.402345,306.891000,-2.013889
7645.922629,306.943000,0.747685
7651.334938,306.994000,-5.994599
7656.851519,307.046000,-1.687500
7662.260197,307.097000,0.876543
7667.773079,307.149000,1.239969
7673.284094,307.201000,2.199074
7678.687317,307.252000,-0.242284
7684.194638,307.304000,-5.947531
7689.700096,307.356000,-0.569444
7695.097870,307.407000,-1.982253
7700.599639,307.459000,0.603395
7705.993798,307.510000,-1.868056
7711.491883,307.562000,0.742284
7716.882430,307.613000,-3.339506
7722.376833,307.665000,-0.121914
7727.763772,307.716000,1.169753
7733.254498,307.768000,-6.672840
7738.637831,307.819000,2.052469
7744.124884,307.871000,2.212191
7749.504617,307.922000,2.087963
7754.988000,307.974000,1.050926
7760.364134,308.025000,2.418981
7765.738489,308.076000,1.405864
7771.216392,308.128000,1.074074
7776.587155,308.179000,-1.574074
7782.061397,308.231000,1.581790
7787.428571,308.282000,1.564815
7792.793970,308.333000,5.371142
7798.262745,308.385000,5.191358
7803.624561,308.436000,4.680556
7808.984603,308.487000,4.074074
7814.447920,308.539000,2.539352
7819.804385,308.590000,-6.013117
7825.159080,308.641000,3.152006
7830.616947,308.693000,11.931327
7835.968069,308.744000,19.080247
7841.317424,308.795000,5.130401
7846.665012,308.846000,16.713735
7852.115636,308.898000,8.190586
7857.459659,308.949000,2.554784
7862.801917,309.000000,4.419753
7868.142413,309.051000,4.066358
7873.481146,309.102000,4.389660
7878.922746,309.154000,4.287809
7884.257923,309.205000,4.128086
7889.591340,309.256000,11.204475
7894.922998,309.307000,12.261574
7900.252898,309.358000,3.429012
7905.581041,309.409000,0.702932
7910.907428,309.460000,2.503858
7916.336447,309.512000,2.166667
7921.659290,309.563000,1.790123
7926.980379,309.614000,1.105710
7932.299715,309.665000,2.901235
7937.617300,309.716000,-1.154321
7942.933134,309.767000,-0.510031
7948.247217,309.818000,1.718364
7953.559551,309.869000,-3.347994
7958.870137,309.920000,-0.015432
7964.178976,309.971000,2.570216
7969.486068,310.022000,1.679784
7974.791414,310.073000,9.266975
7980.095015,310.124000,7.828704
7985.396872,310.175000,1.634259
7990.696985,310.226000,1.935185
7995.995357,310.277000,2.029321
8001.291987,310.328000,4.466049
8006.586876,310.379000,4.229167
8011.880026,310.430000,3.118827
8017.067700,310.480000,3.722222
8022.357406,310.531000,1.743827
8027.645376,310.582000,0.710648
8032.931609,310.633000,1.165895
8038.216106,310.684000,2.157407
8043.498869,310.735000,2.168210
8048.779898,310.786000,3.830247
8053.955695,310.836000,3.671296
8059.233293,310.887000,2.993827
8064.509160,310.938000,3.179784
8069.783296,310.989000,1.077160
8074.952339,311.039000,3.067130
8080.223051,311.090000,1.864969
8085.492035,311.141000,1.841821
8090.759292,311.192000,3.192130
8095.921594,311.242000,17.482253
8101.185433,311.293000,2.210648
8106.447548,311.344000,2.557870
8111.604811,311.394000,3.239198
8116.863513,311.445000,0.903549
8122.120493,311.496000,0.801698
8127.272724,311.546000,5.834877
8132.526297,311.597000,5.794753
8137.778150,311.648000,1.162809
8142.925357,311.698000,-0.137346
8148.173807,311.749000,2.582562
8153.420541,311.800000,2.381944
8158.562731,311.850000,1.733796
8163.806066,311.901000,-12.980710
8168.944927,311.951000,-3.760031
8174.184869,312.002000,-16.797840
8179.320403,312.052000,2.791667
8184.556953,312.103000,3.744599
8189.689165,312.153000,1.989969
8194.922327,312.204000,-1.956790
8200.051219,312.254000,1.440586
8205.280996,312.305000,3.197531
8210.406572,312.355000,2.415123
8215.632968,312.406000,1.372685
8220.755230,312.456000,1.759259
8225.978248,312.507000,3.370370
8231.097200,312.557000,0.052469
8236.316843,312.608000,0.929784
8241.432488,312.658000,2.969907
8246.546497,312.708000,-0.863426
8251.761101,312.759000,-5.726080
8256.871808,312.809000,-4.956790
8261.980881,312.859000,-1.869599
8267.190453,312.910000,-2.236111
8272.296229,312.960000,-4.793981
8277.400373,313.010000,-3.451389
8282.604921,313.061000,-0.119599
8287.705773,313.111000,-0.449846
8292.804996,313.161000,-0.092593
8298.004526,313.212000,2.159722
8303.100462,313.262000,0.967593
8308.194770,313.312000,2.696759
8313.287453,313.362000,1.408179
8318.480316,313.413000,3.357253
8323.569717,313.463000,3.489198
8328.657496,313.513000,4.147377
8333.743651,313.563000,0.458333
8338.828185,313.613000,5.233796
8344.012739,313.664000,1.888889
8349.094000,313.714000,3.200617
8354.173640,313.764000,2.227623
8359.251662,313.814000,0.718364
8364.328066,313.864000,3.566358
8369.402853,313.914000,7.439815
8374.476024,313.964000,-0.837191
8379.547579,314.014000,3.444444
8384.718901,314.065000,1.472994
8389.787195,314.115000,2.956019
8394.853876,314.165000,2.722222
8399.918944,314.215000,1.120370
8404.982400,314.265000,1.147377
8410.044246,314.315000,2.621914
8415.104481,314.365000,2.900463
8420.163107,314.415000,1.882716
8425.220124,314.465000,1.358025
8430.275533,314.515000,3.344136
8435.329336,314.565000,2.540123
8440.381532,314.615000,2.375000
8445.432122,314.665000,10.464506
8450.481107,314.715000,6.797840
8455.528489,314.765000,3.699074
8460.473367,314.814000,2.301698
8465.517575,314.864000,3.033179
8470.560181,314.914000,1.913580
8475.601186,314.964000,2.643519
8480.640590,315.014000,2.202160
8485.678395,315.064000,3.227623
8490.714602,315.114000,0.087191
8495.749210,315.164000,0.594907
8500.681577,315.213000,1.754630
8505.713024,315.263000,0.357253
8510.742875,315.313000,2.460648
8515.771131,315.363000,0.815586
8520.797793,315.413000,3.368056
8525.722375,315.462000,2.662809
8530.745883,315.512000,3.239969
8535.767799,315.562000,3.852623
8540.788124,315.612000,3.854938
8545.706499,315.661000,10.888889
8550.723675,315.711000,6.750772
8555.739262,315.761000,1.996914
8560.652997,315.810000,1.958333
8565.665441,315.860000,4.149691
8570.676298,315.910000,0.532407
8575.585399,315.959000,0.410494
8580.593116,316.009000,-1.844136
8585.599249,316.059000,4.148920
8590.503723,316.108000,1.235340
8595.506721,316.158000,0.964506
8600.508137,316.208000,2.479167
8605.407991,316.257000,1.684414
8610.406276,316.307000,-1.575617
8615.303063,316.356000,3.300926
8620.298221,316.406000,0.760031
8625.191944,316.455000,1.566358
8630.183977,316.505000,0.317130
8635.074640,316.554000,5.599537
8640.063551,316.604000,7.182099
8644.951156,316.653000,-0.122685
8649.936949,316.703000,-0.232253
8654.821499,316.752000,0.008488
8659.804175,316.802000,2.054784
8664.685673,316.851000,2.910494
8669.665237,316.901000,1.847222
8674.543685,316.950000,3.381173
8679.520139,317.000000,3.430556
8684.395541,317.049000,2.123457
8689.269436,317.098000,0.893519
8694.241247,317.148000,3.430556
8699.112100,317.197000,6.679784
8703.981448,317.246000,4.625000
8708.948621,317.296000,3.648148
8713.814931,317.345000,1.957562
8718.779005,317.395000,3.572531
8723.642281,317.444000,2.262346
8728.504055,317.493000,2.686728
8733.364329,317.542000,2.602623
8738.322247,317.592000,3.077160
8743.179491,317.641000,3.808642
8748.035237,317.690000,2.966049
8752.889486,317.739000,1.030093
8757.841258,317.789000,3.321759
8762.692483,317.838000,1.153549
8767.542212,317.887000,3.040123
8772.390446,317.936000,3.585648
8777.336084,317.986000,6.743056
8782.181300,318.035000,4.996142
8787.025024,318.084000,5.858025
8791.867255,318.133000,2.989198
8796.707995,318.182000,1.391204
8801.547244,318.231000,2.364198
8806.385003,318.280000,2.083333
8811.319957,318.330000,4.566358
8816.154708,318.379000,3.835648
8820.987971,318.428000,3.078704
8825.819746,318.477000,2.417438
8830.650035,318.526000,2.548611
8835.478838,318.575000,3.345679
8840.306156,318.624000,3.007716
8845.131990,318.673000,3.194444
8849.956339,318.722000,3.859568
8854.779206,318.771000,3.185957
8859.600590,318.820000,0.652778
8864.420492,318.869000,0.510031
8869.238913,318.918000,-0.439043
8874.055854,318.967000,0.945988
8878.871314,319.016000,6.093364
8883.685296,319.065000,6.794753
8888.497800,319.114000,5.396605
8893.308826,319.163000,6.150463
8898.118374,319.212000,6.356481
8902.926447,319.261000,3.931327
8907.634964,319.309000,0.476080
8912.440116,319.358000,-0.891975
8917.243794,319.407000,0.432870
8922.045998,319.456000,12.831019
8926.846729,319.505000,15.291667
8931.645988,319.554000,-1.839506
8936.443775,319.603000,-5.320216
8941.142222,319.651000,-1.631944
8945.937098,319.700000,3.584105
8950.730504,319.749000,1.628858
8955.522441,319.798000,-0.288580
8960.215161,319.846000,1.975309
8965.004192,319.895000,1.828704
8969.791757,319.944000,2.360340
8974.577855,319.993000,4.116512
8979.264858,320.041000,3.007716
8984.048055,320.090000,1.898148
8988.829789,320.139000,3.966049
8993.512517,320.187000,18.337963
8998.291355,320.236000,7.887346
9003.068730,320.285000,0.745370
9007.747190,320.333000,-3.150463
9012.521672,320.382000,2.750000
9017.294694,320.431000,5.744599
9021.968893,320.479000,2.773148
9026.739026,320.528000,1.195988
9031.410396,320.576000,-7.512346
9036.177644,320.625000,0.378086
9040.943434,320.674000,1.087963
9045.610552,320.722000,1.078704
9050.373460,320.771000,-15.219907
9055.037756,320.819000,0.440586
9059.797784,320.868000,-0.891975
9064.459261,320.916000,2.513117
9069.216413,320.965000,-0.158951
9073.875072,321.013000,1.182099
9078.629350,321.062000,1.667438
9083.285194,321.110000,2.664352
9088.036601,321.159000,3.551698
9092.689634,321.207000,3.187500
9097.438171,321.256000,1.700617
9102.088394,321.304000,3.810957
9106.737229,321.352000,-6.962963
9111.481482,321.401000,0.993827
9116.127511,321.449000,-17.559414
9120.868902,321.498000,-3.388889
9125.512128,321.546000,3.917438
9130.153968,321.594000,4.341049
9134.891085,321.643000,2.373457
9139.530126,321.691000,6.303241
9144.167783,321.739000,2.500000
9148.900630,321.788000,5.970679
9153.535492,321.836000,3.958333
9158.168971,321.884000,1.802469
9162.801069,321.932000,2.614198
9167.528244,321.981000,3.376543
9172.157551,322.029000,-0.638117
9176.785479,322.077000,1.304012
9181.412027,322.125000,-8.439043
9186.133540,322.174000,-2.551698
9190.757302,322.222000,1.461420
9195.379688,322.270000,1.275463
9200.000697,322.318000,1.540895
9204.620330,322.366000,0.996142
9209.334786,322.415000,4.043210
9213.951640,322.463000,1.965278
9218.567119,322.511000,2.538580
9223.181225,322.559000,0.976852
9227.793957,322.607000,5.293981
9232.405318,322.655000,2.374228
9237.015306,322.703000,1.867284
9241.623923,322.751000,3.257716
9246.231170,322.799000,1.141975
9250.932988,322.848000,4.347222
9255.537466,322.896000,3.159722
9260.140576,322.944000,0.239198
9264.742318,322.992000,1.347994
9269.342693,323.040000,2.790123
9273.941700,323.088000,1.591821
9278.539341,323.136000,2.574846
9283.135616,323.184000,3.195988
9287.730527,323.232000,1.387346
9292.324072,323.280000,0.501543
9296.916254,323.328000,2.619599
9301.411445,323.375000,0.746914
9306.000929,323.423000,1.243827
9310.589052,323.471000,3.027778
9315.175812,323.519000,2.942901
9319.761212,323.567000,6.095679
9324.345252,323.615000,0.682099
9328.927932,323.663000,-0.327932
9333.509253,323.711000,-1.368056
9338.089216,323.759000,5.963735
9342.572447,323.806000,3.004630
9347.149722,323.854000,-10.035494
9351.725642,323.902000,-2.358796
9356.300205,323.950000,11.651235
9360.873412,323.998000,5.933642
9365.350032,324.045000,2.344136
9369.920559,324.093000,-0.545525
9374.489732,324.141000,-0.976080
9379.057552,324.189000,5.619599
9383.528899,324.236000,3.334877
9388.094043,324.284000,1.417438
9392.657836,324.332000,2.432099
9397.125241,324.379000,1.729938
9401.686361,324.427000,-1.633488
9406.246132,324.475000,2.618827
9410.804554,324.523000,1.138117
9415.266702,324.570000,4.107253
9419.822456,324.618000,-1.242284
9424.281993,324.665000,-1.657407
9428.835082,324.713000,-2.615741
9433.386824,324.761000,-0.291667
9437.842435,324.808000,-1.163580
9442.391516,324.856000,1.598765
9446.844521,324.903000,0.726852
9451.390942,324.951000,2.195216
9455.936020,324.999000,2.916667
9460.385108,325.046000,0.062500
9464.927530,325.094000,3.381173
9469.374018,325.141000,2.976852
9473.913786,325.189000,3.847222
9478.357677,325.236000,3.183642
9482.894794,325.284000,3.806327
9487.336090,325.331000,1.784722
9491.870557,325.379000,-4.823302
9496.309260,325.426000,1.964506
9500.746681,325.473000,3.817901
9505.277193,325.521000,3.296296
9509.712024,325.568000,3.574074
9514.239893,325.616000,3.557099
9518.672137,325.663000,5.955247
9523.103102,325.710000,4.957562
9527.627024,325.758000,2.784722
9532.055405,325.805000,3.293981
9536.576689,325.853000,2.509259
9541.002489,325.900000,2.842593
9545.427013,325.947000,0.211420
9549.850260,325.994000,2.564043
9554.366303,326.042000,3.625772
9558.786974,326.089000,6.763889
9563.206371,326.136000,2.114969
9567.718482,326.184000,4.055556
9572.135305,326.231000,4.326389
9576.550855,326.278000,-0.531636
9580.965134,326.325000,0.104938
9585.472021,326.373000,-0.433642
9589.883730,326.420000,5.493056
9594.294169,326.467000,2.611111
9598.703338,326.514000,-0.775463
9603.111238,326.561000,-0.401235
9607.611614,326.609000,1.121142
9612.016950,326.656000,3.928241
9616.421019,326.703000,2.819444
9620.823821,326.750000,3.398920
9625.225356,326.797000,5.762346
9629.625626,326.844000,-0.987654
9634.024630,326.891000,3.057870
9638.422369,326.938000,2.124228
9642.818845,326.985000,4.489969
9647.214056,327.032000,5.303241
9651.701479,327.080000,3.986883
9656.094138,327.127000,3.208333
9660.485535,327.174000,7.178241
9664.875670,327.221000,11.104938
9669.264544,327.268000,4.801698
9673.652158,327.315000,3.408951
9678.038512,327.362000,4.783179
9682.423607,327.409000,2.120370
9686.807443,327.456000,0.400463
9691.190021,327.503000,1.184414
9695.478134,327.549000,2.730710
9699.858224,327.596000,2.485340
9704.237057,327.643000,1.654321
9708.614633,327.690000,3.588735
9712.990955,327.737000,1.125000
9717.366021,327.784000,-3.447531
9721.739833,327.831000,-0.387346
9726.112390,327.878000,3.917438
9730.483695,327.925000,4.872685
9734.760780,327.971000,4.449074
9739.129606,328.018000,5.087191
9743.497180,328.065000,3.031636
9747.863503,328.112000,2.417438
9752.228575,328.159000,3.521605
9756.499562,328.205000,3.130401
9760.862161,328.252000,2.055556
9765.223511,328.299000,1.878086
9769.583612,328.346000,2.621914
9773.849737,328.392000,1.331019
9778.207369,328.439000,2.696759
9782.563754,328.486000,4.668210
9786.918893,328.533000,17.112654
9791.180163,328.579000,21.505401
9795.532837,328.626000,18.822531
9799.884266,328.673000,24.532407
9804.141906,328.719000,26.080247
9808.490874,328.766000,7.324846
9812.838598,328.813000,1.881944
9817.092614,328.859000,-4.993827
9821.437879,328.906000,-1.816358
9825.689490,328.952000,2.262346
9830.032299,328.999000,2.259259
9834.373868,329.046000,2.973765
9838.621862,329.092000,3.437500
9842.960977,329.139000,3.597994
9847.206571,329.185000,2.878086
9851.543235,329.232000,2.810957
9855.786431,329.278000,2.896605
9860.120646,329.325000,2.557099
9864.361446,329.371000,-3.958333
9868.693214,329.418000,-1.711420
9872.931619,329.464000,-0.672068
9877.260942,329.511000,1.955247
9881.496956,329.557000,0.977623
9885.823836,329.604000,0.675154
9890.057460,329.650000,-6.729938
9894.289903,329.696000,2.041667
9898.613135,329.743000,2.984568
9902.843191,329.789000,1.472994
9907.163985,329.836000,3.245370
9911.391656,329.882000,0.759259
9915.618148,329.928000,2.677469
9919.935303,329.975000,1.466821
9924.159413,330.021000,3.783179
9928.382346,330.067000,8.432099
9932.695866,330.114000,11.788580
9936.916419,330.160000,11.271605
9941.135797,330.206000,17.051698
9945.445687,330.253000,12.639660
9949.662689,330.299000,14.701389
9953.878516,330.345000,8.313272
9958.093170,330.391000,2.571759
9962.398234,330.438000,2.555556
9966.610516,330.484000,1.381944
9970.821625,330.530000,2.482253
9975.031562,330.576000,2.530864
9979.240328,330.622000,4.513889
9983.539380,330.669000,5.658179
9987.745778,330.715000,3.378858
9991.951007,330.761000,3.918210
9996.155067,330.807000,0.429784
10000.357957,330.853000,2.266975
10004.559679,330.899000,3.794753
10008.760233,330.945000,0.667438
10013.050897,330.992000,4.124228
10017.249091,331.038000,5.908179
10021.446118,331.084000,3.114969
10025.641979,331.130000,3.321759
10029.836675,331.176000,3.410494
10034.030205,331.222000,3.012346
10038.222571,331.268000,3.158951
10042.413773,331.314000,5.432099
10046.603811,331.360000,2.510031
10050.792686,331.406000,2.336420
10054.980398,331.452000,3.054784
10059.166948,331.498000,4.663580
10063.352336,331.544000,10.741512
10067.536563,331.590000,33.322531
10071.719629,331.636000,17.547840
10075.901535,331.682000,2.878858
10080.082281,331.728000,2.461420
10084.261868,331.774000,4.299383
10088.440296,331.820000,3.608796
10092.526768,331.865000,3.503858
10096.702905,331.911000,3.682099
10100.877884,331.957000,2.794753
10105.051707,332.003000,2.801698
10109.224373,332.049000,-0.944444
10113.395884,332.095000,-1.249228
10117.475591,332.140000,6.516975
10121.644816,332.186000,1.249228
10125.812886,332.232000,2.402778
10129.979802,332.278000,1.033179
10134.145565,332.324000,3.076389
10138.219652,332.369000,4.883488
10142.383134,332.415000,3.966049
10146.545464,332.461000,1.420525
10150.706643,332.507000,-0.533951
10154.776247,332.552000,1.690586
10158.935148,332.598000,0.558642
10163.092900,332.644000,-0.860340
10167.159152,332.689000,1.375000
10171.314630,332.735000,-0.372685
10175.468958,332.781000,2.465278
10179.531864,332.826000,4.809414
10183.683921,332.872000,1.065586
10187.834831,332.918000,-1.126543
10191.894393,332.963000,5.657407
10196.043035,333.009000,6.236883
10200.190530,333.055000,3.773148
10204.246754,333.100000,1.175154
10208.391984,333.146000,-3.444444
10212.445992,333.191000,1.414352
10216.588958,333.237000,1.974537
10220.640753,333.282000,2.179012
10224.781457,333.328000,3.587191
10228.831039,333.373000,5.044753
10232.969483,333.419000,2.111111
10237.016856,333.464000,5.209877
10241.153042,333.510000,3.206019
10245.198206,333.555000,2.655864
10249.332135,333.601000,0.037809
10253.375094,333.646000,3.636574
10257.506768,333.692000,5.321759
10261.547522,333.737000,3.090278
10265.587186,333.782000,4.742284
10269.715494,333.828000,5.426698
10273.752956,333.873000,2.451389
10277.879015,333.919000,0.165895
10281.914277,333.964000,-3.418981
10285.948452,334.009000,-4.656636
10290.071151,334.055000,0.753086
10294.103128,334.100000,4.020062
10298.134020,334.145000,6.824846
10302.253364,334.191000,4.327932
10306.282060,334.236000,3.443673
10310.309672,334.281000,1.827160
10314.425666,334.327000,2.016204
10318.451085,334.372000,1.590278
10322.475422,334.417000,5.259259
10326.498675,334.462000,1.671296
10330.610215,334.508000,1.768519
10334.631280,334.553000,4.007716
10338.651263,334.598000,4.853395
10342.670165,334.643000,7.636574
10346.687987,334.688000,3.891975
10350.704728,334.733000,2.922840
10354.809614,334.779000,3.449074
10358.824172,334.824000,0.489198
10362.837651,334.869000,2.503858
10366.850051,334.914000,1.743056
10370.861373,334.959000,2.172068
10374.871618,335.004000,-6.692901
10378.880786,335.049000,0.638117
10382.888876,335.094000,1.832562
10386.984923,335.140000,0.711420
10390.990838,335.185000,-0.024691
10394.995677,335.230000,1.118827
10398.999440,335.275000,1.644290
10403.002130,335.320000,4.280093
10407.003745,335.365000,4.284722
10411.004286,335.410000,3.807099
10415.003755,335.455000,2.263889
10419.002150,335.500000,2.876543
10422.999473,335.545000,6.421296
10426.995723,335.590000,2.091049
10430.990902,335.635000,2.938272
10434.985010,335.680000,1.784722
10438.889325,335.724000,3.107253
10442.881316,335.769000,6.273920
10446.872237,335.814000,2.948302
10450.862088,335.859000,2.896605
10454.850871,335.904000,2.196759
10458.838585,335.949000,2.334105
10462.825230,335.994000,5.837191
10466.810808,336.039000,2.815586
10470.706786,336.083000,3.599537
10474.690253,336.128000,3.289352
10478.672654,336.173000,2.048611
10482.653989,336.218000,2.203704
10486.634259,336.263000,2.555556
10490.525048,336.307000,3.686728
10494.503211,336.352000,5.084105
10498.480310,336.397000,3.045525
10502.456345,336.442000,11.574846
10506.342995,336.486000,9.489969
10510.316927,336.531000,3.006173
10514.289797,336.576000,2.858025
10518.261604,336.621000,1.030864
10522.144122,336.665000,1.368827
10526.113830,336.710000,17.243056
10530.082477,336.755000,4.241512
10533.961906,336.799000,2.094907
10537.928455,336.844000,2.006944
10541.893946,336.889000,2.293210
10545.770289,336.933000,1.635031
10549.733685,336.978000,2.854938
10553.607982,337.022000,3.994599
10557.569284,337.067000,5.544753
10561.529529,337.112000,4.185957
10565.400747,337.156000,1.922068
10569.358902,337.201000,3.260031
10573.228076,337.245000,2.492284
10577.184142,337.290000,3.139660
10581.051275,337.334000,0.397377
10585.005254,337.379000,3.430556
10588.870347,337.423000,2.950617
10592.822240,337.468000,2.628858
10596.685295,337.512000,3.320216
10600.635105,337.557000,2.327932
10604.496123,337.601000,2.300926
10608.443850,337.646000,4.920525
10612.302834,337.690000,2.793210
10616.160811,337.734000,1.012346
10620.105430,337.779000,3.030864
10623.961375,337.823000,1.205247
10627.903916,337.868000,4.046296
10631.757830,337.912000,7.860340
10635.610740,337.956000,6.356481
10639.550179,338.001000,2.822531
10643.401061,338.045000,1.774691
10647.250940,338.089000,2.025463
10651.187281,338.134000,0.219136
10655.035134,338.178000,2.052469
10658.881986,338.222000,2.204475
10662.815231,338.267000,6.055556
10666.660059,338.311000,6.799383
10670.503887,338.355000,3.137346
10674.346716,338.399000,0.731481
10678.275848,338.444000,0.522377
10682.116656,338.488000,1.091049
10685.956465,338.532000,0.777778
10689.795276,338.576000,4.933642
10693.633090,338.620000,2.604938
10697.557096,338.665000,3.445216
10701.392893,338.709000,-0.155864
10705.227693,338.753000,1.251543
10709.061498,338.797000,0.277006
10712.894307,338.841000,-8.288580
10716.726120,338.885000,-4.487654
10720.556939,338.929000,-10.651235
10724.386763,338.973000,-8.648148
10728.302601,339.018000,-0.631173
10732.130414,339.062000,1.382716
10735.957235,339.106000,-0.171296
10739.783062,339.150000,1.297068
10743.607897,339.194000,-3.088735
10747.431740,339.238000,0.422840
10751.254591,339.282000,1.908179
10755.076450,339.326000,0.689043
10758.897319,339.370000,0.234568
10762.717197,339.414000,1.390432
10766.536084,339.458000,2.375000
10770.353982,339.502000,3.013117
10774.170890,339.546000,2.531636
10777.986809,339.590000,-0.061728
10781.801740,339.634000,0.219907
10785.615682,339.678000,2.513117
10789.341989,339.721000,-0.073302
10793.153978,339.765000,0.772377
10796.964980,339.809000,1.080247
10800.774995,339.853000,0.411265
10804.584024,339.897000,2.483796
10808.392066,339.941000,0.875772
10812.199123,339.985000,0.982253
10816.005195,340.029000,0.538580
10819.723813,340.072000,-8.682099
10823.527938,340.116000,-11.375772
10827.331078,340.160000,-0.999228
10831.133235,340.204000,0.711420
10834.848029,340.247000,1.685185
10838.648242,340.291000,0.039352
10842.447472,340.335000,0.592593
10846.245720,340.379000,-2.645062
10849.956695,340.422000,-1.875772
10853.753002,340.466000,0.584877
10857.548328,340.510000,0.480710
10861.342673,340.554000,0.374228
10865.049836,340.597000,1.559414
10868.842243,340.641000,1.160494
10872.633670,340.685000,0.729167
10876.337983,340.728000,3.060185
10880.127474,340.772000,1.302469
10883.829896,340.815000,1.780864
10887.617453,340.859000,-0.423611
10891.404033,340.903000,1.417438
10895.103609,340.946000,1.336420
10898.888257,340.990000,0.489969
10902.585946,341.033000,-1.783179
10906.368663,341.077000,-3.087963
10910.150404,341.121000,0.173611
10913.845254,341.164000,19.222994
10917.625066,341.208000,2.196759
10921.318033,341.251000,-0.114198
10925.095918,341.295000,1.893519
10928.787002,341.338000,-0.352623
10932.562962,341.382000,0.625000
10936.252165,341.425000,-0.557870
10939.940439,341.468000,0.726852
10943.713524,341.512000,2.989198
10947.399919,341.555000,2.371914
10951.171083,341.599000,0.186728
10954.855601,341.642000,-1.056327
10958.624845,341.686000,0.690586
10962.307486,341.729000,-7.321759
10965.989201,341.772000,-12.309414
10969.755578,341.816000,-0.480710
10973.435419,341.859000,1.493827
10977.114334,341.902000,2.479938
10980.877848,341.946000,-1.875772
10984.554892,341.989000,-0.543210
10988.231011,342.032000,1.273148
10991.991665,342.076000,1.883488
10995.665914,342.119000,3.030093
10999.339240,342.162000,0.337191
11003.011643,342.205000,-0.056327
11006.768496,342.249000,1.606481
11010.439032,342.292000,-2.777006
11014.108646,342.335000,-3.010031
11017.777338,342.378000,-2.805556
11021.530396,342.422000,-3.193673
11025.197224,342.465000,0.443673
11028.863132,342.508000,0.216049
11032.528119,342.551000,13.501543
11036.192187,342.594000,5.705247
11039.855335,342.637000,0.439815
11043.602720,342.681000,-2.121914
11047.264009,342.724000,-0.046296
11050.924378,342.767000,-0.326389
11054.583829,342.810000,0.451389
11058.242363,342.853000,1.821759
11061.899979,342.896000,1.337963
11065.556677,342.939000,1.326389
11069.212459,342.982000,1.591049
11072.867324,343.025000,0.397377
11076.521273,343.068000,-0.030093
11080.174306,343.111000,-1.439815
11083.826423,343.154000,-3.881173
11087.477626,343.197000,2.881173
11091.127913,343.240000,1.567901
11094.777286,343.283000,2.478395
11098.425745,343.326000,0.594907
11102.073291,343.369000,0.310185
11105.719922,343.412000,0.391975
11109.365641,343.455000,-0.898148
11113.010447,343.498000,1.645833
11116.654340,343.541000,1.283951
11120.297322,343.584000,1.624228
11123.939391,343.627000,0.837191
11127.580549,343.670000,0.266975
11131.220797,343.713000,-0.181327
11134.775508,343.755000,0.285494
11138.413955,343.798000,0.081019
11142.051492,343.841000,2.091049
11145.688120,343.884000,2.958333
11149.323838,343.927000,3.125772
11152.958647,343.970000,-1.068673
11156.508049,344.012000,-1.083333
11160.141062,344.055000,-5.176698
11163.773167,344.098000,-1.676698
11167.404365,344.141000,0.247685
11170.950240,344.183000,-1.186728
11174.579645,344.226000,-1.726852
11178.208143,344.269000,0.319444
11181.751382,344.311000,0.502315
11185.378088,344.354000,-1.135802
11189.003889,344.397000,-1.408951
11192.628785,344.440000,-1.910494
11196.168507,344.482000,1.478395
11199.791614,344.525000,0.672840
11203.413817,344.568000,-0.793210
11206.950910,344.610000,-0.917438
11210.571327,344.653000,-3.634259
11214.106675,344.695000,-3.599537
11217.725306,344.738000,0.179784
11221.343035,344.781000,0.610340
11224.875759,344.823000,0.729938
11228.491704,344.866000,-1.305556
11232.022687,344.908000,-1.410494
11235.636851,344.951000,-5.233796
11239.166094,344.993000,-3.495370
11242.778477,345.036000,-0.005401
11246.305982,345.078000,1.856481
11249.916585,345.121000,3.091049
11253.442353,345.163000,1.964506
11257.051178,345.206000,1.736111
11260.575210,345.248000,1.417438
11264.182259,345.291000,0.075617
11267.704555,345.333000,-0.574846
11271.309829,345.376000,-4.494599
11274.830392,345.418000,-1.733796
11278.350100,345.460000,1.968364
11281.952723,345.503000,0.043210
11285.470699,345.545000,1.982253
11288.987820,345.587000,1.377315
11292.587796,345.630000,0.874228
11296.103187,345.672000,-1.265432
11299.701393,345.715000,2.525463
11303.215056,345.757000,6.066358
11306.727865,345.799000,1.171296
11310.239821,345.841000,0.479938
11313.834512,345.884000,-0.050926
11317.344742,345.926000,0.895062
11320.854120,345.968000,-0.038580
11324.446172,346.011000,1.270062
11327.953826,346.053000,2.178241
11331.460629,346.095000,1.918210
11334.966581,346.137000,2.868827
11338.471682,346.179000,0.883488
11342.059357,346.222000,3.162037
11345.562737,346.264000,1.534722
11349.065268,346.306000,-1.636574
11352.566949,346.348000,-0.568673
11356.067781,346.390000,1.151235
11359.567764,346.432000,-0.344136
11363.150201,346.475000,4.421296
11366.648467,346.517000,41.918210
11370.145885,346.559000,1.789352
11373.642456,346.601000,0.679012
11377.138179,346.643000,-5.165123
11380.633055,346.685000,0.175926
11384.127085,346.727000,0.128858
11387.620268,346.769000,-0.761574
11391.112605,346.811000,0.513889
11394.604096,346.853000,1.179012
11398.094742,346.895000,-0.815586
11401.584543,346.937000,-0.764660
11405.073499,346.979000,-2.652006
11408.561610,347.021000,-1.554012
11412.048877,347.063000,0.377315
11415.535301,347.105000,-3.864969
11419.020880,347.147000,-38.460648
11422.505617,347.189000,-49.552469
11425.989510,347.231000,-46.783179
11429.472560,347.273000,-21.942130
11432.954769,347.315000,1.991512
11436.436135,347.357000,2.484568
11439.916659,347.399000,9.557870
11443.313502,347.440000,0.976080
11446.792364,347.482000,0.576389
11450.270384,347.524000,-1.045525
11453.747565,347.566000,-3.698302
11457.223905,347.608000,-1.993827
11460.699405,347.650000,-1.005401
11464.091345,347.691000,1.655093
11467.565186,347.733000,-0.507716
11471.038188,347.775000,0.249228
11474.510351,347.817000,-15.096451
11477.981676,347.859000,-4.875772
11481.369541,347.900000,-4.155864
11484.839210,347.942000,-0.149691
11488.308041,347.984000,0.637346
11491.693473,348.025000,-4.275463
11495.160650,348.067000,0.658951
11498.626991,348.109000,1.847994
11502.092494,348.151000,4.107253
11505.474680,348.192000,2.593364
11508.938532,348.234000,0.298611
11512.401549,348.276000,0.870370
11515.781307,348.317000,2.952932
11519.242673,348.359000,2.890432
11522.620821,348.400000,0.094136
11526.080539,348.442000,-3.523148
11529.539422,348.484000,-13.173611
11532.915148,348.525000,-0.556327
11536.372384,348.567000,-2.098765
11539.746502,348.608000,-0.525463
11543.202092,348.650000,1.611111
11546.574604,348.691000,0.558642
11550.028550,348.733000,0.603395
11553.399456,348.774000,0.158179
11556.851758,348.816000,0.479938
11560.221061,348.857000,0.779321
11563.671720,348.899000,0.983025
11567.039420,348.940000,-0.628086
11570.488439,348.982000,3.330247
11573.854537,349.023000,11.636574
11577.301915,349.065000,16.436728
11580.666413,349.106000,1.409722
11584.030120,349.147000,1.764660
11587.475051,349.189000,-3.270833
11590.837159,349.230000,-3.077160
11594.280452,349.272000,-0.826389
11597.640963,349.313000,1.753086
11601.000686,349.354000,-0.151235
11604.441535,349.396000,-1.360340
11607.799661,349.437000,-0.838735
11611.157000,349.478000,3.715278
11614.595408,349.520000,8.762346
11617.951152,349.561000,5.527778
11621.306109,349.602000,5.694444
11624.660280,349.643000,2.793210
11628.095443,349.685000,-0.579475
11631.448022,349.726000,-1.295525
11634.799814,349.767000,-0.690586
11638.150821,349.808000,0.004630
11641.582745,349.850000,0.723765
11644.932162,349.891000,-3.051698
11648.280794,349.932000,1.261574
11651.628641,349.973000,0.847994
11654.975704,350.014000,-2.187500
11658.403590,350.056000,0.637346
11661.749066,350.097000,-0.564815
11665.093759,350.138000,-3.649691
11668.437668,350.179000,1.355710
11671.780795,350.220000,2.617284
11675.123139,350.261000,1.942901
11678.464700,350.302000,0.057870
11681.805480,350.343000,-0.135802
11685.145477,350.384000,-2.881173
11688.484693,350.425000,-0.773920
11691.904543,350.467000,5.190586
11695.242178,350.508000,-13.067901
11698.579032,350.549000,-8.315586
11701.915105,350.590000,-7.892747
11705.250398,350.631000,0.352623
11708.584912,350.672000,-1.073302
11711.918645,350.713000,-0.699074
11715.251600,350.754000,-2.472222
11718.502512,350.794000,0.111883
11721.833927,350.835000,-0.141204
11725.164564,350.876000,1.253858
11728.494422,350.917000,-2.570216
11731.823503,350.958000,-2.868056
11735.151806,350.999000,-0.476852
11738.479331,351.040000,-0.515432
11741.806079,351.081000,-1.155864
11745.132050,351.122000,0.515432
11748.457245,351.163000,0.619599
11751.700589,351.203000,-3.275463
11755.024250,351.244000,-0.433642
11758.347135,351.285000,0.871142
11761.669245,351.326000,-0.400463
11764.990579,351.367000,-0.272377
11768.230159,351.407000,0.634259
11771.549962,351.448000,3.122685
11774.868991,351.489000,-5.003858
11778.187246,351.530000,-1.836420
11781.423822,351.570000,0.690586
11784.740548,351.611000,3.388117
11788.056500,351.652000,4.030093
11791.371680,351.693000,0.841049
11794.605256,351.733000,1.707562
11797.918909,351.774000,0.976080
11801.231790,351.815000,-0.435185
11804.463124,351.855000,0.129630
11807.774479,351.896000,-2.503858
11811.085063,351.937000,1.462191
11814.314158,351.977000,0.337963
11817.623218,352.018000,-0.825617
11820.850827,352.058000,-1.920525
11824.158365,352.099000,-5.466821
11827.465133,352.140000,-0.442130
11830.690506,352.180000,4.297840
11833.995753,352.221000,1.103395
11837.219643,352.261000,0.152778
11840.523370,352.302000,0.337963
11843.745778,352.342000,-0.611883
11847.047986,352.383000,-0.192901
11850.268913,352.423000,-1.146605
11853.569603,352.464000,-1.935957
11856.789050,352.504000,-1.662809
11860.088224,352.545000,-3.273920
11863.306191,352.585000,0.918210
11866.603850,352.626000,-0.724537
11869.820339,352.666000,0.015432
11873.116483,352.707000,-0.533951
11876.331495,352.747000,-0.490741
11879.545777,352.787000,-0.390432
11882.839661,352.828000,0.408951
11886.052468,352.868000,0.078704
11889.264547,352.908000,6.236111
11892.556173,352.949000,-0.908951
11895.766777,352.989000,-0.327932
11899.056892,353.030000,0.239198
11902.266024,353.070000,-4.653549
11905.474429,353.110000,1.148148
11908.682107,353.150000,-2.077932
11911.969223,353.191000,-0.030864
11915.175430,353.231000,-0.311728
11918.380911,353.271000,-0.027778
11921.665775,353.312000,1.356481
11924.869787,353.352000,-1.099537
11928.073073,353.392000,-14.362654
11931.275634,353.432000,0.381173
11934.477470,353.472000,-0.676698
11937.758600,353.513000,0.287809
11940.958969,353.553000,0.343364
11944.158614,353.593000,-1.768519
11947.357536,353.633000,0.601080
11950.555733,353.673000,3.005401
11953.753208,353.713000,0.804784
11957.029868,353.754000,-2.249228
11960.225879,353.794000,-1.037809
11963.421166,353.834000,0.763117
11966.615732,353.874000,1.334877
11969.809575,353.914000,0.982253
11973.002696,353.954000,-0.939815
11976.195096,353.994000,0.293210
11979.386774,354.034000,-2.206019
11982.577731,354.074000,-1.804784
11985.767968,354.114000,-0.675926
11988.957483,354.154000,22.936728
11992.146279,354.194000,-2.138117
11995.334354,354.234000,-1.993827
11998.521709,354.274000,-1.809414
12001.708345,354.314000,-1.313272
12004.894261,354.354000,-0.845679
12008.079458,354.394000,0.084877
12011.263936,354.434000,0.115741
12014.447695,354.474000,-2.709877
12017.630736,354.514000,-0.230710
12020.813059,354.554000,-1.254630
12023.994663,354.594000,0.465278
12027.175550,354.634000,-1.095679
12030.276224,354.673000,-3.690586
12033.455694,354.713000,-1.391975
12036.634448,354.753000,-0.315586
12039.812484,354.793000,0.878086
12042.989804,354.833000,-0.996142
12046.166408,354.873000,0.115741
12049.262907,354.912000,1.817130
12052.438097,354.952000,2.395833
12055.612571,354.992000,1.077160
12058.786330,355.032000,1.656636
12061.880056,355.071000,-0.324074
12065.052403,355.111000,0.520833
12068.224035,355.151000,1.265432
12071.394953,355.191000,-7.432099
12074.485910,355.230000,-6.590278
12077.655418,355.270000,-3.227623
12080.824212,355.310000,-2.771605
12083.913100,355.349000,-0.199846
12087.080485,355.389000,0.461420
12090.247158,355.429000,-1.734568
12093.333977,355.468000,-2.380401
12096.499242,355.508000,-0.099537
12099.663795,355.548000,0.438272
12102.748549,355.587000,0.299383
12105.911696,355.627000,-0.270833
12108.995079,355.666000,0.056327
12112.156822,355.706000,-0.207562
12115.317853,355.746000,-0.100309
12118.399174,355.785000,0.901235
12121.558801,355.825000,-1.091049
12124.638754,355.864000,0.491512
12127.796979,355.904000,-1.030864
12130.875565,355.943000,0.440586
12134.032389,355.983000,0.800926
12137.109608,356.022000,-0.643519
12140.265031,356.062000,-0.026235
12143.340885,356.101000,-0.208333
12146.494908,356.141000,0.089506
12149.569398,356.180000,0.030093
12152.643215,356.219000,0.443673
12155.795149,356.259000,0.386574
12158.867603,356.298000,-0.650463
12162.018139,356.338000,-0.344907
12165.089231,356.377000,-0.379630
12168.159651,356.416000,0.706790
12171.308101,356.456000,0.676698
12174.377160,356.495000,0.511574
12177.445548,356.534000,0.436728
12180.591915,356.574000,0.702932
12183.658943,356.613000,0.219136
12186.725300,356.652000,0.284722
12189.869585,356.692000,0.067901
12192.934585,356.731000,0.828704
12195.998914,356.770000,-0.324074
12199.062573,356.809000,0.249228
12202.204093,356.849000,0.006173
12205.266396,356.888000,-1.515432
12208.328030,356.927000,0.091821
12211.388995,356.966000,0.354938
12214.527751,357.006000,-0.727623
12217.587361,357.045000,-0.438272
12220.646304,357.084000,-0.293981
12223.704578,357.123000,-0.687500
12226.762184,357.162000,-0.648920
12229.819122,357.201000,-0.561728
12232.953750,357.241000,-0.741512
12236.009337,357.280000,-0.140432
12239.064257,357.319000,0.182870
12242.118510,357.358000,-0.705247
12245.172096,357.397000,0.676698
12248.225016,357.436000,-0.166667
