raman_shift_cm-1,wavelength_nm,intensity
-323.608033,246.616000,0.000000
-312.759145,246.682000,0.000000
-301.916061,246.748000,-2.864832
-291.078776,246.814000,-71.961478
-280.083216,246.881000,-2.783590
-269.257603,246.947000,-70.696826
-258.437774,247.013000,-69.519218
-247.623726,247.079000,-48.136088
-236.815454,247.145000,-68.347827
-226.012953,247.211000,-32.552570
-215.216219,247.277000,-48.310851
-204.425246,247.343000,-43.887837
-193.640031,247.409000,-67.669862
-182.860568,247.475000,-65.020022
-172.086854,247.541000,-71.634378
-161.318883,247.607000,-62.741015
-150.556651,247.673000,-70.028556
-139.800153,247.739000,-54.089171
-129.049385,247.805000,-74.006674
-118.467103,247.870000,-46.018607
-107.727694,247.936000,-45.475046
-96.994001,248.002000,-70.660557
-86.266020,248.068000,-38.955760
-75.543746,248.134000,-71.665073
-64.827174,248.200000,-66.441198
-54.278543,248.265000,-34.134079
-43.573277,248.331000,-100.135378
-32.873698,248.397000,-59.240221
-22.179805,248.463000,-44.302221
-11.653491,248.528000,-32.679746
-0.970866,248.594000,-102.787376
9.706087,248.660000,-55.430324
20.377375,248.726000,-53.849262
30.881442,248.791000,-63.455714
41.541497,248.857000,-50.847391
52.195898,248.923000,-64.191942
62.683348,248.988000,-70.920829
73.326542,249.054000,-53.913069
83.802964,249.119000,-59.513553
94.434970,249.185000,-69.081495
104.900381,249.250000,-67.386020
115.521215,249.316000,-79.903126
125.975632,249.381000,-58.649366
136.585313,249.447000,-60.378979
147.028754,249.512000,-81.903310
157.627298,249.578000,-65.738395
168.059780,249.643000,-59.740212
178.647205,249.709000,-114.297748
189.068746,249.774000,-95.861903
199.645070,249.840000,-26.844903
210.055686,249.905000,-5.311457
220.620926,249.971000,1.224025
231.020635,250.036000,0.742366
241.414938,250.101000,1.074332
251.963627,250.167000,2.470133
262.347049,250.232000,1.984225
272.725077,250.297000,1.178727
283.097717,250.362000,0.658319
293.624427,250.428000,2.256926
303.986219,250.493000,0.414809
314.342635,250.558000,1.398419
324.693679,250.623000,0.353481
335.198478,250.689000,2.511796
345.538708,250.754000,3.861293
355.873579,250.819000,-0.833415
366.203095,250.884000,-1.182733
376.527259,250.949000,-2.899779
386.846077,251.014000,2.828865
397.318179,251.080000,4.905758
407.626234,251.145000,3.234343
417.928954,251.210000,-0.360118
428.226343,251.275000,-0.267421
438.518407,251.340000,1.869569
448.805149,251.405000,0.560566
459.086573,251.470000,3.135803
469.362683,251.535000,3.635894
479.633483,251.600000,0.666504
489.898978,251.665000,3.569715
500.159172,251.730000,1.674767
510.414069,251.795000,1.556924
520.663672,251.860000,2.243095
530.907986,251.925000,1.170661
541.147015,251.990000,3.342008
551.223361,252.054000,1.332512
561.451914,252.119000,1.025552
571.675194,252.184000,0.617583
581.893205,252.249000,0.922480
592.105952,252.314000,1.348967
602.313438,252.379000,2.150970
612.358750,252.443000,2.472988
622.555807,252.508000,4.912475
632.747617,252.573000,3.110975
642.934182,252.638000,2.649110
652.958910,252.702000,2.337546
663.135079,252.767000,1.463029
673.306016,252.832000,2.128089
683.315368,252.896000,-0.100421
693.475932,252.961000,1.794488
703.631276,253.026000,0.396603
713.625287,253.090000,0.219529
723.770283,253.155000,-0.785052
733.910070,253.220000,-1.850648
743.888776,253.284000,-2.177145
754.018238,253.349000,-0.646297
763.986786,253.413000,-0.892555
774.105940,253.478000,2.578440
784.064345,253.542000,1.784736
794.173206,253.607000,-1.100169
804.121484,253.671000,1.897806
814.220067,253.736000,3.828400
824.158233,253.800000,2.685760
834.246555,253.865000,1.939535
844.174625,253.929000,2.982447
854.252700,253.994000,1.409861
864.170690,254.058000,2.312578
874.083683,254.122000,0.657581
884.146458,254.187000,2.887809
894.049394,254.251000,0.909746
903.947346,254.315000,1.746282
913.994855,254.380000,4.817781
923.882772,254.444000,2.332868
933.765716,254.508000,3.866916
943.797994,254.573000,2.171174
953.670926,254.637000,3.047023
963.538895,254.701000,1.443297
973.401907,254.765000,5.231436
983.259965,254.829000,1.264490
993.266988,254.894000,3.186920
1003.115071,254.958000,3.438069
1012.958212,255.022000,4.993704
1022.796413,255.086000,4.703477
1032.629679,255.150000,3.430332
1042.458013,255.214000,5.429665
1052.281419,255.278000,2.930617
1062.253275,255.343000,1.924606
1072.066759,255.407000,3.916580
1081.875326,255.471000,4.039631
1091.678980,255.535000,4.576215
1101.477725,255.599000,4.440657
1111.271563,255.663000,2.498027
1121.060500,255.727000,1.580411
1130.844538,255.791000,3.240667
1140.623681,255.855000,2.443931
1150.397933,255.919000,1.190003
1160.014689,255.982000,4.267768
1169.779246,256.046000,4.661918
1179.538923,256.110000,2.194120
1189.293724,256.174000,1.600785
1199.043651,256.238000,2.324954
1208.788709,256.302000,2.447146
1218.528902,256.366000,-0.184950
1228.112156,256.429000,4.244275
1237.842704,256.493000,3.109785
1247.568398,256.557000,1.429948
1257.289241,256.621000,3.009987
1267.005236,256.685000,3.093262
1276.564688,256.748000,1.990941
1286.271074,256.812000,5.751228
1295.972624,256.876000,0.914651
1305.517867,256.939000,0.793538
1315.209831,257.003000,1.698968
1324.896968,257.067000,1.424167
1334.428034,257.130000,0.522077
1344.105605,257.194000,2.425192
1353.778362,257.258000,2.988731
1363.295282,257.321000,0.010170
1372.958494,257.385000,-0.641718
1382.466026,257.448000,6.248105
1392.119708,257.512000,3.692448
1401.617865,257.575000,0.249270
1411.262031,257.639000,0.979251
1420.750828,257.702000,-0.180661
1430.385491,257.766000,1.515070
1439.864942,257.829000,1.788398
1449.490117,257.893000,-2.114321
1458.960235,257.956000,-1.386179
1468.575936,258.020000,1.713347
1478.036734,258.083000,2.049938
1487.492915,258.146000,-0.852979
1497.094468,258.210000,0.946167
1506.541350,258.273000,3.510415
1516.133465,258.337000,1.856569
1525.571062,258.400000,2.400491
1535.004058,258.463000,-0.973282
1544.432457,258.526000,2.269387
1554.005809,258.590000,1.842965
1563.424950,258.653000,0.081967
1572.839503,258.716000,2.210751
1582.249473,258.779000,0.982053
1591.804117,258.843000,5.392794
1601.204857,258.906000,3.372157
1610.601022,258.969000,2.752452
1619.992617,259.032000,5.079032
1629.379645,259.095000,2.598664
1638.911000,259.159000,2.724779
1648.288831,259.222000,2.224398
1657.662104,259.285000,2.149974
1667.030824,259.348000,2.111383
1676.394994,259.411000,1.318370
1685.754616,259.474000,3.759392
1695.109694,259.537000,2.020186
1704.460232,259.600000,3.594704
1713.806232,259.663000,1.804599
1723.147698,259.726000,1.336889
1732.484634,259.789000,2.744309
1741.817042,259.852000,4.174646
1751.144926,259.915000,1.373622
1760.468289,259.978000,1.280488
1769.787135,260.041000,2.483692
1779.101467,260.104000,2.693451
1788.411287,260.167000,0.379856
1797.568932,260.229000,0.853127
1806.869812,260.292000,1.559046
1816.166190,260.355000,3.387082
1825.458071,260.418000,-0.824677
1834.745457,260.481000,2.425875
1844.028352,260.544000,2.578783
1853.159517,260.606000,2.967970
1862.433510,260.669000,2.224326
1871.703021,260.732000,0.050859
1880.968054,260.795000,1.057535
1890.081653,260.857000,0.882477
1899.337809,260.920000,-0.384167
1908.589497,260.983000,1.550789
1917.689973,261.045000,-0.844977
1926.932803,261.108000,-0.145252
1936.171175,261.171000,3.872468
1945.258555,261.233000,1.253684
1954.488088,261.296000,1.859001
1963.566777,261.358000,-0.095493
1972.787485,261.421000,1.762468
1982.003751,261.484000,1.428711
1991.069391,261.546000,1.970387
2000.276850,261.609000,1.224971
2009.333830,261.671000,2.410764
2018.532495,261.734000,0.450188
2027.580827,261.796000,2.361420
2036.770712,261.859000,-0.307802
2045.810408,261.921000,1.461420
2054.845827,261.983000,1.410534
2064.022598,262.046000,1.594528
2073.049399,262.108000,2.521965
2082.217420,262.171000,2.532319
2091.235617,262.233000,-0.950605
2100.249550,262.295000,0.278765
2109.404505,262.358000,3.274042
2118.409852,262.420000,2.370090
2127.410945,262.482000,1.298047
2136.552862,262.545000,2.323020
2145.545387,262.607000,0.101772
2154.533666,262.669000,-0.237610
2163.517703,262.731000,1.546458
2172.642302,262.794000,2.671625
2181.617796,262.856000,1.407165
2190.589057,262.918000,-2.544603
2199.556087,262.980000,0.273099
2208.518891,263.042000,0.917473
2217.621929,263.105000,3.141683
2226.576219,263.167000,-1.378190
2235.526291,263.229000,0.704432
2244.472147,263.291000,1.882206
2253.413792,263.353000,1.316992
2262.351228,263.415000,0.757475
2271.284457,263.477000,4.846304
2280.213483,263.539000,-2.051227
2289.138308,263.601000,0.950498
2298.058937,263.663000,2.969484
2306.975371,263.725000,2.415206
2315.887613,263.787000,-1.824135
2324.795667,263.849000,0.716417
2333.699536,263.911000,1.783667
2342.599222,263.973000,-0.224163
2351.494729,264.035000,0.415807
2360.386059,264.097000,-0.553238
2369.273215,264.159000,0.081143
2378.156200,264.221000,-1.146481
2386.891844,264.282000,-0.157532
2395.766564,264.344000,-0.419431
2404.637121,264.406000,1.948201
2413.503520,264.468000,2.599680
2422.365762,264.530000,-0.652666
2431.081012,264.591000,-0.149232
2439.935018,264.653000,-2.441696
2448.784876,264.715000,-1.137955
2457.630590,264.777000,2.971710
2466.329589,264.838000,1.041935
2475.167089,264.900000,-0.689020
2484.000453,264.962000,2.217571
2492.687310,265.023000,1.130524
2501.512478,265.085000,1.299617
2510.333519,265.147000,2.217448
2519.008259,265.208000,1.464884
2527.821120,265.270000,-1.040298
2536.487819,265.331000,1.529390
2545.292512,265.393000,0.290190
2554.093093,265.455000,1.621799
2562.747717,265.516000,1.712335
2571.540147,265.578000,0.116277
2580.186758,265.639000,1.755136
2588.971048,265.701000,1.585728
2597.609655,265.762000,2.266502
2606.385817,265.824000,1.703983
2615.016433,265.885000,2.199679
2623.643091,265.946000,0.324130
2632.407114,266.008000,2.806185
2641.025796,266.069000,1.298346
2649.781719,266.131000,6.382615
2658.392437,266.192000,3.194069
2666.999210,266.253000,4.772597
2675.743037,266.315000,-0.091353
2684.341862,266.376000,-0.169495
2692.936750,266.437000,1.535127
2701.668505,266.499000,2.138705
2710.255462,266.560000,3.922502
2718.838489,266.621000,0.849940
2727.417590,266.682000,1.096042
2736.133311,266.744000,4.822471
2744.704503,266.805000,2.778319
2753.271776,266.866000,2.597190
2761.835134,266.927000,2.733436
2770.394579,266.988000,-1.040933
2778.950113,267.049000,2.539016
2787.641898,267.111000,4.018032
2796.189555,267.172000,1.090129
2804.733311,267.233000,2.208235
2813.273167,267.294000,3.384576
2821.809126,267.355000,1.263994
2830.341190,267.416000,2.956960
2838.869363,267.477000,2.270588
2847.393647,267.538000,1.622802
2855.914045,267.599000,1.614478
2864.430559,267.660000,2.462647
2872.943193,267.721000,4.240556
2881.451948,267.782000,1.489801
2889.956827,267.843000,3.434971
2898.457833,267.904000,2.543104
2906.954969,267.965000,0.412441
2915.448237,268.026000,2.126596
2923.937640,268.087000,3.085152
2932.284105,268.147000,3.093029
2940.765849,268.208000,1.317966
2949.243736,268.269000,2.755037
2957.717768,268.330000,-0.922600
2966.187948,268.391000,-0.268630
2974.515518,268.451000,0.143161
2982.978065,268.512000,-0.580754
2991.436768,268.573000,2.498299
2999.891630,268.634000,-0.624309
3008.204142,268.694000,0.134852
3016.651392,268.755000,0.112660
3025.094807,268.816000,2.785707
3033.396069,268.876000,1.278087
3041.831888,268.937000,0.652840
3050.263881,268.998000,2.281358
3058.553914,269.058000,1.932728
3066.978326,269.119000,-0.290137
3075.398919,269.180000,0.341907
3083.677747,269.240000,0.482445
3092.090774,269.301000,1.384860
3100.362165,269.361000,1.914557
3108.767637,269.422000,1.795598
3117.031601,269.482000,0.780439
3125.429526,269.543000,-1.195046
3133.686074,269.603000,1.173733
3142.076464,269.664000,2.448370
3150.325604,269.724000,1.167023
3158.708468,269.785000,-0.479039
3166.950211,269.845000,0.456775
3175.325561,269.906000,-0.234910
3183.559917,269.966000,0.550837
3191.790613,270.026000,3.772917
3200.154739,270.087000,2.487758
3208.378064,270.147000,0.890423
3216.597736,270.207000,1.406252
3224.950662,270.268000,1.187291
3233.162976,270.328000,0.997313
3241.371647,270.388000,0.141719
3249.576675,270.448000,-1.632487
3257.914722,270.509000,-1.907695
3266.112412,270.569000,0.437167
3274.306467,270.629000,4.342486
3282.496889,270.689000,-0.183332
3290.820098,270.750000,2.812548
3299.003202,270.810000,-1.963041
3307.182681,270.870000,1.964906
3315.358537,270.930000,2.309514
3323.530773,270.990000,1.927260
3331.699391,271.050000,2.829455
3339.864393,271.110000,0.198813
3348.025782,271.170000,1.383059
3356.319492,271.231000,2.726432
3364.473602,271.291000,3.645704
3372.624105,271.351000,0.268566
3380.771005,271.411000,1.533280
3388.914304,271.471000,0.909117
3397.054004,271.531000,1.415088
3405.190107,271.591000,1.022020
3413.322616,271.651000,5.983073
3421.316081,271.710000,0.941332
3429.441469,271.770000,3.326655
3437.563270,271.830000,0.852356
3445.681487,271.890000,0.784447
3453.796121,271.950000,0.332472
3461.907176,272.010000,4.831864
3470.014653,272.070000,1.691924
3478.118555,272.130000,1.311851
3486.083907,272.189000,0.903443
3494.180726,272.249000,-1.187717
3502.273976,272.309000,2.624088
3510.363660,272.369000,3.836300
3518.315042,272.428000,-0.977537
3526.397661,272.488000,3.127801
3534.476722,272.548000,5.089713
3542.552226,272.608000,-1.533621
3550.489673,272.667000,0.038296
3558.558131,272.727000,0.543804
3566.623039,272.787000,-1.329606
3574.550074,272.846000,2.397282
3582.607950,272.906000,3.035654
3590.528073,272.965000,-0.498256
3598.578926,273.025000,3.461773
3606.626241,273.085000,1.308447
3614.535986,273.144000,0.658533
3622.576291,273.204000,3.583896
3630.479148,273.263000,1.090192
3638.512453,273.323000,1.451175
3646.408431,273.382000,-0.457960
3654.434744,273.442000,2.367299
3662.323852,273.501000,0.612100
3670.343183,273.561000,1.300336
3678.225429,273.620000,-1.117018
3686.237787,273.680000,3.829402
3694.113181,273.739000,-0.283965
3701.985180,273.798000,3.177103
3709.987125,273.858000,1.521241
3717.852286,273.917000,1.954552
3725.714059,273.976000,1.025951
3733.705610,274.036000,-1.588655
3741.560558,274.095000,2.932591
3749.412124,274.154000,1.021836
3757.393303,274.214000,2.983174
3765.238057,274.273000,1.512332
3773.079437,274.332000,-0.381926
3780.917444,274.391000,5.185712
3788.884843,274.451000,0.942765
3796.716056,274.510000,-0.677469
3804.543903,274.569000,-2.810393
3812.368387,274.628000,3.556470
3820.189510,274.687000,2.816046
3828.007273,274.746000,0.380716
3835.821680,274.805000,1.274935
3843.765093,274.865000,-3.532845
3851.572736,274.924000,-2.738451
3859.377028,274.983000,1.699844
3867.177971,275.042000,-1.559980
3874.975569,275.101000,-1.216550
3882.769823,275.160000,2.622849
3890.560735,275.219000,1.527205
3898.348307,275.278000,1.005078
3906.132542,275.337000,0.945659
3913.913442,275.396000,1.503901
3921.691008,275.455000,2.375536
3929.465243,275.514000,1.874629
3937.236150,275.573000,1.888500
3944.872103,275.631000,-0.910348
3952.636414,275.690000,1.032201
3960.397403,275.749000,1.860275
3968.155071,275.808000,-0.244894
3975.909421,275.867000,-1.352824
3983.660455,275.926000,1.436787
3991.408175,275.985000,1.252380
3999.021349,276.043000,1.164613
4006.762504,276.102000,-0.234277
4014.500350,276.161000,0.608789
4022.234891,276.220000,1.312671
4029.835118,276.278000,1.753657
4037.563110,276.337000,-1.150030
4045.287803,276.396000,-1.746618
4052.878355,276.454000,4.200055
4060.596512,276.513000,1.232799
4068.311375,276.572000,0.320062
4075.892271,276.630000,2.147881
4083.600610,276.689000,0.248024
4091.305663,276.748000,1.067048
4098.876921,276.806000,3.355465
4106.575462,276.865000,1.848522
4114.140322,276.923000,0.958581
4121.832361,276.982000,4.845864
4129.390832,277.040000,0.951941
4137.076375,277.099000,-1.309836
4144.628466,277.157000,3.878875
4152.307522,277.216000,1.315299
4159.853240,277.274000,-1.800818
4167.525818,277.333000,0.883569
4175.065171,277.391000,1.447887
4182.731279,277.450000,2.497792
4190.264275,277.508000,1.976811
4197.794123,277.566000,1.862288
4205.450568,277.625000,-2.557309
4212.974072,277.683000,1.233327
4220.494433,277.741000,-0.448673
4228.011654,277.799000,0.001716
4235.396210,277.856000,2.793830
4242.907211,277.914000,1.941856
4250.415077,277.972000,2.453366
4257.790445,278.029000,-0.947785
4265.292102,278.087000,-0.233259
4272.790631,278.145000,2.189937
4280.156828,278.202000,-0.101951
4287.649159,278.260000,1.446630
4295.138368,278.318000,2.940238
4302.495411,278.375000,3.703246
4309.978434,278.433000,0.831353
4317.329402,278.490000,1.509484
4324.806246,278.548000,3.900631
4332.151147,278.605000,2.925070
4339.621821,278.663000,2.209014
4346.960661,278.720000,3.572241
4354.425172,278.778000,2.566012
4361.757959,278.835000,0.192194
4369.216314,278.893000,0.375664
4376.543056,278.950000,-0.371802
4383.995264,279.008000,1.516569
4391.315968,279.065000,0.144552
4398.762036,279.123000,2.503338
4406.076709,279.180000,0.040245
4413.516644,279.238000,3.161936
4420.825295,279.295000,0.999016
4428.130962,279.352000,2.365168
4435.561740,279.410000,2.666474
4442.861395,279.467000,0.933493
4450.158074,279.524000,0.227183
4457.579711,279.582000,4.168779
4464.870389,279.639000,1.757329
4472.158095,279.696000,2.658404
4479.570607,279.754000,1.923167
4486.852324,279.811000,3.348848
4494.131074,279.868000,1.310090
4501.534479,279.926000,-0.580194
4508.807251,279.983000,1.846096
4516.077062,280.040000,4.965791
4523.343914,280.097000,-0.860147
4530.735220,280.155000,2.677467
4537.996108,280.212000,2.851130
4545.254043,280.269000,3.495746
4552.509026,280.326000,2.902887
4559.888262,280.384000,-2.689723
4567.137295,280.441000,1.663968
4574.383383,280.498000,2.010216
4581.626526,280.555000,2.455510
4588.866727,280.612000,2.129024
4596.103987,280.669000,3.236160
4603.338308,280.726000,0.784470
4610.696532,280.784000,2.461986
4617.924929,280.841000,1.482414
4625.150392,280.898000,0.875516
4632.372923,280.955000,1.426405
4639.592525,281.012000,1.498269
4646.809198,281.069000,0.004786
4654.022945,281.126000,2.676060
4661.233767,281.183000,1.055989
4668.441666,281.240000,0.439027
4675.646644,281.297000,0.318415
4682.848703,281.354000,-0.342454
4690.047844,281.411000,1.956722
4697.244070,281.468000,0.948915
4704.437381,281.525000,2.541580
4711.627780,281.582000,1.981187
4718.815269,281.639000,1.796255
4725.999849,281.696000,2.052691
4733.181522,281.753000,1.666297
4740.360290,281.810000,1.725831
4747.536154,281.867000,2.556167
4754.583300,281.923000,1.083264
4761.753414,281.980000,0.676738
4768.920629,282.037000,1.516483
4776.084949,282.094000,2.441498
4783.246373,282.151000,1.124320
4790.404904,282.208000,4.462546
4797.435032,282.264000,0.138340
4804.587834,282.321000,-0.513815
4811.737748,282.378000,2.721323
4818.884776,282.435000,2.107236
4826.028920,282.492000,0.923965
4833.044920,282.548000,1.390054
4840.183352,282.605000,4.195573
4847.318904,282.662000,3.468171
4854.451579,282.719000,1.162034
4861.456319,282.775000,0.642686
4868.583295,282.832000,1.965370
4875.707399,282.889000,1.051063
4882.703723,282.945000,-1.383029
4889.822139,283.002000,0.564112
4896.937687,283.059000,-0.386101
4903.925611,283.115000,0.481468
4911.035481,283.172000,0.889256
4918.142490,283.229000,2.891150
4925.122029,283.285000,2.450583
4932.223369,283.342000,-0.212966
4939.197342,283.398000,1.000293
4946.293021,283.455000,1.612191
4953.385847,283.512000,3.523850
4960.351460,283.568000,1.219254
4967.438635,283.625000,2.807789
4974.398699,283.681000,1.765411
4981.480229,283.738000,1.414171
4988.434752,283.794000,3.218198
4995.510644,283.851000,0.669768
5002.459631,283.907000,-2.374177
5009.529893,283.964000,1.742936
5016.473351,284.020000,-0.464191
5023.537988,284.077000,2.278262
5030.475924,284.133000,0.135629
5037.534943,284.190000,-0.004245
5044.467363,284.246000,2.267660
5051.397052,284.302000,0.420853
5058.447683,284.359000,3.184078
5065.371866,284.415000,-0.111594
5072.416896,284.472000,-0.071660
5079.335580,284.528000,1.656745
5086.251541,284.584000,0.290384
5093.288207,284.641000,1.206194
5100.198678,284.697000,-0.158649
5107.106432,284.753000,-2.437539
5114.134748,284.810000,2.264269
5121.037022,284.866000,1.570525
5127.936582,284.922000,0.974041
5134.833431,284.978000,1.245431
5141.850655,285.035000,1.131823
5148.742037,285.091000,2.360116
5155.630712,285.147000,-0.270824
5162.516682,285.203000,1.130232
5169.522840,285.260000,0.197715
5176.403356,285.316000,3.679730
5183.281172,285.372000,0.721236
5190.156289,285.428000,2.165434
5197.028709,285.484000,1.057961
5204.021082,285.541000,1.009421
5210.888064,285.597000,1.994246
5217.752353,285.653000,2.940497
5224.613952,285.709000,0.335441
5231.472862,285.765000,-1.285243
5238.329083,285.821000,1.480917
5245.182619,285.877000,1.788784
5252.033470,285.933000,-0.652731
5258.881638,285.989000,-1.250597
5265.727125,286.045000,3.623979
5272.569932,286.101000,0.732600
5279.532182,286.158000,1.136786
5286.369586,286.214000,3.339726
5293.204315,286.270000,4.562614
5300.036371,286.326000,2.440711
5306.865755,286.382000,1.153073
5313.692468,286.438000,0.982734
5320.516513,286.494000,1.129073
5327.216104,286.549000,-1.454868
5334.034863,286.605000,1.475464
5340.850958,286.661000,2.884726
5347.664391,286.717000,2.376415
5354.475163,286.773000,3.096221
5361.283275,286.829000,1.233194
5368.088729,286.885000,-0.203689
5374.891528,286.941000,0.754056
5381.691671,286.997000,4.940465
5388.489161,287.053000,1.920168
5395.162686,287.108000,0.531213
5401.954922,287.164000,1.259941
5408.744509,287.220000,1.376562
5415.531448,287.276000,0.991347
5422.315743,287.332000,0.428499
5428.976316,287.387000,2.184188
5435.755371,287.443000,-1.150387
5442.531785,287.499000,-1.006965
5449.305560,287.555000,2.076759
5456.076697,287.611000,2.232339
5462.724355,287.666000,1.230269
5469.490268,287.722000,1.645853
5476.253548,287.778000,3.138649
5482.893494,287.833000,1.796579
5489.651559,287.889000,1.918406
5496.406995,287.945000,1.945252
5503.039242,288.000000,-2.034951
5509.789473,288.056000,1.505496
5516.537079,288.112000,3.098274
5523.161640,288.167000,2.815069
5529.904050,288.223000,-1.339052
5536.643840,288.279000,3.700780
5543.260729,288.334000,0.798783
5549.995332,288.390000,0.974353
5556.607128,288.445000,0.034196
5563.336549,288.501000,1.620856
5569.943259,288.556000,5.419144
5576.667504,288.612000,0.722522
5583.269134,288.667000,-1.698915
5589.988209,288.723000,2.916684
5596.584764,288.778000,-0.807844
5603.298676,288.834000,2.287281
5609.890162,288.889000,4.338636
5616.598916,288.945000,-0.982691
5623.185340,289.000000,2.313564
5629.888941,289.056000,1.756671
5636.470308,289.111000,1.262981
5643.168763,289.167000,0.043451
5649.745079,289.222000,0.537205
5656.438394,289.278000,1.960123
5663.009664,289.333000,1.173132
5669.578437,289.388000,-0.849104
5676.264076,289.444000,2.019512
5682.827812,289.499000,0.406932
5689.389054,289.554000,3.996309
5696.067030,289.610000,-1.901393
5702.623244,289.665000,1.472650
5709.176969,289.720000,2.396218
5715.847296,289.776000,4.211300
5722.396001,289.831000,1.568816
5728.942221,289.886000,0.613219
5735.485958,289.941000,-0.313481
5742.146122,289.997000,0.223650
5748.684850,290.052000,4.809481
5755.221100,290.107000,3.233948
5761.754871,290.162000,1.500932
5768.404894,290.218000,2.495493
5774.933669,290.273000,3.766804
5781.459971,290.328000,-0.235683
5787.983800,290.383000,0.564450
5794.505158,290.438000,-0.417485
5801.142550,290.494000,2.583192
5807.658926,290.549000,1.422804
5814.172835,290.604000,1.268225
5820.684279,290.659000,4.459986
5827.193260,290.714000,1.286056
5833.699778,290.769000,2.127248
5840.203835,290.824000,0.599688
5846.705432,290.879000,3.547578
5853.204572,290.934000,-1.032042
5859.701254,290.989000,-0.980032
5866.195481,291.044000,1.402854
5872.687254,291.099000,1.479792
5879.176574,291.154000,1.338700
5885.663444,291.209000,4.338501
5892.147863,291.264000,1.590383
5898.629834,291.319000,1.120814
5905.109357,291.374000,0.060617
5911.586435,291.429000,2.688512
5918.061069,291.484000,1.014708
5924.533260,291.539000,1.149815
5931.003009,291.594000,-1.007499
5937.470318,291.649000,0.884950
5943.935188,291.704000,1.595360
5950.397621,291.759000,0.713417
5956.857618,291.814000,0.286766
5963.315180,291.869000,0.054385
5969.770309,291.924000,-1.072842
5976.105706,291.978000,1.465659
5982.556017,292.033000,5.115833
5989.003898,292.088000,-0.828816
5995.449352,292.143000,3.730976
6001.892379,292.198000,2.999251
6008.215901,292.252000,0.929285
6014.654123,292.307000,2.566683
6021.089923,292.362000,0.104603
6027.523303,292.417000,-0.142061
6033.954262,292.472000,1.652641
6040.265942,292.526000,0.931983
6046.692111,292.581000,4.035663
6053.115864,292.636000,1.954388
6059.420472,292.690000,2.928235
6065.839442,292.745000,0.131875
6072.256000,292.800000,-0.092790
6078.553548,292.854000,2.022525
6084.965331,292.909000,2.256125
6091.374707,292.964000,3.771604
6097.665207,293.018000,1.860779
6104.069816,293.073000,1.361235
6110.472021,293.128000,0.872015
6116.755485,293.182000,2.473991
6123.152931,293.237000,2.361650
6129.431725,293.291000,-0.275768
6135.824417,293.346000,-0.880975
6142.098547,293.400000,0.430210
6148.486490,293.455000,2.564031
6154.872040,293.510000,4.070603
6161.139160,293.564000,3.619654
6167.519969,293.619000,1.095073
6173.782438,293.673000,2.995578
6180.158512,293.728000,-1.504153
6186.416334,293.782000,-0.416114
6192.787678,293.837000,0.245660
6199.040859,293.891000,4.225054
6205.291742,293.945000,0.152640
6211.656022,294.000000,1.285887
6217.902272,294.054000,-1.648884
6224.261835,294.109000,1.528070
6230.503456,294.163000,2.002623
6236.742786,294.217000,5.203191
6243.095305,294.272000,0.452019
6249.330014,294.326000,1.921363
6255.677829,294.381000,2.081925
6261.907923,294.435000,1.262336
6268.135731,294.489000,1.663127
6274.476522,294.544000,3.235790
6280.699722,294.598000,-0.448438
6286.920642,294.652000,0.951028
6293.139281,294.706000,3.702177
6299.470739,294.761000,2.641184
6305.684781,294.815000,3.158296
6311.896546,294.869000,3.376657
6318.106037,294.923000,1.797272
6324.428182,294.978000,2.501046
6330.633085,295.032000,2.827269
6336.835717,295.086000,2.052174
6343.036080,295.140000,2.991416
6349.234174,295.194000,0.817640
6355.544717,295.249000,1.400974
6361.738236,295.303000,2.491873
6367.929490,295.357000,3.143265
6374.118480,295.411000,-0.447805
6380.305209,295.465000,4.624713
6386.489676,295.519000,3.489365
6392.671884,295.573000,2.236177
6398.851833,295.627000,4.656148
6405.143905,295.682000,3.471870
6411.319300,295.736000,1.978675
6417.492439,295.790000,3.652436
6423.663325,295.844000,3.933367
6429.831958,295.898000,0.290917
6435.998340,295.952000,0.117747
6442.162473,296.006000,0.013940
6448.324357,296.060000,2.517089
6454.483993,296.114000,0.156771
6460.641384,296.168000,1.852690
6466.796529,296.222000,-2.428664
6472.949431,296.276000,0.864943
6479.100090,296.330000,0.774056
6485.248508,296.384000,0.360647
6491.280888,296.437000,3.768141
6497.424869,296.491000,2.428352
6503.566612,296.545000,1.595833
6509.706118,296.599000,1.496752
6515.843390,296.653000,0.612744
6521.978427,296.707000,2.723070
6528.111232,296.761000,1.549383
6534.241805,296.815000,2.846371
6540.256681,296.868000,2.841974
6546.382836,296.922000,3.453441
6552.506763,296.976000,1.960777
6558.628464,297.030000,2.047482
6564.747939,297.084000,0.919564
6570.751928,297.137000,2.004509
6576.866997,297.191000,3.655965
6582.979845,297.245000,2.300178
6589.090471,297.299000,-1.145680
6595.085780,297.352000,4.246477
6601.192010,297.406000,1.398208
6607.296023,297.460000,0.470311
6613.397821,297.514000,-0.060286
6619.384468,297.567000,4.609480
6625.481879,297.621000,3.326502
6631.577077,297.675000,0.349637
6637.557251,297.728000,1.533282
6643.648069,297.782000,3.488573
6649.623947,297.835000,6.795685
6655.710390,297.889000,4.519636
6661.794627,297.943000,2.219140
6667.764048,297.996000,1.887865
6673.843917,298.050000,-1.762108
6679.809053,298.103000,2.804029
6685.884559,298.157000,1.322631
6691.957864,298.211000,0.268373
6697.916562,298.264000,0.291659
6703.985510,298.318000,3.830104
6709.939935,298.371000,2.071794
6716.004532,298.425000,-0.313332
6721.954688,298.478000,0.559294
6728.014938,298.532000,0.135750
6733.960830,298.585000,2.392056
6739.904611,298.638000,2.886938
6745.958369,298.692000,2.565735
6751.897893,298.745000,0.540269
6757.947317,298.799000,1.601130
6763.882588,298.852000,2.569775
6769.927680,298.906000,4.159950
6775.858703,298.959000,3.546171
6781.787624,299.012000,2.111122
6787.826249,299.066000,0.238354
6793.750928,299.119000,3.460055
6799.673508,299.172000,4.098734
6805.705677,299.226000,0.603853
6811.624022,299.279000,-0.195516
6817.540272,299.332000,0.748849
6823.565994,299.386000,1.797021
6829.478016,299.439000,0.010495
6835.387945,299.492000,-0.600250
6841.407231,299.546000,1.713502
6847.312940,299.599000,-0.579855
6853.216559,299.652000,1.370955
6859.118090,299.705000,2.075093
6865.017534,299.758000,-1.003744
6871.026143,299.812000,5.187268
6876.921378,299.865000,0.968092
6882.814529,299.918000,1.807265
6888.705597,299.971000,-0.371178
6894.594584,300.024000,2.251675
6900.592545,300.078000,0.813877
6906.477333,300.131000,3.076126
6912.360044,300.184000,3.000092
6918.240677,300.237000,1.986529
6924.119235,300.290000,2.099172
6929.995718,300.343000,1.080743
6935.870127,300.396000,4.583799
6941.742464,300.449000,1.828012
6947.612730,300.502000,1.689994
6953.480925,300.555000,1.247421
6959.347051,300.608000,3.976483
6965.211108,300.661000,1.609265
6971.073099,300.714000,-1.595938
6976.933024,300.767000,0.384163
6982.790884,300.820000,-1.664000
6988.646680,300.873000,1.320521
6994.500413,300.926000,2.232491
7000.352085,300.979000,1.282289
7006.201696,301.032000,1.333302
7012.049248,301.085000,2.968478
7017.894742,301.138000,1.366727
7023.738178,301.191000,0.852888
7029.579559,301.244000,0.482038
7035.418884,301.297000,1.149221
7041.256155,301.350000,1.102805
7047.091373,301.403000,0.788781
7052.924539,301.456000,-1.083735
7058.645653,301.508000,1.181245
7064.474758,301.561000,1.989465
7070.301814,301.614000,1.187417
7076.126822,301.667000,3.757687
7081.949784,301.720000,2.737759
7087.660892,301.772000,0.697610
7093.479803,301.825000,2.586160
7099.296670,301.878000,0.459265
7105.111496,301.931000,1.466802
7110.814624,301.983000,1.733975
7116.625408,302.036000,0.004635
7122.434152,302.089000,-1.591820
7128.240858,302.142000,1.352378
7133.936024,302.194000,3.886927
7139.738696,302.247000,1.374688
7145.539334,302.300000,1.897613
7151.228549,302.352000,2.114655
7157.025159,302.405000,-0.163255
7162.819737,302.458000,2.505674
7168.503010,302.510000,3.312616
7174.293567,302.563000,3.239282
7180.082095,302.616000,5.548425
7185.759436,302.668000,-0.036009
7191.543949,302.721000,1.087572
7197.217352,302.773000,1.546353
7202.997854,302.826000,2.322292
7208.667324,302.878000,-0.086542
7214.443819,302.931000,4.674832
7220.109360,302.983000,-0.828082
7225.881853,303.036000,0.567115
7231.543468,303.088000,0.181015
7237.311962,303.141000,3.295299
7242.969657,303.193000,1.066106
7248.734156,303.246000,0.646633
7254.387934,303.298000,2.498152
7260.148443,303.351000,2.327063
7265.798308,303.403000,-0.272969
7271.554831,303.456000,-0.943483
7277.200787,303.508000,1.037924
7282.953328,303.561000,-1.196573
7288.595379,303.613000,-0.410279
7294.235498,303.665000,4.699771
7299.982093,303.718000,2.427231
7305.618313,303.770000,3.146745
7311.252604,303.822000,1.322487
7316.993262,303.875000,-0.054310
7322.623660,303.927000,2.789408
7328.252131,303.979000,-0.348560
7333.986862,304.032000,2.099988
7339.611446,304.084000,2.747688
7345.234108,304.136000,2.533593
7350.962920,304.189000,0.095248
7356.581700,304.241000,4.627012
7362.198561,304.293000,0.507127
7367.813502,304.345000,3.741431
7373.426525,304.397000,-0.469691
7379.145517,304.450000,0.147349
7384.754669,304.502000,1.642402
7390.361906,304.554000,3.463920
7395.967228,304.606000,3.386747
7401.570637,304.658000,-0.044236
7407.279836,304.711000,0.475829
7412.879384,304.763000,-1.943216
7418.477021,304.815000,1.538088
7424.072749,304.867000,3.156187
7429.666569,304.919000,-1.027840
7435.258480,304.971000,-1.735970
7440.848486,305.023000,5.599981
7446.436585,305.075000,2.946440
7452.022780,305.127000,-1.027301
7457.607071,305.179000,3.047650
7463.296795,305.232000,3.066069
7468.877245,305.284000,0.669687
7474.455794,305.336000,2.387939
7480.032444,305.388000,-0.102406
7485.607195,305.440000,1.540523
7491.180048,305.492000,0.184046
7496.751004,305.544000,1.645936
7502.212985,305.595000,-1.357989
7507.780187,305.647000,2.497958
7513.345495,305.699000,0.451192
7518.908909,305.751000,1.282831
7524.470432,305.803000,1.087035
7530.030064,305.855000,2.886615
7535.587805,305.907000,-0.582748
7541.143658,305.959000,-0.802589
7546.697622,306.011000,0.312807
7552.249699,306.063000,-0.712635
7557.693173,306.114000,0.397910
7563.241514,306.166000,2.317846
7568.787971,306.218000,2.197018
7574.332545,306.270000,4.693491
7579.875237,306.322000,0.109311
7585.416047,306.374000,2.937372
7590.848476,306.425000,3.418820
7596.385562,306.477000,2.976708
7601.920769,306.529000,-0.296098
7607.454098,306.581000,3.612498
7612.879195,306.632000,0.550769
7618.408808,306.684000,5.856961
7623.936546,306.736000,2.514826
7629.462411,306.788000,2.470919
7634.880189,306.839000,1.030513
7640.402345,306.891000,-0.302495
7645.922629,306.943000,1.329248
7651.334938,306.994000,3.402918
7656.851519,307.046000,0.854715
7662.260197,307.097000,0.882963
7667.773079,307.149000,-1.587304
7673.284094,307.201000,2.788794
7678.687317,307.252000,0.715865
7684.194638,307.304000,2.772066
7689.700096,307.356000,0.706457
7695.097870,307.407000,2.898079
7700.599639,307.459000,1.703008
7705.993798,307.510000,5.398367
7711.491883,307.562000,0.553143
7716.882430,307.613000,2.868076
7722.376833,307.665000,3.585887
7727.763772,307.716000,1.114448
7733.254498,307.768000,-0.043801
7738.637831,307.819000,1.963279
7744.124884,307.871000,6.825251
7749.504617,307.922000,-0.885038
7754.988000,307.974000,3.350796
7760.364134,308.025000,1.052472
7765.738489,308.076000,3.029650
7771.216392,308.128000,2.064371
7776.587155,308.179000,0.144577
7782.061397,308.231000,-1.367340
7787.428571,308.282000,2.996340
7792.793970,308.333000,-0.181641
7798.262745,308.385000,0.370404
7803.624561,308.436000,1.357685
7808.984603,308.487000,1.750802
7814.447920,308.539000,1.598548
7819.804385,308.590000,0.909197
7825.159080,308.641000,2.879921
7830.616947,308.693000,0.469380
7835.968069,308.744000,-1.068672
7841.317424,308.795000,0.932705
7846.665012,308.846000,2.033888
7852.115636,308.898000,2.707330
7857.459659,308.949000,1.159596
7862.801917,309.000000,1.712661
7868.142413,309.051000,-1.565216
7873.481146,309.102000,0.712519
7878.922746,309.154000,2.615272
7884.257923,309.205000,0.395095
7889.591340,309.256000,-0.258515
7894.922998,309.307000,0.410965
7900.252898,309.358000,-0.071145
7905.581041,309.409000,0.753356
7910.907428,309.460000,0.101955
7916.336447,309.512000,4.289012
7921.659290,309.563000,1.123660
7926.980379,309.614000,1.661738
7932.299715,309.665000,2.899289
7937.617300,309.716000,-1.275889
7942.933134,309.767000,1.643762
7948.247217,309.818000,3.301705
7953.559551,309.869000,2.387063
7958.870137,309.920000,3.888271
7964.178976,309.971000,-0.665689
7969.486068,310.022000,1.298620
7974.791414,310.073000,-0.942837
7980.095015,310.124000,1.912706
7985.396872,310.175000,0.799239
7990.696985,310.226000,2.640016
7995.995357,310.277000,1.596194
8001.291987,310.328000,0.993521
8006.586876,310.379000,-0.710836
8011.880026,310.430000,-0.092655
8017.067700,310.480000,0.261636
8022.357406,310.531000,-0.377733
8027.645376,310.582000,-1.613555
8032.931609,310.633000,0.070158
8038.216106,310.684000,3.898569
8043.498869,310.735000,-2.052053
8048.779898,310.786000,-0.061452
8053.955695,310.836000,0.225015
8059.233293,310.887000,0.224627
8064.509160,310.938000,-1.057327
8069.783296,310.989000,0.735086
8074.952339,311.039000,0.194377
8080.223051,311.090000,-0.326855
8085.492035,311.141000,-1.106339
8090.759292,311.192000,0.307298
8095.921594,311.242000,1.984949
8101.185433,311.293000,-1.293120
8106.447548,311.344000,-1.599071
8111.604811,311.394000,1.590052
8116.863513,311.445000,-1.276620
8122.120493,311.496000,0.921782
8127.272724,311.546000,-1.435011
8132.526297,311.597000,1.848588
8137.778150,311.648000,2.699536
8142.925357,311.698000,1.391931
8148.173807,311.749000,-0.343076
8153.420541,311.800000,0.596738
8158.562731,311.850000,1.028201
8163.806066,311.901000,2.693802
8168.944927,311.951000,1.860147
8174.184869,312.002000,-0.253917
8179.320403,312.052000,0.955202
8184.556953,312.103000,-2.381448
8189.689165,312.153000,0.096988
8194.922327,312.204000,-1.747550
8200.051219,312.254000,2.871657
8205.280996,312.305000,2.511237
8210.406572,312.355000,0.610225
8215.632968,312.406000,2.815952
8220.755230,312.456000,0.862700
8225.978248,312.507000,2.585214
8231.097200,312.557000,2.515107
8236.316843,312.608000,-0.115654
8241.432488,312.658000,5.098273
8246.546497,312.708000,0.388368
8251.761101,312.759000,-0.887597
8256.871808,312.809000,0.160235
8261.980881,312.859000,3.400867
8267.190453,312.910000,-2.542587
8272.296229,312.960000,2.523994
8277.400373,313.010000,-0.920887
8282.604921,313.061000,-0.579894
8287.705773,313.111000,-1.836052
8292.804996,313.161000,2.123921
8298.004526,313.212000,0.106323
8303.100462,313.262000,0.626458
8308.194770,313.312000,2.209337
8313.287453,313.362000,0.218931
8318.480316,313.413000,3.243864
8323.569717,313.463000,-0.717377
8328.657496,313.513000,3.092708
8333.743651,313.563000,3.809877
8338.828185,313.613000,-0.182787
8344.012739,313.664000,-0.868526
8349.094000,313.714000,0.446096
8354.173640,313.764000,1.048197
8359.251662,313.814000,0.076643
8364.328066,313.864000,0.111062
8369.402853,313.914000,-2.202553
8374.476024,313.964000,1.570027
8379.547579,314.014000,-0.624742
8384.718901,314.065000,0.724614
8389.787195,314.115000,2.832206
8394.853876,314.165000,3.132387
8399.918944,314.215000,-0.003051
8404.982400,314.265000,1.771312
8410.044246,314.315000,-1.741023
8415.104481,314.365000,-0.112194
8420.163107,314.415000,-0.003243
8425.220124,314.465000,1.297231
8430.275533,314.515000,0.626083
8435.329336,314.565000,-0.826362
8440.381532,314.615000,4.929435
8445.432122,314.665000,0.042748
8450.481107,314.715000,1.559692
8455.528489,314.765000,-1.930603
8460.473367,314.814000,1.929825
8465.517575,314.864000,-0.561374
8470.560181,314.914000,-0.418056
8475.601186,314.964000,0.653670
8480.640590,315.014000,-0.835295
8485.678395,315.064000,-2.640300
8490.714602,315.114000,-0.552066
8495.749210,315.164000,1.429860
8500.681577,315.213000,-0.038265
8505.713024,315.263000,-2.996863
8510.742875,315.313000,2.049594
8515.771131,315.363000,-1.993070
8520.797793,315.413000,1.993723
8525.722375,315.462000,0.407646
8530.745883,315.512000,-1.577019
8535.767799,315.562000,0.264332
8540.788124,315.612000,0.316838
8545.706499,315.661000,-2.816596
8550.723675,315.711000,0.782184
8555.739262,315.761000,-1.000840
8560.652997,315.810000,-0.623726
8565.665441,315.860000,-0.654816
8570.676298,315.910000,1.162951
8575.585399,315.959000,-0.477879
8580.593116,316.009000,-0.703365
8585.599249,316.059000,-0.293698
8590.503723,316.108000,1.106403
8595.506721,316.158000,-0.171935
8600.508137,316.208000,-1.293948
8605.407991,316.257000,0.640136
8610.406276,316.307000,-4.663096
8615.303063,316.356000,1.618686
8620.298221,316.406000,-0.569242
8625.191944,316.455000,-3.089342
8630.183977,316.505000,-2.201431
8635.074640,316.554000,-2.781896
8640.063551,316.604000,1.515428
8644.951156,316.653000,1.038164
8649.936949,316.703000,1.123912
8654.821499,316.752000,-0.016325
8659.804175,316.802000,0.878967
8664.685673,316.851000,2.657351
8669.665237,316.901000,1.484450
8674.543685,316.950000,-1.122009
8679.520139,317.000000,0.275861
8684.395541,317.049000,-1.290645
8689.269436,317.098000,-1.612896
8694.241247,317.148000,-2.813426
8699.112100,317.197000,-1.105225
8703.981448,317.246000,-0.350343
8708.948621,317.296000,1.278353
8713.814931,317.345000,0.820043
8718.779005,317.395000,0.175310
8723.642281,317.444000,-0.559883
8728.504055,317.493000,0.580920
8733.364329,317.542000,-0.150956
8738.322247,317.592000,-1.213606
8743.179491,317.641000,-1.323105
8748.035237,317.690000,-1.862907
8752.889486,317.739000,3.473254
8757.841258,317.789000,0.529265
8762.692483,317.838000,0.318372
8767.542212,317.887000,-1.064066
8772.390446,317.936000,-0.007284
8777.336084,317.986000,2.074126
8782.181300,318.035000,-1.991028
8787.025024,318.084000,2.204194
8791.867255,318.133000,3.347676
8796.707995,318.182000,-0.606748
8801.547244,318.231000,-1.455052
8806.385003,318.280000,0.265770
8811.319957,318.330000,0.628368
8816.154708,318.379000,0.425546
8820.987971,318.428000,-2.694539
8825.819746,318.477000,0.760512
8830.650035,318.526000,1.389017
8835.478838,318.575000,0.856632
8840.306156,318.624000,4.234445
8845.131990,318.673000,0.580473
8849.956339,318.722000,0.070999
8854.779206,318.771000,-4.034498
8859.600590,318.820000,1.143262
8864.420492,318.869000,-0.443830
8869.238913,318.918000,-0.259116
8874.055854,318.967000,0.991585
8878.871314,319.016000,2.402840
8883.685296,319.065000,-2.901165
8888.497800,319.114000,-0.850301
8893.308826,319.163000,1.068006
8898.118374,319.212000,-2.151593
8902.926447,319.261000,0.160549
8907.634964,319.309000,2.175552
8912.440116,319.358000,0.697981
8917.243794,319.407000,-0.725315
8922.045998,319.456000,0.655980
8926.846729,319.505000,-0.032425
8931.645988,319.554000,0.554598
8936.443775,319.603000,-0.925667
8941.142222,319.651000,-2.099847
8945.937098,319.700000,1.807954
8950.730504,319.749000,0.642914
8955.522441,319.798000,0.525475
8960.215161,319.846000,-3.173014
8965.004192,319.895000,-3.696413
8969.791757,319.944000,0.835561
8974.577855,319.993000,-2.441173
8979.264858,320.041000,2.493810
8984.048055,320.090000,0.084784
8988.829789,320.139000,1.536670
8993.512517,320.187000,-0.300392
8998.291355,320.236000,-1.118986
9003.068730,320.285000,0.843129
9007.747190,320.333000,-1.657104
9012.521672,320.382000,-1.026986
9017.294694,320.431000,-0.747769
9021.968893,320.479000,-1.251492
9026.739026,320.528000,-1.235440
9031.410396,320.576000,0.553118
9036.177644,320.625000,-1.323857
9040.943434,320.674000,0.368284
9045.610552,320.722000,-0.244590
9050.373460,320.771000,2.514604
9055.037756,320.819000,-0.557059
9059.797784,320.868000,0.688071
9064.459261,320.916000,-1.496410
9069.216413,320.965000,0.856679
9073.875072,321.013000,-2.046402
9078.629350,321.062000,-0.863926
9083.285194,321.110000,0.575130
9088.036601,321.159000,-0.565689
9092.689634,321.207000,1.431887
9097.438171,321.256000,-1.723937
9102.088394,321.304000,2.429579
9106.737229,321.352000,-2.510806
9111.481482,321.401000,-1.579850
9116.127511,321.449000,0.594394
9120.868902,321.498000,-1.332137
9125.512128,321.546000,0.417587
9130.153968,321.594000,4.282647
9134.891085,321.643000,-1.284197
9139.530126,321.691000,0.598813
9144.167783,321.739000,-0.256946
9148.900630,321.788000,0.246175
9153.535492,321.836000,-2.181526
9158.168971,321.884000,-1.426303
9162.801069,321.932000,0.406201
9167.528244,321.981000,0.313116
9172.157551,322.029000,2.174486
9176.785479,322.077000,1.220044
9181.412027,322.125000,-1.987813
9186.133540,322.174000,1.406826
9190.757302,322.222000,-0.847606
9195.379688,322.270000,0.280886
9200.000697,322.318000,0.555783
9204.620330,322.366000,-0.009812
9209.334786,322.415000,-1.129808
9213.951640,322.463000,-1.727012
9218.567119,322.511000,-0.776546
9223.181225,322.559000,0.127248
9227.793957,322.607000,-1.536613
9232.405318,322.655000,-2.563839
9237.015306,322.703000,-1.758382
9241.623923,322.751000,-0.490583
9246.231170,322.799000,1.123594
9250.932988,322.848000,-1.556532
9255.537466,322.896000,1.517403
9260.140576,322.944000,2.704920
9264.742318,322.992000,-0.381603
9269.342693,323.040000,-2.656884
9273.941700,323.088000,1.722154
9278.539341,323.136000,-1.964380
9283.135616,323.184000,0.174066
9287.730527,323.232000,1.391505
9292.324072,323.280000,-1.130113
9296.916254,323.328000,0.323681
9301.411445,323.375000,-1.328925
9306.000929,323.423000,-1.220509
9310.589052,323.471000,-0.365603
9315.175812,323.519000,-0.263238
9319.761212,323.567000,0.907202
9324.345252,323.615000,1.041785
9328.927932,323.663000,1.358438
9333.509253,323.711000,0.245239
9338.089216,323.759000,1.609336
9342.572447,323.806000,-3.195821
9347.149722,323.854000,1.139063
9351.725642,323.902000,-0.118130
9356.300205,323.950000,-1.250657
9360.873412,323.998000,-0.332846
9365.350032,324.045000,-2.227737
9369.920559,324.093000,-0.632708
9374.489732,324.141000,-1.290253
9379.057552,324.189000,2.546047
9383.528899,324.236000,0.284637
9388.094043,324.284000,0.687008
9392.657836,324.332000,-0.603882
9397.125241,324.379000,0.832228
9401.686361,324.427000,1.443480
9406.246132,324.475000,-0.371461
9410.804554,324.523000,0.398668
9415.266702,324.570000,0.832894
9419.822456,324.618000,0.054434
9424.281993,324.665000,1.640664
9428.835082,324.713000,2.541871
9433.386824,324.761000,-1.119590
9437.842435,324.808000,-0.309233
9442.391516,324.856000,-3.070740
9446.844521,324.903000,0.614211
9451.390942,324.951000,-2.020404
9455.936020,324.999000,0.129364
9460.385108,325.046000,-0.473132
9464.927530,325.094000,-0.768066
9469.374018,325.141000,0.246065
9473.913786,325.189000,-0.715003
9478.357677,325.236000,0.103334
9482.894794,325.284000,-0.455166
9487.336090,325.331000,0.005099
9491.870557,325.379000,0.346718
9496.309260,325.426000,-1.219466
9500.746681,325.473000,0.057862
9505.277193,325.521000,-0.222592
9509.712024,325.568000,-1.613755
9514.239893,325.616000,-0.539749
9518.672137,325.663000,-0.772644
9523.103102,325.710000,0.375732
9527.627024,325.758000,0.053102
9532.055405,325.805000,2.251986
9536.576689,325.853000,-2.259904
9541.002489,325.900000,0.592787
9545.427013,325.947000,-0.609598
9549.850260,325.994000,2.501170
9554.366303,326.042000,-0.401966
9558.786974,326.089000,0.203495
9563.206371,326.136000,0.054261
9567.718482,326.184000,1.416017
9572.135305,326.231000,0.440279
9576.550855,326.278000,-0.760790
9580.965134,326.325000,-1.335630
9585.472021,326.373000,-0.077124
9589.883730,326.420000,0.055826
9594.294169,326.467000,-1.579221
9598.703338,326.514000,0.009110
9603.111238,326.561000,0.728989
9607.611614,326.609000,0.127535
9612.016950,326.656000,0.121605
9616.421019,326.703000,-1.004366
9620.823821,326.750000,-1.491598
9625.225356,326.797000,-2.180138
9629.625626,326.844000,2.169410
9634.024630,326.891000,-2.149710
9638.422369,326.938000,0.727103
9642.818845,326.985000,2.065649
9647.214056,327.032000,-1.193713
9651.701479,327.080000,-1.253432
9656.094138,327.127000,0.284160
9660.485535,327.174000,0.121606
9664.875670,327.221000,-1.745404
9669.264544,327.268000,-0.294819
9673.652158,327.315000,1.272937
9678.038512,327.362000,-1.454712
9682.423607,327.409000,0.814842
9686.807443,327.456000,-1.417420
9691.190021,327.503000,-2.707392
9695.478134,327.549000,-0.405590
9699.858224,327.596000,1.226069
9704.237057,327.643000,-0.123366
9708.614633,327.690000,-0.811073
9712.990955,327.737000,1.566590
9717.366021,327.784000,-2.024397
9721.739833,327.831000,0.853941
9726.112390,327.878000,-0.145275
9730.483695,327.925000,0.817983
9734.760780,327.971000,-3.026525
9739.129606,328.018000,0.417687
9743.497180,328.065000,1.844667
9747.863503,328.112000,-1.768320
9752.228575,328.159000,0.589093
9756.499562,328.205000,0.044617
9760.862161,328.252000,-0.282597
9765.223511,328.299000,0.132384
9769.583612,328.346000,0.169633
9773.849737,328.392000,1.693718
9778.207369,328.439000,-5.764322
9782.563754,328.486000,-1.040730
9786.918893,328.533000,1.144187
9791.180163,328.579000,2.642526
9795.532837,328.626000,0.692891
9799.884266,328.673000,3.726816
9804.141906,328.719000,0.957518
9808.490874,328.766000,2.529204
9812.838598,328.813000,1.407233
9817.092614,328.859000,-2.598317
9821.437879,328.906000,0.379505
9825.689490,328.952000,1.918742
9830.032299,328.999000,0.816197
9834.373868,329.046000,-0.526554
9838.621862,329.092000,0.785573
9842.960977,329.139000,0.134953
9847.206571,329.185000,0.057605
9851.543235,329.232000,0.181956
9855.786431,329.278000,0.504159
9860.120646,329.325000,0.004302
9864.361446,329.371000,-0.076861
9868.693214,329.418000,-0.706465
9872.931619,329.464000,-1.897828
9877.260942,329.511000,-2.290899
9881.496956,329.557000,-2.045657
9885.823836,329.604000,0.119577
9890.057460,329.650000,0.812723
9894.289903,329.696000,0.870451
9898.613135,329.743000,0.401427
9902.843191,329.789000,1.233236
9907.163985,329.836000,-0.725793
9911.391656,329.882000,-2.002687
9915.618148,329.928000,-1.342520
9919.935303,329.975000,-3.891183
9924.159413,330.021000,1.499547
9928.382346,330.067000,-0.544316
9932.695866,330.114000,0.892087
9936.916419,330.160000,-0.812544
9941.135797,330.206000,-0.250002
9945.445687,330.253000,0.381684
9949.662689,330.299000,2.465478
9953.878516,330.345000,0.726409
9958.093170,330.391000,0.116892
9962.398234,330.438000,0.231858
9966.610516,330.484000,-1.605139
9970.821625,330.530000,-2.301775
9975.031562,330.576000,1.327516
9979.240328,330.622000,0.751971
9983.539380,330.669000,-0.981431
9987.745778,330.715000,1.302525
9991.951007,330.761000,-1.102142
9996.155067,330.807000,-0.967448
10000.357957,330.853000,-0.611877
10004.559679,330.899000,-1.458285
10008.760233,330.945000,-1.850846
10013.050897,330.992000,2.867556
10017.249091,331.038000,-1.547622
10021.446118,331.084000,-3.377388
10025.641979,331.130000,-0.501727
10029.836675,331.176000,-4.776360
10034.030205,331.222000,0.577566
10038.222571,331.268000,-1.665637
10042.413773,331.314000,1.293820
10046.603811,331.360000,-1.116088
10050.792686,331.406000,0.378885
10054.980398,331.452000,-2.252280
10059.166948,331.498000,0.693210
10063.352336,331.544000,-1.327687
10067.536563,331.590000,3.291333
10071.719629,331.636000,0.878673
10075.901535,331.682000,-0.266418
10080.082281,331.728000,0.869996
10084.261868,331.774000,-1.225436
10088.440296,331.820000,0.677047
10092.526768,331.865000,-3.986110
10096.702905,331.911000,-3.337943
10100.877884,331.957000,-0.174208
10105.051707,332.003000,1.123329
10109.224373,332.049000,1.695208
10113.395884,332.095000,0.696844
10117.475591,332.140000,1.350434
10121.644816,332.186000,0.661528
10125.812886,332.232000,1.070333
10129.979802,332.278000,1.691429
10134.145565,332.324000,1.172513
10138.219652,332.369000,-0.127143
10142.383134,332.415000,-0.761603
10146.545464,332.461000,-0.167201
10150.706643,332.507000,-0.854857
10154.776247,332.552000,-1.658113
10158.935148,332.598000,2.062018
10163.092900,332.644000,0.277774
10167.159152,332.689000,0.474059
10171.314630,332.735000,0.499718
10175.468958,332.781000,3.799259
10179.531864,332.826000,-0.298335
10183.683921,332.872000,1.755432
10187.834831,332.918000,-1.049163
10191.894393,332.963000,-0.467260
10196.043035,333.009000,0.964362
10200.190530,333.055000,0.787311
10204.246754,333.100000,2.200413
10208.391984,333.146000,-0.709181
10212.445992,333.191000,-0.915292
10216.588958,333.237000,-2.201096
10220.640753,333.282000,-0.348296
10224.781457,333.328000,3.308384
10228.831039,333.373000,-1.182574
10232.969483,333.419000,-1.945796
10237.016856,333.464000,0.656522
10241.153042,333.510000,0.001617
10245.198206,333.555000,-3.078003
10249.332135,333.601000,0.166207
10253.375094,333.646000,-0.048610
10257.506768,333.692000,-1.724123
10261.547522,333.737000,-2.231019
10265.587186,333.782000,-1.908249
10269.715494,333.828000,0.684803
10273.752956,333.873000,0.566665
10277.879015,333.919000,0.255741
10281.914277,333.964000,0.349046
10285.948452,334.009000,-1.741466
10290.071151,334.055000,0.060355
10294.103128,334.100000,0.084680
10298.134020,334.145000,3.770829
10302.253364,334.191000,0.411015
10306.282060,334.236000,-0.423108
10310.309672,334.281000,-0.984606
10314.425666,334.327000,0.043446
10318.451085,334.372000,-1.184701
10322.475422,334.417000,-2.149448
10326.498675,334.462000,1.644895
10330.610215,334.508000,-1.614547
10334.631280,334.553000,-2.294588
10338.651263,334.598000,-0.391989
10342.670165,334.643000,-3.034646
10346.687987,334.688000,0.297173
10350.704728,334.733000,-1.038925
10354.809614,334.779000,-2.451767
10358.824172,334.824000,-1.546918
10362.837651,334.869000,-0.501961
10366.850051,334.914000,-0.759799
10370.861373,334.959000,-1.286917
10374.871618,335.004000,-1.228988
10378.880786,335.049000,1.482561
10382.888876,335.094000,0.000478
10386.984923,335.140000,-1.524722
10390.990838,335.185000,-1.754441
10394.995677,335.230000,-1.936617
10398.999440,335.275000,-0.444205
10403.002130,335.320000,-2.216810
10407.003745,335.365000,-1.656826
10411.004286,335.410000,-1.356350
10415.003755,335.455000,0.281752
10419.002150,335.500000,2.794108
10422.999473,335.545000,1.679986
10426.995723,335.590000,-1.897862
10430.990902,335.635000,-1.648668
10434.985010,335.680000,-1.705346
10438.889325,335.724000,-1.477498
10442.881316,335.769000,4.291109
10446.872237,335.814000,-1.196053
10450.862088,335.859000,-0.828431
10454.850871,335.904000,-0.490883
10458.838585,335.949000,-2.382221
10462.825230,335.994000,-0.616907
10466.810808,336.039000,-1.269431
10470.706786,336.083000,-2.364760
10474.690253,336.128000,3.710902
10478.672654,336.173000,-1.128596
10482.653989,336.218000,0.131954
10486.634259,336.263000,-1.953711
10490.525048,336.307000,1.353292
10494.503211,336.352000,0.481897
10498.480310,336.397000,-2.423023
10502.456345,336.442000,-1.395363
10506.342995,336.486000,2.122245
10510.316927,336.531000,0.156519
10514.289797,336.576000,0.831390
10518.261604,336.621000,0.522466
10522.144122,336.665000,1.177664
10526.113830,336.710000,0.940238
10530.082477,336.755000,0.060194
10533.961906,336.799000,-1.082108
10537.928455,336.844000,0.268502
10541.893946,336.889000,-1.034040
10545.770289,336.933000,0.021576
10549.733685,336.978000,0.429570
10553.607982,337.022000,0.586285
10557.569284,337.067000,2.189627
10561.529529,337.112000,-0.454370
10565.400747,337.156000,-2.019609
10569.358902,337.201000,-0.335902
10573.228076,337.245000,-0.272493
10577.184142,337.290000,-1.294706
10581.051275,337.334000,-1.471894
10585.005254,337.379000,-0.012577
10588.870347,337.423000,-0.909222
10592.822240,337.468000,-1.494276
10596.685295,337.512000,-0.863340
10600.635105,337.557000,1.485846
10604.496123,337.601000,0.125912
10608.443850,337.646000,1.888279
10612.302834,337.690000,-3.120742
10616.160811,337.734000,-1.937951
10620.105430,337.779000,0.449683
10623.961375,337.823000,-1.782477
10627.903916,337.868000,-0.696080
10631.757830,337.912000,2.052598
10635.610740,337.956000,0.592971
10639.550179,338.001000,-1.615198
10643.401061,338.045000,0.086062
10647.250940,338.089000,-1.956348
10651.187281,338.134000,1.116920
10655.035134,338.178000,3.780164
10658.881986,338.222000,1.503827
10662.815231,338.267000,0.575296
10666.660059,338.311000,-0.169887
10670.503887,338.355000,-0.841476
10674.346716,338.399000,1.040873
10678.275848,338.444000,-1.852654
10682.116656,338.488000,-1.209079
10685.956465,338.532000,-1.100405
10689.795276,338.576000,-0.686434
10693.633090,338.620000,0.741971
10697.557096,338.665000,0.733894
10701.392893,338.709000,-0.730584
10705.227693,338.753000,0.525361
10709.061498,338.797000,-0.317008
10712.894307,338.841000,-1.160235
10716.726120,338.885000,2.918117
10720.556939,338.929000,1.825410
10724.386763,338.973000,-2.557650
10728.302601,339.018000,-0.698101
10732.130414,339.062000,3.100542
10735.957235,339.106000,0.666290
10739.783062,339.150000,-0.912934
10743.607897,339.194000,-4.168189
10747.431740,339.238000,0.165059
10751.254591,339.282000,0.350484
10755.076450,339.326000,4.597743
10758.897319,339.370000,0.196646
10762.717197,339.414000,1.650281
10766.536084,339.458000,-0.604723
10770.353982,339.502000,-0.189889
10774.170890,339.546000,1.945450
10777.986809,339.590000,-1.539102
10781.801740,339.634000,0.404639
10785.615682,339.678000,-0.069749
10789.341989,339.721000,0.005252
10793.153978,339.765000,0.780448
10796.964980,339.809000,0.790569
10800.774995,339.853000,0.804003
10804.584024,339.897000,-1.247132
10808.392066,339.941000,-1.666464
10812.199123,339.985000,1.180510
10816.005195,340.029000,0.590470
10819.723813,340.072000,0.662846
10823.527938,340.116000,-1.516076
10827.331078,340.160000,-0.317430
10831.133235,340.204000,1.845546
10834.848029,340.247000,-0.372417
10838.648242,340.291000,-0.967623
10842.447472,340.335000,-1.973757
10846.245720,340.379000,-1.075561
10849.956695,340.422000,1.680404
10853.753002,340.466000,-1.299219
10857.548328,340.510000,0.392355
10861.342673,340.554000,0.942089
10865.049836,340.597000,-0.687465
10868.842243,340.641000,-0.555317
10872.633670,340.685000,1.509483
10876.337983,340.728000,0.108692
10880.127474,340.772000,-1.415371
10883.829896,340.815000,-1.631395
10887.617453,340.859000,-0.007978
10891.404033,340.903000,0.247596
10895.103609,340.946000,2.219480
10898.888257,340.990000,1.412137
10902.585946,341.033000,-0.840082
10906.368663,341.077000,-0.135215
10910.150404,341.121000,0.821106
10913.845254,341.164000,2.523444
10917.625066,341.208000,3.096163
10921.318033,341.251000,0.837620
10925.095918,341.295000,0.789840
10928.787002,341.338000,0.771955
10932.562962,341.382000,2.585461
10936.252165,341.425000,-0.974282
10939.940439,341.468000,0.986531
10943.713524,341.512000,1.336459
10947.399919,341.555000,-0.574431
10951.171083,341.599000,1.009982
10954.855601,341.642000,-0.716992
10958.624845,341.686000,-4.151965
10962.307486,341.729000,-2.301873
10965.989201,341.772000,1.001461
10969.755578,341.816000,-1.277250
10973.435419,341.859000,-1.022621
10977.114334,341.902000,-0.574112
10980.877848,341.946000,-1.696311
10984.554892,341.989000,0.033906
10988.231011,342.032000,-1.876090
10991.991665,342.076000,1.367100
10995.665914,342.119000,-0.524235
10999.339240,342.162000,-0.545188
11003.011643,342.205000,1.203323
11006.768496,342.249000,1.761141
11010.439032,342.292000,1.059930
11014.108646,342.335000,0.091353
11017.777338,342.378000,0.697486
11021.530396,342.422000,0.639985
11025.197224,342.465000,-1.464738
11028.863132,342.508000,0.371225
11032.528119,342.551000,0.944421
11036.192187,342.594000,-0.405789
11039.855335,342.637000,-0.688161
11043.602720,342.681000,-0.493086
11047.264009,342.724000,1.996951
11050.924378,342.767000,-0.510454
11054.583829,342.810000,-2.502822
11058.242363,342.853000,-1.105659
11061.899979,342.896000,0.123401
11065.556677,342.939000,-0.118481
11069.212459,342.982000,-0.801046
11072.867324,343.025000,1.962208
11076.521273,343.068000,-2.875911
11080.174306,343.111000,-2.371008
11083.826423,343.154000,-0.543272
11087.477626,343.197000,-0.812990
11091.127913,343.240000,1.121035
11094.777286,343.283000,-1.687401
11098.425745,343.326000,2.128806
11102.073291,343.369000,-0.891336
11105.719922,343.412000,-0.953870
11109.365641,343.455000,-2.021306
11113.010447,343.498000,0.841216
11116.654340,343.541000,-1.566836
11120.297322,343.584000,0.085923
11123.939391,343.627000,3.891500
11127.580549,343.670000,-1.826059
11131.220797,343.713000,0.395337
11134.775508,343.755000,-0.684118
11138.413955,343.798000,0.802667
11142.051492,343.841000,1.289554
11145.688120,343.884000,-2.238655
11149.323838,343.927000,-2.861377
11152.958647,343.970000,-0.049519
11156.508049,344.012000,0.796440
11160.141062,344.055000,1.103549
11163.773167,344.098000,-1.147656
11167.404365,344.141000,-0.432194
11170.950240,344.183000,-2.334202
11174.579645,344.226000,-0.882329
11178.208143,344.269000,0.812435
11181.751382,344.311000,-3.223304
11185.378088,344.354000,-0.510377
11189.003889,344.397000,2.114448
11192.628785,344.440000,1.292390
11196.168507,344.482000,0.942353
11199.791614,344.525000,-1.433069
11203.413817,344.568000,-1.558242
11206.950910,344.610000,2.211733
11210.571327,344.653000,1.310133
11214.106675,344.695000,-3.302811
11217.725306,344.738000,-2.625193
11221.343035,344.781000,1.384062
11224.875759,344.823000,3.745475
11228.491704,344.866000,-1.433110
11232.022687,344.908000,-1.881416
11235.636851,344.951000,0.580142
11239.166094,344.993000,0.548820
11242.778477,345.036000,0.653792
11246.305982,345.078000,-1.667913
11249.916585,345.121000,0.546344
11253.442353,345.163000,-0.287965
11257.051178,345.206000,2.528234
11260.575210,345.248000,1.463454
11264.182259,345.291000,-3.604278
11267.704555,345.333000,0.468083
11271.309829,345.376000,-1.679382
11274.830392,345.418000,2.429920
11278.350100,345.460000,-2.170981
11281.952723,345.503000,-0.165632
11285.470699,345.545000,0.053625
11288.987820,345.587000,-1.121211
11292.587796,345.630000,0.009999
11296.103187,345.672000,0.458049
11299.701393,345.715000,2.243647
11303.215056,345.757000,1.650481
11306.727865,345.799000,-0.989792
11310.239821,345.841000,1.284002
11313.834512,345.884000,2.769477
11317.344742,345.926000,-0.905373
11320.854120,345.968000,2.357928
11324.446172,346.011000,-0.668842
11327.953826,346.053000,-0.528257
11331.460629,346.095000,-2.119248
11334.966581,346.137000,-1.489880
11338.471682,346.179000,-2.016228
11342.059357,346.222000,0.893289
11345.562737,346.264000,-3.767704
11349.065268,346.306000,0.261054
11352.566949,346.348000,-2.105509
11356.067781,346.390000,2.490711
11359.567764,346.432000,-0.568545
11363.150201,346.475000,1.883461
11366.648467,346.517000,0.847834
11370.145885,346.559000,1.283258
11373.642456,346.601000,-0.793159
11377.138179,346.643000,0.760068
11380.633055,346.685000,-2.525943
11384.127085,346.727000,-1.682239
11387.620268,346.769000,1.622888
11391.112605,346.811000,-0.489559
11394.604096,346.853000,0.283844
11398.094742,346.895000,1.124522
11401.584543,346.937000,0.215444
11405.073499,346.979000,0.177075
11408.561610,347.021000,-0.029110
11412.048877,347.063000,1.698411
11415.535301,347.105000,1.171776
11419.020880,347.147000,-2.299494
11422.505617,347.189000,1.041722
11425.989510,347.231000,-1.302344
11429.472560,347.273000,-1.578116
11432.954769,347.315000,0.278487
11436.436135,347.357000,-0.999267
11439.916659,347.399000,0.268929
11443.313502,347.440000,2.230277
11446.792364,347.482000,-1.030433
11450.270384,347.524000,-1.490934
11453.747565,347.566000,0.654177
11457.223905,347.608000,-1.971667
11460.699405,347.650000,-3.018209
11464.091345,347.691000,0.504566
11467.565186,347.733000,-0.979306
11471.038188,347.775000,-1.152255
11474.510351,347.817000,0.215860
11477.981676,347.859000,1.706974
11481.369541,347.900000,-0.595671
11484.839210,347.942000,-0.186323
11488.308041,347.984000,0.190315
11491.693473,348.025000,-0.884623
11495.160650,348.067000,-2.152673
11498.626991,348.109000,-1.529717
11502.092494,348.151000,0.036772
11505.474680,348.192000,1.293650
11508.938532,348.234000,-0.952066
11512.401549,348.276000,-1.897796
11515.781307,348.317000,-0.252789
11519.242673,348.359000,-1.589309
11522.620821,348.400000,-1.170935
11526.080539,348.442000,1.407123
11529.539422,348.484000,-0.562343
11532.915148,348.525000,-0.851495
11536.372384,348.567000,0.742558
11539.746502,348.608000,0.099968
11543.202092,348.650000,0.105658
11546.574604,348.691000,1.858657
11550.028550,348.733000,-1.413620
11553.399456,348.774000,-0.090269
11556.851758,348.816000,1.064626
11560.221061,348.857000,-2.275238
11563.671720,348.899000,1.806823
11567.039420,348.940000,-1.839523
11570.488439,348.982000,-0.705788
11573.854537,349.023000,0.028172
11577.301915,349.065000,-0.585817
11580.666413,349.106000,-1.258578
11584.030120,349.147000,-0.729789
11587.475051,349.189000,0.758645
11590.837159,349.230000,-0.756098
11594.280452,349.272000,2.016922
11597.640963,349.313000,-1.017231
11601.000686,349.354000,-0.014664
11604.441535,349.396000,-2.689309
11607.799661,349.437000,-0.191887
11611.157000,349.478000,-0.264032
11614.595408,349.520000,-1.143274
11617.951152,349.561000,-0.771015
11621.306109,349.602000,-3.673262
11624.660280,349.643000,-5.653590
11628.095443,349.685000,0.547204
11631.448022,349.726000,0.968606
11634.799814,349.767000,-0.574549
11638.150821,349.808000,-1.249046
11641.582745,349.850000,-1.830386
11644.932162,349.891000,-1.604770
11648.280794,349.932000,1.615377
11651.628641,349.973000,-0.393519
11654.975704,350.014000,-1.608638
11658.403590,350.056000,1.669617
11661.749066,350.097000,-2.002869
11665.093759,350.138000,1.055363
11668.437668,350.179000,1.086988
11671.780795,350.220000,-0.589019
11675.123139,350.261000,0.610717
11678.464700,350.302000,-0.521681
11681.805480,350.343000,-1.131262
11685.145477,350.384000,1.104570
11688.484693,350.425000,-1.874693
11691.904543,350.467000,0.088476
11695.242178,350.508000,0.877342
11698.579032,350.549000,-0.748309
11701.915105,350.590000,-3.893198
11705.250398,350.631000,-0.348764
11708.584912,350.672000,3.407603
11711.918645,350.713000,1.749579
11715.251600,350.754000,0.705209
11718.502512,350.794000,-2.927219
11721.833927,350.835000,-0.236538
11725.164564,350.876000,2.789650
11728.494422,350.917000,-1.620498
11731.823503,350.958000,-1.365521
11735.151806,350.999000,-0.412758
11738.479331,351.040000,-0.014255
11741.806079,351.081000,0.988642
11745.132050,351.122000,0.829940
11748.457245,351.163000,-1.712552
11751.700589,351.203000,0.258631
11755.024250,351.244000,1.812706
11758.347135,351.285000,4.383278
11761.669245,351.326000,-2.181565
11764.990579,351.367000,0.999998
11768.230159,351.407000,2.061428
11771.549962,351.448000,-0.549968
11774.868991,351.489000,-2.803988
11778.187246,351.530000,1.420829
11781.423822,351.570000,-0.685772
11784.740548,351.611000,2.768860
11788.056500,351.652000,0.611360
11791.371680,351.693000,0.249233
11794.605256,351.733000,1.569120
11797.918909,351.774000,0.493522
11801.231790,351.815000,-0.864232
11804.463124,351.855000,-0.057023
11807.774479,351.896000,-0.304419
11811.085063,351.937000,0.459389
11814.314158,351.977000,-1.029959
11817.623218,352.018000,1.302515
11820.850827,352.058000,-1.273669
11824.158365,352.099000,-1.476188
11827.465133,352.140000,-0.306985
11830.690506,352.180000,1.012995
11833.995753,352.221000,-1.086477
11837.219643,352.261000,-1.855521
11840.523370,352.302000,-2.599115
11843.745778,352.342000,-1.069906
11847.047986,352.383000,1.900481
11850.268913,352.423000,0.299120
11853.569603,352.464000,-2.220143
11856.789050,352.504000,-0.874351
11860.088224,352.545000,-0.029684
11863.306191,352.585000,1.312688
11866.603850,352.626000,1.211542
11869.820339,352.666000,0.479458
11873.116483,352.707000,0.588035
11876.331495,352.747000,0.070819
11879.545777,352.787000,-2.044713
11882.839661,352.828000,2.914055
11886.052468,352.868000,-2.789314
11889.264547,352.908000,1.219624
11892.556173,352.949000,1.214254
11895.766777,352.989000,-0.312466
11899.056892,353.030000,-0.128301
11902.266024,353.070000,0.312773
11905.474429,353.110000,-0.829444
11908.682107,353.150000,1.603487
11911.969223,353.191000,-0.616148
11915.175430,353.231000,0.465677
11918.380911,353.271000,-2.406951
11921.665775,353.312000,3.966005
11924.869787,353.352000,-0.530363
11928.073073,353.392000,-1.151897
11931.275634,353.432000,2.074171
11934.477470,353.472000,-1.655815
11937.758600,353.513000,0.089890
11940.958969,353.553000,0.478789
11944.158614,353.593000,1.700859
11947.357536,353.633000,-0.033547
11950.555733,353.673000,-1.905975
11953.753208,353.713000,-1.519049
11957.029868,353.754000,-0.979893
11960.225879,353.794000,-1.242523
11963.421166,353.834000,1.977252
11966.615732,353.874000,-1.977959
11969.809575,353.914000,-0.621519
11973.002696,353.954000,0.795673
11976.195096,353.994000,-1.961034
11979.386774,354.034000,3.787573
11982.577731,354.074000,2.938430
11985.767968,354.114000,-1.564068
11988.957483,354.154000,-1.804968
11992.146279,354.194000,-0.112895
11995.334354,354.234000,-4.209295
11998.521709,354.274000,-0.100637
12001.708345,354.314000,1.531306
12004.894261,354.354000,-2.903681
12008.079458,354.394000,0.302960
12011.263936,354.434000,0.176841
12014.447695,354.474000,0.577654
12017.630736,354.514000,-0.583340
12020.813059,354.554000,-0.179004
12023.994663,354.594000,-3.306948
12027.175550,354.634000,-1.063243
12030.276224,354.673000,-0.832803
12033.455694,354.713000,2.033525
12036.634448,354.753000,-0.887797
12039.812484,354.793000,-1.548272
12042.989804,354.833000,-0.083012
12046.166408,354.873000,0.861792
12049.262907,354.912000,-1.852630
12052.438097,354.952000,-1.886613
12055.612571,354.992000,0.135330
12058.786330,355.032000,-0.268809
12061.880056,355.071000,2.192932
12065.052403,355.111000,-0.842116
12068.224035,355.151000,2.857172
12071.394953,355.191000,2.321817
12074.485910,355.230000,-2.249469
12077.655418,355.270000,1.649895
12080.824212,355.310000,0.413678
12083.913100,355.349000,1.397428
12087.080485,355.389000,2.267155
12090.247158,355.429000,3.408152
12093.333977,355.468000,-2.384469
12096.499242,355.508000,-1.258138
12099.663795,355.548000,-35.980610
12102.748549,355.587000,-119.780816
12105.911696,355.627000,-65.733136
12108.995079,355.666000,-101.081544
12112.156822,355.706000,-61.057299
12115.317853,355.746000,-18.607583
12118.399174,355.785000,-74.013434
12121.558801,355.825000,-37.680946
12124.638754,355.864000,-93.247723
12127.796979,355.904000,-86.876151
12130.875565,355.943000,-74.402715
12134.032389,355.983000,-71.584164
12137.109608,356.022000,-53.755160
12140.265031,356.062000,-44.046003
12143.340885,356.101000,-113.837015
12146.494908,356.141000,-57.207323
12149.569398,356.180000,-52.915341
12152.643215,356.219000,-70.590742
12155.795149,356.259000,-88.102718
12158.867603,356.298000,-15.325051
12162.018139,356.338000,-100.225188
12165.089231,356.377000,-42.402083
12168.159651,356.416000,-33.710781
12171.308101,356.456000,-111.638894
12174.377160,356.495000,-106.062474
12177.445548,356.534000,-23.464566
12180.591915,356.574000,-43.167210
12183.658943,356.613000,-73.975215
12186.725300,356.652000,-40.305319
12189.869585,356.692000,-49.720254
12192.934585,356.731000,-49.665100
12195.998914,356.770000,-68.151386
12199.062573,356.809000,-108.947738
12202.204093,356.849000,-79.676644
12205.266396,356.888000,-56.343235
12208.328030,356.927000,-70.511269
12211.388995,356.966000,-31.000458
12214.527751,357.006000,-58.244652
12217.587361,357.045000,-36.473754
12220.646304,357.084000,-68.981218
12223.704578,357.123000,-41.360284
12226.762184,357.162000,-68.071506
12229.819122,357.201000,-81.036751
12232.953750,357.241000,-93.934592
12236.009337,357.280000,-43.596609
12239.064257,357.319000,-25.676171
12242.118510,357.358000,-72.586710
12245.172096,357.397000,-57.286347
12248.225016,357.436000,-71.459877
