raman_shift_cm-1,wavelength_nm,intensity
-323.608033,246.616000,0.000000
-312.759145,246.682000,0.000000
-301.916061,246.748000,0.000000
-291.078776,246.814000,0.002500
-280.083216,246.881000,0.090500
-269.257603,246.947000,-0.063500
-258.437774,247.013000,-1.444500
-247.623726,247.079000,-1.312000
-236.815454,247.145000,-0.843500
-226.012953,247.211000,-1.344500
-215.216219,247.277000,-1.346000
-204.425246,247.343000,-1.565500
-193.640031,247.409000,-0.987500
-182.860568,247.475000,-0.056000
-172.086854,247.541000,-1.455000
-161.318883,247.607000,-2.522500
-150.556651,247.673000,-0.254500
-139.800153,247.739000,-0.012000
-129.049385,247.805000,-1.217000
-118.467103,247.870000,0.189500
-107.727694,247.936000,0.190000
-96.994001,248.002000,-1.131000
-86.266020,248.068000,-0.910500
-75.543746,248.134000,-0.629000
-64.827174,248.200000,-0.794000
-54.278543,248.265000,0.018000
-43.573277,248.331000,-0.675500
-32.873698,248.397000,0.219500
-22.179805,248.463000,-0.829000
-11.653491,248.528000,-0.029500
-0.970866,248.594000,-0.226000
9.706087,248.660000,0.774000
20.377375,248.726000,-0.313000
30.881442,248.791000,-0.618000
41.541497,248.857000,-0.216000
52.195898,248.923000,-0.178500
62.683348,248.988000,-1.178000
73.326542,249.054000,-0.446000
83.802964,249.119000,-0.291500
94.434970,249.185000,-0.742000
104.900381,249.250000,-0.781500
115.521215,249.316000,0.351000
125.975632,249.381000,-0.916500
136.585313,249.447000,0.302500
147.028754,249.512000,-0.012500
157.627298,249.578000,-0.793500
168.059780,249.643000,-0.530000
178.647205,249.709000,-1.366500
189.068746,249.774000,-1.002500
199.645070,249.840000,0.275500
210.055686,249.905000,0.721500
220.620926,249.971000,37.509500
231.020635,250.036000,7.794000
241.414938,250.101000,-0.527000
251.963627,250.167000,-0.687500
262.347049,250.232000,-2.013000
272.725077,250.297000,-1.605000
283.097717,250.362000,0.445000
293.624427,250.428000,3.419500
303.986219,250.493000,3.144500
314.342635,250.558000,4.753500
324.693679,250.623000,3.832500
335.198478,250.689000,0.478000
345.538708,250.754000,2.470000
355.873579,250.819000,0.699500
366.203095,250.884000,-1.227000
376.527259,250.949000,0.054500
386.846077,251.014000,-4.550000
397.318179,251.080000,-1.332000
407.626234,251.145000,-2.447500
417.928954,251.210000,-0.596000
428.226343,251.275000,0.178500
438.518407,251.340000,-3.704500
448.805149,251.405000,1.212500
459.086573,251.470000,1.155000
469.362683,251.535000,-2.495500
479.633483,251.600000,-3.754000
489.898978,251.665000,2.822500
500.159172,251.730000,4.169000
510.414069,251.795000,12.879000
520.663672,251.860000,-6.107500
530.907986,251.925000,-5.315000
541.147015,251.990000,-4.866500
551.223361,252.054000,0.163500
561.451914,252.119000,-1.414500
571.675194,252.184000,1.423000
581.893205,252.249000,-4.133000
592.105952,252.314000,-1.248000
602.313438,252.379000,3.134000
612.358750,252.443000,1.119000
622.555807,252.508000,1.500500
632.747617,252.573000,-3.225000
642.934182,252.638000,-0.150500
652.958910,252.702000,0.200500
663.135079,252.767000,-0.184500
673.306016,252.832000,-2.026000
683.315368,252.896000,-0.800000
693.475932,252.961000,-1.654000
703.631276,253.026000,-1.085500
713.625287,253.090000,3.448000
723.770283,253.155000,0.457000
733.910070,253.220000,-1.265500
743.888776,253.284000,0.081000
754.018238,253.349000,-0.199000
763.986786,253.413000,-0.589500
774.105940,253.478000,-0.192000
784.064345,253.542000,0.984000
794.173206,253.607000,-0.269500
804.121484,253.671000,0.516000
814.220067,253.736000,-1.101000
824.158233,253.800000,0.382000
834.246555,253.865000,0.974500
844.174625,253.929000,1.321000
854.252700,253.994000,8.101500
864.170690,254.058000,-1.058500
874.083683,254.122000,0.203500
884.146458,254.187000,2.404500
894.049394,254.251000,-0.420500
903.947346,254.315000,0.740000
913.994855,254.380000,1.155000
923.882772,254.444000,1.119000
933.765716,254.508000,1.028500
943.797994,254.573000,-4.096500
953.670926,254.637000,3.380000
963.538895,254.701000,1.193500
973.401907,254.765000,-0.436000
983.259965,254.829000,-2.062000
993.266988,254.894000,-3.077000
1003.115071,254.958000,-4.048000
1012.958212,255.022000,-7.649500
1022.796413,255.086000,-5.955000
1032.629679,255.150000,-3.184500
1042.458013,255.214000,-8.794000
1052.281419,255.278000,-18.317500
1062.253275,255.343000,-7.109500
1072.066759,255.407000,2.130000
1081.875326,255.471000,6.961500
1091.678980,255.535000,10.722500
1101.477725,255.599000,4.564500
1111.271563,255.663000,0.933000
1121.060500,255.727000,-1.122500
1130.844538,255.791000,-0.216000
1140.623681,255.855000,-0.541500
1150.397933,255.919000,-0.467500
1160.014689,255.982000,1.362500
1169.779246,256.046000,1.170500
1179.538923,256.110000,3.102000
1189.293724,256.174000,6.486500
1199.043651,256.238000,2.437500
1208.788709,256.302000,-0.291000
1218.528902,256.366000,2.116500
1228.112156,256.429000,0.247500
1237.842704,256.493000,-0.163500
1247.568398,256.557000,0.392000
1257.289241,256.621000,-0.494000
1267.005236,256.685000,-3.048500
1276.564688,256.748000,-2.909000
1286.271074,256.812000,-0.171500
1295.972624,256.876000,-3.212500
1305.517867,256.939000,-3.413500
1315.209831,257.003000,3.399000
1324.896968,257.067000,0.041000
1334.428034,257.130000,0.480000
1344.105605,257.194000,-0.738500
1353.778362,257.258000,-1.318500
1363.295282,257.321000,1.001500
1372.958494,257.385000,-1.265500
1382.466026,257.448000,0.272000
1392.119708,257.512000,-2.613000
1401.617865,257.575000,-6.369500
1411.262031,257.639000,-4.231000
1420.750828,257.702000,1.199500
1430.385491,257.766000,-2.966000
1439.864942,257.829000,-2.888500
1449.490117,257.893000,-0.885000
1458.960235,257.956000,3.585000
1468.575936,258.020000,2.764000
1478.036734,258.083000,0.524000
1487.492915,258.146000,-3.918000
1497.094468,258.210000,-2.104000
1506.541350,258.273000,-16.095000
1516.133465,258.337000,-2.691000
1525.571062,258.400000,-2.684500
1535.004058,258.463000,-2.062500
1544.432457,258.526000,-0.961000
1554.005809,258.590000,-0.367500
1563.424950,258.653000,-0.073000
1572.839503,258.716000,-0.731500
1582.249473,258.779000,-0.603500
1591.804117,258.843000,0.092500
1601.204857,258.906000,-3.740500
1610.601022,258.969000,-2.522500
1619.992617,259.032000,-3.251500
1629.379645,259.095000,-2.443500
1638.911000,259.159000,-3.957500
1648.288831,259.222000,-0.058000
1657.662104,259.285000,4.647500
1667.030824,259.348000,-0.562500
1676.394994,259.411000,0.218500
1685.754616,259.474000,2.388500
1695.109694,259.537000,3.555500
1704.460232,259.600000,3.116000
1713.806232,259.663000,0.926000
1723.147698,259.726000,0.849000
1732.484634,259.789000,3.474500
1741.817042,259.852000,-0.267000
1751.144926,259.915000,1.338000
1760.468289,259.978000,2.076500
1769.787135,260.041000,3.024500
1779.101467,260.104000,-0.406000
1788.411287,260.167000,0.996500
1797.568932,260.229000,-0.824000
1806.869812,260.292000,-0.907500
1816.166190,260.355000,-2.287000
1825.458071,260.418000,-0.926500
1834.745457,260.481000,-4.447500
1844.028352,260.544000,-2.724500
1853.159517,260.606000,-0.281000
1862.433510,260.669000,-5.113500
1871.703021,260.732000,-2.328000
1880.968054,260.795000,-10.515000
1890.081653,260.857000,-7.671500
1899.337809,260.920000,-0.859000
1908.589497,260.983000,-0.657500
1917.689973,261.045000,0.742500
1926.932803,261.108000,-2.512500
1936.171175,261.171000,-14.954000
1945.258555,261.233000,-2.478500
1954.488088,261.296000,-1.283500
1963.566777,261.358000,2.011500
1972.787485,261.421000,3.270000
1982.003751,261.484000,0.810500
1991.069391,261.546000,6.992500
2000.276850,261.609000,31.037000
2009.333830,261.671000,18.245500
2018.532495,261.734000,1.626000
2027.580827,261.796000,-0.659500
2036.770712,261.859000,7.193500
2045.810408,261.921000,4.602500
2054.845827,261.983000,-1.813000
2064.022598,262.046000,-0.393500
2073.049399,262.108000,-2.537000
2082.217420,262.171000,-0.943500
2091.235617,262.233000,1.446000
2100.249550,262.295000,3.135500
2109.404505,262.358000,7.650000
2118.409852,262.420000,-1.061000
2127.410945,262.482000,-0.308000
2136.552862,262.545000,0.010500
2145.545387,262.607000,0.966000
2154.533666,262.669000,1.431500
2163.517703,262.731000,-2.068000
2172.642302,262.794000,-1.048000
2181.617796,262.856000,0.028000
2190.589057,262.918000,-0.554500
2199.556087,262.980000,-1.264000
2208.518891,263.042000,-0.228500
2217.621929,263.105000,-2.737000
2226.576219,263.167000,-6.548500
2235.526291,263.229000,-5.486500
2244.472147,263.291000,-0.961500
2253.413792,263.353000,-5.272000
2262.351228,263.415000,-0.874000
2271.284457,263.477000,-0.778500
2280.213483,263.539000,-0.271500
2289.138308,263.601000,2.011500
2298.058937,263.663000,-1.906500
2306.975371,263.725000,-2.072000
2315.887613,263.787000,-3.834000
2324.795667,263.849000,0.386500
2333.699536,263.911000,-4.900500
2342.599222,263.973000,0.284000
2351.494729,264.035000,0.114000
2360.386059,264.097000,-1.326000
2369.273215,264.159000,-2.337000
2378.156200,264.221000,-6.956500
2386.891844,264.282000,-2.012500
2395.766564,264.344000,-2.582000
2404.637121,264.406000,-3.318500
2413.503520,264.468000,-1.729000
2422.365762,264.530000,0.630500
2431.081012,264.591000,-1.400000
2439.935018,264.653000,-1.353500
2448.784876,264.715000,-2.232500
2457.630590,264.777000,0.200500
2466.329589,264.838000,-0.564000
2475.167089,264.900000,-2.591000
2484.000453,264.962000,-1.751500
2492.687310,265.023000,0.254000
2501.512478,265.085000,13.507000
2510.333519,265.147000,-2.842500
2519.008259,265.208000,-0.844000
2527.821120,265.270000,-3.014000
2536.487819,265.331000,0.095000
2545.292512,265.393000,0.633500
2554.093093,265.455000,-0.564000
2562.747717,265.516000,5.027000
2571.540147,265.578000,-0.675500
2580.186758,265.639000,-0.250000
2588.971048,265.701000,2.843000
2597.609655,265.762000,11.016000
2606.385817,265.824000,4.052500
2615.016433,265.885000,0.439500
2623.643091,265.946000,0.287000
2632.407114,266.008000,6.754500
2641.025796,266.069000,4.901000
2649.781719,266.131000,-0.791500
2658.392437,266.192000,-0.783500
2666.999210,266.253000,-0.388000
2675.743037,266.315000,-0.193000
2684.341862,266.376000,-0.419000
2692.936750,266.437000,3.619500
2701.668505,266.499000,3.905000
2710.255462,266.560000,-4.963000
2718.838489,266.621000,2.190000
2727.417590,266.682000,1.076500
2736.133311,266.744000,-6.624500
2744.704503,266.805000,1.640500
2753.271776,266.866000,-0.429000
2761.835134,266.927000,1.724500
2770.394579,266.988000,-0.598500
2778.950113,267.049000,0.317000
2787.641898,267.111000,-1.968500
2796.189555,267.172000,-4.881000
2804.733311,267.233000,-1.528000
2813.273167,267.294000,0.095000
2821.809126,267.355000,-0.832000
2830.341190,267.416000,-2.636500
2838.869363,267.477000,-3.672000
2847.393647,267.538000,-7.716000
2855.914045,267.599000,-1.418500
2864.430559,267.660000,-2.195500
2872.943193,267.721000,-0.939500
2881.451948,267.782000,-1.944500
2889.956827,267.843000,-2.522000
2898.457833,267.904000,1.608000
2906.954969,267.965000,-4.192000
2915.448237,268.026000,-1.834000
2923.937640,268.087000,1.339500
2932.284105,268.147000,-1.604000
2940.765849,268.208000,-6.773000
2949.243736,268.269000,-6.491500
2957.717768,268.330000,-0.121000
2966.187948,268.391000,-0.393500
2974.515518,268.451000,-0.190500
2982.978065,268.512000,2.081000
2991.436768,268.573000,-3.686500
2999.891630,268.634000,-2.896500
3008.204142,268.694000,-0.468500
3016.651392,268.755000,0.212000
3025.094807,268.816000,0.934000
3033.396069,268.876000,-1.637000
3041.831888,268.937000,-1.744000
3050.263881,268.998000,-0.136500
3058.553914,269.058000,-3.286500
3066.978326,269.119000,-0.388500
3075.398919,269.180000,0.841500
3083.677747,269.240000,-2.386000
3092.090774,269.301000,-1.931500
3100.362165,269.361000,-0.948000
3108.767637,269.422000,-3.066500
3117.031601,269.482000,-3.089000
3125.429526,269.543000,-0.153500
3133.686074,269.603000,-2.349000
3142.076464,269.664000,-3.545000
3150.325604,269.724000,-3.034000
3158.708468,269.785000,-2.045000
3166.950211,269.845000,-1.550000
3175.325561,269.906000,-0.176000
3183.559917,269.966000,-1.322500
3191.790613,270.026000,0.273000
3200.154739,270.087000,6.522500
3208.378064,270.147000,2.426000
3216.597736,270.207000,7.410000
3224.950662,270.268000,-1.406500
3233.162976,270.328000,-0.467000
3241.371647,270.388000,1.112500
3249.576675,270.448000,3.560000
3257.914722,270.509000,-0.492500
3266.112412,270.569000,-2.713500
3274.306467,270.629000,-3.484000
3282.496889,270.689000,1.260000
3290.820098,270.750000,-3.149000
3299.003202,270.810000,-4.108500
3307.182681,270.870000,-1.368000
3315.358537,270.930000,-0.608000
3323.530773,270.990000,1.671500
3331.699391,271.050000,-0.147000
3339.864393,271.110000,-1.713000
3348.025782,271.170000,0.370000
3356.319492,271.231000,0.982000
3364.473602,271.291000,-1.648000
3372.624105,271.351000,6.579500
3380.771005,271.411000,3.035000
3388.914304,271.471000,-0.300500
3397.054004,271.531000,-1.752000
3405.190107,271.591000,-0.805000
3413.322616,271.651000,-0.287000
3421.316081,271.710000,-2.374000
3429.441469,271.770000,1.239000
3437.563270,271.830000,-0.792500
3445.681487,271.890000,-0.868500
3453.796121,271.950000,-1.776000
3461.907176,272.010000,-0.801500
3470.014653,272.070000,-1.420000
3478.118555,272.130000,0.170000
3486.083907,272.189000,-1.448500
3494.180726,272.249000,-0.717500
3502.273976,272.309000,0.004000
3510.363660,272.369000,-3.559000
3518.315042,272.428000,-0.657000
3526.397661,272.488000,-0.406000
3534.476722,272.548000,2.732500
3542.552226,272.608000,-0.794500
3550.489673,272.667000,-0.861000
3558.558131,272.727000,-1.914000
3566.623039,272.787000,0.783500
3574.550074,272.846000,-1.619500
3582.607950,272.906000,1.046500
3590.528073,272.965000,0.846500
3598.578926,273.025000,-1.979500
3606.626241,273.085000,-0.391000
3614.535986,273.144000,-4.001500
3622.576291,273.204000,-0.611000
3630.479148,273.263000,0.082500
3638.512453,273.323000,5.252500
3646.408431,273.382000,-1.303000
3654.434744,273.442000,-0.444500
3662.323852,273.501000,-0.355000
3670.343183,273.561000,-1.802000
3678.225429,273.620000,0.719000
3686.237787,273.680000,-0.230000
3694.113181,273.739000,-0.960000
3701.985180,273.798000,-3.731500
3709.987125,273.858000,-1.916500
3717.852286,273.917000,-0.610500
3725.714059,273.976000,0.030000
3733.705610,274.036000,-0.441500
3741.560558,274.095000,-1.159500
3749.412124,274.154000,2.282500
3757.393303,274.214000,-0.062500
3765.238057,274.273000,-0.518500
3773.079437,274.332000,-0.846500
3780.917444,274.391000,-1.652500
3788.884843,274.451000,-1.386500
3796.716056,274.510000,-1.406500
3804.543903,274.569000,-0.204000
3812.368387,274.628000,-4.343500
3820.189510,274.687000,-2.476000
3828.007273,274.746000,-1.729500
3835.821680,274.805000,1.719500
3843.765093,274.865000,1.598500
3851.572736,274.924000,0.822500
3859.377028,274.983000,0.252000
3867.177971,275.042000,-0.668500
3874.975569,275.101000,-2.013000
3882.769823,275.160000,-0.926000
3890.560735,275.219000,-0.818500
3898.348307,275.278000,-0.417500
3906.132542,275.337000,-1.735500
3913.913442,275.396000,2.505500
3921.691008,275.455000,1.767500
3929.465243,275.514000,3.745500
3937.236150,275.573000,-1.787000
3944.872103,275.631000,-2.721500
3952.636414,275.690000,0.210500
3960.397403,275.749000,0.293500
3968.155071,275.808000,-1.484000
3975.909421,275.867000,-9.890500
3983.660455,275.926000,-3.865000
3991.408175,275.985000,-0.668000
3999.021349,276.043000,1.581000
4006.762504,276.102000,-8.619500
4014.500350,276.161000,-2.952500
4022.234891,276.220000,-3.157000
4029.835118,276.278000,-1.405000
4037.563110,276.337000,-5.858000
4045.287803,276.396000,-26.565000
4052.878355,276.454000,-1.260000
4060.596512,276.513000,0.963500
4068.311375,276.572000,0.330500
4075.892271,276.630000,-4.784000
4083.600610,276.689000,-1.648500
4091.305663,276.748000,-2.112500
4098.876921,276.806000,-1.085500
4106.575462,276.865000,0.569000
4114.140322,276.923000,-3.277000
4121.832361,276.982000,0.477500
4129.390832,277.040000,-2.558500
4137.076375,277.099000,-1.730000
4144.628466,277.157000,1.932500
4152.307522,277.216000,0.823500
4159.853240,277.274000,0.709000
4167.525818,277.333000,-5.090000
4175.065171,277.391000,-0.609000
4182.731279,277.450000,-3.038000
4190.264275,277.508000,0.068500
4197.794123,277.566000,-0.405000
4205.450568,277.625000,-1.086500
4212.974072,277.683000,-3.751500
4220.494433,277.741000,0.887000
4228.011654,277.799000,0.567000
4235.396210,277.856000,0.062500
4242.907211,277.914000,0.692000
4250.415077,277.972000,-0.186000
4257.790445,278.029000,-1.130000
4265.292102,278.087000,-1.757000
4272.790631,278.145000,0.361000
4280.156828,278.202000,-1.933500
4287.649159,278.260000,0.977000
4295.138368,278.318000,-0.871000
4302.495411,278.375000,-2.483500
4309.978434,278.433000,0.151000
4317.329402,278.490000,-2.388000
4324.806246,278.548000,-4.474000
4332.151147,278.605000,-0.350500
4339.621821,278.663000,-1.440000
4346.960661,278.720000,-0.870500
4354.425172,278.778000,-1.488000
4361.757959,278.835000,-1.500500
4369.216314,278.893000,-2.451000
4376.543056,278.950000,-0.548500
4383.995264,279.008000,-1.092000
4391.315968,279.065000,-4.677500
4398.762036,279.123000,-1.789000
4406.076709,279.180000,-1.534500
4413.516644,279.238000,-1.096500
4420.825295,279.295000,-0.597000
4428.130962,279.352000,-2.304000
4435.561740,279.410000,-1.284000
4442.861395,279.467000,-2.095000
4450.158074,279.524000,-2.514000
4457.579711,279.582000,-3.319500
4464.870389,279.639000,-1.024000
4472.158095,279.696000,-1.515500
4479.570607,279.754000,-0.790500
4486.852324,279.811000,-2.331500
4494.131074,279.868000,-13.665000
4501.534479,279.926000,-0.566500
4508.807251,279.983000,-0.772500
4516.077062,280.040000,0.991500
4523.343914,280.097000,-1.593500
4530.735220,280.155000,-1.889500
4537.996108,280.212000,-0.675000
4545.254043,280.269000,-4.695000
4552.509026,280.326000,-4.968500
4559.888262,280.384000,-7.388000
4567.137295,280.441000,-8.312500
4574.383383,280.498000,-2.125000
4581.626526,280.555000,1.738500
4588.866727,280.612000,-1.714000
4596.103987,280.669000,1.811500
4603.338308,280.726000,-1.260500
4610.696532,280.784000,0.113000
4617.924929,280.841000,-2.320500
4625.150392,280.898000,-2.464000
4632.372923,280.955000,1.020000
4639.592525,281.012000,1.121500
4646.809198,281.069000,-2.154500
4654.022945,281.126000,1.905500
4661.233767,281.183000,1.056500
4668.441666,281.240000,0.424500
4675.646644,281.297000,-3.180000
4682.848703,281.354000,-8.152000
4690.047844,281.411000,1.602000
4697.244070,281.468000,-3.875000
4704.437381,281.525000,-0.640500
4711.627780,281.582000,0.559500
4718.815269,281.639000,0.615000
4725.999849,281.696000,-0.512500
4733.181522,281.753000,2.788500
4740.360290,281.810000,10.082500
4747.536154,281.867000,-14.851000
4754.583300,281.923000,-10.467000
4761.753414,281.980000,0.013000
4768.920629,282.037000,-0.018000
4776.084949,282.094000,-0.437500
4783.246373,282.151000,2.477000
4790.404904,282.208000,-1.678000
4797.435032,282.264000,5.691500
4804.587834,282.321000,2.797000
4811.737748,282.378000,-1.062000
4818.884776,282.435000,-0.187500
4826.028920,282.492000,-0.535000
4833.044920,282.548000,6.589500
4840.183352,282.605000,17.045500
4847.318904,282.662000,2.406500
4854.451579,282.719000,2.338000
4861.456319,282.775000,7.000000
4868.583295,282.832000,3.497000
4875.707399,282.889000,2.100500
4882.703723,282.945000,-1.614500
4889.822139,283.002000,0.284500
4896.937687,283.059000,-3.685000
4903.925611,283.115000,-4.931500
4911.035481,283.172000,-0.491500
4918.142490,283.229000,-1.384000
4925.122029,283.285000,1.166000
4932.223369,283.342000,-1.955500
4939.197342,283.398000,0.578500
4946.293021,283.455000,0.519500
4953.385847,283.512000,-2.408500
4960.351460,283.568000,-0.987000
4967.438635,283.625000,0.560500
4974.398699,283.681000,0.416000
4981.480229,283.738000,-1.961000
4988.434752,283.794000,1.400500
4995.510644,283.851000,1.557500
5002.459631,283.907000,-1.228500
5009.529893,283.964000,0.152500
5016.473351,284.020000,-2.182500
5023.537988,284.077000,-3.288000
5030.475924,284.133000,-1.573000
5037.534943,284.190000,-2.410500
5044.467363,284.246000,-1.035500
5051.397052,284.302000,-2.642500
5058.447683,284.359000,-0.299500
5065.371866,284.415000,0.852500
5072.416896,284.472000,0.075500
5079.335580,284.528000,1.315500
5086.251541,284.584000,4.207500
5093.288207,284.641000,1.899000
5100.198678,284.697000,-0.670500
5107.106432,284.753000,1.306500
5114.134748,284.810000,-5.417500
5121.037022,284.866000,-2.815500
5127.936582,284.922000,-3.674500
5134.833431,284.978000,4.556000
5141.850655,285.035000,1.241000
5148.742037,285.091000,1.629000
5155.630712,285.147000,-1.297000
5162.516682,285.203000,0.632000
5169.522840,285.260000,3.674000
5176.403356,285.316000,1.593500
5183.281172,285.372000,0.963500
5190.156289,285.428000,1.081500
5197.028709,285.484000,-1.087000
5204.021082,285.541000,0.316500
5210.888064,285.597000,1.478500
5217.752353,285.653000,3.432500
5224.613952,285.709000,-0.413500
5231.472862,285.765000,4.751000
5238.329083,285.821000,0.881000
5245.182619,285.877000,0.744000
5252.033470,285.933000,-0.520500
5258.881638,285.989000,0.772000
5265.727125,286.045000,1.814000
5272.569932,286.101000,4.998500
5279.532182,286.158000,2.519500
5286.369586,286.214000,1.447500
5293.204315,286.270000,2.158500
5300.036371,286.326000,2.517500
5306.865755,286.382000,-0.231500
5313.692468,286.438000,0.311500
5320.516513,286.494000,0.821000
5327.216104,286.549000,-0.455000
5334.034863,286.605000,2.986000
5340.850958,286.661000,3.336000
5347.664391,286.717000,4.085000
5354.475163,286.773000,5.182000
5361.283275,286.829000,2.007500
5368.088729,286.885000,1.248000
5374.891528,286.941000,1.491500
5381.691671,286.997000,1.813000
5388.489161,287.053000,0.294500
5395.162686,287.108000,-1.572500
5401.954922,287.164000,0.959000
5408.744509,287.220000,-2.714500
5415.531448,287.276000,0.718500
5422.315743,287.332000,-12.113000
5428.976316,287.387000,-31.699000
5435.755371,287.443000,-24.855500
5442.531785,287.499000,-30.353500
5449.305560,287.555000,-27.214500
5456.076697,287.611000,2.554500
5462.724355,287.666000,6.620500
5469.490268,287.722000,-0.181500
5476.253548,287.778000,5.336000
5482.893494,287.833000,3.182500
5489.651559,287.889000,0.034000
5496.406995,287.945000,1.289000
5503.039242,288.000000,1.487500
5509.789473,288.056000,1.863500
5516.537079,288.112000,1.518500
5523.161640,288.167000,1.865000
5529.904050,288.223000,-0.080000
5536.643840,288.279000,-0.125500
5543.260729,288.334000,3.778000
5549.995332,288.390000,6.517000
5556.607128,288.445000,2.421000
5563.336549,288.501000,0.950500
5569.943259,288.556000,1.616500
5576.667504,288.612000,2.807500
5583.269134,288.667000,3.335000
5589.988209,288.723000,6.016500
5596.584764,288.778000,11.672500
5603.298676,288.834000,1.569500
5609.890162,288.889000,2.166500
5616.598916,288.945000,15.413000
5623.185340,289.000000,5.854000
5629.888941,289.056000,2.918500
5636.470308,289.111000,4.121500
5643.168763,289.167000,2.173000
5649.745079,289.222000,-0.283000
5656.438394,289.278000,2.490500
5663.009664,289.333000,1.041500
5669.578437,289.388000,4.853000
5676.264076,289.444000,0.551000
5682.827812,289.499000,6.403000
5689.389054,289.554000,3.729500
5696.067030,289.610000,-1.182000
5702.623244,289.665000,1.206000
5709.176969,289.720000,-8.261500
5715.847296,289.776000,-5.070000
5722.396001,289.831000,-2.219500
5728.942221,289.886000,9.983000
5735.485958,289.941000,3.237500
5742.146122,289.997000,1.643000
5748.684850,290.052000,0.896500
5755.221100,290.107000,2.730500
5761.754871,290.162000,-2.085000
5768.404894,290.218000,-2.213500
5774.933669,290.273000,-0.404000
5781.459971,290.328000,5.900500
5787.983800,290.383000,5.299500
5794.505158,290.438000,0.805500
5801.142550,290.494000,-0.348500
5807.658926,290.549000,3.526000
5814.172835,290.604000,2.183000
5820.684279,290.659000,3.404000
5827.193260,290.714000,4.135000
5833.699778,290.769000,4.027000
5840.203835,290.824000,7.473500
5846.705432,290.879000,3.388500
5853.204572,290.934000,3.609000
5859.701254,290.989000,2.172000
5866.195481,291.044000,5.206000
5872.687254,291.099000,3.490500
5879.176574,291.154000,2.054000
5885.663444,291.209000,1.596500
5892.147863,291.264000,6.140500
5898.629834,291.319000,28.392000
5905.109357,291.374000,16.351000
5911.586435,291.429000,-0.124000
5918.061069,291.484000,0.327000
5924.533260,291.539000,0.797500
5931.003009,291.594000,1.221500
5937.470318,291.649000,6.915000
5943.935188,291.704000,3.219000
5950.397621,291.759000,2.896000
5956.857618,291.814000,3.242500
5963.315180,291.869000,20.450500
5969.770309,291.924000,4.723000
5976.105706,291.978000,2.516500
5982.556017,292.033000,4.376000
5989.003898,292.088000,0.978500
5995.449352,292.143000,5.057000
6001.892379,292.198000,1.669000
6008.215901,292.252000,2.272000
6014.654123,292.307000,2.942000
6021.089923,292.362000,2.928500
6027.523303,292.417000,1.996000
6033.954262,292.472000,6.009000
6040.265942,292.526000,2.974000
6046.692111,292.581000,1.747500
6053.115864,292.636000,3.355500
6059.420472,292.690000,5.522500
6065.839442,292.745000,3.878000
6072.256000,292.800000,1.316000
6078.553548,292.854000,3.261000
6084.965331,292.909000,5.410000
6091.374707,292.964000,6.383500
6097.665207,293.018000,5.232500
6104.069816,293.073000,2.976000
6110.472021,293.128000,3.840000
6116.755485,293.182000,4.531000
6123.152931,293.237000,3.001000
6129.431725,293.291000,2.948500
6135.824417,293.346000,3.461000
6142.098547,293.400000,3.066000
6148.486490,293.455000,1.610000
6154.872040,293.510000,1.822000
6161.139160,293.564000,2.927000
6167.519969,293.619000,3.977500
6173.782438,293.673000,4.077000
6180.158512,293.728000,1.667500
6186.416334,293.782000,5.599500
6192.787678,293.837000,3.759500
6199.040859,293.891000,0.611500
6205.291742,293.945000,2.709500
6211.656022,294.000000,1.671500
6217.902272,294.054000,3.960000
6224.261835,294.109000,6.284000
6230.503456,294.163000,2.559500
6236.742786,294.217000,4.630500
6243.095305,294.272000,0.828500
6249.330014,294.326000,1.943000
6255.677829,294.381000,3.348000
6261.907923,294.435000,1.377500
6268.135731,294.489000,4.215000
6274.476522,294.544000,-3.910500
6280.699722,294.598000,-2.042500
6286.920642,294.652000,2.250000
6293.139281,294.706000,4.367500
6299.470739,294.761000,3.051500
6305.684781,294.815000,6.752000
6311.896546,294.869000,4.818500
6318.106037,294.923000,1.940000
6324.428182,294.978000,3.542000
6330.633085,295.032000,3.786500
6336.835717,295.086000,4.819000
6343.036080,295.140000,7.805500
6349.234174,295.194000,5.490500
6355.544717,295.249000,1.994000
6361.738236,295.303000,5.748000
6367.929490,295.357000,3.907500
6374.118480,295.411000,5.255000
6380.305209,295.465000,4.601000
6386.489676,295.519000,3.726500
6392.671884,295.573000,1.686000
6398.851833,295.627000,3.939000
6405.143905,295.682000,1.941500
6411.319300,295.736000,5.391500
6417.492439,295.790000,3.042000
6423.663325,295.844000,4.066000
6429.831958,295.898000,2.413500
6435.998340,295.952000,3.253500
6442.162473,296.006000,2.332500
6448.324357,296.060000,2.174500
6454.483993,296.114000,1.145500
6460.641384,296.168000,4.471000
6466.796529,296.222000,1.284000
6472.949431,296.276000,-7.304000
6479.100090,296.330000,-2.794000
6485.248508,296.384000,4.369000
6491.280888,296.437000,5.803500
6497.424869,296.491000,3.603500
6503.566612,296.545000,4.810500
6509.706118,296.599000,1.877000
6515.843390,296.653000,5.363500
6521.978427,296.707000,0.285000
6528.111232,296.761000,2.657500
6534.241805,296.815000,5.428500
6540.256681,296.868000,-0.116000
6546.382836,296.922000,0.391000
6552.506763,296.976000,3.255500
6558.628464,297.030000,0.622000
6564.747939,297.084000,-5.074000
6570.751928,297.137000,2.512000
6576.866997,297.191000,5.021000
6582.979845,297.245000,4.106000
6589.090471,297.299000,3.184500
6595.085780,297.352000,0.795000
6601.192010,297.406000,9.458000
6607.296023,297.460000,3.060000
6613.397821,297.514000,5.032500
6619.384468,297.567000,14.783500
6625.481879,297.621000,2.871000
6631.577077,297.675000,4.390500
6637.557251,297.728000,11.072500
6643.648069,297.782000,2.813000
6649.623947,297.835000,4.071500
6655.710390,297.889000,1.711500
6661.794627,297.943000,1.346500
6667.764048,297.996000,2.105000
6673.843917,298.050000,5.741000
6679.809053,298.103000,7.036000
6685.884559,298.157000,-4.581000
6691.957864,298.211000,-5.817000
6697.916562,298.264000,3.112500
6703.985510,298.318000,5.291000
6709.939935,298.371000,3.132500
6716.004532,298.425000,4.348000
6721.954688,298.478000,4.061000
6728.014938,298.532000,4.765000
6733.960830,298.585000,3.849500
6739.904611,298.638000,0.930500
6745.958369,298.692000,6.561000
6751.897893,298.745000,2.908500
6757.947317,298.799000,2.564500
6763.882588,298.852000,8.018000
6769.927680,298.906000,7.886500
6775.858703,298.959000,2.450500
6781.787624,299.012000,3.926000
6787.826249,299.066000,6.246000
6793.750928,299.119000,4.328500
6799.673508,299.172000,6.253000
6805.705677,299.226000,3.930000
6811.624022,299.279000,5.497000
6817.540272,299.332000,4.891000
6823.565994,299.386000,4.923000
6829.478016,299.439000,3.105000
6835.387945,299.492000,20.091000
6841.407231,299.546000,6.613500
6847.312940,299.599000,3.614000
6853.216559,299.652000,4.914500
6859.118090,299.705000,-2.367500
6865.017534,299.758000,5.086000
6871.026143,299.812000,4.889000
6876.921378,299.865000,4.255500
6882.814529,299.918000,0.866500
6888.705597,299.971000,0.405000
6894.594584,300.024000,-2.849500
6900.592545,300.078000,0.465500
6906.477333,300.131000,-1.661500
6912.360044,300.184000,4.090500
6918.240677,300.237000,1.766000
6924.119235,300.290000,-1.502500
6929.995718,300.343000,2.659500
6935.870127,300.396000,6.230000
6941.742464,300.449000,6.765500
6947.612730,300.502000,1.452000
6953.480925,300.555000,1.482500
6959.347051,300.608000,5.618000
6965.211108,300.661000,6.607000
6971.073099,300.714000,2.032000
6976.933024,300.767000,4.603500
6982.790884,300.820000,3.285000
6988.646680,300.873000,-0.131000
6994.500413,300.926000,1.572000
7000.352085,300.979000,3.263500
7006.201696,301.032000,4.296500
7012.049248,301.085000,2.996500
7017.894742,301.138000,0.760500
7023.738178,301.191000,5.474000
7029.579559,301.244000,7.080000
7035.418884,301.297000,7.409500
7041.256155,301.350000,5.715500
7047.091373,301.403000,5.731000
7052.924539,301.456000,4.532000
7058.645653,301.508000,-2.996500
7064.474758,301.561000,5.449500
7070.301814,301.614000,3.474000
7076.126822,301.667000,4.663000
7081.949784,301.720000,3.825500
7087.660892,301.772000,6.082000
7093.479803,301.825000,4.547000
7099.296670,301.878000,5.093000
7105.111496,301.931000,4.000000
7110.814624,301.983000,8.896500
7116.625408,302.036000,2.476000
7122.434152,302.089000,0.791000
7128.240858,302.142000,0.342000
7133.936024,302.194000,2.672000
7139.738696,302.247000,5.575500
7145.539334,302.300000,4.092000
7151.228549,302.352000,9.239000
7157.025159,302.405000,2.215000
7162.819737,302.458000,5.653000
7168.503010,302.510000,1.156000
7174.293567,302.563000,6.567000
7180.082095,302.616000,5.443000
7185.759436,302.668000,1.455000
7191.543949,302.721000,2.579500
7197.217352,302.773000,0.518000
7202.997854,302.826000,8.751000
7208.667324,302.878000,1.556000
7214.443819,302.931000,6.426000
7220.109360,302.983000,4.152500
7225.881853,303.036000,3.131000
7231.543468,303.088000,4.269500
7237.311962,303.141000,6.400000
7242.969657,303.193000,3.781000
7248.734156,303.246000,3.844500
7254.387934,303.298000,7.716000
7260.148443,303.351000,3.911000
7265.798308,303.403000,5.235500
7271.554831,303.456000,6.711500
7277.200787,303.508000,12.783000
7282.953328,303.561000,-4.079500
7288.595379,303.613000,1.034500
7294.235498,303.665000,5.950500
7299.982093,303.718000,7.160500
7305.618313,303.770000,5.455000
7311.252604,303.822000,-7.619500
7316.993262,303.875000,3.466500
7322.623660,303.927000,6.477000
7328.252131,303.979000,14.014000
7333.986862,304.032000,7.057500
7339.611446,304.084000,5.180000
7345.234108,304.136000,1.752500
7350.962920,304.189000,5.410000
7356.581700,304.241000,4.783000
7362.198561,304.293000,0.361500
7367.813502,304.345000,4.036000
7373.426525,304.397000,2.882000
7379.145517,304.450000,7.121000
7384.754669,304.502000,7.796500
7390.361906,304.554000,4.620000
7395.967228,304.606000,2.683000
7401.570637,304.658000,6.277000
7407.279836,304.711000,3.131500
7412.879384,304.763000,5.639500
7418.477021,304.815000,5.258500
7424.072749,304.867000,5.405500
7429.666569,304.919000,3.400000
7435.258480,304.971000,5.158500
7440.848486,305.023000,7.032500
7446.436585,305.075000,5.810500
7452.022780,305.127000,4.135000
7457.607071,305.179000,5.234500
7463.296795,305.232000,4.352500
7468.877245,305.284000,1.626500
7474.455794,305.336000,6.939000
7480.032444,305.388000,9.777000
7485.607195,305.440000,8.166000
7491.180048,305.492000,6.506500
7496.751004,305.544000,3.398000
7502.212985,305.595000,4.913000
7507.780187,305.647000,4.722000
7513.345495,305.699000,4.536500
7518.908909,305.751000,3.471500
7524.470432,305.803000,4.946500
7530.030064,305.855000,6.951000
7535.587805,305.907000,8.490500
7541.143658,305.959000,6.588000
7546.697622,306.011000,5.910000
7552.249699,306.063000,4.682500
7557.693173,306.114000,5.781000
7563.241514,306.166000,2.244500
7568.787971,306.218000,6.403000
7574.332545,306.270000,6.119500
7579.875237,306.322000,10.139500
7585.416047,306.374000,1.916500
7590.848476,306.425000,4.351000
7596.385562,306.477000,2.909000
7601.920769,306.529000,33.404000
7607.454098,306.581000,8.320500
7612.879195,306.632000,3.455500
7618.408808,306.684000,2.389500
7623.936546,306.736000,6.040500
7629.462411,306.788000,4.859000
7634.880189,306.839000,7.048000
7640.402345,306.891000,3.653000
7645.922629,306.943000,6.857000
7651.334938,306.994000,8.667500
7656.851519,307.046000,6.887000
7662.260197,307.097000,5.010500
7667.773079,307.149000,3.317500
7673.284094,307.201000,8.190500
7678.687317,307.252000,4.796000
7684.194638,307.304000,-0.741000
7689.700096,307.356000,-1.527500
7695.097870,307.407000,0.400000
7700.599639,307.459000,4.309500
7705.993798,307.510000,1.899500
7711.491883,307.562000,4.983000
7716.882430,307.613000,5.837000
7722.376833,307.665000,11.806000
7727.763772,307.716000,12.037000
7733.254498,307.768000,12.302500
7738.637831,307.819000,-3.473500
7744.124884,307.871000,-1.819500
7749.504617,307.922000,2.471000
7754.988000,307.974000,4.195500
7760.364134,308.025000,5.187000
7765.738489,308.076000,9.267500
7771.216392,308.128000,-1.320000
7776.587155,308.179000,7.459000
7782.061397,308.231000,7.717500
7787.428571,308.282000,8.380500
7792.793970,308.333000,8.758500
7798.262745,308.385000,6.646000
7803.624561,308.436000,3.373000
7808.984603,308.487000,-11.099500
7814.447920,308.539000,-4.190000
7819.804385,308.590000,5.146000
7825.159080,308.641000,3.209000
7830.616947,308.693000,3.875500
7835.968069,308.744000,7.508500
7841.317424,308.795000,3.710500
7846.665012,308.846000,6.248000
7852.115636,308.898000,-1.250500
7857.459659,308.949000,-33.460000
7862.801917,309.000000,-27.376500
7868.142413,309.051000,1.019000
7873.481146,309.102000,3.900500
7878.922746,309.154000,9.664500
7884.257923,309.205000,9.561000
7889.591340,309.256000,8.179000
7894.922998,309.307000,4.050000
7900.252898,309.358000,6.436500
7905.581041,309.409000,4.276000
7910.907428,309.460000,5.018500
7916.336447,309.512000,5.314000
7921.659290,309.563000,6.430000
7926.980379,309.614000,7.120500
7932.299715,309.665000,5.029500
7937.617300,309.716000,3.252000
7942.933134,309.767000,3.923500
7948.247217,309.818000,6.213500
7953.559551,309.869000,3.646500
7958.870137,309.920000,6.602500
7964.178976,309.971000,19.863500
7969.486068,310.022000,8.092500
7974.791414,310.073000,5.011000
7980.095015,310.124000,4.069500
7985.396872,310.175000,6.512500
7990.696985,310.226000,4.405000
7995.995357,310.277000,6.005000
8001.291987,310.328000,7.025000
8006.586876,310.379000,7.016000
8011.880026,310.430000,4.245000
8017.067700,310.480000,5.280000
8022.357406,310.531000,6.291500
8027.645376,310.582000,5.593000
8032.931609,310.633000,6.580000
8038.216106,310.684000,7.991500
8043.498869,310.735000,1.806500
8048.779898,310.786000,7.568000
8053.955695,310.836000,8.531000
8059.233293,310.887000,4.391500
8064.509160,310.938000,5.681000
8069.783296,310.989000,6.769000
8074.952339,311.039000,7.550000
8080.223051,311.090000,6.055500
8085.492035,311.141000,7.887000
8090.759292,311.192000,5.099000
8095.921594,311.242000,7.900500
8101.185433,311.293000,5.476500
8106.447548,311.344000,7.839500
8111.604811,311.394000,6.216500
8116.863513,311.445000,3.682000
8122.120493,311.496000,1.877500
8127.272724,311.546000,7.594000
8132.526297,311.597000,5.073500
8137.778150,311.648000,3.860500
8142.925357,311.698000,5.799000
8148.173807,311.749000,5.943000
8153.420541,311.800000,4.524500
8158.562731,311.850000,6.903500
8163.806066,311.901000,5.754500
8168.944927,311.951000,5.794500
8174.184869,312.002000,4.817500
8179.320403,312.052000,6.943500
8184.556953,312.103000,3.930500
8189.689165,312.153000,-5.545500
8194.922327,312.204000,2.615000
8200.051219,312.254000,3.861000
8205.280996,312.305000,3.248500
8210.406572,312.355000,5.669000
8215.632968,312.406000,4.432000
8220.755230,312.456000,6.645500
8225.978248,312.507000,6.374000
8231.097200,312.557000,2.017500
8236.316843,312.608000,0.954500
8241.432488,312.658000,3.449000
8246.546497,312.708000,5.324500
8251.761101,312.759000,7.652500
8256.871808,312.809000,6.287500
8261.980881,312.859000,2.636500
8267.190453,312.910000,6.586500
8272.296229,312.960000,0.072500
8277.400373,313.010000,7.038000
8282.604921,313.061000,3.740000
8287.705773,313.111000,7.829500
8292.804996,313.161000,4.358500
8298.004526,313.212000,7.115500
8303.100462,313.262000,6.642500
8308.194770,313.312000,2.711000
8313.287453,313.362000,7.492000
8318.480316,313.413000,8.709000
8323.569717,313.463000,6.364000
8328.657496,313.513000,5.430500
8333.743651,313.563000,8.064500
8338.828185,313.613000,6.077000
8344.012739,313.664000,7.758000
8349.094000,313.714000,5.113500
8354.173640,313.764000,7.091000
8359.251662,313.814000,6.013000
8364.328066,313.864000,2.633500
8369.402853,313.914000,9.051000
8374.476024,313.964000,5.176000
8379.547579,314.014000,4.910500
8384.718901,314.065000,8.476500
8389.787195,314.115000,3.009000
8394.853876,314.165000,6.793000
8399.918944,314.215000,5.710500
8404.982400,314.265000,6.392000
8410.044246,314.315000,5.059500
8415.104481,314.365000,4.940500
8420.163107,314.415000,5.000500
8425.220124,314.465000,7.161000
8430.275533,314.515000,6.080000
8435.329336,314.565000,-1.618000
8440.381532,314.615000,4.815500
8445.432122,314.665000,5.792500
8450.481107,314.715000,13.275000
8455.528489,314.765000,8.354000
8460.473367,314.814000,6.064500
8465.517575,314.864000,7.918000
8470.560181,314.914000,8.754500
8475.601186,314.964000,9.224500
8480.640590,315.014000,10.847500
8485.678395,315.064000,15.368000
8490.714602,315.114000,7.952000
8495.749210,315.164000,6.706000
8500.681577,315.213000,9.450500
8505.713024,315.263000,9.933000
8510.742875,315.313000,5.201500
8515.771131,315.363000,3.950000
8520.797793,315.413000,6.537000
8525.722375,315.462000,5.680500
8530.745883,315.512000,4.499000
8535.767799,315.562000,9.735500
8540.788124,315.612000,4.053000
8545.706499,315.661000,7.317500
8550.723675,315.711000,6.667500
8555.739262,315.761000,6.933500
8560.652997,315.810000,6.830500
8565.665441,315.860000,7.986000
8570.676298,315.910000,5.274000
8575.585399,315.959000,7.196500
8580.593116,316.009000,11.219500
8585.599249,316.059000,4.464000
8590.503723,316.108000,9.409000
8595.506721,316.158000,7.180500
8600.508137,316.208000,6.890500
8605.407991,316.257000,6.837500
8610.406276,316.307000,5.718500
8615.303063,316.356000,6.359500
8620.298221,316.406000,8.623000
8625.191944,316.455000,6.944500
8630.183977,316.505000,9.195500
8635.074640,316.554000,5.239000
8640.063551,316.604000,6.641500
8644.951156,316.653000,6.506000
8649.936949,316.703000,5.363000
8654.821499,316.752000,8.682000
8659.804175,316.802000,5.461000
8664.685673,316.851000,10.500500
8669.665237,316.901000,10.204500
8674.543685,316.950000,7.789000
8679.520139,317.000000,11.392500
8684.395541,317.049000,19.143500
8689.269436,317.098000,6.167000
8694.241247,317.148000,2.010000
8699.112100,317.197000,6.938000
8703.981448,317.246000,6.118500
8708.948621,317.296000,8.094000
8713.814931,317.345000,-1.343500
8718.779005,317.395000,3.427000
8723.642281,317.444000,7.063500
8728.504055,317.493000,8.867000
8733.364329,317.542000,16.703500
8738.322247,317.592000,9.961000
8743.179491,317.641000,9.124000
8748.035237,317.690000,9.480000
8752.889486,317.739000,8.405000
8757.841258,317.789000,9.960500
8762.692483,317.838000,9.252000
8767.542212,317.887000,15.388000
8772.390446,317.936000,19.098000
8777.336084,317.986000,22.320500
8782.181300,318.035000,19.973000
8787.025024,318.084000,14.566000
8791.867255,318.133000,24.095500
8796.707995,318.182000,32.905500
8801.547244,318.231000,19.908000
8806.385003,318.280000,20.773500
8811.319957,318.330000,19.277000
8816.154708,318.379000,19.245500
8820.987971,318.428000,25.139000
8825.819746,318.477000,33.486000
8830.650035,318.526000,27.406500
8835.478838,318.575000,13.368500
8840.306156,318.624000,24.090500
8845.131990,318.673000,32.874000
8849.956339,318.722000,19.496500
8854.779206,318.771000,27.850000
8859.600590,318.820000,21.367500
8864.420492,318.869000,24.931000
8869.238913,318.918000,23.409000
8874.055854,318.967000,27.776500
8878.871314,319.016000,12.657500
8883.685296,319.065000,8.937500
8888.497800,319.114000,16.240500
8893.308826,319.163000,11.748000
8898.118374,319.212000,11.813500
8902.926447,319.261000,10.867500
8907.634964,319.309000,10.396000
8912.440116,319.358000,10.406000
8917.243794,319.407000,14.374500
8922.045998,319.456000,12.440500
8926.846729,319.505000,8.176000
8931.645988,319.554000,4.238500
8936.443775,319.603000,-0.157000
8941.142222,319.651000,25.457500
8945.937098,319.700000,30.846500
8950.730504,319.749000,8.407000
8955.522441,319.798000,6.766500
8960.215161,319.846000,7.603000
8965.004192,319.895000,9.889000
8969.791757,319.944000,10.858500
8974.577855,319.993000,9.851000
8979.264858,320.041000,8.099000
8984.048055,320.090000,9.831500
8988.829789,320.139000,13.453000
8993.512517,320.187000,11.983000
8998.291355,320.236000,10.290500
9003.068730,320.285000,12.004500
9007.747190,320.333000,7.872000
9012.521672,320.382000,4.348000
9017.294694,320.431000,1.511500
9021.968893,320.479000,5.848000
9026.739026,320.528000,9.644000
9031.410396,320.576000,9.297500
9036.177644,320.625000,14.370500
9040.943434,320.674000,10.599000
9045.610552,320.722000,13.683000
9050.373460,320.771000,10.235500
9055.037756,320.819000,8.889000
9059.797784,320.868000,7.659500
9064.459261,320.916000,4.749000
9069.216413,320.965000,10.910500
9073.875072,321.013000,10.044500
9078.629350,321.062000,9.396000
9083.285194,321.110000,7.964500
9088.036601,321.159000,10.336500
9092.689634,321.207000,10.718500
9097.438171,321.256000,10.841000
9102.088394,321.304000,11.470500
9106.737229,321.352000,9.032500
9111.481482,321.401000,6.912000
9116.127511,321.449000,9.737000
9120.868902,321.498000,11.435000
9125.512128,321.546000,7.238500
9130.153968,321.594000,8.728500
9134.891085,321.643000,8.493000
9139.530126,321.691000,10.509000
9144.167783,321.739000,12.681500
9148.900630,321.788000,7.856000
9153.535492,321.836000,10.174500
9158.168971,321.884000,8.592000
9162.801069,321.932000,6.883500
9167.528244,321.981000,7.173500
9172.157551,322.029000,15.445000
9176.785479,322.077000,10.355500
9181.412027,322.125000,7.863500
9186.133540,322.174000,6.256000
9190.757302,322.222000,5.797500
9195.379688,322.270000,8.495500
9200.000697,322.318000,9.152000
9204.620330,322.366000,9.982000
9209.334786,322.415000,10.971500
9213.951640,322.463000,8.272500
9218.567119,322.511000,8.238500
9223.181225,322.559000,8.787000
9227.793957,322.607000,9.246000
9232.405318,322.655000,7.114500
9237.015306,322.703000,8.348500
9241.623923,322.751000,11.885000
9246.231170,322.799000,12.867000
9250.932988,322.848000,10.630000
9255.537466,322.896000,2.410500
9260.140576,322.944000,11.528500
9264.742318,322.992000,10.671500
9269.342693,323.040000,10.433500
9273.941700,323.088000,11.437500
9278.539341,323.136000,10.162000
9283.135616,323.184000,16.875000
9287.730527,323.232000,16.153000
9292.324072,323.280000,33.221000
9296.916254,323.328000,15.937000
9301.411445,323.375000,15.767000
9306.000929,323.423000,22.126500
9310.589052,323.471000,42.402000
9315.175812,323.519000,13.788500
9319.761212,323.567000,13.655500
9324.345252,323.615000,13.657500
9328.927932,323.663000,15.108500
9333.509253,323.711000,15.169000
9338.089216,323.759000,10.346000
9342.572447,323.806000,15.632000
9347.149722,323.854000,14.364500
9351.725642,323.902000,7.962500
9356.300205,323.950000,10.166500
9360.873412,323.998000,11.659500
9365.350032,324.045000,9.750000
9369.920559,324.093000,7.791000
9374.489732,324.141000,4.498500
9379.057552,324.189000,-3.945000
9383.528899,324.236000,10.217500
9388.094043,324.284000,10.717500
9392.657836,324.332000,11.708000
9397.125241,324.379000,18.348000
9401.686361,324.427000,13.837500
9406.246132,324.475000,17.805500
9410.804554,324.523000,13.389000
9415.266702,324.570000,15.253000
9419.822456,324.618000,19.391000
9424.281993,324.665000,16.423500
9428.835082,324.713000,14.793000
9433.386824,324.761000,13.916500
9437.842435,324.808000,11.280000
9442.391516,324.856000,13.770000
9446.844521,324.903000,11.642500
9451.390942,324.951000,12.439500
9455.936020,324.999000,10.047000
9460.385108,325.046000,13.375000
9464.927530,325.094000,15.476000
9469.374018,325.141000,14.993000
9473.913786,325.189000,9.672000
9478.357677,325.236000,11.304000
9482.894794,325.284000,12.747500
9487.336090,325.331000,11.394500
9491.870557,325.379000,11.876000
9496.309260,325.426000,8.591000
9500.746681,325.473000,12.021500
9505.277193,325.521000,11.273000
9509.712024,325.568000,11.037500
9514.239893,325.616000,17.985500
9518.672137,325.663000,10.097000
9523.103102,325.710000,9.774500
9527.627024,325.758000,14.678000
9532.055405,325.805000,12.297000
9536.576689,325.853000,13.575500
9541.002489,325.900000,9.786500
9545.427013,325.947000,5.619000
9549.850260,325.994000,12.711500
9554.366303,326.042000,8.065500
9558.786974,326.089000,12.706500
9563.206371,326.136000,13.344000
9567.718482,326.184000,12.391500
9572.135305,326.231000,4.844000
9576.550855,326.278000,8.451500
9580.965134,326.325000,13.034500
9585.472021,326.373000,14.669000
9589.883730,326.420000,11.891000
9594.294169,326.467000,10.758500
9598.703338,326.514000,11.286500
9603.111238,326.561000,13.627000
9607.611614,326.609000,12.711000
9612.016950,326.656000,12.254000
9616.421019,326.703000,16.122500
9620.823821,326.750000,12.564500
9625.225356,326.797000,10.082000
9629.625626,326.844000,10.451500
9634.024630,326.891000,12.371000
9638.422369,326.938000,11.452000
9642.818845,326.985000,11.378500
9647.214056,327.032000,14.050000
9651.701479,327.080000,11.874500
9656.094138,327.127000,16.913000
9660.485535,327.174000,30.085500
9664.875670,327.221000,13.119000
9669.264544,327.268000,12.802500
9673.652158,327.315000,12.249000
9678.038512,327.362000,15.909500
9682.423607,327.409000,14.773000
9686.807443,327.456000,18.779500
9691.190021,327.503000,13.745000
9695.478134,327.549000,15.629000
9699.858224,327.596000,13.027000
9704.237057,327.643000,14.017000
9708.614633,327.690000,11.468500
9712.990955,327.737000,13.527000
9717.366021,327.784000,12.623500
9721.739833,327.831000,15.234000
9726.112390,327.878000,13.316500
9730.483695,327.925000,3.974000
9734.760780,327.971000,21.402500
9739.129606,328.018000,12.940500
9743.497180,328.065000,8.540500
9747.863503,328.112000,11.627500
9752.228575,328.159000,16.238500
9756.499562,328.205000,13.713000
9760.862161,328.252000,13.459000
9765.223511,328.299000,9.915000
9769.583612,328.346000,13.544000
9773.849737,328.392000,13.681500
9778.207369,328.439000,14.277500
9782.563754,328.486000,18.025500
9786.918893,328.533000,13.525500
9791.180163,328.579000,14.608500
9795.532837,328.626000,11.015500
9799.884266,328.673000,12.240500
9804.141906,328.719000,13.031000
9808.490874,328.766000,13.923000
9812.838598,328.813000,15.595000
9817.092614,328.859000,9.440500
9821.437879,328.906000,13.328000
9825.689490,328.952000,20.841000
9830.032299,328.999000,15.994000
9834.373868,329.046000,12.468500
9838.621862,329.092000,15.612500
9842.960977,329.139000,12.547000
9847.206571,329.185000,13.154000
9851.543235,329.232000,11.721500
9855.786431,329.278000,13.709000
9860.120646,329.325000,14.847000
9864.361446,329.371000,17.108000
9868.693214,329.418000,34.581000
9872.931619,329.464000,17.143000
9877.260942,329.511000,15.732500
9881.496956,329.557000,16.639500
9885.823836,329.604000,17.678000
9890.057460,329.650000,15.869500
9894.289903,329.696000,13.246500
9898.613135,329.743000,13.769000
9902.843191,329.789000,17.309000
9907.163985,329.836000,12.627500
9911.391656,329.882000,15.498500
9915.618148,329.928000,15.854000
9919.935303,329.975000,15.446500
9924.159413,330.021000,13.149000
9928.382346,330.067000,13.974500
9932.695866,330.114000,11.889000
9936.916419,330.160000,12.666500
9941.135797,330.206000,15.202000
9945.445687,330.253000,13.187000
9949.662689,330.299000,15.967500
9953.878516,330.345000,17.233000
9958.093170,330.391000,40.318500
9962.398234,330.438000,21.193500
9966.610516,330.484000,18.572500
9970.821625,330.530000,16.796500
9975.031562,330.576000,16.492000
9979.240328,330.622000,14.682500
9983.539380,330.669000,16.771000
9987.745778,330.715000,15.447500
9991.951007,330.761000,12.463000
9996.155067,330.807000,16.936500
10000.357957,330.853000,16.272500
10004.559679,330.899000,28.581000
10008.760233,330.945000,34.680500
10013.050897,330.992000,37.855000
10017.249091,331.038000,25.512000
10021.446118,331.084000,18.596000
10025.641979,331.130000,16.115000
10029.836675,331.176000,17.829500
10034.030205,331.222000,18.145000
10038.222571,331.268000,16.492500
10042.413773,331.314000,18.865000
10046.603811,331.360000,12.477000
10050.792686,331.406000,14.308500
10054.980398,331.452000,19.683500
10059.166948,331.498000,15.098000
10063.352336,331.544000,16.626500
10067.536563,331.590000,15.778500
10071.719629,331.636000,16.840000
10075.901535,331.682000,27.487000
10080.082281,331.728000,17.179500
10084.261868,331.774000,12.373000
10088.440296,331.820000,16.355000
10092.526768,331.865000,15.173000
10096.702905,331.911000,16.834000
10100.877884,331.957000,9.657000
10105.051707,332.003000,10.238000
10109.224373,332.049000,11.351000
10113.395884,332.095000,16.285500
10117.475591,332.140000,17.248500
10121.644816,332.186000,17.478500
10125.812886,332.232000,15.631500
10129.979802,332.278000,12.943000
10134.145565,332.324000,17.222500
10138.219652,332.369000,19.047000
10142.383134,332.415000,19.105500
10146.545464,332.461000,14.385000
10150.706643,332.507000,15.808000
10154.776247,332.552000,17.088000
10158.935148,332.598000,15.856500
10163.092900,332.644000,17.655000
10167.159152,332.689000,20.830500
10171.314630,332.735000,19.052500
10175.468958,332.781000,14.586000
10179.531864,332.826000,17.106000
10183.683921,332.872000,15.318000
10187.834831,332.918000,19.154000
10191.894393,332.963000,17.537000
10196.043035,333.009000,18.920500
10200.190530,333.055000,17.521500
10204.246754,333.100000,15.879500
10208.391984,333.146000,15.588000
10212.445992,333.191000,23.157000
10216.588958,333.237000,16.946500
10220.640753,333.282000,16.111500
10224.781457,333.328000,21.198000
10228.831039,333.373000,23.652000
10232.969483,333.419000,18.183500
10237.016856,333.464000,18.794000
10241.153042,333.510000,17.534500
10245.198206,333.555000,16.221500
10249.332135,333.601000,22.190500
10253.375094,333.646000,19.196000
10257.506768,333.692000,18.943000
10261.547522,333.737000,13.865000
10265.587186,333.782000,18.157000
10269.715494,333.828000,18.300000
10273.752956,333.873000,15.050000
10277.879015,333.919000,18.694500
10281.914277,333.964000,17.678000
10285.948452,334.009000,17.611000
10290.071151,334.055000,18.498000
10294.103128,334.100000,13.351000
10298.134020,334.145000,16.162500
10302.253364,334.191000,12.950000
10306.282060,334.236000,18.132500
10310.309672,334.281000,15.743000
10314.425666,334.327000,18.434500
10318.451085,334.372000,15.392000
10322.475422,334.417000,16.658000
10326.498675,334.462000,14.416500
10330.610215,334.508000,13.416000
10334.631280,334.553000,15.648000
10338.651263,334.598000,24.517000
10342.670165,334.643000,20.202500
10346.687987,334.688000,20.904000
10350.704728,334.733000,21.772000
10354.809614,334.779000,18.960500
10358.824172,334.824000,16.768500
10362.837651,334.869000,17.105000
10366.850051,334.914000,12.581500
10370.861373,334.959000,5.180500
10374.871618,335.004000,19.521000
10378.880786,335.049000,22.980000
10382.888876,335.094000,20.639500
10386.984923,335.140000,20.159000
10390.990838,335.185000,15.446000
10394.995677,335.230000,17.305000
10398.999440,335.275000,18.271000
10403.002130,335.320000,18.324000
10407.003745,335.365000,16.733500
10411.004286,335.410000,18.109000
10415.003755,335.455000,19.256000
10419.002150,335.500000,17.603000
10422.999473,335.545000,18.658500
10426.995723,335.590000,19.274000
10430.990902,335.635000,17.646000
10434.985010,335.680000,17.680000
10438.889325,335.724000,16.672000
10442.881316,335.769000,18.508000
10446.872237,335.814000,16.642000
10450.862088,335.859000,20.194500
10454.850871,335.904000,19.714500
10458.838585,335.949000,17.609500
10462.825230,335.994000,20.930500
10466.810808,336.039000,15.862000
10470.706786,336.083000,17.110500
10474.690253,336.128000,15.906500
10478.672654,336.173000,18.618000
10482.653989,336.218000,19.547000
10486.634259,336.263000,16.051000
10490.525048,336.307000,17.810000
10494.503211,336.352000,18.521500
10498.480310,336.397000,19.025000
10502.456345,336.442000,21.281500
10506.342995,336.486000,16.171000
10510.316927,336.531000,17.430500
10514.289797,336.576000,17.640500
10518.261604,336.621000,17.855500
10522.144122,336.665000,21.123500
10526.113830,336.710000,20.197500
10530.082477,336.755000,15.555500
10533.961906,336.799000,16.405500
10537.928455,336.844000,18.898000
10541.893946,336.889000,19.182000
10545.770289,336.933000,16.777500
10549.733685,336.978000,14.703500
10553.607982,337.022000,18.266000
10557.569284,337.067000,17.293000
10561.529529,337.112000,20.159000
10565.400747,337.156000,19.143500
10569.358902,337.201000,19.646500
10573.228076,337.245000,17.722500
10577.184142,337.290000,24.376000
10581.051275,337.334000,25.420000
10585.005254,337.379000,20.416500
10588.870347,337.423000,17.868000
10592.822240,337.468000,17.701000
10596.685295,337.512000,19.870500
10600.635105,337.557000,17.150500
10604.496123,337.601000,14.735000
10608.443850,337.646000,13.543000
10612.302834,337.690000,16.818000
10616.160811,337.734000,17.637500
10620.105430,337.779000,11.916000
10623.961375,337.823000,9.795500
10627.903916,337.868000,9.461500
10631.757830,337.912000,3.281500
10635.610740,337.956000,-1.928000
10639.550179,338.001000,2.631000
10643.401061,338.045000,1.040500
10647.250940,338.089000,4.065000
10651.187281,338.134000,-2.539500
10655.035134,338.178000,-1.319000
10658.881986,338.222000,-0.126500
10662.815231,338.267000,-3.003500
10666.660059,338.311000,0.046500
10670.503887,338.355000,-3.772000
10674.346716,338.399000,-2.588000
10678.275848,338.444000,-0.846500
10682.116656,338.488000,3.686500
10685.956465,338.532000,16.538500
10689.795276,338.576000,0.556500
10693.633090,338.620000,1.960500
10697.557096,338.665000,-1.970000
10701.392893,338.709000,-3.183500
10705.227693,338.753000,-2.591000
10709.061498,338.797000,0.132500
10712.894307,338.841000,1.299000
10716.726120,338.885000,2.852000
10720.556939,338.929000,1.093500
10724.386763,338.973000,4.098000
10728.302601,339.018000,1.742500
10732.130414,339.062000,0.965000
10735.957235,339.106000,-1.824500
10739.783062,339.150000,-0.511000
10743.607897,339.194000,2.644500
10747.431740,339.238000,2.181000
10751.254591,339.282000,0.875500
10755.076450,339.326000,-0.465000
10758.897319,339.370000,-1.102000
10762.717197,339.414000,0.898000
10766.536084,339.458000,0.825000
10770.353982,339.502000,0.946000
10774.170890,339.546000,2.648000
10777.986809,339.590000,1.513000
10781.801740,339.634000,3.606500
10785.615682,339.678000,12.844000
10789.341989,339.721000,-0.395000
10793.153978,339.765000,2.250000
10796.964980,339.809000,0.505500
10800.774995,339.853000,1.014000
10804.584024,339.897000,-0.366500
10808.392066,339.941000,-0.504500
10812.199123,339.985000,-0.047000
10816.005195,340.029000,-1.306500
10819.723813,340.072000,1.482500
10823.527938,340.116000,-1.005000
10827.331078,340.160000,2.166000
10831.133235,340.204000,1.532500
10834.848029,340.247000,0.300500
10838.648242,340.291000,0.697000
10842.447472,340.335000,-0.079500
10846.245720,340.379000,-1.017000
10849.956695,340.422000,-2.086500
10853.753002,340.466000,-0.381500
10857.548328,340.510000,-0.948500
10861.342673,340.554000,-0.439000
10865.049836,340.597000,0.534500
10868.842243,340.641000,2.218500
10872.633670,340.685000,2.751500
10876.337983,340.728000,2.443500
10880.127474,340.772000,1.611000
10883.829896,340.815000,-1.707500
10887.617453,340.859000,3.477000
10891.404033,340.903000,-0.927500
10895.103609,340.946000,-8.760500
10898.888257,340.990000,-2.696000
10902.585946,341.033000,1.904000
10906.368663,341.077000,0.981500
10910.150404,341.121000,0.927000
10913.845254,341.164000,-4.546000
10917.625066,341.208000,-13.528000
10921.318033,341.251000,-19.075500
10925.095918,341.295000,-0.738000
10928.787002,341.338000,1.010000
10932.562962,341.382000,-0.314500
10936.252165,341.425000,1.824000
10939.940439,341.468000,1.951500
10943.713524,341.512000,2.122000
10947.399919,341.555000,-2.049500
10951.171083,341.599000,-0.285500
10954.855601,341.642000,-1.217500
10958.624845,341.686000,0.089500
10962.307486,341.729000,2.042500
10965.989201,341.772000,-0.540000
10969.755578,341.816000,1.094000
10973.435419,341.859000,0.097500
10977.114334,341.902000,-2.718500
10980.877848,341.946000,-2.159500
10984.554892,341.989000,-1.004000
10988.231011,342.032000,2.944500
10991.991665,342.076000,1.142000
10995.665914,342.119000,1.746500
10999.339240,342.162000,-1.549500
11003.011643,342.205000,0.053500
11006.768496,342.249000,0.645000
11010.439032,342.292000,4.280500
11014.108646,342.335000,2.274500
11017.777338,342.378000,-0.860500
11021.530396,342.422000,1.338500
11025.197224,342.465000,2.200000
11028.863132,342.508000,0.299500
11032.528119,342.551000,-0.436000
11036.192187,342.594000,-2.309500
11039.855335,342.637000,-8.001000
11043.602720,342.681000,-4.371500
11047.264009,342.724000,-1.915000
11050.924378,342.767000,0.104000
11054.583829,342.810000,1.909000
11058.242363,342.853000,-0.157500
11061.899979,342.896000,-1.338000
11065.556677,342.939000,3.572500
11069.212459,342.982000,1.048000
11072.867324,343.025000,1.106500
11076.521273,343.068000,0.631000
11080.174306,343.111000,-0.635500
11083.826423,343.154000,1.880500
11087.477626,343.197000,1.854000
11091.127913,343.240000,0.931000
11094.777286,343.283000,1.447000
11098.425745,343.326000,-5.799500
11102.073291,343.369000,-3.156000
11105.719922,343.412000,1.243000
11109.365641,343.455000,0.635000
11113.010447,343.498000,1.770500
11116.654340,343.541000,4.343500
11120.297322,343.584000,0.916500
11123.939391,343.627000,5.741000
11127.580549,343.670000,9.089500
11131.220797,343.713000,3.601000
11134.775508,343.755000,2.980000
11138.413955,343.798000,2.628000
11142.051492,343.841000,1.615000
11145.688120,343.884000,-0.193500
11149.323838,343.927000,0.172000
11152.958647,343.970000,0.636000
11156.508049,344.012000,0.270000
11160.141062,344.055000,3.364000
11163.773167,344.098000,-3.837000
11167.404365,344.141000,-1.162000
11170.950240,344.183000,1.752500
11174.579645,344.226000,1.047000
11178.208143,344.269000,-0.977500
11181.751382,344.311000,0.865000
11185.378088,344.354000,0.359500
11189.003889,344.397000,3.511500
11192.628785,344.440000,-1.243000
11196.168507,344.482000,1.828000
11199.791614,344.525000,-2.416000
11203.413817,344.568000,3.401000
11206.950910,344.610000,0.090000
11210.571327,344.653000,-2.158000
11214.106675,344.695000,-1.409500
11217.725306,344.738000,-4.655000
11221.343035,344.781000,1.216500
11224.875759,344.823000,0.780500
11228.491704,344.866000,0.758000
11232.022687,344.908000,-4.386500
11235.636851,344.951000,-0.794000
11239.166094,344.993000,-0.205500
11242.778477,345.036000,-0.449500
11246.305982,345.078000,-1.888000
11249.916585,345.121000,2.267500
11253.442353,345.163000,-1.345500
11257.051178,345.206000,10.093500
11260.575210,345.248000,3.385500
11264.182259,345.291000,0.368000
11267.704555,345.333000,-1.493500
11271.309829,345.376000,-1.186000
11274.830392,345.418000,3.902000
11278.350100,345.460000,-1.503500
11281.952723,345.503000,-20.699000
11285.470699,345.545000,-6.199000
11288.987820,345.587000,0.056500
11292.587796,345.630000,-4.379000
11296.103187,345.672000,-0.819500
11299.701393,345.715000,2.888500
11303.215056,345.757000,1.690500
11306.727865,345.799000,2.813000
11310.239821,345.841000,-0.190000
11313.834512,345.884000,-1.919000
11317.344742,345.926000,0.102000
11320.854120,345.968000,-1.819500
11324.446172,346.011000,2.611000
11327.953826,346.053000,0.725000
11331.460629,346.095000,0.933000
11334.966581,346.137000,0.774000
11338.471682,346.179000,-6.555500
11342.059357,346.222000,-1.535500
11345.562737,346.264000,-1.810000
11349.065268,346.306000,-0.418000
11352.566949,346.348000,1.214500
11356.067781,346.390000,-0.666000
11359.567764,346.432000,-0.386500
11363.150201,346.475000,-0.609000
11366.648467,346.517000,-0.889000
11370.145885,346.559000,1.206000
11373.642456,346.601000,1.958500
11377.138179,346.643000,10.275500
11380.633055,346.685000,6.431500
11384.127085,346.727000,7.159000
11387.620268,346.769000,3.204500
11391.112605,346.811000,1.668500
11394.604096,346.853000,4.177500
11398.094742,346.895000,-0.457500
11401.584543,346.937000,0.253000
11405.073499,346.979000,0.026000
11408.561610,347.021000,2.260500
11412.048877,347.063000,-2.624500
11415.535301,347.105000,-5.591000
11419.020880,347.147000,-0.108500
11422.505617,347.189000,-2.713000
11425.989510,347.231000,-3.856500
11429.472560,347.273000,-1.007500
11432.954769,347.315000,3.807000
11436.436135,347.357000,-1.819500
11439.916659,347.399000,2.858000
11443.313502,347.440000,-1.599500
11446.792364,347.482000,0.298500
11450.270384,347.524000,-3.295000
11453.747565,347.566000,-3.272000
11457.223905,347.608000,-3.440500
11460.699405,347.650000,0.429000
11464.091345,347.691000,0.878500
11467.565186,347.733000,-3.632500
11471.038188,347.775000,-7.425500
11474.510351,347.817000,-2.250000
11477.981676,347.859000,-0.640000
11481.369541,347.900000,-1.872500
11484.839210,347.942000,-5.867000
11488.308041,347.984000,-0.978500
11491.693473,348.025000,-0.136500
11495.160650,348.067000,-2.534500
11498.626991,348.109000,-1.362000
11502.092494,348.151000,-0.568000
11505.474680,348.192000,-0.283500
11508.938532,348.234000,-2.306500
11512.401549,348.276000,-1.183000
11515.781307,348.317000,-8.103000
11519.242673,348.359000,0.883000
11522.620821,348.400000,0.010000
11526.080539,348.442000,-1.504000
11529.539422,348.484000,-0.703500
11532.915148,348.525000,0.970000
11536.372384,348.567000,-0.293000
11539.746502,348.608000,-3.091000
11543.202092,348.650000,2.162000
11546.574604,348.691000,-1.375000
11550.028550,348.733000,0.052000
11553.399456,348.774000,-3.196000
11556.851758,348.816000,1.458500
11560.221061,348.857000,-0.815500
11563.671720,348.899000,-0.475000
11567.039420,348.940000,-2.990500
11570.488439,348.982000,-2.965500
11573.854537,349.023000,-6.886000
11577.301915,349.065000,-4.138500
11580.666413,349.106000,-0.474500
11584.030120,349.147000,-3.584500
11587.475051,349.189000,-4.365000
11590.837159,349.230000,2.067000
11594.280452,349.272000,-1.679500
11597.640963,349.313000,-0.242500
11601.000686,349.354000,0.920500
11604.441535,349.396000,-2.531000
11607.799661,349.437000,0.236000
11611.157000,349.478000,1.612500
11614.595408,349.520000,1.166500
11617.951152,349.561000,-4.538500
11621.306109,349.602000,-1.198500
11624.660280,349.643000,-0.600500
11628.095443,349.685000,0.054000
11631.448022,349.726000,0.493000
11634.799814,349.767000,-0.319500
11638.150821,349.808000,-2.879500
11641.582745,349.850000,3.350000
11644.932162,349.891000,-4.152000
11648.280794,349.932000,0.564500
11651.628641,349.973000,-5.400500
11654.975704,350.014000,-14.844000
11658.403590,350.056000,-5.001500
11661.749066,350.097000,-3.003000
11665.093759,350.138000,-1.969000
11668.437668,350.179000,0.708500
11671.780795,350.220000,-1.804000
11675.123139,350.261000,-1.507500
11678.464700,350.302000,-3.284000
11681.805480,350.343000,-8.375000
11685.145477,350.384000,-1.213000
11688.484693,350.425000,-1.260000
11691.904543,350.467000,2.179500
11695.242178,350.508000,-1.343500
11698.579032,350.549000,-1.363500
11701.915105,350.590000,-0.482500
11705.250398,350.631000,-3.375000
11708.584912,350.672000,-0.287000
11711.918645,350.713000,-2.447500
11715.251600,350.754000,-2.280000
11718.502512,350.794000,3.369500
11721.833927,350.835000,0.889500
11725.164564,350.876000,0.724500
11728.494422,350.917000,-3.400500
11731.823503,350.958000,-1.796500
11735.151806,350.999000,-0.186000
11738.479331,351.040000,1.630500
11741.806079,351.081000,0.757500
11745.132050,351.122000,-1.684000
11748.457245,351.163000,-0.238500
11751.700589,351.203000,-1.114500
11755.024250,351.244000,-0.382000
11758.347135,351.285000,0.454500
11761.669245,351.326000,-3.359000
11764.990579,351.367000,-3.747000
11768.230159,351.407000,-3.114000
11771.549962,351.448000,-2.963000
11774.868991,351.489000,-2.878000
11778.187246,351.530000,-13.459500
11781.423822,351.570000,-4.290000
11784.740548,351.611000,1.472500
11788.056500,351.652000,-2.514500
11791.371680,351.693000,-0.552500
11794.605256,351.733000,-3.128500
11797.918909,351.774000,-1.483500
11801.231790,351.815000,-3.054500
11804.463124,351.855000,-2.673000
11807.774479,351.896000,-6.734500
11811.085063,351.937000,-2.293000
11814.314158,351.977000,2.476000
11817.623218,352.018000,0.537500
11820.850827,352.058000,-1.574000
11824.158365,352.099000,0.298500
11827.465133,352.140000,-0.643000
11830.690506,352.180000,0.024000
11833.995753,352.221000,-0.359000
11837.219643,352.261000,-1.433000
11840.523370,352.302000,1.007500
11843.745778,352.342000,-1.959000
11847.047986,352.383000,-1.846500
11850.268913,352.423000,-3.391500
11853.569603,352.464000,-7.399000
11856.789050,352.504000,1.005000
11860.088224,352.545000,-1.394000
11863.306191,352.585000,-3.617500
11866.603850,352.626000,0.248500
11869.820339,352.666000,1.348000
11873.116483,352.707000,1.474500
11876.331495,352.747000,-2.587000
11879.545777,352.787000,0.383000
11882.839661,352.828000,0.927500
11886.052468,352.868000,-0.590500
11889.264547,352.908000,-0.089000
11892.556173,352.949000,0.324500
11895.766777,352.989000,-2.400500
11899.056892,353.030000,-0.274000
11902.266024,353.070000,-0.903500
11905.474429,353.110000,-1.842500
11908.682107,353.150000,-1.538000
11911.969223,353.191000,-1.678000
11915.175430,353.231000,-1.520000
11918.380911,353.271000,-1.270500
11921.665775,353.312000,-1.099500
11924.869787,353.352000,-0.600500
11928.073073,353.392000,7.425500
11931.275634,353.432000,-1.965500
11934.477470,353.472000,-0.555500
11937.758600,353.513000,-5.693000
11940.958969,353.553000,-1.794500
11944.158614,353.593000,-1.849500
11947.357536,353.633000,-14.691000
11950.555733,353.673000,-12.593000
11953.753208,353.713000,-1.006500
11957.029868,353.754000,-1.375000
11960.225879,353.794000,-0.033000
11963.421166,353.834000,-1.159000
11966.615732,353.874000,-0.635000
11969.809575,353.914000,-0.551500
11973.002696,353.954000,-2.245000
11976.195096,353.994000,-2.757500
11979.386774,354.034000,-3.952000
11982.577731,354.074000,-2.280000
11985.767968,354.114000,-0.110500
11988.957483,354.154000,-2.104000
11992.146279,354.194000,-1.702500
11995.334354,354.234000,-0.513000
11998.521709,354.274000,-5.461500
12001.708345,354.314000,-4.926500
12004.894261,354.354000,-1.561500
12008.079458,354.394000,-1.917500
12011.263936,354.434000,-1.673000
12014.447695,354.474000,0.581500
12017.630736,354.514000,-1.140500
12020.813059,354.554000,-4.322000
12023.994663,354.594000,-3.100500
12027.175550,354.634000,-0.517000
12030.276224,354.673000,-4.828500
12033.455694,354.713000,0.546000
12036.634448,354.753000,-2.124000
12039.812484,354.793000,-4.248000
12042.989804,354.833000,0.070500
12046.166408,354.873000,-3.615000
12049.262907,354.912000,-0.903000
12052.438097,354.952000,-1.577000
12055.612571,354.992000,2.507000
12058.786330,355.032000,-1.783500
12061.880056,355.071000,-1.967000
12065.052403,355.111000,-5.299500
12068.224035,355.151000,27.461500
12071.394953,355.191000,-1.379000
12074.485910,355.230000,-2.456000
12077.655418,355.270000,-7.204500
12080.824212,355.310000,-7.035000
12083.913100,355.349000,-3.333500
12087.080485,355.389000,-1.889500
12090.247158,355.429000,-3.236000
12093.333977,355.468000,-2.552000
12096.499242,355.508000,0.782500
12099.663795,355.548000,0.818500
12102.748549,355.587000,0.184500
12105.911696,355.627000,-0.817000
12108.995079,355.666000,0.736000
12112.156822,355.706000,-0.565000
12115.317853,355.746000,-1.697500
12118.399174,355.785000,0.261000
12121.558801,355.825000,0.101000
12124.638754,355.864000,0.368000
12127.796979,355.904000,-0.191500
12130.875565,355.943000,-0.803500
12134.032389,355.983000,-0.548500
12137.109608,356.022000,-0.287000
12140.265031,356.062000,-0.207500
12143.340885,356.101000,0.709000
12146.494908,356.141000,0.412500
12149.569398,356.180000,-0.301500
12152.643215,356.219000,-1.171000
12155.795149,356.259000,0.302500
12158.867603,356.298000,-0.366000
12162.018139,356.338000,-0.245500
12165.089231,356.377000,-0.764000
12168.159651,356.416000,-1.379000
12171.308101,356.456000,-0.920000
12174.377160,356.495000,-1.265000
12177.445548,356.534000,-0.724500
12180.591915,356.574000,0.673000
12183.658943,356.613000,0.074000
12186.725300,356.652000,0.893000
12189.869585,356.692000,0.267500
12192.934585,356.731000,-1.137000
12195.998914,356.770000,-0.527000
12199.062573,356.809000,-0.339500
12202.204093,356.849000,0.394000
12205.266396,356.888000,-0.901500
12208.328030,356.927000,-0.415500
12211.388995,356.966000,0.820500
12214.527751,357.006000,-0.512500
12217.587361,357.045000,0.669000
12220.646304,357.084000,-0.271000
12223.704578,357.123000,0.264500
12226.762184,357.162000,-0.004500
12229.819122,357.201000,-1.134500
12232.953750,357.241000,-0.183000
12236.009337,357.280000,-0.895500
12239.064257,357.319000,0.110500
12242.118510,357.358000,-1.590500
12245.172096,357.397000,-0.631500
12248.225016,357.436000,0.220500
