raman_shift_cm-1,wavelength_nm,intensity
-311.444523,246.690000,0.000000
-300.766377,246.755000,0.000000
-290.093855,246.820000,0.000000
-279.262891,246.886000,0.000000
-268.601691,246.951000,0.150000
-257.946101,247.016000,0.410000
-247.296118,247.081000,1.420000
-236.651737,247.146000,-1.170000
-226.012953,247.211000,-1.010000
-215.216219,247.277000,-1.510000
-204.588703,247.342000,-2.490000
-193.966771,247.407000,-1.200000
-183.350419,247.472000,0.430000
-172.739643,247.537000,-0.560000
-162.134437,247.602000,-2.130000
-151.534799,247.667000,1.180000
-140.940722,247.732000,-2.960000
-130.352203,247.797000,1.230000
-119.769238,247.862000,2.130000
-109.191822,247.927000,-0.510000
-98.619951,247.992000,0.950000
-88.053621,248.057000,0.870000
-77.655258,248.121000,2.820000
-67.099910,248.186000,-2.360000
-56.550089,248.251000,-0.040000
-46.005792,248.316000,-0.380000
-35.467013,248.381000,2.250000
-24.933749,248.446000,-0.500000
-14.405995,248.511000,-4.460000
-4.045586,248.575000,-1.220000
6.471245,248.640000,-0.810000
16.982580,248.705000,1.760000
27.488421,248.770000,-0.540000
37.827271,248.834000,0.380000
48.322224,248.899000,-0.380000
58.811696,248.964000,0.440000
69.134442,249.028000,-3.140000
79.613052,249.093000,-0.590000
90.086194,249.158000,-2.050000
100.392873,249.222000,-2.240000
110.855177,249.287000,-0.810000
121.312027,249.352000,2.090000
131.602677,249.416000,-1.920000
142.048715,249.481000,-0.280000
152.328727,249.545000,-0.910000
162.763968,249.610000,0.010000
173.033359,249.674000,-0.010000
183.457821,249.739000,-0.060000
193.716607,249.803000,4.110000
204.130307,249.868000,-0.610000
214.378504,249.932000,1.710000
224.781458,249.997000,-106.210000
235.019083,250.061000,-314.340000
245.411309,250.126000,-181.980000
255.638378,250.190000,-45.800000
265.860216,250.254000,83.560000
276.236420,250.319000,9.860000
286.447727,250.383000,-42.470000
296.813243,250.448000,-39.820000
307.014035,250.512000,-59.650000
317.209616,250.576000,-19.000000
327.399990,250.640000,-9.860000
337.744263,250.705000,3.510000
347.924154,250.769000,-25.620000
358.098850,250.833000,36.910000
368.268355,250.897000,30.180000
378.591450,250.962000,3.750000
388.750505,251.026000,53.560000
398.904381,251.090000,173.650000
409.053082,251.154000,100.530000
419.196612,251.218000,69.610000
429.334975,251.282000,7.190000
439.626466,251.347000,5.780000
449.754426,251.411000,4.400000
459.877231,251.475000,-31.400000
469.994885,251.539000,11.520000
480.107392,251.603000,22.100000
490.214756,251.667000,70.970000
500.316980,251.731000,-9.000000
510.414069,251.795000,165.410000
520.506026,251.859000,223.480000
530.592855,251.923000,4.700000
540.674561,251.987000,15.300000
550.751147,252.051000,37.570000
560.822617,252.115000,27.190000
570.888975,252.179000,-0.610000
580.950225,252.243000,-0.210000
590.849282,252.306000,-4.570000
600.900407,252.370000,0.330000
610.946435,252.434000,20.950000
620.987371,252.498000,14.780000
631.023218,252.562000,14.800000
641.053980,252.626000,7.620000
650.923048,252.689000,-1.570000
660.943731,252.753000,-5.890000
670.959341,252.817000,63.570000
680.969880,252.881000,42.750000
690.819058,252.944000,-23.320000
700.819549,253.008000,56.140000
710.814983,253.072000,5.300000
720.805362,253.136000,8.080000
730.634708,253.199000,31.070000
740.615069,253.263000,42.760000
750.434561,253.326000,23.010000
760.404919,253.390000,153.850000
770.370241,253.454000,48.930000
780.174941,253.517000,16.990000
790.130283,253.581000,43.370000
799.925166,253.644000,41.390000
809.870542,253.708000,15.120000
819.655623,253.771000,14.620000
829.591048,253.835000,1.240000
839.366341,253.898000,-3.940000
849.291831,253.962000,-54.910000
859.057350,254.025000,-25.350000
868.972920,254.089000,-16.830000
878.728681,254.152000,-60.560000
888.634344,254.216000,-162.960000
898.380361,254.279000,11.570000
908.121550,254.342000,28.370000
918.012421,254.406000,16.030000
927.743888,254.469000,3.970000
937.470538,254.532000,-13.930000
947.346650,254.596000,-5.660000
957.063600,254.659000,-2.480000
966.775743,254.722000,14.410000
976.637128,254.786000,7.970000
986.339593,254.849000,-35.150000
996.037261,254.912000,36.700000
1005.730138,254.975000,-26.270000
1015.571966,255.039000,-15.510000
1025.255192,255.102000,11.470000
1034.933637,255.165000,-0.670000
1044.607304,255.228000,-44.260000
1054.276196,255.291000,24.760000
1063.940318,255.354000,12.820000
1073.599672,255.417000,42.210000
1083.407471,255.481000,33.110000
1093.057225,255.544000,57.820000
1102.702223,255.607000,15.550000
1112.342467,255.670000,-288.070000
1121.977961,255.733000,-0.860000
1131.608710,255.796000,73.830000
1141.234715,255.859000,28.600000
1150.855981,255.922000,-47.330000
1160.472512,255.985000,-63.710000
1170.084310,256.048000,-38.030000
1179.691379,256.111000,29.550000
1189.293724,256.174000,19.180000
1198.739040,256.236000,11.090000
1208.332019,256.299000,59.590000
1217.920283,256.362000,11.560000
1227.503835,256.425000,3.980000
1237.082680,256.488000,2.050000
1246.656820,256.551000,-12.450000
1256.226260,256.614000,-40.550000
1265.639217,256.676000,7.040000
1275.199339,256.739000,39.370000
1284.754770,256.802000,21.540000
1294.305515,256.865000,40.890000
1303.700087,256.927000,69.910000
1313.241541,256.990000,174.420000
1322.778319,257.053000,63.540000
1332.310423,257.116000,27.220000
1341.686664,257.178000,-6.400000
1351.209505,257.241000,9.350000
1360.727683,257.304000,176.010000
1370.090229,257.366000,197.590000
1379.599165,257.429000,100.410000
1388.952622,257.491000,68.180000
1398.452329,257.554000,109.310000
1407.796710,257.616000,87.340000
1417.287202,257.679000,2.250000
1426.773053,257.742000,28.760000
1436.103810,257.804000,4.890000
1445.580466,257.867000,-6.790000
1454.902179,257.929000,3.940000
1464.369654,257.992000,-35.410000
1473.682337,258.054000,-0.650000
1482.990547,258.116000,-16.760000
1492.444310,258.179000,-3.990000
1501.743510,258.241000,-6.710000
1511.188124,258.304000,-17.450000
1520.478327,258.366000,13.290000
1529.764072,258.428000,11.900000
1539.195025,258.491000,5.230000
1548.471792,258.553000,15.690000
1557.744112,258.615000,15.790000
1567.161432,258.678000,-23.910000
1576.424794,258.740000,-9.360000
1585.683718,258.802000,-15.600000
1594.938206,258.864000,35.390000
1604.337420,258.927000,23.140000
1613.582976,258.989000,3.120000
1622.824106,259.051000,462.530000
1632.060814,259.113000,527.070000
1641.293103,259.175000,181.520000
1650.669776,259.238000,9.070000
1659.893165,259.300000,49.570000
1669.112144,259.362000,1.500000
1678.326716,259.424000,-60.410000
1687.536886,259.486000,-37.220000
1696.742655,259.548000,8.590000
1705.944027,259.610000,17.870000
1715.141005,259.672000,3.910000
1724.333592,259.734000,21.930000
1733.521792,259.796000,13.160000
1742.705607,259.858000,33.510000
1751.885041,259.920000,-0.660000
1761.060096,259.982000,30.670000
1770.230777,260.044000,52.110000
1779.397086,260.106000,-96.110000
1788.559026,260.168000,23.910000
1797.716600,260.230000,3.810000
1806.869812,260.292000,27.820000
1816.018664,260.354000,-4.150000
1825.163160,260.416000,6.990000
1834.155916,260.477000,18.510000
1843.291778,260.539000,6.490000
1852.423294,260.601000,-11.680000
1861.550466,260.663000,5.810000
1870.673297,260.725000,-10.840000
1879.644752,260.786000,-0.580000
1888.758980,260.848000,72.340000
1897.868877,260.910000,222.360000
1906.974445,260.972000,25.120000
1915.928928,261.033000,4.030000
1925.025918,261.095000,2.450000
1934.118588,261.157000,-24.300000
1943.060391,261.218000,8.200000
1952.144502,261.280000,31.270000
1961.224302,261.342000,176.070000
1970.153451,261.403000,19.580000
1979.224710,261.465000,18.920000
1988.145460,261.526000,-18.560000
1997.208190,261.588000,-2.440000
2006.120554,261.649000,10.250000
2015.174766,261.711000,20.270000
2024.078756,261.772000,14.820000
2033.124461,261.834000,16.480000
2042.020089,261.895000,47.350000
2051.057301,261.957000,162.400000
2059.944578,262.018000,-109.710000
2068.973308,262.080000,-22.090000
2077.852245,262.141000,-24.870000
2086.872506,262.203000,-36.450000
2095.743116,262.264000,-43.350000
2104.609601,262.325000,36.770000
2113.617214,262.387000,90.900000
2122.475388,262.448000,-0.830000
2131.329447,262.509000,-25.130000
2140.324438,262.571000,8.650000
2149.170203,262.632000,37.670000
2158.011861,262.693000,11.880000
2166.994257,262.755000,-16.860000
2175.827640,262.816000,-5.620000
2184.656923,262.877000,21.120000
2193.482109,262.938000,14.430000
2202.303202,262.999000,91.220000
2211.264711,263.061000,-67.340000
2220.077557,263.122000,14.890000
2228.886318,263.183000,-26.490000
2237.690997,263.244000,-30.190000
2246.491597,263.305000,-71.990000
2255.288119,263.366000,-157.200000
2264.080568,263.427000,-38.300000
2272.868945,263.488000,182.800000
2281.653255,263.549000,-114.650000
2290.577403,263.611000,-70.340000
2299.353518,263.672000,-98.330000
2308.125573,263.733000,-147.220000
2316.893571,263.794000,-70.830000
2325.657515,263.855000,-61.280000
2334.273836,263.915000,-102.110000
2343.029746,263.976000,-16.240000
2351.781611,264.037000,282.050000
2360.529433,264.098000,155.610000
2369.273215,264.159000,103.780000
2378.012959,264.220000,154.500000
2386.748669,264.281000,3.270000
2395.480347,264.342000,-50.110000
2404.207997,264.403000,95.570000
2412.788642,264.463000,-47.930000
2421.508308,264.524000,-12.520000
2430.223953,264.585000,-24.310000
2438.935580,264.646000,-18.860000
2447.643192,264.707000,12.460000
2456.204142,264.767000,25.980000
2464.903798,264.828000,4.590000
2473.599447,264.889000,-27.940000
2482.148639,264.949000,-11.610000
2490.836348,265.010000,10.670000
2499.520059,265.071000,38.790000
2508.057516,265.131000,-8.350000
2516.733303,265.192000,54.670000
2525.405101,265.253000,-41.130000
2533.930847,265.313000,-159.190000
2542.594737,265.374000,-263.430000
2551.112712,265.434000,-47.010000
2559.768705,265.495000,-73.490000
2568.278918,265.555000,-10.450000
2576.927027,265.616000,0.620000
2585.571164,265.677000,33.810000
2594.069722,265.737000,6.610000
2602.564444,265.797000,21.390000
2611.196813,265.858000,-12.160000
2619.683805,265.918000,-9.580000
2628.308321,265.979000,-1.560000
2636.787594,266.039000,-3.420000
2645.404268,266.100000,-12.920000
2653.875831,266.160000,40.970000
2662.343577,266.220000,135.780000
2670.948539,266.281000,207.310000
2679.408591,266.341000,30.500000
2687.864833,266.401000,-95.570000
2696.458108,266.462000,-584.620000
2704.906672,266.522000,-405.200000
2713.351433,266.582000,21.920000
2721.792393,266.642000,118.710000
2730.370143,266.703000,69.880000
2738.803447,266.763000,79.600000
2747.232958,266.823000,-2.280000
2755.658679,266.883000,10.340000
2764.220946,266.944000,16.110000
2772.639032,267.004000,34.890000
2781.053334,267.064000,12.130000
2789.463857,267.124000,-29.000000
2797.870602,267.184000,53.270000
2806.273573,267.244000,32.550000
2814.672771,267.304000,-16.840000
2823.068200,267.364000,-20.200000
2831.459861,267.424000,137.760000
2839.847757,267.484000,-18.460000
2848.231891,267.544000,-2.450000
2856.612266,267.604000,24.150000
2864.988884,267.664000,73.440000
2873.361747,267.724000,-1.680000
2881.730857,267.784000,12.140000
2890.096219,267.844000,-2.640000
2898.457833,267.904000,-9.090000
2906.815703,267.964000,11.850000
2915.169831,268.024000,10.360000
2923.520219,268.084000,-29.040000
2931.866870,268.144000,1.620000
2940.209787,268.204000,-14.020000
2948.410016,268.263000,-14.140000
2956.745534,268.323000,38.280000
2965.077324,268.383000,38.260000
2973.405390,268.443000,-8.880000
2981.729735,268.503000,-14.580000
2989.911713,268.562000,-32.120000
2998.228682,268.622000,-82.670000
3006.541937,268.682000,0.140000
3014.851480,268.742000,-40.250000
3023.018913,268.801000,32.400000
3031.321101,268.861000,196.330000
3039.619584,268.921000,7.860000
3047.776149,268.980000,96.970000
3056.067292,269.040000,30.680000
3064.216644,269.099000,9.970000
3072.500457,269.159000,30.220000
3080.780577,269.219000,18.220000
3088.919097,269.278000,27.750000
3097.191901,269.338000,3.460000
3105.323232,269.397000,-15.520000
3113.588730,269.457000,-26.820000
3121.712881,269.516000,-45.260000
3129.971082,269.576000,-65.840000
3138.088063,269.635000,13.670000
3146.338978,269.695000,31.610000
3154.448798,269.754000,32.020000
3162.692435,269.814000,34.590000
3170.795104,269.873000,-31.880000
3178.894231,269.932000,4.480000
3187.127001,269.992000,44.560000
3195.218991,270.051000,7.740000
3203.307445,270.110000,19.100000
3211.529370,270.170000,-1.380000
3219.610701,270.229000,-13.300000
3227.688505,270.288000,-14.490000
3235.899605,270.348000,-2.980000
3243.970299,270.407000,10.490000
3252.037473,270.466000,-15.160000
3260.101128,270.525000,-78.160000
3268.297848,270.585000,160.250000
3276.354413,270.644000,294.230000
3284.407466,270.703000,7.890000
3292.457009,270.762000,22.370000
3300.503044,270.821000,-23.730000
3308.545575,270.880000,-60.260000
3316.720828,270.940000,-222.480000
3324.756296,270.999000,-155.150000
3332.788267,271.058000,-35.690000
3340.816741,271.117000,-10.100000
3348.841722,271.176000,-13.570000
3356.863212,271.235000,26.360000
3364.881213,271.294000,3.480000
3372.895727,271.353000,24.300000
3380.906756,271.412000,60.880000
3388.914304,271.471000,1.450000
3396.918371,271.530000,-23.490000
3404.918961,271.589000,0.460000
3412.916076,271.648000,-17.650000
3420.909718,271.707000,-25.330000
3428.899888,271.766000,-42.480000
3436.886591,271.825000,-79.430000
3444.734546,271.883000,-496.470000
3452.714377,271.942000,-88.500000
3460.690746,272.001000,-79.920000
3468.663655,272.060000,4.430000
3476.633107,272.119000,478.860000
3484.599104,272.178000,449.190000
3492.426718,272.236000,271.480000
3500.385870,272.295000,45.410000
3508.341573,272.354000,-37.750000
3516.293830,272.413000,-34.860000
3524.107947,272.471000,-111.160000
3532.053377,272.530000,-97.770000
3539.995368,272.589000,-18.970000
3547.799398,272.647000,0.840000
3555.734574,272.706000,13.890000
3563.666318,272.765000,-0.500000
3571.460282,272.823000,3.560000
3579.385225,272.882000,-32.890000
3587.306741,272.941000,-116.310000
3595.090658,272.999000,-117.050000
3603.005387,273.058000,10.230000
3610.782635,273.116000,19.520000
3618.690585,273.175000,-2.120000
3626.461173,273.233000,-9.720000
3634.362353,273.292000,38.720000
3642.126290,273.350000,9.780000
3650.020708,273.409000,31.520000
3657.778002,273.467000,33.730000
3665.665667,273.526000,23.010000
3673.416327,273.584000,35.210000
3681.163701,273.642000,-109.940000
3689.041282,273.701000,-308.800000
3696.782035,273.759000,-57.240000
3704.652885,273.818000,39.670000
3712.387025,273.876000,11.200000
3720.117889,273.934000,-44.070000
3727.845481,273.992000,-33.670000
3735.702951,274.051000,-30.540000
3743.423947,274.109000,-17.410000
3751.141676,274.167000,28.580000
3758.989119,274.226000,77.310000
3766.700265,274.284000,-63.850000
3774.408150,274.342000,-13.950000
3782.112776,274.400000,-5.500000
3789.814146,274.458000,8.800000
3797.644960,274.517000,-22.110000
3805.339767,274.575000,4.840000
3813.031324,274.633000,8.720000
3820.719634,274.691000,25.970000
3828.404697,274.749000,-1.240000
3836.086516,274.807000,-13.620000
3843.765093,274.865000,-16.330000
3851.440431,274.923000,-21.840000
3859.112530,274.981000,-59.060000
3866.781394,275.039000,-5.400000
3874.447024,275.097000,7.150000
3882.109423,275.155000,90.370000
3889.768591,275.213000,252.760000
3897.424533,275.271000,120.480000
3905.077248,275.329000,57.510000
3912.726740,275.387000,-9.380000
3920.373011,275.445000,-9.360000
3928.016062,275.503000,29.190000
3935.655896,275.561000,76.630000
3943.292514,275.619000,13.380000
3950.925919,275.677000,2.060000
3958.424585,275.734000,-3.800000
3966.051625,275.792000,85.520000
3973.675457,275.850000,-35.840000
3981.296084,275.908000,-5.720000
3988.913508,275.966000,-5.060000
3996.396478,276.023000,61.170000
4004.007557,276.081000,40.930000
4011.615438,276.139000,70.490000
4019.220124,276.197000,35.640000
4026.690584,276.254000,163.750000
4034.288940,276.312000,50.420000
4041.884108,276.370000,58.140000
4049.345219,276.427000,95.890000
4056.934068,276.485000,103.810000
4064.519735,276.543000,-23.260000
4071.971515,276.600000,51.510000
4079.550876,276.658000,116.970000
4086.996462,276.715000,-18.540000
4094.569525,276.773000,-60.010000
4102.008927,276.830000,-5.250000
4109.575700,276.888000,18.800000
4117.008923,276.945000,61.690000
4124.569414,277.003000,71.780000
4131.996467,277.060000,22.190000
4139.550684,277.118000,-3.540000
4146.971575,277.175000,-387.540000
4154.519525,277.233000,-51.380000
4161.934262,277.290000,15.070000
4169.475953,277.348000,20.130000
4228.011654,277.799000,-123.260000
4235.396210,277.856000,44.480000
4242.907211,277.914000,69.280000
4250.415077,277.972000,-16.250000
4257.790445,278.029000,3.860000
4265.292102,278.087000,-3.640000
4272.790631,278.145000,-24.860000
4280.156828,278.202000,1.720000
4287.649159,278.260000,2.330000
4295.138368,278.318000,18.190000
4302.495411,278.375000,-1.180000
4309.978434,278.433000,4.530000
4317.329402,278.490000,7.970000
4324.806246,278.548000,33.830000
4332.151147,278.605000,73.930000
4339.621821,278.663000,19.620000
4346.960661,278.720000,29.170000
4354.425172,278.778000,-10.770000
4361.757959,278.835000,38.040000
4369.216314,278.893000,30.450000
4376.543056,278.950000,30.660000
4383.995264,279.008000,1.320000
4391.315968,279.065000,9.320000
4398.762036,279.123000,14.470000
4406.076709,279.180000,11.230000
4413.516644,279.238000,50.290000
4420.825295,279.295000,29.150000
4428.130962,279.352000,36.570000
4435.561740,279.410000,41.380000
4442.861395,279.467000,14.270000
4450.158074,279.524000,23.470000
4457.579711,279.582000,27.840000
4464.870389,279.639000,4.760000
4472.158095,279.696000,-12.550000
4479.570607,279.754000,-53.230000
4486.852324,279.811000,-141.170000
4494.131074,279.868000,-102.790000
4501.534479,279.926000,-31.760000
4508.807251,279.983000,-22.670000
4516.077062,280.040000,9.230000
4523.343914,280.097000,12.690000
4530.735220,280.155000,13.010000
4537.996108,280.212000,40.010000
4545.254043,280.269000,44.600000
4552.509026,280.326000,-17.010000
4559.888262,280.384000,-252.740000
4567.137295,280.441000,-83.080000
4574.383383,280.498000,13.460000
4581.626526,280.555000,-2.010000
4588.866727,280.612000,1.960000
4596.103987,280.669000,-6.870000
4603.338308,280.726000,5.580000
4610.696532,280.784000,117.740000
4617.924929,280.841000,32.250000
4625.150392,280.898000,-8.720000
4632.372923,280.955000,-12.880000
4639.592525,281.012000,40.650000
4646.809198,281.069000,14.450000
4654.022945,281.126000,15.530000
4661.233767,281.183000,1.070000
4668.441666,281.240000,-15.100000
4675.646644,281.297000,9.970000
4682.848703,281.354000,41.750000
4690.047844,281.411000,68.380000
4697.244070,281.468000,33.640000
4704.437381,281.525000,31.270000
4711.627780,281.582000,11.960000
4718.815269,281.639000,52.660000
4725.999849,281.696000,9.030000
4733.181522,281.753000,29.750000
4740.360290,281.810000,18.300000
4747.536154,281.867000,-37.990000
4754.583300,281.923000,24.670000
4761.753414,281.980000,41.840000
4768.920629,282.037000,-16.090000
4776.084949,282.094000,-2.720000
4783.246373,282.151000,42.040000
4790.404904,282.208000,2.150000
4797.435032,282.264000,6.830000
4804.587834,282.321000,-8.450000
4811.737748,282.378000,-25.200000
4818.884776,282.435000,-72.210000
4826.028920,282.492000,-1.730000
4833.044920,282.548000,1.770000
4840.183352,282.605000,-39.140000
4847.318904,282.662000,23.500000
4854.451579,282.719000,20.190000
4861.456319,282.775000,-38.570000
4868.583295,282.832000,11.410000
4875.707399,282.889000,87.240000
4882.703723,282.945000,14.530000
4889.822139,283.002000,-36.360000
4896.937687,283.059000,20.750000
4903.925611,283.115000,-2.990000
4911.035481,283.172000,12.600000
4918.142490,283.229000,42.010000
4925.122029,283.285000,23.780000
4932.223369,283.342000,13.650000
4939.197342,283.398000,45.430000
4946.293021,283.455000,22.690000
4953.385847,283.512000,34.910000
4960.351460,283.568000,29.880000
4967.438635,283.625000,28.990000
4974.398699,283.681000,22.390000
4981.480229,283.738000,116.010000
4988.434752,283.794000,47.440000
4995.510644,283.851000,-1.650000
5002.459631,283.907000,60.360000
5009.529893,283.964000,87.100000
5016.473351,284.020000,55.800000
5023.537988,284.077000,58.140000
5030.475924,284.133000,46.060000
5037.534943,284.190000,37.590000
5044.467363,284.246000,14.870000
5051.397052,284.302000,18.970000
5058.447683,284.359000,43.100000
5065.371866,284.415000,33.520000
5072.416896,284.472000,47.060000
5079.335580,284.528000,48.580000
5086.251541,284.584000,40.370000
5093.288207,284.641000,18.100000
5100.198678,284.697000,79.590000
5107.106432,284.753000,24.290000
5114.134748,284.810000,-88.840000
5121.037022,284.866000,34.210000
5127.936582,284.922000,101.980000
5134.833431,284.978000,90.400000
5141.850655,285.035000,63.540000
5148.742037,285.091000,167.530000
5155.630712,285.147000,-39.550000
5162.516682,285.203000,24.980000
5169.522840,285.260000,50.230000
5176.403356,285.316000,44.420000
5183.281172,285.372000,-94.690000
5190.156289,285.428000,14.950000
5197.028709,285.484000,-10.680000
5204.021082,285.541000,89.720000
5210.888064,285.597000,111.690000
5217.752353,285.653000,85.840000
5224.613952,285.709000,62.030000
5231.472862,285.765000,-5.840000
5238.329083,285.821000,73.030000
5245.182619,285.877000,59.300000
5252.033470,285.933000,48.970000
5258.881638,285.989000,54.370000
5265.727125,286.045000,47.300000
5272.569932,286.101000,60.860000
5279.532182,286.158000,71.370000
5286.369586,286.214000,-182.430000
5293.204315,286.270000,-9.890000
5300.036371,286.326000,74.300000
5306.865755,286.382000,69.750000
5313.692468,286.438000,45.290000
5320.516513,286.494000,54.510000
5327.216104,286.549000,65.590000
5334.034863,286.605000,90.510000
5340.850958,286.661000,28.750000
5347.664391,286.717000,72.200000
5354.475163,286.773000,64.750000
5361.283275,286.829000,66.760000
5368.088729,286.885000,20.190000
5374.891528,286.941000,80.580000
5381.691671,286.997000,91.100000
5388.489161,287.053000,89.840000
5395.162686,287.108000,99.100000
5401.954922,287.164000,119.460000
5408.744509,287.220000,28.880000
5415.531448,287.276000,86.990000
5422.315743,287.332000,105.320000
5428.976316,287.387000,76.480000
5435.755371,287.443000,64.850000
5442.531785,287.499000,33.680000
5449.305560,287.555000,64.270000
5456.076697,287.611000,62.560000
5462.724355,287.666000,79.220000
5469.490268,287.722000,168.010000
5476.253548,287.778000,166.840000
5482.893494,287.833000,67.460000
5489.651559,287.889000,108.200000
5496.406995,287.945000,70.170000
5503.039242,288.000000,89.520000
5509.789473,288.056000,62.530000
5516.537079,288.112000,38.260000
5523.161640,288.167000,-35.810000
5529.904050,288.223000,-62.800000
5536.643840,288.279000,2.090000
5543.260729,288.334000,64.230000
5549.995332,288.390000,32.610000
5556.607128,288.445000,44.010000
5563.336549,288.501000,68.090000
5569.943259,288.556000,155.510000
5576.667504,288.612000,106.920000
5583.269134,288.667000,125.650000
5589.988209,288.723000,75.170000
5596.584764,288.778000,37.230000
5603.298676,288.834000,48.140000
5609.890162,288.889000,76.250000
5616.598916,288.945000,72.240000
5623.185340,289.000000,-20.790000
5629.888941,289.056000,7.400000
5636.470308,289.111000,12.070000
5643.168763,289.167000,42.820000
5649.745079,289.222000,202.650000
5656.438394,289.278000,127.310000
5663.009664,289.333000,-20.970000
5669.578437,289.388000,6.680000
5676.264076,289.444000,-140.590000
5682.827812,289.499000,5.400000
5689.389054,289.554000,29.790000
5696.067030,289.610000,25.720000
5702.623244,289.665000,-73.060000
5709.176969,289.720000,26.130000
5715.847296,289.776000,34.810000
5722.396001,289.831000,18.480000
5728.942221,289.886000,68.410000
5735.485958,289.941000,107.420000
5742.146122,289.997000,244.120000
5748.684850,290.052000,184.930000
5755.221100,290.107000,76.680000
5761.754871,290.162000,64.800000
5768.404894,290.218000,51.260000
5774.933669,290.273000,91.290000
5781.459971,290.328000,114.100000
5787.983800,290.383000,85.770000
5794.505158,290.438000,77.370000
5801.142550,290.494000,74.480000
5807.658926,290.549000,79.870000
5814.172835,290.604000,79.280000
5820.684279,290.659000,145.730000
5827.193260,290.714000,91.010000
5833.699778,290.769000,78.580000
5840.203835,290.824000,95.770000
5846.705432,290.879000,162.530000
5853.204572,290.934000,71.620000
5859.701254,290.989000,48.520000
5866.195481,291.044000,106.090000
5872.687254,291.099000,274.060000
5879.176574,291.154000,82.630000
5885.663444,291.209000,58.130000
5892.147863,291.264000,68.750000
5898.629834,291.319000,113.520000
5905.109357,291.374000,69.630000
5911.586435,291.429000,116.210000
5918.061069,291.484000,84.260000
5924.533260,291.539000,2.040000
5931.003009,291.594000,57.030000
5937.470318,291.649000,85.570000
5943.935188,291.704000,233.860000
5950.397621,291.759000,109.500000
5956.857618,291.814000,132.600000
5963.315180,291.869000,281.030000
5969.770309,291.924000,138.890000
5976.105706,291.978000,91.580000
5982.556017,292.033000,69.440000
5989.003898,292.088000,127.240000
5995.449352,292.143000,103.940000
6001.892379,292.198000,92.820000
6008.215901,292.252000,91.860000
6014.654123,292.307000,83.060000
6021.089923,292.362000,93.060000
6027.523303,292.417000,94.320000
6033.954262,292.472000,124.200000
6040.265942,292.526000,117.100000
6046.692111,292.581000,108.410000
6053.115864,292.636000,154.180000
6059.420472,292.690000,109.240000
6065.839442,292.745000,125.360000
6072.256000,292.800000,89.230000
6078.553548,292.854000,92.900000
6084.965331,292.909000,179.830000
6091.374707,292.964000,108.080000
6097.665207,293.018000,82.400000
6104.069816,293.073000,74.670000
6110.472021,293.128000,85.170000
6116.755485,293.182000,67.210000
6123.152931,293.237000,58.160000
6129.431725,293.291000,82.620000
6135.824417,293.346000,94.760000
6142.098547,293.400000,80.250000
6148.486490,293.455000,126.060000
6154.872040,293.510000,119.370000
6161.139160,293.564000,102.610000
6167.519969,293.619000,59.290000
6173.782438,293.673000,80.520000
6180.158512,293.728000,93.540000
6186.416334,293.782000,145.440000
6192.787678,293.837000,55.050000
6199.040859,293.891000,-158.890000
6205.291742,293.945000,28.370000
6211.656022,294.000000,194.100000
6217.902272,294.054000,113.140000
6224.261835,294.109000,588.670000
6230.503456,294.163000,367.870000
6236.742786,294.217000,199.580000
6243.095305,294.272000,88.170000
6249.330014,294.326000,100.590000
6255.677829,294.381000,143.210000
6261.907923,294.435000,103.750000
6268.135731,294.489000,93.070000
6274.476522,294.544000,106.700000
6280.699722,294.598000,95.030000
6286.920642,294.652000,89.720000
6293.139281,294.706000,78.240000
6299.470739,294.761000,62.590000
6305.684781,294.815000,86.070000
6311.896546,294.869000,143.530000
6318.106037,294.923000,93.690000
6324.428182,294.978000,86.850000
6330.633085,295.032000,109.090000
6336.835717,295.086000,90.910000
6343.036080,295.140000,104.970000
6349.234174,295.194000,48.920000
6355.544717,295.249000,125.410000
6361.738236,295.303000,89.100000
6367.929490,295.357000,98.300000
6374.118480,295.411000,71.040000
6380.305209,295.465000,116.260000
6386.489676,295.519000,124.860000
6392.671884,295.573000,109.400000
6398.851833,295.627000,66.380000
6405.143905,295.682000,108.010000
6411.319300,295.736000,116.380000
6417.492439,295.790000,52.670000
6423.663325,295.844000,97.930000
6429.831958,295.898000,58.950000
6435.998340,295.952000,54.860000
6442.162473,296.006000,53.340000
6448.324357,296.060000,95.770000
6454.483993,296.114000,55.290000
6460.641384,296.168000,-31.550000
6466.796529,296.222000,-526.860000
6472.949431,296.276000,-69.180000
6479.100090,296.330000,98.710000
6485.248508,296.384000,184.680000
6491.280888,296.437000,86.080000
6497.424869,296.491000,58.650000
6503.566612,296.545000,-23.410000
6509.706118,296.599000,-73.120000
6515.843390,296.653000,30.090000
6521.978427,296.707000,80.320000
6528.111232,296.761000,128.400000
6534.241805,296.815000,-30.200000
6540.256681,296.868000,348.170000
6546.382836,296.922000,94.800000
6552.506763,296.976000,89.830000
6558.628464,297.030000,140.330000
6564.747939,297.084000,151.400000
6570.751928,297.137000,91.360000
6576.866997,297.191000,82.830000
6582.979845,297.245000,77.430000
6589.090471,297.299000,107.720000
6595.085780,297.352000,95.680000
6601.192010,297.406000,99.330000
6607.296023,297.460000,103.780000
6613.397821,297.514000,70.570000
6619.384468,297.567000,80.770000
6625.481879,297.621000,66.650000
6631.577077,297.675000,100.550000
6637.557251,297.728000,95.650000
6643.648069,297.782000,95.740000
6649.623947,297.835000,161.420000
6655.710390,297.889000,83.740000
6661.794627,297.943000,80.310000
6667.764048,297.996000,135.890000
6673.843917,298.050000,171.200000
6679.809053,298.103000,190.110000
6685.884559,298.157000,129.310000
6691.957864,298.211000,133.470000
6697.916562,298.264000,2.100000
6703.985510,298.318000,20.180000
6709.939935,298.371000,54.620000
6716.004532,298.425000,94.380000
6721.954688,298.478000,61.870000
6728.014938,298.532000,79.240000
6733.960830,298.585000,59.110000
6739.904611,298.638000,108.590000
6745.958369,298.692000,251.780000
6751.897893,298.745000,131.350000
6757.947317,298.799000,56.580000
6763.882588,298.852000,19.690000
6769.927680,298.906000,81.810000
6775.858703,298.959000,101.150000
6781.787624,299.012000,112.550000
6787.826249,299.066000,153.750000
6793.750928,299.119000,147.150000
6799.673508,299.172000,-128.360000
6805.705677,299.226000,-50.670000
6811.624022,299.279000,80.450000
6817.540272,299.332000,44.790000
6823.565994,299.386000,87.010000
6829.478016,299.439000,107.490000
6835.387945,299.492000,92.510000
6841.407231,299.546000,153.380000
6847.312940,299.599000,109.740000
6853.216559,299.652000,-20.930000
6859.118090,299.705000,128.380000
6865.017534,299.758000,144.300000
6871.026143,299.812000,93.710000
6876.921378,299.865000,103.080000
6882.814529,299.918000,52.520000
6888.705597,299.971000,73.320000
6894.594584,300.024000,78.240000
6900.592545,300.078000,70.750000
6906.477333,300.131000,154.400000
6912.360044,300.184000,38.770000
6918.240677,300.237000,-28.590000
6924.119235,300.290000,82.700000
6929.995718,300.343000,107.580000
6935.870127,300.396000,97.290000
6941.742464,300.449000,89.590000
6947.612730,300.502000,85.860000
6953.480925,300.555000,68.060000
6959.347051,300.608000,91.490000
6965.211108,300.661000,87.220000
6971.073099,300.714000,124.110000
6976.933024,300.767000,103.930000
6982.790884,300.820000,88.120000
6988.646680,300.873000,107.120000
6994.500413,300.926000,246.140000
7000.352085,300.979000,109.700000
7006.201696,301.032000,136.580000
7012.049248,301.085000,156.120000
7017.894742,301.138000,114.830000
7023.738178,301.191000,138.080000
7029.579559,301.244000,53.600000
7035.418884,301.297000,79.090000
7041.256155,301.350000,71.050000
7047.091373,301.403000,-105.090000
7052.924539,301.456000,-20.360000
7058.645653,301.508000,93.690000
7064.474758,301.561000,117.290000
7070.301814,301.614000,94.480000
7076.126822,301.667000,121.270000
7081.949784,301.720000,162.770000
7087.660892,301.772000,185.540000
7093.479803,301.825000,64.390000
7099.296670,301.878000,58.400000
7105.111496,301.931000,64.200000
7110.814624,301.983000,60.370000
7116.625408,302.036000,77.760000
7122.434152,302.089000,91.430000
7128.240858,302.142000,85.550000
7133.936024,302.194000,105.730000
7139.738696,302.247000,82.220000
7145.539334,302.300000,95.520000
7151.228549,302.352000,125.090000
7157.025159,302.405000,112.100000
7162.819737,302.458000,108.720000
7168.503010,302.510000,80.600000
7174.293567,302.563000,119.230000
7180.082095,302.616000,180.950000
7185.759436,302.668000,128.040000
7191.543949,302.721000,143.390000
7197.217352,302.773000,107.090000
7202.997854,302.826000,174.670000
7208.667324,302.878000,203.020000
7214.443819,302.931000,144.980000
7220.109360,302.983000,88.030000
7225.881853,303.036000,141.550000
7231.543468,303.088000,164.710000
7237.311962,303.141000,192.610000
7242.969657,303.193000,184.350000
7248.734156,303.246000,85.750000
7254.387934,303.298000,69.450000
7260.148443,303.351000,-4.900000
7265.798308,303.403000,-22.860000
7271.554831,303.456000,83.910000
7277.200787,303.508000,58.140000
7282.953328,303.561000,-33.490000
7288.595379,303.613000,19.490000
7294.235498,303.665000,-31.930000
7299.982093,303.718000,90.590000
7305.618313,303.770000,85.510000
7311.252604,303.822000,116.730000
7316.993262,303.875000,85.810000
7322.623660,303.927000,129.450000
7328.252131,303.979000,146.430000
7333.986862,304.032000,80.900000
7339.611446,304.084000,64.440000
7345.234108,304.136000,129.710000
7350.962920,304.189000,119.480000
7356.581700,304.241000,102.670000
7362.198561,304.293000,124.290000
7367.813502,304.345000,116.060000
7373.426525,304.397000,142.140000
7379.145517,304.450000,169.000000
7384.754669,304.502000,111.780000
7390.361906,304.554000,139.030000
7395.967228,304.606000,120.800000
7401.570637,304.658000,91.510000
7407.279836,304.711000,36.810000
7412.879384,304.763000,112.010000
7418.477021,304.815000,228.430000
7424.072749,304.867000,130.730000
7429.666569,304.919000,87.190000
7435.258480,304.971000,123.350000
7440.848486,305.023000,155.500000
7446.436585,305.075000,120.880000
7452.022780,305.127000,147.030000
7457.607071,305.179000,268.470000
7463.296795,305.232000,129.350000
7468.877245,305.284000,42.150000
7474.455794,305.336000,130.580000
7480.032444,305.388000,29.360000
7485.607195,305.440000,175.710000
7491.180048,305.492000,126.330000
7496.751004,305.544000,96.640000
7502.212985,305.595000,112.270000
7507.780187,305.647000,64.600000
7513.345495,305.699000,-17.860000
7518.908909,305.751000,81.730000
7524.470432,305.803000,63.970000
7530.030064,305.855000,79.720000
7535.587805,305.907000,75.910000
7541.143658,305.959000,72.550000
7546.697622,306.011000,51.050000
7552.249699,306.063000,68.060000
7557.693173,306.114000,64.190000
7563.241514,306.166000,70.190000
7568.787971,306.218000,163.690000
7574.332545,306.270000,313.500000
7579.875237,306.322000,164.440000
7585.416047,306.374000,92.730000
7590.848476,306.425000,74.200000
7596.385562,306.477000,106.830000
7601.920769,306.529000,58.180000
7607.454098,306.581000,83.830000
7612.879195,306.632000,81.060000
7618.408808,306.684000,97.820000
7623.936546,306.736000,119.830000
7629.462411,306.788000,138.500000
7634.880189,306.839000,151.630000
7640.402345,306.891000,151.340000
7645.922629,306.943000,152.220000
7651.334938,306.994000,95.500000
7656.851519,307.046000,120.390000
7662.260197,307.097000,127.590000
7667.773079,307.149000,52.360000
7673.284094,307.201000,41.000000
7678.687317,307.252000,151.130000
7684.194638,307.304000,119.760000
7689.700096,307.356000,108.690000
7695.097870,307.407000,84.170000
7700.599639,307.459000,71.670000
7705.993798,307.510000,-19.490000
7711.491883,307.562000,92.430000
7716.882430,307.613000,-87.850000
7722.376833,307.665000,122.670000
7727.763772,307.716000,135.800000
7733.254498,307.768000,125.080000
7738.637831,307.819000,135.650000
7744.124884,307.871000,134.250000
7749.504617,307.922000,118.620000
7754.988000,307.974000,20.400000
7760.364134,308.025000,-128.510000
7765.738489,308.076000,76.280000
7771.216392,308.128000,91.050000
7776.587155,308.179000,197.750000
7782.061397,308.231000,157.790000
7787.428571,308.282000,131.390000
7792.793970,308.333000,118.310000
7798.262745,308.385000,121.730000
7803.624561,308.436000,186.740000
7808.984603,308.487000,299.220000
7814.447920,308.539000,180.550000
7819.804385,308.590000,149.630000
7825.159080,308.641000,139.030000
7830.616947,308.693000,167.760000
7835.968069,308.744000,207.800000
7841.317424,308.795000,123.680000
7846.665012,308.846000,132.720000
7852.115636,308.898000,133.040000
7857.459659,308.949000,131.760000
7862.801917,309.000000,125.050000
7868.142413,309.051000,142.250000
7873.481146,309.102000,105.200000
7878.922746,309.154000,140.240000
7884.257923,309.205000,122.050000
7889.591340,309.256000,134.630000
7894.922998,309.307000,161.340000
7900.252898,309.358000,418.930000
7905.581041,309.409000,170.850000
7910.907428,309.460000,132.580000
7916.336447,309.512000,87.400000
7921.659290,309.563000,-86.830000
7926.980379,309.614000,33.860000
7932.299715,309.665000,111.110000
7937.617300,309.716000,40.090000
7942.933134,309.767000,91.760000
7948.247217,309.818000,145.180000
7953.559551,309.869000,106.570000
7958.870137,309.920000,-67.070000
7964.178976,309.971000,170.660000
7969.486068,310.022000,99.220000
7974.791414,310.073000,125.300000
7980.095015,310.124000,70.020000
7985.396872,310.175000,100.090000
7990.696985,310.226000,128.040000
7995.995357,310.277000,235.720000
8001.291987,310.328000,195.880000
8006.586876,310.379000,112.040000
8011.880026,310.430000,92.710000
8017.067700,310.480000,79.270000
8022.357406,310.531000,148.780000
8027.645376,310.582000,195.910000
8032.931609,310.633000,176.420000
8038.216106,310.684000,78.870000
8043.498869,310.735000,76.020000
8048.779898,310.786000,119.080000
8053.955695,310.836000,171.180000
8059.233293,310.887000,147.610000
8064.509160,310.938000,51.220000
8069.783296,310.989000,-561.700000
8074.952339,311.039000,-505.420000
8080.223051,311.090000,-242.860000
8085.492035,311.141000,114.410000
8090.759292,311.192000,138.840000
8095.921594,311.242000,132.280000
8101.185433,311.293000,138.630000
8106.447548,311.344000,120.560000
8111.604811,311.394000,117.630000
8116.863513,311.445000,131.290000
8122.120493,311.496000,133.640000
8127.272724,311.546000,133.140000
8132.526297,311.597000,124.550000
8137.778150,311.648000,146.210000
8142.925357,311.698000,147.690000
8148.173807,311.749000,159.510000
8153.420541,311.800000,183.190000
8158.562731,311.850000,165.200000
8163.806066,311.901000,114.330000
8168.944927,311.951000,144.590000
8174.184869,312.002000,105.560000
8179.320403,312.052000,12.360000
8184.556953,312.103000,104.070000
8189.689165,312.153000,54.550000
8194.922327,312.204000,204.310000
8200.051219,312.254000,166.530000
8205.280996,312.305000,92.220000
8210.406572,312.355000,236.480000
8215.632968,312.406000,233.050000
8220.755230,312.456000,145.000000
8225.978248,312.507000,190.430000
8231.097200,312.557000,115.030000
8236.316843,312.608000,96.250000
8241.432488,312.658000,89.310000
8246.546497,312.708000,150.670000
8251.761101,312.759000,124.950000
8256.871808,312.809000,119.850000
8261.980881,312.859000,172.760000
8267.190453,312.910000,231.210000
8272.296229,312.960000,161.990000
8277.400373,313.010000,161.470000
8282.604921,313.061000,147.410000
8287.705773,313.111000,160.590000
8292.804996,313.161000,159.510000
8298.004526,313.212000,176.830000
8303.100462,313.262000,269.720000
8308.194770,313.312000,183.740000
8313.287453,313.362000,130.020000
8318.480316,313.413000,146.990000
8323.569717,313.463000,178.050000
8328.657496,313.513000,141.080000
8333.743651,313.563000,284.390000
8338.828185,313.613000,184.790000
8344.012739,313.664000,134.300000
8349.094000,313.714000,163.270000
8354.173640,313.764000,156.000000
8359.251662,313.814000,133.600000
8364.328066,313.864000,153.830000
8369.402853,313.914000,130.260000
8374.476024,313.964000,136.960000
8379.547579,314.014000,128.540000
8384.718901,314.065000,218.000000
8389.787195,314.115000,184.280000
8394.853876,314.165000,151.370000
8399.918944,314.215000,160.340000
8404.982400,314.265000,79.740000
8410.044246,314.315000,-14.470000
8415.104481,314.365000,70.020000
8420.163107,314.415000,176.120000
8425.220124,314.465000,143.250000
8430.275533,314.515000,138.870000
8435.329336,314.565000,119.380000
8440.381532,314.615000,113.740000
8445.432122,314.665000,153.700000
8450.481107,314.715000,140.390000
8455.528489,314.765000,185.310000
8460.473367,314.814000,159.420000
8465.517575,314.864000,145.950000
8470.560181,314.914000,190.500000
8475.601186,314.964000,201.610000
8480.640590,315.014000,190.790000
8485.678395,315.064000,183.630000
8490.714602,315.114000,172.400000
8495.749210,315.164000,157.440000
8500.681577,315.213000,182.280000
8505.713024,315.263000,158.890000
8510.742875,315.313000,137.670000
8515.771131,315.363000,148.600000
8520.797793,315.413000,153.240000
8525.722375,315.462000,161.670000
8530.745883,315.512000,160.710000
8535.767799,315.562000,147.180000
8540.788124,315.612000,177.640000
8545.706499,315.661000,185.730000
8550.723675,315.711000,148.900000
8555.739262,315.761000,150.770000
8560.652997,315.810000,169.710000
8565.665441,315.860000,151.640000
8570.676298,315.910000,129.540000
8575.585399,315.959000,122.620000
8580.593116,316.009000,147.330000
8585.599249,316.059000,205.150000
8590.503723,316.108000,178.260000
8595.506721,316.158000,139.370000
8600.508137,316.208000,172.830000
8605.407991,316.257000,157.570000
8610.406276,316.307000,174.890000
8615.303063,316.356000,216.900000
8620.298221,316.406000,238.670000
8625.191944,316.455000,180.140000
8630.183977,316.505000,142.500000
8635.074640,316.554000,205.930000
8640.063551,316.604000,162.940000
8644.951156,316.653000,179.540000
8649.936949,316.703000,199.380000
8654.821499,316.752000,169.980000
8659.804175,316.802000,109.340000
8664.685673,316.851000,54.140000
8669.665237,316.901000,129.100000
8674.543685,316.950000,169.620000
8679.520139,317.000000,145.470000
8684.395541,317.049000,180.460000
8689.269436,317.098000,179.310000
8694.241247,317.148000,45.810000
8699.112100,317.197000,-165.210000
8703.981448,317.246000,51.690000
8708.948621,317.296000,164.850000
8713.814931,317.345000,210.060000
8718.779005,317.395000,243.370000
8723.642281,317.444000,206.960000
8728.504055,317.493000,282.020000
8733.364329,317.542000,194.870000
8738.322247,317.592000,178.400000
8743.179491,317.641000,202.450000
8748.035237,317.690000,94.600000
8752.889486,317.739000,49.990000
8757.841258,317.789000,160.140000
8762.692483,317.838000,64.040000
8767.542212,317.887000,321.980000
8772.390446,317.936000,176.680000
8777.336084,317.986000,-98.960000
8782.181300,318.035000,106.110000
8787.025024,318.084000,198.950000
8791.867255,318.133000,219.560000
8796.707995,318.182000,178.940000
8801.547244,318.231000,172.780000
8806.385003,318.280000,214.720000
8811.319957,318.330000,196.920000
8816.154708,318.379000,191.340000
8820.987971,318.428000,197.390000
8825.819746,318.477000,219.790000
8830.650035,318.526000,194.190000
8835.478838,318.575000,202.590000
8840.306156,318.624000,202.030000
8845.131990,318.673000,207.330000
8849.956339,318.722000,7.090000
8854.779206,318.771000,73.660000
8859.600590,318.820000,201.210000
8864.420492,318.869000,195.520000
8869.238913,318.918000,243.010000
8874.055854,318.967000,236.730000
8878.871314,319.016000,213.520000
8883.685296,319.065000,165.410000
8888.497800,319.114000,216.260000
8893.308826,319.163000,243.890000
8898.118374,319.212000,154.710000
8902.926447,319.261000,-179.910000
8907.634964,319.309000,210.720000
8912.440116,319.358000,274.480000
8917.243794,319.407000,257.780000
8922.045998,319.456000,231.070000
8926.846729,319.505000,235.270000
8931.645988,319.554000,233.600000
8936.443775,319.603000,225.400000
8941.142222,319.651000,259.730000
8945.937098,319.700000,199.000000
8950.730504,319.749000,227.950000
8955.522441,319.798000,190.900000
8960.215161,319.846000,196.880000
8965.004192,319.895000,221.220000
8969.791757,319.944000,226.050000
8974.577855,319.993000,249.040000
8979.264858,320.041000,243.530000
8984.048055,320.090000,228.470000
8988.829789,320.139000,495.340000
8993.512517,320.187000,245.180000
8998.291355,320.236000,231.060000
9003.068730,320.285000,230.090000
9007.747190,320.333000,199.910000
9012.521672,320.382000,220.720000
9017.294694,320.431000,62.350000
9021.968893,320.479000,240.910000
9026.739026,320.528000,326.070000
9031.410396,320.576000,186.830000
9036.177644,320.625000,193.570000
9040.943434,320.674000,235.880000
9045.610552,320.722000,238.070000
9050.373460,320.771000,216.150000
9055.037756,320.819000,235.170000
9059.797784,320.868000,254.030000
9064.459261,320.916000,315.420000
9069.216413,320.965000,233.540000
9073.875072,321.013000,281.400000
9078.629350,321.062000,250.910000
9083.285194,321.110000,215.630000
9088.036601,321.159000,247.010000
9092.689634,321.207000,270.230000
9097.438171,321.256000,224.800000
9102.088394,321.304000,253.750000
9106.737229,321.352000,280.860000
9111.481482,321.401000,232.100000
9116.127511,321.449000,251.370000
9120.868902,321.498000,279.360000
9125.512128,321.546000,300.740000
9130.153968,321.594000,263.530000
9134.891085,321.643000,263.330000
9139.530126,321.691000,270.100000
9144.167783,321.739000,103.150000
9148.900630,321.788000,199.850000
9153.535492,321.836000,160.090000
9158.168971,321.884000,234.400000
9162.801069,321.932000,288.590000
9167.528244,321.981000,293.130000
9172.157551,322.029000,342.300000
9176.785479,322.077000,288.800000
9181.412027,322.125000,251.300000
9186.133540,322.174000,226.280000
9190.757302,322.222000,267.810000
9195.379688,322.270000,272.530000
9200.000697,322.318000,241.640000
9204.620330,322.366000,238.310000
9209.334786,322.415000,250.780000
9213.951640,322.463000,202.750000
9218.567119,322.511000,236.410000
9223.181225,322.559000,250.180000
9227.793957,322.607000,143.080000
9232.405318,322.655000,471.820000
9237.015306,322.703000,608.410000
9241.623923,322.751000,224.270000
9246.231170,322.799000,242.930000
9250.932988,322.848000,396.890000
9255.537466,322.896000,250.810000
9260.140576,322.944000,251.470000
9264.742318,322.992000,259.620000
9269.342693,323.040000,297.550000
9273.941700,323.088000,282.640000
9278.539341,323.136000,264.040000
9283.135616,323.184000,275.990000
9287.730527,323.232000,296.870000
9292.324072,323.280000,273.130000
9296.916254,323.328000,212.560000
9301.411445,323.375000,280.080000
9306.000929,323.423000,300.830000
9310.589052,323.471000,320.620000
9315.175812,323.519000,275.880000
9319.761212,323.567000,259.250000
9324.345252,323.615000,257.140000
9328.927932,323.663000,278.410000
9333.509253,323.711000,285.480000
9338.089216,323.759000,319.830000
9342.572447,323.806000,271.990000
9347.149722,323.854000,367.010000
9351.725642,323.902000,306.810000
9356.300205,323.950000,243.920000
9360.873412,323.998000,311.230000
9365.350032,324.045000,316.750000
9369.920559,324.093000,316.980000
9374.489732,324.141000,283.300000
9379.057552,324.189000,270.190000
9383.528899,324.236000,284.480000
9388.094043,324.284000,297.560000
9392.657836,324.332000,333.890000
9397.125241,324.379000,340.400000
9401.686361,324.427000,263.590000
9406.246132,324.475000,188.320000
9410.804554,324.523000,235.980000
9415.266702,324.570000,186.290000
9419.822456,324.618000,299.040000
9424.281993,324.665000,284.450000
9428.835082,324.713000,341.890000
9433.386824,324.761000,340.710000
9437.842435,324.808000,380.020000
9442.391516,324.856000,337.460000
9446.844521,324.903000,331.590000
9451.390942,324.951000,322.590000
9455.936020,324.999000,324.070000
9460.385108,325.046000,323.570000
9464.927530,325.094000,382.930000
9469.374018,325.141000,304.200000
9473.913786,325.189000,329.890000
9478.357677,325.236000,363.220000
9482.894794,325.284000,361.850000
9487.336090,325.331000,333.880000
9491.870557,325.379000,340.140000
9496.309260,325.426000,367.780000
9500.746681,325.473000,335.840000
9505.277193,325.521000,329.520000
9509.712024,325.568000,350.060000
9514.239893,325.616000,347.430000
9518.672137,325.663000,324.290000
9523.103102,325.710000,313.650000
9527.627024,325.758000,326.650000
9532.055405,325.805000,307.970000
9536.576689,325.853000,358.760000
9541.002489,325.900000,355.900000
9545.427013,325.947000,389.810000
9549.850260,325.994000,347.610000
9554.366303,326.042000,272.470000
9558.786974,326.089000,246.000000
9563.206371,326.136000,280.280000
9567.718482,326.184000,119.260000
9572.135305,326.231000,249.230000
9576.550855,326.278000,340.680000
9580.965134,326.325000,323.470000
9585.472021,326.373000,297.290000
9589.883730,326.420000,263.220000
9594.294169,326.467000,321.250000
9598.703338,326.514000,304.990000
9603.111238,326.561000,419.180000
9607.611614,326.609000,390.910000
9612.016950,326.656000,298.610000
9616.421019,326.703000,359.980000
9620.823821,326.750000,391.690000
9625.225356,326.797000,329.110000
9629.625626,326.844000,376.880000
9634.024630,326.891000,370.880000
9638.422369,326.938000,371.070000
9642.818845,326.985000,420.830000
9647.214056,327.032000,409.190000
9651.701479,327.080000,382.370000
9656.094138,327.127000,333.700000
9660.485535,327.174000,379.590000
9664.875670,327.221000,354.000000
9669.264544,327.268000,365.860000
9673.652158,327.315000,361.000000
9678.038512,327.362000,385.540000
9682.423607,327.409000,390.040000
9686.807443,327.456000,397.100000
9691.190021,327.503000,414.490000
9695.478134,327.549000,403.000000
9699.858224,327.596000,412.250000
9704.237057,327.643000,418.120000
9708.614633,327.690000,393.540000
9712.990955,327.737000,413.060000
9717.366021,327.784000,412.860000
9721.739833,327.831000,429.060000
9726.112390,327.878000,397.430000
9730.483695,327.925000,338.260000
9734.760780,327.971000,425.370000
9739.129606,328.018000,786.690000
9743.497180,328.065000,535.940000
9747.863503,328.112000,416.890000
9752.228575,328.159000,437.690000
9756.499562,328.205000,403.550000
9760.862161,328.252000,409.420000
9765.223511,328.299000,403.490000
9769.583612,328.346000,470.760000
9773.849737,328.392000,424.150000
9778.207369,328.439000,410.900000
9782.563754,328.486000,378.420000
9786.918893,328.533000,389.480000
9791.180163,328.579000,415.530000
9795.532837,328.626000,441.700000
9799.884266,328.673000,434.340000
9804.141906,328.719000,416.860000
9808.490874,328.766000,690.500000
9812.838598,328.813000,626.780000
9817.092614,328.859000,369.090000
9821.437879,328.906000,500.780000
9825.689490,328.952000,308.400000
9830.032299,328.999000,356.280000
9834.373868,329.046000,435.740000
9838.621862,329.092000,293.940000
9842.960977,329.139000,247.570000
9847.206571,329.185000,242.010000
9851.543235,329.232000,137.260000
9855.786431,329.278000,194.020000
9860.120646,329.325000,362.930000
9864.361446,329.371000,364.960000
9868.693214,329.418000,434.420000
9872.931619,329.464000,382.000000
9877.260942,329.511000,466.470000
9881.496956,329.557000,437.000000
9885.823836,329.604000,475.730000
9890.057460,329.650000,482.230000
9894.289903,329.696000,472.040000
9898.613135,329.743000,421.390000
9902.843191,329.789000,509.200000
9907.163985,329.836000,475.970000
9911.391656,329.882000,440.240000
9915.618148,329.928000,452.420000
9919.935303,329.975000,553.050000
9924.159413,330.021000,571.530000
9928.382346,330.067000,262.390000
9932.695866,330.114000,193.950000
9936.916419,330.160000,472.470000
9941.135797,330.206000,503.720000
9945.445687,330.253000,479.540000
9949.662689,330.299000,464.410000
9953.878516,330.345000,444.430000
9958.093170,330.391000,466.670000
9962.398234,330.438000,475.550000
9966.610516,330.484000,470.770000
9970.821625,330.530000,466.540000
9975.031562,330.576000,424.340000
9979.240328,330.622000,266.300000
9983.539380,330.669000,420.440000
9987.745778,330.715000,485.330000
9991.951007,330.761000,502.780000
9996.155067,330.807000,511.290000
10000.357957,330.853000,515.620000
10004.559679,330.899000,501.980000
10008.760233,330.945000,466.570000
10013.050897,330.992000,487.340000
10017.249091,331.038000,485.560000
10021.446118,331.084000,484.640000
10025.641979,331.130000,488.690000
10029.836675,331.176000,-74.970000
10034.030205,331.222000,269.600000
10038.222571,331.268000,432.410000
10042.413773,331.314000,495.270000
10046.603811,331.360000,514.880000
10050.792686,331.406000,534.880000
10054.980398,331.452000,371.980000
10059.166948,331.498000,502.600000
10063.352336,331.544000,614.870000
10067.536563,331.590000,605.280000
10071.719629,331.636000,568.960000
10075.901535,331.682000,552.720000
10080.082281,331.728000,542.460000
10084.261868,331.774000,549.650000
10088.440296,331.820000,553.530000
10092.526768,331.865000,468.720000
10096.702905,331.911000,299.290000
10100.877884,331.957000,314.890000
10105.051707,332.003000,470.820000
10109.224373,332.049000,496.810000
10113.395884,332.095000,490.870000
10117.475591,332.140000,487.710000
10121.644816,332.186000,464.230000
10125.812886,332.232000,480.230000
10129.979802,332.278000,471.850000
10134.145565,332.324000,478.070000
10138.219652,332.369000,559.860000
10142.383134,332.415000,613.280000
10146.545464,332.461000,602.990000
10150.706643,332.507000,861.090000
10154.776247,332.552000,495.330000
10158.935148,332.598000,475.230000
10163.092900,332.644000,786.450000
10167.159152,332.689000,591.800000
10171.314630,332.735000,602.800000
10175.468958,332.781000,508.020000
10179.531864,332.826000,521.370000
10183.683921,332.872000,602.600000
10187.834831,332.918000,541.890000
10191.894393,332.963000,507.790000
10196.043035,333.009000,473.920000
10200.190530,333.055000,530.710000
10204.246754,333.100000,533.370000
10208.391984,333.146000,539.750000
10212.445992,333.191000,519.730000
10216.588958,333.237000,543.910000
10220.640753,333.282000,599.580000
10224.781457,333.328000,557.370000
10228.831039,333.373000,549.940000
10232.969483,333.419000,540.380000
10237.016856,333.464000,503.530000
10241.153042,333.510000,532.860000
10245.198206,333.555000,565.070000
10249.332135,333.601000,534.590000
10253.375094,333.646000,504.170000
10257.506768,333.692000,549.960000
10261.547522,333.737000,554.570000
10265.587186,333.782000,521.500000
10269.715494,333.828000,544.520000
10273.752956,333.873000,558.230000
10277.879015,333.919000,473.470000
10281.914277,333.964000,584.140000
10285.948452,334.009000,544.290000
10290.071151,334.055000,534.190000
10294.103128,334.100000,648.780000
10298.134020,334.145000,658.550000
10302.253364,334.191000,656.750000
10306.282060,334.236000,578.580000
10310.309672,334.281000,670.550000
10314.425666,334.327000,655.650000
10318.451085,334.372000,577.350000
10322.475422,334.417000,566.720000
10326.498675,334.462000,649.600000
10330.610215,334.508000,581.820000
10334.631280,334.553000,547.680000
10338.651263,334.598000,543.210000
10342.670165,334.643000,574.170000
10346.687987,334.688000,549.170000
10350.704728,334.733000,552.400000
10354.809614,334.779000,549.420000
10358.824172,334.824000,548.670000
10362.837651,334.869000,560.000000
10366.850051,334.914000,552.750000
10370.861373,334.959000,316.100000
10374.871618,335.004000,432.160000
10378.880786,335.049000,499.930000
10382.888876,335.094000,555.130000
10386.984923,335.140000,540.070000
10390.990838,335.185000,524.030000
10394.995677,335.230000,601.700000
10398.999440,335.275000,790.380000
10403.002130,335.320000,1143.950000
10407.003745,335.365000,664.720000
10411.004286,335.410000,555.680000
10415.003755,335.455000,563.060000
10419.002150,335.500000,546.880000
10422.999473,335.545000,569.510000
10426.995723,335.590000,548.610000
10430.990902,335.635000,646.290000
10434.985010,335.680000,550.370000
10438.889325,335.724000,557.860000
10442.881316,335.769000,543.610000
10446.872237,335.814000,560.750000
10450.862088,335.859000,1062.130000
10454.850871,335.904000,620.940000
10458.838585,335.949000,629.980000
10462.825230,335.994000,603.030000
10466.810808,336.039000,550.000000
10470.706786,336.083000,570.720000
10474.690253,336.128000,566.930000
10478.672654,336.173000,584.910000
10482.653989,336.218000,571.390000
10486.634259,336.263000,555.690000
10490.525048,336.307000,564.080000
10494.503211,336.352000,-65.380000
10498.480310,336.397000,-78.580000
10502.456345,336.442000,343.090000
10506.342995,336.486000,594.180000
10510.316927,336.531000,574.160000
10514.289797,336.576000,534.140000
10518.261604,336.621000,582.030000
10522.144122,336.665000,481.350000
10526.113830,336.710000,595.190000
10530.082477,336.755000,482.960000
10533.961906,336.799000,530.610000
10537.928455,336.844000,567.990000
10541.893946,336.889000,522.920000
10545.770289,336.933000,490.760000
10549.733685,336.978000,556.450000
10553.607982,337.022000,523.640000
10557.569284,337.067000,503.760000
10561.529529,337.112000,536.480000
10565.400747,337.156000,550.650000
10569.358902,337.201000,499.110000
10573.228076,337.245000,552.400000
10577.184142,337.290000,548.650000
10581.051275,337.334000,540.280000
10585.005254,337.379000,546.900000
10588.870347,337.423000,487.970000
10592.822240,337.468000,533.280000
10596.685295,337.512000,514.750000
10600.635105,337.557000,509.290000
10604.496123,337.601000,530.200000
10608.443850,337.646000,476.630000
10612.302834,337.690000,446.150000
10616.160811,337.734000,444.900000
10620.105430,337.779000,403.050000
10623.961375,337.823000,342.560000
10627.903916,337.868000,387.310000
10631.757830,337.912000,347.820000
10635.610740,337.956000,298.620000
10639.550179,338.001000,235.510000
10643.401061,338.045000,191.680000
10647.250940,338.089000,165.400000
10651.187281,338.134000,141.640000
10655.035134,338.178000,98.630000
10658.881986,338.222000,24.540000
10662.815231,338.267000,67.350000
10666.660059,338.311000,22.520000
10670.503887,338.355000,51.080000
10674.346716,338.399000,81.930000
10678.275848,338.444000,63.290000
10682.116656,338.488000,89.750000
10685.956465,338.532000,83.880000
10689.795276,338.576000,94.660000
10693.633090,338.620000,42.480000
10697.557096,338.665000,12.420000
10701.392893,338.709000,65.610000
10705.227693,338.753000,71.250000
10709.061498,338.797000,67.930000
10712.894307,338.841000,75.660000
10716.726120,338.885000,41.150000
10720.556939,338.929000,54.000000
10724.386763,338.973000,66.340000
10728.302601,339.018000,16.540000
10732.130414,339.062000,59.410000
10735.957235,339.106000,111.530000
10739.783062,339.150000,160.300000
10743.607897,339.194000,219.650000
10747.431740,339.238000,106.820000
10751.254591,339.282000,81.880000
10755.076450,339.326000,62.780000
10758.897319,339.370000,61.540000
10762.717197,339.414000,48.450000
10766.536084,339.458000,265.300000
10770.353982,339.502000,104.750000
10774.170890,339.546000,38.470000
10777.986809,339.590000,11.290000
10781.801740,339.634000,17.200000
10785.615682,339.678000,36.030000
10789.341989,339.721000,57.450000
10793.153978,339.765000,76.820000
10796.964980,339.809000,440.600000
10800.774995,339.853000,532.610000
10804.584024,339.897000,110.300000
10808.392066,339.941000,118.290000
10812.199123,339.985000,-26.870000
10816.005195,340.029000,-8.780000
10819.723813,340.072000,-60.910000
10823.527938,340.116000,16.590000
10827.331078,340.160000,24.610000
10831.133235,340.204000,44.900000
10834.848029,340.247000,46.860000
10838.648242,340.291000,14.330000
10842.447472,340.335000,31.460000
10846.245720,340.379000,164.580000
10849.956695,340.422000,118.590000
10853.753002,340.466000,144.970000
10857.548328,340.510000,84.040000
10861.342673,340.554000,58.960000
10865.049836,340.597000,11.230000
10868.842243,340.641000,57.090000
10872.633670,340.685000,37.550000
10876.337983,340.728000,60.930000
10880.127474,340.772000,51.890000
10883.829896,340.815000,43.580000
10887.617453,340.859000,51.190000
10891.404033,340.903000,27.750000
10895.103609,340.946000,37.800000
10898.888257,340.990000,-16.120000
10902.585946,341.033000,19.640000
10906.368663,341.077000,43.350000
10910.150404,341.121000,88.030000
10913.845254,341.164000,-4.400000
10917.625066,341.208000,30.000000
10921.318033,341.251000,119.780000
10925.095918,341.295000,31.400000
10928.787002,341.338000,64.380000
10932.562962,341.382000,88.430000
10936.252165,341.425000,58.790000
10939.940439,341.468000,48.250000
10943.713524,341.512000,24.680000
10947.399919,341.555000,78.120000
10951.171083,341.599000,118.860000
10954.855601,341.642000,72.610000
10958.624845,341.686000,42.010000
10962.307486,341.729000,41.410000
10965.989201,341.772000,75.050000
10969.755578,341.816000,205.450000
10973.435419,341.859000,-123.460000
10977.114334,341.902000,-180.040000
10980.877848,341.946000,-33.450000
10984.554892,341.989000,13.340000
10988.231011,342.032000,36.650000
10991.991665,342.076000,10.610000
10995.665914,342.119000,21.050000
10999.339240,342.162000,43.870000
11003.011643,342.205000,54.130000
11006.768496,342.249000,32.170000
11010.439032,342.292000,20.860000
11014.108646,342.335000,27.080000
11017.777338,342.378000,69.740000
11021.530396,342.422000,120.470000
11025.197224,342.465000,44.780000
11028.863132,342.508000,18.070000
11032.528119,342.551000,32.550000
11036.192187,342.594000,16.150000
11039.855335,342.637000,-3.460000
11043.602720,342.681000,-491.300000
11047.264009,342.724000,-110.640000
11050.924378,342.767000,10.790000
11054.583829,342.810000,52.900000
11058.242363,342.853000,6.890000
11061.899979,342.896000,25.210000
11065.556677,342.939000,22.920000
11069.212459,342.982000,7.360000
11072.867324,343.025000,19.210000
11076.521273,343.068000,46.000000
11080.174306,343.111000,58.030000
11083.826423,343.154000,-29.690000
11087.477626,343.197000,-191.300000
11091.127913,343.240000,-3.520000
11094.777286,343.283000,28.810000
11098.425745,343.326000,30.220000
11102.073291,343.369000,28.320000
11105.719922,343.412000,40.350000
11109.365641,343.455000,190.710000
11113.010447,343.498000,26.840000
11116.654340,343.541000,-22.440000
11120.297322,343.584000,-115.410000
11123.939391,343.627000,-392.220000
11127.580549,343.670000,-264.790000
11131.220797,343.713000,-228.150000
11134.775508,343.755000,-269.520000
11138.413955,343.798000,-305.340000
11142.051492,343.841000,-359.830000
11145.688120,343.884000,-381.180000
11149.323838,343.927000,-245.220000
11152.958647,343.970000,-196.960000
11156.508049,344.012000,-190.220000
11160.141062,344.055000,-204.730000
11163.773167,344.098000,-138.290000
11167.404365,344.141000,-245.580000
11170.950240,344.183000,-272.840000
11174.579645,344.226000,-257.850000
11178.208143,344.269000,63.650000
11181.751382,344.311000,10.230000
11185.378088,344.354000,-2.270000
11189.003889,344.397000,-3.540000
11192.628785,344.440000,-14.420000
11196.168507,344.482000,-23.400000
11199.791614,344.525000,-40.570000
11203.413817,344.568000,18.660000
11206.950910,344.610000,16.100000
11210.571327,344.653000,1.350000
11214.106675,344.695000,-48.610000
11217.725306,344.738000,-34.850000
11221.343035,344.781000,47.790000
11224.875759,344.823000,48.910000
11228.491704,344.866000,-306.530000
11232.022687,344.908000,-451.310000
11235.636851,344.951000,-533.480000
11239.166094,344.993000,-548.970000
11242.778477,345.036000,-147.690000
11246.305982,345.078000,7.060000
11249.916585,345.121000,29.120000
11253.442353,345.163000,-0.440000
11257.051178,345.206000,8.640000
11260.575210,345.248000,-101.770000
11264.182259,345.291000,3.010000
11267.704555,345.333000,-41.410000
11271.309829,345.376000,-17.730000
11274.830392,345.418000,10.300000
11278.350100,345.460000,21.430000
11281.952723,345.503000,20.210000
11285.470699,345.545000,18.060000
11288.987820,345.587000,30.450000
11292.587796,345.630000,6.000000
11296.103187,345.672000,5.980000
11299.701393,345.715000,9.120000
11303.215056,345.757000,-2.950000
11306.727865,345.799000,-74.690000
11310.239821,345.841000,12.110000
11313.834512,345.884000,-267.670000
11317.344742,345.926000,-155.960000
11320.854120,345.968000,-39.880000
11324.446172,346.011000,-195.620000
11327.953826,346.053000,-207.390000
11331.460629,346.095000,-95.090000
11334.966581,346.137000,-124.600000
11338.471682,346.179000,-99.370000
11342.059357,346.222000,30.050000
11345.562737,346.264000,137.070000
11349.065268,346.306000,198.860000
11352.566949,346.348000,37.010000
11356.067781,346.390000,36.170000
11359.567764,346.432000,-45.240000
11363.150201,346.475000,15.310000
11366.648467,346.517000,101.220000
11370.145885,346.559000,13.900000
11373.642456,346.601000,-4.370000
11377.138179,346.643000,18.920000
11380.633055,346.685000,142.220000
11384.127085,346.727000,104.200000
11387.620268,346.769000,-100.500000
11391.112605,346.811000,-160.130000
11394.604096,346.853000,-49.910000
11398.094742,346.895000,3.030000
11401.584543,346.937000,-33.180000
11405.073499,346.979000,-18.740000
11408.561610,347.021000,26.170000
11412.048877,347.063000,-56.550000
11415.535301,347.105000,-53.610000
11419.020880,347.147000,48.390000
11422.505617,347.189000,26.420000
11425.989510,347.231000,13.660000
11429.472560,347.273000,6.850000
11432.954769,347.315000,-11.540000
11436.436135,347.357000,-8.320000
11439.916659,347.399000,-4.210000
11443.313502,347.440000,-16.460000
11446.792364,347.482000,6.920000
11450.270384,347.524000,5.240000
11453.747565,347.566000,-1.620000
11457.223905,347.608000,-13.160000
11460.699405,347.650000,5.990000
11464.091345,347.691000,2.410000
11467.565186,347.733000,-51.300000
11471.038188,347.775000,16.890000
11474.510351,347.817000,69.570000
11477.981676,347.859000,-27.360000
11481.369541,347.900000,32.840000
11484.839210,347.942000,75.630000
11488.308041,347.984000,87.710000
11491.693473,348.025000,119.170000
11495.160650,348.067000,152.390000
11498.626991,348.109000,-16.610000
11502.092494,348.151000,2.980000
11505.474680,348.192000,12.280000
11508.938532,348.234000,35.070000
11512.401549,348.276000,113.920000
11515.781307,348.317000,9.920000
11519.242673,348.359000,-6.470000
11522.620821,348.400000,-4.280000
11526.080539,348.442000,3.530000
11529.539422,348.484000,4.720000
11532.915148,348.525000,30.980000
11536.372384,348.567000,-27.690000
11539.746502,348.608000,-25.060000
11543.202092,348.650000,-121.880000
11546.574604,348.691000,-82.060000
11550.028550,348.733000,-22.510000
11553.399456,348.774000,2.510000
11556.851758,348.816000,32.100000
11560.221061,348.857000,21.090000
11563.671720,348.899000,23.070000
11567.039420,348.940000,16.320000
11570.488439,348.982000,-15.640000
11573.854537,349.023000,6.670000
11577.301915,349.065000,14.080000
11580.666413,349.106000,18.390000
11584.030120,349.147000,6.050000
11587.475051,349.189000,8.040000
11590.837159,349.230000,13.520000
11594.280452,349.272000,-29.040000
11597.640963,349.313000,-58.140000
11601.000686,349.354000,28.620000
11604.441535,349.396000,49.020000
11607.799661,349.437000,19.300000
11611.157000,349.478000,-19.810000
11614.595408,349.520000,21.310000
11617.951152,349.561000,-0.430000
11621.306109,349.602000,11.200000
11624.660280,349.643000,-8.850000
11628.095443,349.685000,-6.700000
11631.448022,349.726000,10.020000
11634.799814,349.767000,12.520000
11638.150821,349.808000,44.430000
11641.582745,349.850000,35.180000
11644.932162,349.891000,57.580000
11648.280794,349.932000,160.340000
11651.628641,349.973000,87.650000
11654.975704,350.014000,-8.040000
11658.403590,350.056000,30.970000
11661.749066,350.097000,-18.500000
11665.093759,350.138000,-97.740000
11668.437668,350.179000,-69.610000
11671.780795,350.220000,2.230000
11675.123139,350.261000,5.120000
11678.464700,350.302000,18.010000
11681.805480,350.343000,29.940000
11685.145477,350.384000,-1.380000
11688.484693,350.425000,-10.020000
11691.904543,350.467000,29.900000
11695.242178,350.508000,43.280000
11698.579032,350.549000,0.040000
11701.915105,350.590000,20.740000
11705.250398,350.631000,10.140000
11708.584912,350.672000,29.110000
11711.918645,350.713000,12.400000
11715.251600,350.754000,-11.320000
11718.502512,350.794000,-95.930000
11721.833927,350.835000,72.050000
11725.164564,350.876000,170.900000
11728.494422,350.917000,-94.480000
11731.823503,350.958000,-2.620000
11735.151806,350.999000,-18.100000
11738.479331,351.040000,-12.620000
11741.806079,351.081000,-3.400000
11745.132050,351.122000,-4.590000
11748.457245,351.163000,-7.730000
11751.700589,351.203000,-29.560000
11755.024250,351.244000,-18.230000
11758.347135,351.285000,-4.330000
11761.669245,351.326000,-11.740000
11764.990579,351.367000,2.510000
11768.230159,351.407000,-152.630000
11771.549962,351.448000,-79.590000
11774.868991,351.489000,-0.950000
11778.187246,351.530000,-44.920000
11781.423822,351.570000,-199.390000
11784.740548,351.611000,-86.250000
11788.056500,351.652000,34.620000
11791.371680,351.693000,9.910000
11794.605256,351.733000,-14.150000
11797.918909,351.774000,-10.170000
11801.231790,351.815000,29.580000
11804.463124,351.855000,-16.670000
11807.774479,351.896000,5.490000
11811.085063,351.937000,22.450000
11814.314158,351.977000,69.510000
11817.623218,352.018000,1.480000
11820.850827,352.058000,-20.280000
11824.158365,352.099000,33.170000
11827.465133,352.140000,2.980000
11830.690506,352.180000,84.120000
11833.995753,352.221000,117.460000
11837.219643,352.261000,57.360000
11840.523370,352.302000,48.800000
11843.745778,352.342000,-37.160000
11847.047986,352.383000,-78.560000
11850.268913,352.423000,-149.150000
11853.569603,352.464000,-43.930000
11856.789050,352.504000,-15.750000
11860.088224,352.545000,4.170000
11863.306191,352.585000,89.770000
11866.603850,352.626000,-14.850000
11869.820339,352.666000,-22.150000
11873.116483,352.707000,-245.170000
11876.331495,352.747000,-67.150000
11879.545777,352.787000,-30.370000
11882.839661,352.828000,51.420000
11886.052468,352.868000,318.250000
11889.264547,352.908000,-16.990000
11892.556173,352.949000,-32.580000
11895.766777,352.989000,-10.920000
11899.056892,353.030000,-20.660000
11902.266024,353.070000,87.330000
11905.474429,353.110000,-14.040000
11908.682107,353.150000,-27.400000
11911.969223,353.191000,-15.860000
11915.175430,353.231000,-1.440000
11918.380911,353.271000,9.560000
11921.665775,353.312000,9.370000
11924.869787,353.352000,62.960000
11928.073073,353.392000,41.000000
11931.275634,353.432000,-8.780000
11934.477470,353.472000,-43.440000
11937.758600,353.513000,-57.390000
11940.958969,353.553000,-70.120000
11944.158614,353.593000,-107.390000
11947.357536,353.633000,-79.220000
11950.555733,353.673000,-50.910000
11953.753208,353.713000,37.240000
11957.029868,353.754000,16.910000
11960.225879,353.794000,-29.990000
11963.421166,353.834000,12.350000
11966.615732,353.874000,7.820000
11969.809575,353.914000,-25.920000
11973.002696,353.954000,-4.780000
11976.195096,353.994000,4.160000
11979.386774,354.034000,576.470000
11982.577731,354.074000,117.060000
11985.767968,354.114000,44.330000
11988.957483,354.154000,29.420000
11992.146279,354.194000,-1.260000
11995.334354,354.234000,-66.720000
11998.521709,354.274000,14.680000
12001.708345,354.314000,35.610000
12004.894261,354.354000,49.120000
12008.079458,354.394000,13.150000
12011.263936,354.434000,21.440000
12014.447695,354.474000,168.270000
12017.630736,354.514000,85.130000
12020.813059,354.554000,10.810000
12023.994663,354.594000,-5.860000
12027.175550,354.634000,3.020000
12030.276224,354.673000,46.160000
12033.455694,354.713000,47.190000
12036.634448,354.753000,15.700000
12039.812484,354.793000,10.820000
12042.989804,354.833000,3.420000
12046.166408,354.873000,-12.950000
12049.262907,354.912000,0.280000
12052.438097,354.952000,-12.290000
12055.612571,354.992000,11.650000
12058.786330,355.032000,6.140000
12061.880056,355.071000,-6.200000
12065.052403,355.111000,-1.510000
12068.224035,355.151000,46.340000
12071.394953,355.191000,-29.620000
12074.485910,355.230000,-100.610000
12077.655418,355.270000,-61.060000
12080.824212,355.310000,-95.940000
12083.913100,355.349000,-106.430000
12087.080485,355.389000,9.420000
12090.247158,355.429000,22.690000
12093.333977,355.468000,34.540000
12096.499242,355.508000,66.180000
12099.663795,355.548000,1.510000
12102.748549,355.587000,1.960000
12105.911696,355.627000,0.550000
12108.995079,355.666000,1.230000
12112.156822,355.706000,-2.230000
12115.317853,355.746000,2.300000
12118.399174,355.785000,0.670000
12121.558801,355.825000,-3.610000
12124.638754,355.864000,0.920000
12127.796979,355.904000,1.560000
12130.875565,355.943000,-0.480000
12134.032389,355.983000,0.480000
12137.109608,356.022000,-3.330000
12140.265031,356.062000,1.040000
12143.340885,356.101000,1.520000
12146.494908,356.141000,0.000000
12149.569398,356.180000,-1.630000
12152.643215,356.219000,0.420000
12155.795149,356.259000,2.140000
12158.867603,356.298000,-2.490000
12162.018139,356.338000,1.550000
12165.089231,356.377000,-1.060000
12168.159651,356.416000,1.290000
12171.308101,356.456000,-1.180000
12174.377160,356.495000,1.430000
12177.445548,356.534000,-4.650000
12180.591915,356.574000,0.360000
12183.658943,356.613000,-1.580000
12186.725300,356.652000,-0.700000
12189.869585,356.692000,0.680000
12192.934585,356.731000,1.480000
12195.998914,356.770000,-0.160000
12199.062573,356.809000,-2.180000
12202.204093,356.849000,2.210000
12205.266396,356.888000,4.260000
12208.328030,356.927000,-1.200000
12211.388995,356.966000,0.080000
12214.527751,357.006000,2.050000
12217.587361,357.045000,-1.810000
12220.646304,357.084000,-0.550000
12223.704578,357.123000,-2.150000
12226.762184,357.162000,-1.240000
12229.819122,357.201000,-0.830000
12232.953750,357.241000,0.530000
12236.009337,357.280000,1.420000
12239.064257,357.319000,-1.160000
12242.118510,357.358000,0.560000
12245.172096,357.397000,1.960000
12248.225016,357.436000,0.680000
