raman_shift_cm-1,wavelength_nm,intensity
-323.608033,246.616000,0.000000
-312.759145,246.682000,0.000000
-301.916061,246.748000,0.000000
-291.078776,246.814000,-0.048458
-280.083216,246.881000,-0.113505
-269.257603,246.947000,-0.050077
-258.437774,247.013000,-1.169339
-247.623726,247.079000,1.631485
-236.815454,247.145000,1.361086
-226.012953,247.211000,-2.142473
-215.216219,247.277000,-0.479572
-204.425246,247.343000,-0.082645
-193.640031,247.409000,-2.216184
-182.860568,247.475000,1.635005
-172.086854,247.541000,-2.681218
-161.318883,247.607000,-1.804314
-150.556651,247.673000,-0.711007
-139.800153,247.739000,-0.229977
-129.049385,247.805000,-1.992804
-118.467103,247.870000,0.811092
-107.727694,247.936000,0.451100
-96.994001,248.002000,1.936089
-86.266020,248.068000,-0.717453
-75.543746,248.134000,-0.600772
-64.827174,248.200000,0.235286
-54.278543,248.265000,-3.908725
-43.573277,248.331000,-0.423076
-32.873698,248.397000,1.149562
-22.179805,248.463000,2.003888
-11.653491,248.528000,-0.397407
-0.970866,248.594000,-1.643826
9.706087,248.660000,-2.717842
20.377375,248.726000,0.659951
30.881442,248.791000,0.930113
41.541497,248.857000,0.812135
52.195898,248.923000,0.696678
62.683348,248.988000,0.029515
73.326542,249.054000,-0.655823
83.802964,249.119000,-1.008446
94.434970,249.185000,-1.495270
104.900381,249.250000,-2.019360
115.521215,249.316000,-0.929331
125.975632,249.381000,-1.499459
136.585313,249.447000,-1.384363
147.028754,249.512000,1.390340
157.627298,249.578000,2.045992
168.059780,249.643000,2.442985
178.647205,249.709000,-0.464363
189.068746,249.774000,-5.196024
199.645070,249.840000,1.500521
210.055686,249.905000,-0.302987
220.620926,249.971000,-5.556667
231.020635,250.036000,-7.536382
241.414938,250.101000,-2.515215
251.963627,250.167000,-2.066833
262.347049,250.232000,2.007370
272.725077,250.297000,0.232566
283.097717,250.362000,2.044344
293.624427,250.428000,-2.077987
303.986219,250.493000,0.748888
314.342635,250.558000,-2.407900
324.693679,250.623000,-4.543869
335.198478,250.689000,3.582240
345.538708,250.754000,3.020235
355.873579,250.819000,0.421277
366.203095,250.884000,-4.881066
376.527259,250.949000,0.212772
386.846077,251.014000,0.411094
397.318179,251.080000,3.662493
407.626234,251.145000,6.341592
417.928954,251.210000,-4.595926
428.226343,251.275000,-0.245510
438.518407,251.340000,-9.440637
448.805149,251.405000,-0.287888
459.086573,251.470000,-11.389966
469.362683,251.535000,-6.720596
479.633483,251.600000,-4.005846
489.898978,251.665000,-1.563381
500.159172,251.730000,0.207591
510.414069,251.795000,-0.218755
520.663672,251.860000,-4.752052
530.907986,251.925000,-6.267030
541.147015,251.990000,-1.124051
551.223361,252.054000,-3.057937
561.451914,252.119000,-3.675057
571.675194,252.184000,-5.256068
581.893205,252.249000,-3.541616
592.105952,252.314000,-2.590166
602.313438,252.379000,-9.262306
612.358750,252.443000,-1.488863
622.555807,252.508000,-13.201180
632.747617,252.573000,-2.384129
642.934182,252.638000,0.609210
652.958910,252.702000,-9.616263
663.135079,252.767000,-0.959080
673.306016,252.832000,4.506836
683.315368,252.896000,1.945184
693.475932,252.961000,-5.883267
703.631276,253.026000,-7.447012
713.625287,253.090000,-9.606617
723.770283,253.155000,1.238253
733.910070,253.220000,-1.665353
743.888776,253.284000,0.323688
754.018238,253.349000,-2.735337
763.986786,253.413000,-0.174154
774.105940,253.478000,-2.125161
784.064345,253.542000,-7.611715
794.173206,253.607000,1.112816
804.121484,253.671000,2.029961
814.220067,253.736000,5.471956
824.158233,253.800000,7.384595
834.246555,253.865000,-0.776823
844.174625,253.929000,-6.893040
854.252700,253.994000,-6.564197
864.170690,254.058000,-2.639590
874.083683,254.122000,-2.206346
884.146458,254.187000,-1.595996
894.049394,254.251000,-2.718175
903.947346,254.315000,-5.220996
913.994855,254.380000,-0.908650
923.882772,254.444000,0.900431
933.765716,254.508000,-3.315481
943.797994,254.573000,-9.198751
953.670926,254.637000,-1.645619
963.538895,254.701000,-0.893847
973.401907,254.765000,-1.722315
983.259965,254.829000,2.216438
993.266988,254.894000,-1.774752
1003.115071,254.958000,-3.874795
1012.958212,255.022000,10.358783
1022.796413,255.086000,-0.288038
1032.629679,255.150000,-3.136395
1042.458013,255.214000,-3.761202
1052.281419,255.278000,-3.704947
1062.253275,255.343000,-2.065057
1072.066759,255.407000,-0.265034
1081.875326,255.471000,-4.451883
1091.678980,255.535000,-2.667704
1101.477725,255.599000,-3.845734
1111.271563,255.663000,-5.394025
1121.060500,255.727000,-2.801471
1130.844538,255.791000,-3.188979
1140.623681,255.855000,-4.951075
1150.397933,255.919000,-3.610206
1160.014689,255.982000,-0.081742
1169.779246,256.046000,-3.575304
1179.538923,256.110000,-1.262713
1189.293724,256.174000,1.986515
1199.043651,256.238000,2.201516
1208.788709,256.302000,-1.635439
1218.528902,256.366000,-6.100716
1228.112156,256.429000,-4.189200
1237.842704,256.493000,-0.269302
1247.568398,256.557000,-3.306282
1257.289241,256.621000,-3.610743
1267.005236,256.685000,-0.059802
1276.564688,256.748000,-0.233086
1286.271074,256.812000,-1.070674
1295.972624,256.876000,-9.301481
1305.517867,256.939000,0.575118
1315.209831,257.003000,-1.467336
1324.896968,257.067000,-3.158363
1334.428034,257.130000,-0.191531
1344.105605,257.194000,-8.287307
1353.778362,257.258000,1.500467
1363.295282,257.321000,-7.144419
1372.958494,257.385000,0.083382
1382.466026,257.448000,-2.640624
1392.119708,257.512000,4.773925
1401.617865,257.575000,-2.427992
1411.262031,257.639000,-4.729650
1420.750828,257.702000,1.739289
1430.385491,257.766000,-9.956842
1439.864942,257.829000,-6.399728
1449.490117,257.893000,-1.983739
1458.960235,257.956000,-2.266668
1468.575936,258.020000,4.353371
1478.036734,258.083000,-6.729225
1487.492915,258.146000,-12.288594
1497.094468,258.210000,-3.664015
1506.541350,258.273000,-5.583614
1516.133465,258.337000,-14.614975
1525.571062,258.400000,-4.810297
1535.004058,258.463000,-5.322952
1544.432457,258.526000,-0.893684
1554.005809,258.590000,-6.184424
1563.424950,258.653000,5.146687
1572.839503,258.716000,-8.724488
1582.249473,258.779000,-5.763610
1591.804117,258.843000,-5.807878
1601.204857,258.906000,-4.586207
1610.601022,258.969000,-3.662279
1619.992617,259.032000,-8.806423
1629.379645,259.095000,-7.087666
1638.911000,259.159000,-0.289485
1648.288831,259.222000,-2.833819
1657.662104,259.285000,-0.148954
1667.030824,259.348000,2.273292
1676.394994,259.411000,-6.421333
1685.754616,259.474000,5.167597
1695.109694,259.537000,-1.740146
1704.460232,259.600000,-0.357231
1713.806232,259.663000,2.210208
1723.147698,259.726000,-5.785991
1732.484634,259.789000,-4.207454
1741.817042,259.852000,-2.837292
1751.144926,259.915000,2.564393
1760.468289,259.978000,-2.342179
1769.787135,260.041000,2.327712
1779.101467,260.104000,-1.772801
1788.411287,260.167000,-2.986296
1797.568932,260.229000,-3.375503
1806.869812,260.292000,-6.442302
1816.166190,260.355000,-5.514875
1825.458071,260.418000,8.901340
1834.745457,260.481000,2.987140
1844.028352,260.544000,3.254252
1853.159517,260.606000,-0.174144
1862.433510,260.669000,5.653710
1871.703021,260.732000,-3.590105
1880.968054,260.795000,2.826645
1890.081653,260.857000,2.700754
1899.337809,260.920000,-2.830987
1908.589497,260.983000,4.503114
1917.689973,261.045000,3.129015
1926.932803,261.108000,1.434834
1936.171175,261.171000,0.803785
1945.258555,261.233000,-3.700913
1954.488088,261.296000,-2.631596
1963.566777,261.358000,-0.012734
1972.787485,261.421000,-8.019770
1982.003751,261.484000,-2.163894
1991.069391,261.546000,-1.376342
2000.276850,261.609000,-3.597708
2009.333830,261.671000,-6.857648
2018.532495,261.734000,-6.692979
2027.580827,261.796000,-2.398562
2036.770712,261.859000,-5.422396
2045.810408,261.921000,0.201830
2054.845827,261.983000,-1.096776
2064.022598,262.046000,5.748672
2073.049399,262.108000,-4.482272
2082.217420,262.171000,-0.356462
2091.235617,262.233000,1.057105
2100.249550,262.295000,0.491837
2109.404505,262.358000,-1.519644
2118.409852,262.420000,1.211863
2127.410945,262.482000,-0.698646
2136.552862,262.545000,-1.154164
2145.545387,262.607000,-0.133079
2154.533666,262.669000,2.924971
2163.517703,262.731000,-2.436992
2172.642302,262.794000,0.627587
2181.617796,262.856000,-2.915018
2190.589057,262.918000,1.179779
2199.556087,262.980000,1.474743
2208.518891,263.042000,-1.767296
2217.621929,263.105000,-1.064356
2226.576219,263.167000,2.449701
2235.526291,263.229000,-0.901032
2244.472147,263.291000,-4.147079
2253.413792,263.353000,0.487707
2262.351228,263.415000,-9.821150
2271.284457,263.477000,1.923349
2280.213483,263.539000,3.846991
2289.138308,263.601000,-1.238320
2298.058937,263.663000,-6.783731
2306.975371,263.725000,-1.177957
2315.887613,263.787000,-10.461592
2324.795667,263.849000,-4.862888
2333.699536,263.911000,-0.608138
2342.599222,263.973000,-6.258889
2351.494729,264.035000,-6.576302
2360.386059,264.097000,3.043029
2369.273215,264.159000,0.265535
2378.156200,264.221000,-1.873293
2386.891844,264.282000,-0.674867
2395.766564,264.344000,3.757869
2404.637121,264.406000,-2.527193
2413.503520,264.468000,1.168540
2422.365762,264.530000,-9.746505
2431.081012,264.591000,-7.598905
2439.935018,264.653000,-0.440621
2448.784876,264.715000,-8.597004
2457.630590,264.777000,-0.312438
2466.329589,264.838000,-5.340623
2475.167089,264.900000,-7.898187
2484.000453,264.962000,8.157775
2492.687310,265.023000,-2.574635
2501.512478,265.085000,2.363289
2510.333519,265.147000,1.940504
2519.008259,265.208000,2.426958
2527.821120,265.270000,0.874708
2536.487819,265.331000,-1.981983
2545.292512,265.393000,-4.147323
2554.093093,265.455000,-3.546999
2562.747717,265.516000,2.253931
2571.540147,265.578000,7.305317
2580.186758,265.639000,-0.405103
2588.971048,265.701000,-5.020052
2597.609655,265.762000,0.246655
2606.385817,265.824000,-1.198690
2615.016433,265.885000,-7.569892
2623.643091,265.946000,-2.164008
2632.407114,266.008000,-6.091553
2641.025796,266.069000,0.188704
2649.781719,266.131000,-0.222029
2658.392437,266.192000,-0.049667
2666.999210,266.253000,-1.877209
2675.743037,266.315000,2.286248
2684.341862,266.376000,-5.633427
2692.936750,266.437000,-3.677105
2701.668505,266.499000,1.758291
2710.255462,266.560000,0.399133
2718.838489,266.621000,1.372872
2727.417590,266.682000,-3.792182
2736.133311,266.744000,-4.042210
2744.704503,266.805000,-1.218781
2753.271776,266.866000,-1.304002
2761.835134,266.927000,2.941042
2770.394579,266.988000,-2.219704
2778.950113,267.049000,-2.766518
2787.641898,267.111000,0.262664
2796.189555,267.172000,-6.676209
2804.733311,267.233000,0.539924
2813.273167,267.294000,-0.053826
2821.809126,267.355000,-3.208091
2830.341190,267.416000,-0.031466
2838.869363,267.477000,-2.747816
2847.393647,267.538000,-8.517567
2855.914045,267.599000,-1.492400
2864.430559,267.660000,-3.129960
2872.943193,267.721000,1.396575
2881.451948,267.782000,1.301975
2889.956827,267.843000,0.706039
2898.457833,267.904000,1.228638
2906.954969,267.965000,2.205875
2915.448237,268.026000,2.814016
2923.937640,268.087000,2.832705
2932.284105,268.147000,-0.680843
2940.765849,268.208000,-1.970410
2949.243736,268.269000,2.600563
2957.717768,268.330000,-6.641017
2966.187948,268.391000,-4.736877
2974.515518,268.451000,-4.644171
2982.978065,268.512000,-0.039689
2991.436768,268.573000,-0.956394
2999.891630,268.634000,0.978165
3008.204142,268.694000,-5.709158
3016.651392,268.755000,-3.658620
3025.094807,268.816000,1.500903
3033.396069,268.876000,-2.845336
3041.831888,268.937000,1.231611
3050.263881,268.998000,3.853073
3058.553914,269.058000,-9.353600
3066.978326,269.119000,-1.566468
3075.398919,269.180000,0.981137
3083.677747,269.240000,0.740156
3092.090774,269.301000,-6.419556
3100.362165,269.361000,-2.451348
3108.767637,269.422000,-2.307444
3117.031601,269.482000,1.022398
3125.429526,269.543000,8.696689
3133.686074,269.603000,-0.773699
3142.076464,269.664000,-7.208731
3150.325604,269.724000,-1.018849
3158.708468,269.785000,-0.058309
3166.950211,269.845000,-5.167288
3175.325561,269.906000,1.442279
3183.559917,269.966000,-1.548839
3191.790613,270.026000,-2.644160
3200.154739,270.087000,-8.251180
3208.378064,270.147000,-2.354262
3216.597736,270.207000,-2.311914
3224.950662,270.268000,0.585504
3233.162976,270.328000,-1.841803
3241.371647,270.388000,-6.331240
3249.576675,270.448000,-3.089235
3257.914722,270.509000,-8.327954
3266.112412,270.569000,1.151263
3274.306467,270.629000,-6.332913
3282.496889,270.689000,-0.033728
3290.820098,270.750000,-1.475793
3299.003202,270.810000,0.076656
3307.182681,270.870000,-5.024173
3315.358537,270.930000,-0.799863
3323.530773,270.990000,-5.411372
3331.699391,271.050000,-2.891401
3339.864393,271.110000,4.180816
3348.025782,271.170000,-4.243399
3356.319492,271.231000,-5.445090
3364.473602,271.291000,-2.716772
3372.624105,271.351000,3.409311
3380.771005,271.411000,2.925633
3388.914304,271.471000,-1.413887
3397.054004,271.531000,-2.528794
3405.190107,271.591000,6.146871
3413.322616,271.651000,-3.712799
3421.316081,271.710000,2.834063
3429.441469,271.770000,-1.641331
3437.563270,271.830000,-1.783103
3445.681487,271.890000,-1.462049
3453.796121,271.950000,1.612644
3461.907176,272.010000,-0.105113
3470.014653,272.070000,-6.104840
3478.118555,272.130000,-2.456990
3486.083907,272.189000,-6.598608
3494.180726,272.249000,-0.737035
3502.273976,272.309000,-6.003894
3510.363660,272.369000,-3.459647
3518.315042,272.428000,0.551349
3526.397661,272.488000,-1.852356
3534.476722,272.548000,-5.329356
3542.552226,272.608000,0.523765
3550.489673,272.667000,-2.968319
3558.558131,272.727000,0.697215
3566.623039,272.787000,1.772536
3574.550074,272.846000,-1.330353
3582.607950,272.906000,-1.252936
3590.528073,272.965000,-1.334576
3598.578926,273.025000,-5.671568
3606.626241,273.085000,-4.562672
3614.535986,273.144000,7.720813
3622.576291,273.204000,-4.606972
3630.479148,273.263000,0.006848
3638.512453,273.323000,-0.774282
3646.408431,273.382000,3.454708
3654.434744,273.442000,2.223460
3662.323852,273.501000,-4.033098
3670.343183,273.561000,1.065767
3678.225429,273.620000,-7.760644
3686.237787,273.680000,-2.123120
3694.113181,273.739000,-10.082558
3701.985180,273.798000,-1.955347
3709.987125,273.858000,2.585378
3717.852286,273.917000,3.225539
3725.714059,273.976000,2.542414
3733.705610,274.036000,-4.990660
3741.560558,274.095000,-3.640686
3749.412124,274.154000,0.697759
3757.393303,274.214000,4.747608
3765.238057,274.273000,-7.825333
3773.079437,274.332000,9.806453
3780.917444,274.391000,-3.152834
3788.884843,274.451000,7.267805
3796.716056,274.510000,-4.380988
3804.543903,274.569000,1.526721
3812.368387,274.628000,-4.368641
3820.189510,274.687000,-0.064880
3828.007273,274.746000,2.907260
3835.821680,274.805000,0.839130
3843.765093,274.865000,-7.030449
3851.572736,274.924000,-4.035644
3859.377028,274.983000,-0.959028
3867.177971,275.042000,4.279597
3874.975569,275.101000,-4.152461
3882.769823,275.160000,-5.161246
3890.560735,275.219000,-7.556376
3898.348307,275.278000,2.753243
3906.132542,275.337000,1.512408
3913.913442,275.396000,1.796792
3921.691008,275.455000,3.051326
3929.465243,275.514000,-1.415062
3937.236150,275.573000,-3.985117
3944.872103,275.631000,3.616958
3952.636414,275.690000,-0.612056
3960.397403,275.749000,-5.977755
3968.155071,275.808000,1.566203
3975.909421,275.867000,-4.949293
3983.660455,275.926000,-1.401275
3991.408175,275.985000,0.165966
3999.021349,276.043000,0.501965
4006.762504,276.102000,-2.310651
4014.500350,276.161000,4.552535
4022.234891,276.220000,-2.925274
4029.835118,276.278000,0.205051
4037.563110,276.337000,-0.593944
4045.287803,276.396000,0.838209
4052.878355,276.454000,-6.722035
4060.596512,276.513000,8.907031
4068.311375,276.572000,-9.769512
4075.892271,276.630000,0.132217
4083.600610,276.689000,-1.713039
4091.305663,276.748000,-6.790225
4098.876921,276.806000,-5.733380
4106.575462,276.865000,-5.055671
4114.140322,276.923000,3.981461
4121.832361,276.982000,-1.488712
4129.390832,277.040000,-1.626681
4137.076375,277.099000,3.164134
4144.628466,277.157000,1.203945
4152.307522,277.216000,-5.520073
4159.853240,277.274000,5.292301
4167.525818,277.333000,-1.996806
4175.065171,277.391000,0.454666
4182.731279,277.450000,3.141860
4190.264275,277.508000,-2.285308
4197.794123,277.566000,-0.183823
4205.450568,277.625000,-2.713949
4212.974072,277.683000,-3.964690
4220.494433,277.741000,3.096194
4228.011654,277.799000,-2.851687
4235.396210,277.856000,-5.995269
4242.907211,277.914000,-0.700438
4250.415077,277.972000,-5.759047
4257.790445,278.029000,-2.241117
4265.292102,278.087000,1.190876
4272.790631,278.145000,-0.159532
4280.156828,278.202000,-2.046816
4287.649159,278.260000,9.321922
4295.138368,278.318000,3.986889
4302.495411,278.375000,0.585124
4309.978434,278.433000,-0.416873
4317.329402,278.490000,0.698663
4324.806246,278.548000,0.073737
4332.151147,278.605000,0.072624
4339.621821,278.663000,-1.129258
4346.960661,278.720000,5.098520
4354.425172,278.778000,0.626912
4361.757959,278.835000,2.991687
4369.216314,278.893000,-7.386644
4376.543056,278.950000,0.383129
4383.995264,279.008000,1.855103
4391.315968,279.065000,-4.231856
4398.762036,279.123000,-2.886399
4406.076709,279.180000,-1.940083
4413.516644,279.238000,-8.341640
4420.825295,279.295000,-0.000281
4428.130962,279.352000,-6.948990
4435.561740,279.410000,3.432759
4442.861395,279.467000,-3.267744
4450.158074,279.524000,-4.835157
4457.579711,279.582000,-1.654793
4464.870389,279.639000,0.966544
4472.158095,279.696000,-3.146846
4479.570607,279.754000,-0.764032
4486.852324,279.811000,-4.796736
4494.131074,279.868000,0.150770
4501.534479,279.926000,-9.315266
4508.807251,279.983000,1.048802
4516.077062,280.040000,-4.276196
4523.343914,280.097000,-1.135596
4530.735220,280.155000,2.226570
4537.996108,280.212000,3.186187
4545.254043,280.269000,5.052075
4552.509026,280.326000,0.858032
4559.888262,280.384000,3.222654
4567.137295,280.441000,0.848701
4574.383383,280.498000,4.394613
4581.626526,280.555000,-5.989894
4588.866727,280.612000,-6.311160
4596.103987,280.669000,-6.159501
4603.338308,280.726000,-2.402199
4610.696532,280.784000,4.216780
4617.924929,280.841000,-1.007347
4625.150392,280.898000,-2.468486
4632.372923,280.955000,-0.025118
4639.592525,281.012000,-1.516234
4646.809198,281.069000,1.141775
4654.022945,281.126000,-3.195009
4661.233767,281.183000,-2.930826
4668.441666,281.240000,-3.567545
4675.646644,281.297000,2.966187
4682.848703,281.354000,-5.325463
4690.047844,281.411000,-3.722515
4697.244070,281.468000,-1.376370
4704.437381,281.525000,-4.276353
4711.627780,281.582000,-1.730237
4718.815269,281.639000,-0.725995
4725.999849,281.696000,-3.946359
4733.181522,281.753000,-3.600070
4740.360290,281.810000,-4.294229
4747.536154,281.867000,-0.149414
4754.583300,281.923000,4.406200
4761.753414,281.980000,1.632345
4768.920629,282.037000,0.584427
4776.084949,282.094000,-2.471467
4783.246373,282.151000,3.258715
4790.404904,282.208000,-0.348894
4797.435032,282.264000,3.556984
4804.587834,282.321000,-2.876458
4811.737748,282.378000,5.559153
4818.884776,282.435000,-1.755173
4826.028920,282.492000,0.240873
4833.044920,282.548000,1.422514
4840.183352,282.605000,-6.033370
4847.318904,282.662000,-0.785282
4854.451579,282.719000,-2.815492
4861.456319,282.775000,-3.953650
4868.583295,282.832000,-1.303225
4875.707399,282.889000,-1.964486
4882.703723,282.945000,7.672260
4889.822139,283.002000,1.950019
4896.937687,283.059000,0.302813
4903.925611,283.115000,-2.010324
4911.035481,283.172000,-3.789489
4918.142490,283.229000,1.265884
4925.122029,283.285000,4.291157
4932.223369,283.342000,1.836340
4939.197342,283.398000,9.067571
4946.293021,283.455000,-2.840261
4953.385847,283.512000,-0.324238
4960.351460,283.568000,-5.696788
4967.438635,283.625000,-8.104006
4974.398699,283.681000,-1.657634
4981.480229,283.738000,1.414817
4988.434752,283.794000,-4.737532
4995.510644,283.851000,4.294146
5002.459631,283.907000,-2.636022
5009.529893,283.964000,2.819412
5016.473351,284.020000,-0.037495
5023.537988,284.077000,-5.468187
5030.475924,284.133000,-4.220365
5037.534943,284.190000,0.601216
5044.467363,284.246000,5.099586
5051.397052,284.302000,2.995593
5058.447683,284.359000,2.318817
5065.371866,284.415000,-1.806546
5072.416896,284.472000,-1.492373
5079.335580,284.528000,-0.887384
5086.251541,284.584000,-0.893134
5093.288207,284.641000,3.455339
5100.198678,284.697000,-7.468440
5107.106432,284.753000,-0.509667
5114.134748,284.810000,2.153013
5121.037022,284.866000,0.494505
5127.936582,284.922000,0.208880
5134.833431,284.978000,0.933072
5141.850655,285.035000,-4.497944
5148.742037,285.091000,3.835398
5155.630712,285.147000,-4.043080
5162.516682,285.203000,-2.760272
5169.522840,285.260000,0.099459
5176.403356,285.316000,-4.066371
5183.281172,285.372000,3.645921
5190.156289,285.428000,0.155309
5197.028709,285.484000,4.290577
5204.021082,285.541000,3.440587
5210.888064,285.597000,5.578436
5217.752353,285.653000,-2.527238
5224.613952,285.709000,9.041573
5231.472862,285.765000,1.048957
5238.329083,285.821000,0.598237
5245.182619,285.877000,-4.609702
5252.033470,285.933000,0.371818
5258.881638,285.989000,-3.281936
5265.727125,286.045000,1.017076
5272.569932,286.101000,1.435193
5279.532182,286.158000,0.070978
5286.369586,286.214000,-4.329648
5293.204315,286.270000,-0.901245
5300.036371,286.326000,1.935617
5306.865755,286.382000,-4.202845
5313.692468,286.438000,0.849604
5320.516513,286.494000,-1.528323
5327.216104,286.549000,5.011881
5334.034863,286.605000,-0.041084
5340.850958,286.661000,1.413110
5347.664391,286.717000,-8.256792
5354.475163,286.773000,-2.545304
5361.283275,286.829000,3.675533
5368.088729,286.885000,5.239532
5374.891528,286.941000,-5.063054
5381.691671,286.997000,-3.762868
5388.489161,287.053000,-4.095006
5395.162686,287.108000,4.299488
5401.954922,287.164000,3.158854
5408.744509,287.220000,-0.469887
5415.531448,287.276000,-0.518300
5422.315743,287.332000,4.205578
5428.976316,287.387000,-1.111617
5435.755371,287.443000,0.213545
5442.531785,287.499000,-14.498986
5449.305560,287.555000,4.118231
5456.076697,287.611000,1.276282
5462.724355,287.666000,-4.541204
5469.490268,287.722000,-0.136854
5476.253548,287.778000,6.339352
5482.893494,287.833000,-2.654318
5489.651559,287.889000,-3.963228
5496.406995,287.945000,-3.243031
5503.039242,288.000000,2.389683
5509.789473,288.056000,-2.958164
5516.537079,288.112000,0.378975
5523.161640,288.167000,1.219715
5529.904050,288.223000,-0.747468
5536.643840,288.279000,4.003725
5543.260729,288.334000,-1.305927
5549.995332,288.390000,-0.715647
5556.607128,288.445000,-3.034636
5563.336549,288.501000,-1.614908
5569.943259,288.556000,1.708532
5576.667504,288.612000,2.506671
5583.269134,288.667000,-1.788463
5589.988209,288.723000,-0.032111
5596.584764,288.778000,-5.057790
5603.298676,288.834000,-3.489956
5609.890162,288.889000,0.151178
5616.598916,288.945000,-9.545454
5623.185340,289.000000,-1.634900
5629.888941,289.056000,-0.224346
5636.470308,289.111000,0.880209
5643.168763,289.167000,-0.521767
5649.745079,289.222000,-1.500724
5656.438394,289.278000,-4.164082
5663.009664,289.333000,-9.678987
5669.578437,289.388000,-2.262063
5676.264076,289.444000,-3.027508
5682.827812,289.499000,-4.592478
5689.389054,289.554000,-0.639845
5696.067030,289.610000,-2.131247
5702.623244,289.665000,4.764492
5709.176969,289.720000,-4.277519
5715.847296,289.776000,-4.117286
5722.396001,289.831000,-3.394473
5728.942221,289.886000,-2.333076
5735.485958,289.941000,-2.313077
5742.146122,289.997000,-0.658767
5748.684850,290.052000,-0.196772
5755.221100,290.107000,-1.866813
5761.754871,290.162000,-7.019973
5768.404894,290.218000,-1.867154
5774.933669,290.273000,2.607275
5781.459971,290.328000,-4.051368
5787.983800,290.383000,-0.054356
5794.505158,290.438000,2.163897
5801.142550,290.494000,-3.539897
5807.658926,290.549000,-5.893612
5814.172835,290.604000,0.843738
5820.684279,290.659000,-6.201498
5827.193260,290.714000,-5.839273
5833.699778,290.769000,-2.092063
5840.203835,290.824000,0.434991
5846.705432,290.879000,-6.084558
5853.204572,290.934000,3.496564
5859.701254,290.989000,1.111830
5866.195481,291.044000,-2.779916
5872.687254,291.099000,-2.499136
5879.176574,291.154000,-2.190926
5885.663444,291.209000,-3.427707
5892.147863,291.264000,1.196753
5898.629834,291.319000,-2.213424
5905.109357,291.374000,0.271913
5911.586435,291.429000,-1.028893
5918.061069,291.484000,0.562435
5924.533260,291.539000,0.914247
5931.003009,291.594000,-3.893948
5937.470318,291.649000,0.753471
5943.935188,291.704000,-3.400937
5950.397621,291.759000,0.858543
5956.857618,291.814000,-1.617506
5963.315180,291.869000,2.357681
5969.770309,291.924000,2.309468
5976.105706,291.978000,6.283133
5982.556017,292.033000,4.028049
5989.003898,292.088000,5.530086
5995.449352,292.143000,1.131027
6001.892379,292.198000,-1.553736
6008.215901,292.252000,-3.631822
6014.654123,292.307000,6.437838
6021.089923,292.362000,-0.809731
6027.523303,292.417000,2.478165
6033.954262,292.472000,4.081544
6040.265942,292.526000,4.511131
6046.692111,292.581000,-4.656168
6053.115864,292.636000,-8.387610
6059.420472,292.690000,-3.151775
6065.839442,292.745000,2.692613
6072.256000,292.800000,1.482694
6078.553548,292.854000,1.820435
6084.965331,292.909000,-1.335546
6091.374707,292.964000,2.949264
6097.665207,293.018000,3.130167
6104.069816,293.073000,-3.027888
6110.472021,293.128000,-4.937690
6116.755485,293.182000,0.244548
6123.152931,293.237000,-0.198450
6129.431725,293.291000,2.749327
6135.824417,293.346000,-1.517998
6142.098547,293.400000,-0.341478
6148.486490,293.455000,-4.494617
6154.872040,293.510000,-3.250880
6161.139160,293.564000,3.159923
6167.519969,293.619000,5.231015
6173.782438,293.673000,-1.802103
6180.158512,293.728000,-5.227036
6186.416334,293.782000,-4.677995
6192.787678,293.837000,0.714120
6199.040859,293.891000,-1.073194
6205.291742,293.945000,-1.951299
6211.656022,294.000000,-8.145046
6217.902272,294.054000,-0.515610
6224.261835,294.109000,-0.798340
6230.503456,294.163000,3.595041
6236.742786,294.217000,0.543652
6243.095305,294.272000,3.050402
6249.330014,294.326000,0.696189
6255.677829,294.381000,-0.806985
6261.907923,294.435000,2.437655
6268.135731,294.489000,0.429132
6274.476522,294.544000,-4.883776
6280.699722,294.598000,4.220464
6286.920642,294.652000,1.805327
6293.139281,294.706000,-3.770261
6299.470739,294.761000,5.517322
6305.684781,294.815000,-1.108349
6311.896546,294.869000,-1.330240
6318.106037,294.923000,-2.240987
6324.428182,294.978000,-4.985646
6330.633085,295.032000,0.869366
6336.835717,295.086000,0.664719
6343.036080,295.140000,-0.456822
6349.234174,295.194000,-2.739086
6355.544717,295.249000,-2.488595
6361.738236,295.303000,0.647448
6367.929490,295.357000,0.023887
6374.118480,295.411000,-4.285521
6380.305209,295.465000,-0.088873
6386.489676,295.519000,-3.090764
6392.671884,295.573000,-5.249167
6398.851833,295.627000,-1.982850
6405.143905,295.682000,-1.844228
6411.319300,295.736000,1.312803
6417.492439,295.790000,-1.079809
6423.663325,295.844000,-5.104106
6429.831958,295.898000,0.169002
6435.998340,295.952000,6.786527
6442.162473,296.006000,-3.022506
6448.324357,296.060000,-2.948800
6454.483993,296.114000,1.158600
6460.641384,296.168000,0.611728
6466.796529,296.222000,-0.129384
6472.949431,296.276000,-0.905525
6479.100090,296.330000,-4.286381
6485.248508,296.384000,-6.356042
6491.280888,296.437000,3.971187
6497.424869,296.491000,2.794517
6503.566612,296.545000,7.047724
6509.706118,296.599000,3.593583
6515.843390,296.653000,-5.908342
6521.978427,296.707000,11.837098
6528.111232,296.761000,1.203620
6534.241805,296.815000,-0.328831
6540.256681,296.868000,-3.537001
6546.382836,296.922000,-1.291431
6552.506763,296.976000,-11.107043
6558.628464,297.030000,-5.457502
6564.747939,297.084000,-5.291779
6570.751928,297.137000,-3.777626
6576.866997,297.191000,1.535068
6582.979845,297.245000,3.268954
6589.090471,297.299000,-2.376040
6595.085780,297.352000,3.949993
6601.192010,297.406000,-2.726943
6607.296023,297.460000,-2.024719
6613.397821,297.514000,7.911728
6619.384468,297.567000,3.828484
6625.481879,297.621000,-1.844210
6631.577077,297.675000,-4.496543
6637.557251,297.728000,-8.692111
6643.648069,297.782000,-6.165599
6649.623947,297.835000,1.277640
6655.710390,297.889000,5.170725
6661.794627,297.943000,1.170451
6667.764048,297.996000,-1.341990
6673.843917,298.050000,1.069542
6679.809053,298.103000,-6.238908
6685.884559,298.157000,-2.934770
6691.957864,298.211000,3.411566
6697.916562,298.264000,1.479472
6703.985510,298.318000,2.465495
6709.939935,298.371000,-4.580040
6716.004532,298.425000,-3.847933
6721.954688,298.478000,-1.884646
6728.014938,298.532000,4.883772
6733.960830,298.585000,-3.001174
6739.904611,298.638000,1.110865
6745.958369,298.692000,-2.649161
6751.897893,298.745000,-4.279711
6757.947317,298.799000,-1.458553
6763.882588,298.852000,0.274411
6769.927680,298.906000,2.199437
6775.858703,298.959000,-3.149318
6781.787624,299.012000,3.078855
6787.826249,299.066000,1.515140
6793.750928,299.119000,-4.615610
6799.673508,299.172000,-5.483191
6805.705677,299.226000,9.174591
6811.624022,299.279000,3.761761
6817.540272,299.332000,6.507753
6823.565994,299.386000,1.344806
6829.478016,299.439000,-1.838652
6835.387945,299.492000,-2.605211
6841.407231,299.546000,-2.154914
6847.312940,299.599000,0.056487
6853.216559,299.652000,0.836231
6859.118090,299.705000,-1.159723
6865.017534,299.758000,2.164097
6871.026143,299.812000,-2.160093
6876.921378,299.865000,-3.198573
6882.814529,299.918000,-4.794848
6888.705597,299.971000,-0.413143
6894.594584,300.024000,1.015417
6900.592545,300.078000,-0.510116
6906.477333,300.131000,6.608256
6912.360044,300.184000,2.525718
6918.240677,300.237000,-6.741620
6924.119235,300.290000,-1.565251
6929.995718,300.343000,-3.357015
6935.870127,300.396000,-2.928063
6941.742464,300.449000,-3.450754
6947.612730,300.502000,2.473864
6953.480925,300.555000,-3.783977
6959.347051,300.608000,-3.575079
6965.211108,300.661000,-1.940927
6971.073099,300.714000,-5.804769
6976.933024,300.767000,3.396560
6982.790884,300.820000,-3.748768
6988.646680,300.873000,-3.443346
6994.500413,300.926000,4.230977
7000.352085,300.979000,-3.420906
7006.201696,301.032000,7.223534
7012.049248,301.085000,0.335549
7017.894742,301.138000,-3.811397
7023.738178,301.191000,0.975695
7029.579559,301.244000,12.750943
7035.418884,301.297000,-4.488211
7041.256155,301.350000,2.380721
7047.091373,301.403000,3.998545
7052.924539,301.456000,3.476455
7058.645653,301.508000,-5.502440
7064.474758,301.561000,-10.165436
7070.301814,301.614000,2.717188
7076.126822,301.667000,2.988053
7081.949784,301.720000,2.744296
7087.660892,301.772000,-1.214275
7093.479803,301.825000,1.002952
7099.296670,301.878000,-0.247383
7105.111496,301.931000,-1.121991
7110.814624,301.983000,-4.804937
7116.625408,302.036000,-3.877507
7122.434152,302.089000,-0.659836
7128.240858,302.142000,-1.140536
7133.936024,302.194000,1.796379
7139.738696,302.247000,1.763845
7145.539334,302.300000,-2.560954
7151.228549,302.352000,5.478853
7157.025159,302.405000,0.207083
7162.819737,302.458000,1.653194
7168.503010,302.510000,1.352009
7174.293567,302.563000,5.790384
7180.082095,302.616000,-8.824057
7185.759436,302.668000,-7.605080
7191.543949,302.721000,2.108255
7197.217352,302.773000,-1.927564
7202.997854,302.826000,2.097983
7208.667324,302.878000,-0.801552
7214.443819,302.931000,-0.071218
7220.109360,302.983000,-1.435397
7225.881853,303.036000,2.636632
7231.543468,303.088000,-0.997762
7237.311962,303.141000,-7.510329
7242.969657,303.193000,-0.265881
7248.734156,303.246000,1.544356
7254.387934,303.298000,-2.201193
7260.148443,303.351000,0.324807
7265.798308,303.403000,0.806529
7271.554831,303.456000,3.075274
7277.200787,303.508000,0.478922
7282.953328,303.561000,-2.368167
7288.595379,303.613000,-3.420049
7294.235498,303.665000,-4.794851
7299.982093,303.718000,2.390902
7305.618313,303.770000,2.372504
7311.252604,303.822000,6.304545
7316.993262,303.875000,-4.100769
7322.623660,303.927000,2.880193
7328.252131,303.979000,-7.389833
7333.986862,304.032000,1.051428
7339.611446,304.084000,2.117882
7345.234108,304.136000,1.524599
7350.962920,304.189000,9.070978
7356.581700,304.241000,-6.594531
7362.198561,304.293000,0.994319
7367.813502,304.345000,-7.953145
7373.426525,304.397000,-5.038782
7379.145517,304.450000,-10.203174
7384.754669,304.502000,-9.492498
7390.361906,304.554000,2.120115
7395.967228,304.606000,-3.438376
7401.570637,304.658000,2.410081
7407.279836,304.711000,-6.997596
7412.879384,304.763000,-4.167707
7418.477021,304.815000,-1.470162
7424.072749,304.867000,-0.234775
7429.666569,304.919000,-2.571275
7435.258480,304.971000,1.599942
7440.848486,305.023000,-4.174427
7446.436585,305.075000,-1.642559
7452.022780,305.127000,-0.925860
7457.607071,305.179000,-3.295767
7463.296795,305.232000,5.681823
7468.877245,305.284000,-2.277162
7474.455794,305.336000,1.209342
7480.032444,305.388000,-8.131088
7485.607195,305.440000,0.101646
7491.180048,305.492000,-2.371300
7496.751004,305.544000,-4.864529
7502.212985,305.595000,4.391009
7507.780187,305.647000,2.854739
7513.345495,305.699000,2.285238
7518.908909,305.751000,-3.362648
7524.470432,305.803000,-0.577730
7530.030064,305.855000,4.937372
7535.587805,305.907000,1.387812
7541.143658,305.959000,1.420615
7546.697622,306.011000,2.432524
7552.249699,306.063000,-1.364774
7557.693173,306.114000,-0.570316
7563.241514,306.166000,-1.997590
7568.787971,306.218000,1.379757
7574.332545,306.270000,-0.773870
7579.875237,306.322000,-1.565339
7585.416047,306.374000,-8.176387
7590.848476,306.425000,-8.584505
7596.385562,306.477000,2.050830
7601.920769,306.529000,-1.356978
7607.454098,306.581000,-1.501550
7612.879195,306.632000,-4.910064
7618.408808,306.684000,1.482787
7623.936546,306.736000,-0.024929
7629.462411,306.788000,7.489663
7634.880189,306.839000,1.258514
7640.402345,306.891000,-1.700394
7645.922629,306.943000,2.218380
7651.334938,306.994000,2.568099
7656.851519,307.046000,-2.178806
7662.260197,307.097000,-2.666654
7667.773079,307.149000,4.136756
7673.284094,307.201000,-0.042481
7678.687317,307.252000,-2.118705
7684.194638,307.304000,2.695078
7689.700096,307.356000,-2.882706
7695.097870,307.407000,2.110033
7700.599639,307.459000,1.166347
7705.993798,307.510000,-3.923307
7711.491883,307.562000,-1.904594
7716.882430,307.613000,12.239851
7722.376833,307.665000,1.821023
7727.763772,307.716000,-0.221245
7733.254498,307.768000,1.175969
7738.637831,307.819000,3.975813
7744.124884,307.871000,-0.325461
7749.504617,307.922000,-2.354218
7754.988000,307.974000,1.426999
7760.364134,308.025000,-1.857623
7765.738489,308.076000,2.071688
7771.216392,308.128000,-10.004210
7776.587155,308.179000,-3.839867
7782.061397,308.231000,-5.364306
7787.428571,308.282000,-2.228464
7792.793970,308.333000,2.293495
7798.262745,308.385000,7.727457
7803.624561,308.436000,-2.928339
7808.984603,308.487000,7.335780
7814.447920,308.539000,6.464413
7819.804385,308.590000,0.747883
7825.159080,308.641000,-0.568238
7830.616947,308.693000,-2.414366
7835.968069,308.744000,1.492417
7841.317424,308.795000,-3.916541
7846.665012,308.846000,-2.816573
7852.115636,308.898000,-0.732543
7857.459659,308.949000,-4.180552
7862.801917,309.000000,-7.770289
7868.142413,309.051000,0.543249
7873.481146,309.102000,1.138646
7878.922746,309.154000,2.822886
7884.257923,309.205000,-2.194561
7889.591340,309.256000,-0.455555
7894.922998,309.307000,0.694939
7900.252898,309.358000,-2.880869
7905.581041,309.409000,-1.942740
7910.907428,309.460000,0.698029
7916.336447,309.512000,0.139049
7921.659290,309.563000,-2.791779
7926.980379,309.614000,-5.152806
7932.299715,309.665000,-4.835574
7937.617300,309.716000,-2.391675
7942.933134,309.767000,5.227503
7948.247217,309.818000,-1.993198
7953.559551,309.869000,-5.622556
7958.870137,309.920000,3.653699
7964.178976,309.971000,-3.442373
7969.486068,310.022000,4.776471
7974.791414,310.073000,0.670617
7980.095015,310.124000,-2.530152
7985.396872,310.175000,-3.471856
7990.696985,310.226000,5.492514
7995.995357,310.277000,-0.218613
8001.291987,310.328000,1.113470
8006.586876,310.379000,-0.762987
8011.880026,310.430000,-4.108997
8017.067700,310.480000,0.566369
8022.357406,310.531000,7.756383
8027.645376,310.582000,1.362753
8032.931609,310.633000,-4.134291
8038.216106,310.684000,1.250532
8043.498869,310.735000,-0.551546
8048.779898,310.786000,-2.150473
8053.955695,310.836000,-1.150765
8059.233293,310.887000,-3.867053
8064.509160,310.938000,2.810531
8069.783296,310.989000,-3.468144
8074.952339,311.039000,6.382994
8080.223051,311.090000,-0.294837
8085.492035,311.141000,-0.342752
8090.759292,311.192000,-7.845336
8095.921594,311.242000,0.073910
8101.185433,311.293000,7.021593
8106.447548,311.344000,-4.102069
8111.604811,311.394000,6.145166
8116.863513,311.445000,-4.188643
8122.120493,311.496000,-0.081401
8127.272724,311.546000,6.224931
8132.526297,311.597000,-1.929566
8137.778150,311.648000,-0.808910
8142.925357,311.698000,-2.693853
8148.173807,311.749000,-3.486582
8153.420541,311.800000,-4.796323
8158.562731,311.850000,4.249470
8163.806066,311.901000,0.135173
8168.944927,311.951000,-8.358664
8174.184869,312.002000,0.893187
8179.320403,312.052000,4.950647
8184.556953,312.103000,2.323036
8189.689165,312.153000,2.474540
8194.922327,312.204000,-4.383381
8200.051219,312.254000,-3.710772
8205.280996,312.305000,2.663294
8210.406572,312.355000,-3.049180
8215.632968,312.406000,1.764289
8220.755230,312.456000,0.142468
8225.978248,312.507000,-0.955940
8231.097200,312.557000,-3.920579
8236.316843,312.608000,-0.846498
8241.432488,312.658000,1.338738
8246.546497,312.708000,3.714635
8251.761101,312.759000,-5.607502
8256.871808,312.809000,-6.367501
8261.980881,312.859000,-3.554128
8267.190453,312.910000,-4.460436
8272.296229,312.960000,-4.499085
8277.400373,313.010000,-5.065777
8282.604921,313.061000,0.879369
8287.705773,313.111000,1.205371
8292.804996,313.161000,-5.913144
8298.004526,313.212000,0.984727
8303.100462,313.262000,7.118280
8308.194770,313.312000,-0.328422
8313.287453,313.362000,-2.343210
8318.480316,313.413000,-1.530794
8323.569717,313.463000,-0.628500
8328.657496,313.513000,-1.250997
8333.743651,313.563000,-4.187634
8338.828185,313.613000,-6.787458
8344.012739,313.664000,5.049976
8349.094000,313.714000,-0.691326
8354.173640,313.764000,-1.234498
8359.251662,313.814000,-1.449768
8364.328066,313.864000,-4.119670
8369.402853,313.914000,-2.680040
8374.476024,313.964000,-0.428772
8379.547579,314.014000,1.434892
8384.718901,314.065000,-2.981578
8389.787195,314.115000,5.895774
8394.853876,314.165000,-3.409937
8399.918944,314.215000,-4.272124
8404.982400,314.265000,0.815642
8410.044246,314.315000,1.570492
8415.104481,314.365000,2.153207
8420.163107,314.415000,-5.924639
8425.220124,314.465000,-5.263240
8430.275533,314.515000,-0.865930
8435.329336,314.565000,1.288959
8440.381532,314.615000,-9.687516
8445.432122,314.665000,-4.909503
8450.481107,314.715000,-0.178454
8455.528489,314.765000,-5.166665
8460.473367,314.814000,-6.001338
8465.517575,314.864000,-0.540941
8470.560181,314.914000,-6.331052
8475.601186,314.964000,1.569532
8480.640590,315.014000,0.794432
8485.678395,315.064000,-0.187138
8490.714602,315.114000,-6.873232
8495.749210,315.164000,4.247378
8500.681577,315.213000,-0.428772
8505.713024,315.263000,9.016951
8510.742875,315.313000,-5.419705
8515.771131,315.363000,-1.991521
8520.797793,315.413000,0.812512
8525.722375,315.462000,0.452958
8530.745883,315.512000,3.973748
8535.767799,315.562000,-2.791738
8540.788124,315.612000,-2.237497
8545.706499,315.661000,2.960016
8550.723675,315.711000,-4.943714
8555.739262,315.761000,4.381995
8560.652997,315.810000,-2.441042
8565.665441,315.860000,-2.898764
8570.676298,315.910000,1.352111
8575.585399,315.959000,-6.482133
8580.593116,316.009000,-5.187654
8585.599249,316.059000,-5.367295
8590.503723,316.108000,-3.586280
8595.506721,316.158000,-0.048695
8600.508137,316.208000,-0.004286
8605.407991,316.257000,2.921582
8610.406276,316.307000,3.315090
8615.303063,316.356000,-4.394215
8620.298221,316.406000,-0.334664
8625.191944,316.455000,-6.840316
8630.183977,316.505000,-2.042704
8635.074640,316.554000,3.418845
8640.063551,316.604000,1.295516
8644.951156,316.653000,-1.160984
8649.936949,316.703000,-6.130569
8654.821499,316.752000,1.850402
8659.804175,316.802000,4.178826
8664.685673,316.851000,-7.322887
8669.665237,316.901000,-1.562068
8674.543685,316.950000,6.373717
8679.520139,317.000000,-3.515886
8684.395541,317.049000,2.889267
8689.269436,317.098000,-0.523198
8694.241247,317.148000,-2.510742
8699.112100,317.197000,-0.322302
8703.981448,317.246000,-0.039113
8708.948621,317.296000,-6.642319
8713.814931,317.345000,2.776273
8718.779005,317.395000,-9.714288
8723.642281,317.444000,-4.672913
8728.504055,317.493000,1.018254
8733.364329,317.542000,0.279090
8738.322247,317.592000,-0.840759
8743.179491,317.641000,-6.063539
8748.035237,317.690000,1.266963
8752.889486,317.739000,-5.878163
8757.841258,317.789000,2.614295
8762.692483,317.838000,-0.948375
8767.542212,317.887000,-2.608103
8772.390446,317.936000,5.108105
8777.336084,317.986000,1.904025
8782.181300,318.035000,2.596056
8787.025024,318.084000,-1.084228
8791.867255,318.133000,-5.953407
8796.707995,318.182000,6.588922
8801.547244,318.231000,-2.176704
8806.385003,318.280000,-3.960708
8811.319957,318.330000,-4.791579
8816.154708,318.379000,3.751292
8820.987971,318.428000,-5.159569
8825.819746,318.477000,-3.268693
8830.650035,318.526000,3.391995
8835.478838,318.575000,-1.893876
8840.306156,318.624000,-6.478739
8845.131990,318.673000,3.082419
8849.956339,318.722000,-1.566893
8854.779206,318.771000,1.546739
8859.600590,318.820000,2.562548
8864.420492,318.869000,0.609100
8869.238913,318.918000,-4.437769
8874.055854,318.967000,2.768801
8878.871314,319.016000,-8.488671
8883.685296,319.065000,-3.317207
8888.497800,319.114000,4.342279
8893.308826,319.163000,2.623968
8898.118374,319.212000,2.679723
8902.926447,319.261000,3.048749
8907.634964,319.309000,5.400546
8912.440116,319.358000,-6.343005
8917.243794,319.407000,2.130238
8922.045998,319.456000,4.136044
8926.846729,319.505000,6.935878
8931.645988,319.554000,-3.131029
8936.443775,319.603000,6.262502
8941.142222,319.651000,-0.230687
8945.937098,319.700000,-1.681745
8950.730504,319.749000,-2.878640
8955.522441,319.798000,3.369803
8960.215161,319.846000,2.642292
8965.004192,319.895000,0.754272
8969.791757,319.944000,-0.375515
8974.577855,319.993000,0.149792
8979.264858,320.041000,-4.421275
8984.048055,320.090000,-9.124504
8988.829789,320.139000,0.730011
8993.512517,320.187000,2.104659
8998.291355,320.236000,-6.544604
9003.068730,320.285000,4.234946
9007.747190,320.333000,-7.011813
9012.521672,320.382000,3.213992
9017.294694,320.431000,-5.178823
9021.968893,320.479000,-0.816044
9026.739026,320.528000,-2.944707
9031.410396,320.576000,-1.234610
9036.177644,320.625000,3.777848
9040.943434,320.674000,5.976525
9045.610552,320.722000,-0.764164
9050.373460,320.771000,-1.323397
9055.037756,320.819000,4.453239
9059.797784,320.868000,-1.870735
9064.459261,320.916000,-4.327485
9069.216413,320.965000,5.424495
9073.875072,321.013000,-2.726231
9078.629350,321.062000,-8.002583
9083.285194,321.110000,1.578624
9088.036601,321.159000,-0.101748
9092.689634,321.207000,1.092728
9097.438171,321.256000,0.538621
9102.088394,321.304000,5.048975
9106.737229,321.352000,1.789593
9111.481482,321.401000,5.146418
9116.127511,321.449000,-2.591981
9120.868902,321.498000,0.287260
9125.512128,321.546000,2.272463
9130.153968,321.594000,2.546758
9134.891085,321.643000,-2.867586
9139.530126,321.691000,1.401634
9144.167783,321.739000,9.696318
9148.900630,321.788000,0.367778
9153.535492,321.836000,-4.395575
9158.168971,321.884000,-2.386756
9162.801069,321.932000,0.730421
9167.528244,321.981000,-3.110437
9172.157551,322.029000,6.270645
9176.785479,322.077000,-2.563341
9181.412027,322.125000,-6.317458
9186.133540,322.174000,6.409998
9190.757302,322.222000,-3.700111
9195.379688,322.270000,-7.134623
9200.000697,322.318000,-3.854630
9204.620330,322.366000,0.358360
9209.334786,322.415000,1.672657
9213.951640,322.463000,-8.778536
9218.567119,322.511000,-3.727793
9223.181225,322.559000,0.512025
9227.793957,322.607000,1.664992
9232.405318,322.655000,3.263087
9237.015306,322.703000,-1.968292
9241.623923,322.751000,4.101941
9246.231170,322.799000,-0.653066
9250.932988,322.848000,2.931390
9255.537466,322.896000,-1.014536
9260.140576,322.944000,8.096826
9264.742318,322.992000,10.080113
9269.342693,323.040000,-1.623384
9273.941700,323.088000,1.450784
9278.539341,323.136000,-3.030674
9283.135616,323.184000,-0.705017
9287.730527,323.232000,0.550787
9292.324072,323.280000,2.134517
9296.916254,323.328000,-6.852637
9301.411445,323.375000,-13.600146
9306.000929,323.423000,3.433485
9310.589052,323.471000,-2.668514
9315.175812,323.519000,-4.265126
9319.761212,323.567000,-2.865819
9324.345252,323.615000,3.838497
9328.927932,323.663000,-3.710637
9333.509253,323.711000,-2.805071
9338.089216,323.759000,-0.802713
9342.572447,323.806000,2.835944
9347.149722,323.854000,-4.668681
9351.725642,323.902000,-5.185919
9356.300205,323.950000,-4.302377
9360.873412,323.998000,-3.204219
9365.350032,324.045000,2.496259
9369.920559,324.093000,-3.083212
9374.489732,324.141000,2.702580
9379.057552,324.189000,3.142600
9383.528899,324.236000,-10.674733
9388.094043,324.284000,6.282172
9392.657836,324.332000,-2.814026
9397.125241,324.379000,3.382550
9401.686361,324.427000,-1.566623
9406.246132,324.475000,2.017552
9410.804554,324.523000,-7.381630
9415.266702,324.570000,-0.078337
9419.822456,324.618000,-1.115596
9424.281993,324.665000,1.456578
9428.835082,324.713000,1.432708
9433.386824,324.761000,-3.507673
9437.842435,324.808000,-1.726143
9442.391516,324.856000,-3.122226
9446.844521,324.903000,0.139575
9451.390942,324.951000,0.710071
9455.936020,324.999000,-2.524593
9460.385108,325.046000,-11.291794
9464.927530,325.094000,0.245296
9469.374018,325.141000,-0.332055
9473.913786,325.189000,1.475600
9478.357677,325.236000,-2.397994
9482.894794,325.284000,0.131329
9487.336090,325.331000,-0.206634
9491.870557,325.379000,3.848243
9496.309260,325.426000,-3.368821
9500.746681,325.473000,-4.237003
9505.277193,325.521000,-1.787483
9509.712024,325.568000,0.282758
9514.239893,325.616000,-3.421374
9518.672137,325.663000,-1.489688
9523.103102,325.710000,-1.050262
9527.627024,325.758000,-6.247424
9532.055405,325.805000,-1.777701
9536.576689,325.853000,-8.072401
9541.002489,325.900000,3.841731
9545.427013,325.947000,0.426931
9549.850260,325.994000,2.611270
9554.366303,326.042000,2.012376
9558.786974,326.089000,-2.292438
9563.206371,326.136000,0.770078
9567.718482,326.184000,3.687704
9572.135305,326.231000,2.110437
9576.550855,326.278000,-4.651045
9580.965134,326.325000,-0.066850
9585.472021,326.373000,-2.050537
9589.883730,326.420000,4.669892
9594.294169,326.467000,0.280770
9598.703338,326.514000,-3.365579
9603.111238,326.561000,-1.926714
9607.611614,326.609000,-0.399112
9612.016950,326.656000,5.483561
9616.421019,326.703000,1.688673
9620.823821,326.750000,-0.656304
9625.225356,326.797000,4.009971
9629.625626,326.844000,-2.661025
9634.024630,326.891000,-1.277986
9638.422369,326.938000,-0.839402
9642.818845,326.985000,3.084557
9647.214056,327.032000,1.029833
9651.701479,327.080000,-1.039056
9656.094138,327.127000,-5.829518
9660.485535,327.174000,1.743238
9664.875670,327.221000,-0.226280
9669.264544,327.268000,-2.038950
9673.652158,327.315000,1.465049
9678.038512,327.362000,-1.832002
9682.423607,327.409000,-4.749478
9686.807443,327.456000,-8.889748
9691.190021,327.503000,-4.112708
9695.478134,327.549000,-4.469674
9699.858224,327.596000,-0.108483
9704.237057,327.643000,7.995743
9708.614633,327.690000,12.230922
9712.990955,327.737000,-0.651789
9717.366021,327.784000,-2.967301
9721.739833,327.831000,1.090948
9726.112390,327.878000,-10.622867
9730.483695,327.925000,-3.108865
9734.760780,327.971000,-9.115978
9739.129606,328.018000,-1.891931
9743.497180,328.065000,-8.320151
9747.863503,328.112000,-3.069356
9752.228575,328.159000,-0.111919
9756.499562,328.205000,-0.119869
9760.862161,328.252000,-5.135476
9765.223511,328.299000,-3.724702
9769.583612,328.346000,-1.397686
9773.849737,328.392000,2.827070
9778.207369,328.439000,-1.455478
9782.563754,328.486000,-4.520600
9786.918893,328.533000,-3.527813
9791.180163,328.579000,-4.050592
9795.532837,328.626000,-6.334157
9799.884266,328.673000,4.436979
9804.141906,328.719000,2.621951
9808.490874,328.766000,-4.907914
9812.838598,328.813000,-4.150598
9817.092614,328.859000,0.076193
9821.437879,328.906000,-1.964200
9825.689490,328.952000,2.290553
9830.032299,328.999000,-3.638782
9834.373868,329.046000,2.293248
9838.621862,329.092000,-3.062048
9842.960977,329.139000,6.525464
9847.206571,329.185000,-0.314631
9851.543235,329.232000,-2.352785
9855.786431,329.278000,-3.386325
9860.120646,329.325000,-1.085765
9864.361446,329.371000,-1.039052
9868.693214,329.418000,3.095096
9872.931619,329.464000,2.638190
9877.260942,329.511000,5.809042
9881.496956,329.557000,-3.387303
9885.823836,329.604000,2.848381
9890.057460,329.650000,-3.170955
9894.289903,329.696000,1.793266
9898.613135,329.743000,-4.436296
9902.843191,329.789000,-1.536917
9907.163985,329.836000,-2.509907
9911.391656,329.882000,1.651034
9915.618148,329.928000,-7.891890
9919.935303,329.975000,-2.253417
9924.159413,330.021000,-1.642971
9928.382346,330.067000,-4.652015
9932.695866,330.114000,-2.317481
9936.916419,330.160000,3.499523
9941.135797,330.206000,5.496693
9945.445687,330.253000,1.756264
9949.662689,330.299000,2.542562
9953.878516,330.345000,-1.175941
9958.093170,330.391000,1.501812
9962.398234,330.438000,4.054981
9966.610516,330.484000,-0.822945
9970.821625,330.530000,-4.794794
9975.031562,330.576000,0.171846
9979.240328,330.622000,-3.405928
9983.539380,330.669000,-1.325293
9987.745778,330.715000,0.961744
9991.951007,330.761000,1.720325
9996.155067,330.807000,-1.957694
10000.357957,330.853000,-0.007051
10004.559679,330.899000,1.985485
10008.760233,330.945000,-9.064197
10013.050897,330.992000,-4.234728
10017.249091,331.038000,-1.086195
10021.446118,331.084000,0.286937
10025.641979,331.130000,-2.015448
10029.836675,331.176000,-0.734948
10034.030205,331.222000,0.796465
10038.222571,331.268000,-1.967190
10042.413773,331.314000,2.204240
10046.603811,331.360000,-4.240092
10050.792686,331.406000,-0.666294
10054.980398,331.452000,-1.676759
10059.166948,331.498000,-1.428603
10063.352336,331.544000,-5.881280
10067.536563,331.590000,-10.179277
10071.719629,331.636000,0.821461
10075.901535,331.682000,1.402040
10080.082281,331.728000,-4.149505
10084.261868,331.774000,1.932620
10088.440296,331.820000,-3.288930
10092.526768,331.865000,2.822504
10096.702905,331.911000,-1.269252
10100.877884,331.957000,-1.046769
10105.051707,332.003000,3.526902
10109.224373,332.049000,-2.234429
10113.395884,332.095000,-1.558620
10117.475591,332.140000,3.739253
10121.644816,332.186000,-0.738223
10125.812886,332.232000,-5.239039
10129.979802,332.278000,1.949622
10134.145565,332.324000,0.925924
10138.219652,332.369000,2.930598
10142.383134,332.415000,3.650958
10146.545464,332.461000,-1.516262
10150.706643,332.507000,-7.601594
10154.776247,332.552000,0.479206
10158.935148,332.598000,4.108505
10163.092900,332.644000,-1.134914
10167.159152,332.689000,7.654519
10171.314630,332.735000,0.661040
10175.468958,332.781000,-1.134639
10179.531864,332.826000,0.155637
10183.683921,332.872000,4.912450
10187.834831,332.918000,-8.240231
10191.894393,332.963000,1.534197
10196.043035,333.009000,2.680601
10200.190530,333.055000,-7.384420
10204.246754,333.100000,0.167944
10208.391984,333.146000,-6.995792
10212.445992,333.191000,-8.522694
10216.588958,333.237000,-1.194475
10220.640753,333.282000,-2.494895
10224.781457,333.328000,-2.227687
10228.831039,333.373000,-3.783998
10232.969483,333.419000,-1.218289
10237.016856,333.464000,-3.772505
10241.153042,333.510000,-1.026077
10245.198206,333.555000,0.040095
10249.332135,333.601000,-1.958998
10253.375094,333.646000,-3.563673
10257.506768,333.692000,-2.176864
10261.547522,333.737000,4.307466
10265.587186,333.782000,-6.270515
10269.715494,333.828000,0.873882
10273.752956,333.873000,-3.326375
10277.879015,333.919000,-2.355025
10281.914277,333.964000,-5.748195
10285.948452,334.009000,-3.903570
10290.071151,334.055000,3.614566
10294.103128,334.100000,-0.407120
10298.134020,334.145000,0.308781
10302.253364,334.191000,2.544026
10306.282060,334.236000,-12.523501
10310.309672,334.281000,-2.291588
10314.425666,334.327000,1.066873
10318.451085,334.372000,1.224215
10322.475422,334.417000,-2.950031
10326.498675,334.462000,4.052322
10330.610215,334.508000,1.521088
10334.631280,334.553000,3.451606
10338.651263,334.598000,-4.102199
10342.670165,334.643000,-3.989743
10346.687987,334.688000,-7.721839
10350.704728,334.733000,-2.320350
10354.809614,334.779000,0.002830
10358.824172,334.824000,-0.901485
10362.837651,334.869000,-2.043098
10366.850051,334.914000,-0.094904
10370.861373,334.959000,-4.449164
10374.871618,335.004000,3.078165
10378.880786,335.049000,-3.969877
10382.888876,335.094000,-4.120683
10386.984923,335.140000,-0.819466
10390.990838,335.185000,2.490965
10394.995677,335.230000,-2.759178
10398.999440,335.275000,-0.077523
10403.002130,335.320000,0.507373
10407.003745,335.365000,-3.486387
10411.004286,335.410000,2.102367
10415.003755,335.455000,-3.900406
10419.002150,335.500000,1.098427
10422.999473,335.545000,-1.025745
10426.995723,335.590000,-2.356054
10430.990902,335.635000,-6.349745
10434.985010,335.680000,2.354683
10438.889325,335.724000,-1.782248
10442.881316,335.769000,0.456159
10446.872237,335.814000,-2.231799
10450.862088,335.859000,-3.364588
10454.850871,335.904000,-4.067515
10458.838585,335.949000,3.575359
10462.825230,335.994000,-2.121316
10466.810808,336.039000,7.313743
10470.706786,336.083000,-7.108709
10474.690253,336.128000,-8.481941
10478.672654,336.173000,-1.216749
10482.653989,336.218000,-4.575418
10486.634259,336.263000,0.885812
10490.525048,336.307000,-0.710246
10494.503211,336.352000,2.699784
10498.480310,336.397000,-0.878691
10502.456345,336.442000,0.120131
10506.342995,336.486000,-1.263880
10510.316927,336.531000,-2.188503
10514.289797,336.576000,1.784627
10518.261604,336.621000,1.961411
10522.144122,336.665000,-3.395346
10526.113830,336.710000,1.779718
10530.082477,336.755000,8.883745
10533.961906,336.799000,1.045799
10537.928455,336.844000,-1.497140
10541.893946,336.889000,-2.417055
10545.770289,336.933000,-1.433135
10549.733685,336.978000,-0.455681
10553.607982,337.022000,3.653414
10557.569284,337.067000,0.433069
10561.529529,337.112000,4.460427
10565.400747,337.156000,2.638953
10569.358902,337.201000,1.696690
10573.228076,337.245000,-1.495895
10577.184142,337.290000,-0.157110
10581.051275,337.334000,-0.315380
10585.005254,337.379000,-1.374728
10588.870347,337.423000,4.142171
10592.822240,337.468000,4.105726
10596.685295,337.512000,8.417975
10600.635105,337.557000,9.917225
10604.496123,337.601000,6.591998
10608.443850,337.646000,2.001267
10612.302834,337.690000,11.495053
10616.160811,337.734000,4.185371
10620.105430,337.779000,16.733702
10623.961375,337.823000,22.163985
10627.903916,337.868000,15.785843
10631.757830,337.912000,15.808774
10635.610740,337.956000,25.051840
10639.550179,338.001000,26.695351
10643.401061,338.045000,31.027346
10647.250940,338.089000,30.061090
10651.187281,338.134000,40.957985
10655.035134,338.178000,34.852822
10658.881986,338.222000,33.124396
10662.815231,338.267000,47.008623
10666.660059,338.311000,39.763997
10670.503887,338.355000,43.132850
10674.346716,338.399000,41.013373
10678.275848,338.444000,44.017998
10682.116656,338.488000,40.014856
10685.956465,338.532000,45.492887
10689.795276,338.576000,41.603572
10693.633090,338.620000,46.884803
10697.557096,338.665000,39.353768
10701.392893,338.709000,43.517033
10705.227693,338.753000,47.253294
10709.061498,338.797000,43.811981
10712.894307,338.841000,41.419998
10716.726120,338.885000,48.704275
10720.556939,338.929000,44.859075
10724.386763,338.973000,47.110777
10728.302601,339.018000,45.412726
10732.130414,339.062000,44.479028
10735.957235,339.106000,46.044768
10739.783062,339.150000,43.398438
10743.607897,339.194000,38.109351
10747.431740,339.238000,36.981542
10751.254591,339.282000,48.131479
10755.076450,339.326000,46.615636
10758.897319,339.370000,52.054101
10762.717197,339.414000,44.749367
10766.536084,339.458000,40.794600
10770.353982,339.502000,46.425581
10774.170890,339.546000,45.918269
10777.986809,339.590000,44.192192
10781.801740,339.634000,54.218553
10785.615682,339.678000,44.382218
10789.341989,339.721000,44.895337
10793.153978,339.765000,49.093637
10796.964980,339.809000,36.857714
10800.774995,339.853000,45.609342
10804.584024,339.897000,43.321348
10808.392066,339.941000,51.746665
10812.199123,339.985000,49.591247
10816.005195,340.029000,40.570417
10819.723813,340.072000,41.957793
10823.527938,340.116000,50.213030
10827.331078,340.160000,51.101870
10831.133235,340.204000,48.807506
10834.848029,340.247000,45.633839
10838.648242,340.291000,47.995418
10842.447472,340.335000,51.322476
10846.245720,340.379000,37.467695
10849.956695,340.422000,48.884020
10853.753002,340.466000,38.660672
10857.548328,340.510000,46.127818
10861.342673,340.554000,46.240011
10865.049836,340.597000,45.178022
10868.842243,340.641000,39.276141
10872.633670,340.685000,50.297346
10876.337983,340.728000,46.720754
10880.127474,340.772000,50.908954
10883.829896,340.815000,46.250869
10887.617453,340.859000,48.176802
10891.404033,340.903000,40.909253
10895.103609,340.946000,37.937825
10898.888257,340.990000,42.056522
10902.585946,341.033000,49.043921
10906.368663,341.077000,37.960672
10910.150404,341.121000,43.167018
10913.845254,341.164000,46.962646
10917.625066,341.208000,45.894560
10921.318033,341.251000,48.271334
10925.095918,341.295000,40.976919
10928.787002,341.338000,43.526133
10932.562962,341.382000,46.638137
10936.252165,341.425000,38.288562
10939.940439,341.468000,44.433026
10943.713524,341.512000,42.658596
10947.399919,341.555000,47.265004
10951.171083,341.599000,42.435597
10954.855601,341.642000,36.425235
10958.624845,341.686000,51.117833
10962.307486,341.729000,47.015011
10965.989201,341.772000,44.255575
10969.755578,341.816000,44.494674
10973.435419,341.859000,43.451530
10977.114334,341.902000,47.828468
10980.877848,341.946000,40.780554
10984.554892,341.989000,52.201478
10988.231011,342.032000,43.725697
10991.991665,342.076000,46.988340
10995.665914,342.119000,39.450194
10999.339240,342.162000,41.923059
11003.011643,342.205000,47.340943
11006.768496,342.249000,42.069948
11010.439032,342.292000,42.507549
11014.108646,342.335000,43.159487
11017.777338,342.378000,42.750567
11021.530396,342.422000,37.558774
11025.197224,342.465000,44.083249
11028.863132,342.508000,35.289349
11032.528119,342.551000,36.993715
11036.192187,342.594000,35.364266
11039.855335,342.637000,38.739244
11043.602720,342.681000,38.903613
11047.264009,342.724000,33.419331
11050.924378,342.767000,43.467090
11054.583829,342.810000,46.676759
11058.242363,342.853000,42.266129
11061.899979,342.896000,40.634144
11065.556677,342.939000,41.885172
11069.212459,342.982000,44.178824
11072.867324,343.025000,42.315870
11076.521273,343.068000,46.463175
11080.174306,343.111000,42.563318
11083.826423,343.154000,41.832114
11087.477626,343.197000,44.140406
11091.127913,343.240000,39.243988
11094.777286,343.283000,39.820897
11098.425745,343.326000,49.007502
11102.073291,343.369000,43.949631
11105.719922,343.412000,38.919829
11109.365641,343.455000,43.869448
11113.010447,343.498000,48.763645
11116.654340,343.541000,49.549822
11120.297322,343.584000,46.726370
11123.939391,343.627000,45.658381
11127.580549,343.670000,48.498796
11131.220797,343.713000,44.698321
11134.775508,343.755000,46.830860
11138.413955,343.798000,41.121369
11142.051492,343.841000,35.561219
11145.688120,343.884000,43.359235
11149.323838,343.927000,44.195905
11152.958647,343.970000,48.006942
11156.508049,344.012000,46.474069
11160.141062,344.055000,48.496444
11163.773167,344.098000,47.049133
11167.404365,344.141000,51.003800
11170.950240,344.183000,48.438747
11174.579645,344.226000,45.067121
11178.208143,344.269000,42.478086
11181.751382,344.311000,42.673583
11185.378088,344.354000,46.264924
11189.003889,344.397000,40.562846
11192.628785,344.440000,41.473428
11196.168507,344.482000,42.856177
11199.791614,344.525000,47.913561
11203.413817,344.568000,44.633327
11206.950910,344.610000,47.648669
11210.571327,344.653000,44.271092
11214.106675,344.695000,45.137011
11217.725306,344.738000,43.749040
11221.343035,344.781000,44.355765
11224.875759,344.823000,47.128260
11228.491704,344.866000,40.315454
11232.022687,344.908000,42.951274
11235.636851,344.951000,37.813106
11239.166094,344.993000,42.173560
11242.778477,345.036000,44.027825
11246.305982,345.078000,43.820156
11249.916585,345.121000,39.189414
11253.442353,345.163000,45.685422
11257.051178,345.206000,44.884792
11260.575210,345.248000,47.291457
11264.182259,345.291000,38.934539
11267.704555,345.333000,39.986486
11271.309829,345.376000,53.128885
11274.830392,345.418000,45.766764
11278.350100,345.460000,44.116991
11281.952723,345.503000,43.152523
11285.470699,345.545000,35.931316
11288.987820,345.587000,46.754326
11292.587796,345.630000,44.479214
11296.103187,345.672000,44.299806
11299.701393,345.715000,43.151364
11303.215056,345.757000,37.489394
11306.727865,345.799000,46.388747
11310.239821,345.841000,44.773555
11313.834512,345.884000,46.133880
11317.344742,345.926000,40.016913
11320.854120,345.968000,40.378000
11324.446172,346.011000,45.699829
11327.953826,346.053000,51.096758
11331.460629,346.095000,42.029775
11334.966581,346.137000,39.899147
11338.471682,346.179000,46.529380
11342.059357,346.222000,42.778762
11345.562737,346.264000,45.220487
11349.065268,346.306000,43.751298
11352.566949,346.348000,43.386157
11356.067781,346.390000,42.228488
11359.567764,346.432000,42.801731
11363.150201,346.475000,42.771191
11366.648467,346.517000,46.490268
11370.145885,346.559000,32.433895
11373.642456,346.601000,42.115667
11377.138179,346.643000,39.098492
11380.633055,346.685000,43.793578
11384.127085,346.727000,43.954193
11387.620268,346.769000,46.199564
11391.112605,346.811000,44.970247
11394.604096,346.853000,43.229546
11398.094742,346.895000,39.728436
11401.584543,346.937000,36.388798
11405.073499,346.979000,48.348775
11408.561610,347.021000,50.369363
11412.048877,347.063000,47.768308
11415.535301,347.105000,44.182216
11419.020880,347.147000,31.892816
11422.505617,347.189000,45.416864
11425.989510,347.231000,43.369728
11429.472560,347.273000,48.500516
11432.954769,347.315000,43.039499
11436.436135,347.357000,45.606981
11439.916659,347.399000,45.274638
11443.313502,347.440000,45.035657
11446.792364,347.482000,42.068093
11450.270384,347.524000,41.445920
11453.747565,347.566000,45.937201
11457.223905,347.608000,47.915555
11460.699405,347.650000,42.857147
11464.091345,347.691000,46.621644
11467.565186,347.733000,37.671370
11471.038188,347.775000,45.695083
11474.510351,347.817000,41.412012
11477.981676,347.859000,45.443328
11481.369541,347.900000,48.762629
11484.839210,347.942000,46.340849
11488.308041,347.984000,41.212451
11491.693473,348.025000,48.560791
11495.160650,348.067000,47.163407
11498.626991,348.109000,47.066046
11502.092494,348.151000,40.266661
11505.474680,348.192000,49.783096
11508.938532,348.234000,48.054700
11512.401549,348.276000,44.448975
11515.781307,348.317000,45.966876
11519.242673,348.359000,48.121084
11522.620821,348.400000,44.595497
11526.080539,348.442000,52.779984
11529.539422,348.484000,46.208519
11532.915148,348.525000,47.298468
11536.372384,348.567000,38.782167
11539.746502,348.608000,46.731407
11543.202092,348.650000,43.171516
11546.574604,348.691000,45.688073
11550.028550,348.733000,56.245927
11553.399456,348.774000,43.013717
11556.851758,348.816000,54.086880
11560.221061,348.857000,36.159855
11563.671720,348.899000,42.737794
11567.039420,348.940000,48.694757
11570.488439,348.982000,41.455593
11573.854537,349.023000,45.417159
11577.301915,349.065000,45.201680
11580.666413,349.106000,44.224285
11584.030120,349.147000,49.964703
11587.475051,349.189000,41.251217
11590.837159,349.230000,43.505928
11594.280452,349.272000,47.498503
11597.640963,349.313000,44.775373
11601.000686,349.354000,35.669923
11604.441535,349.396000,40.883908
11607.799661,349.437000,37.248650
11611.157000,349.478000,41.191031
11614.595408,349.520000,29.886269
11617.951152,349.561000,36.762580
11621.306109,349.602000,37.988787
11624.660280,349.643000,42.851218
11628.095443,349.685000,41.644486
11631.448022,349.726000,38.093817
11634.799814,349.767000,36.669002
11638.150821,349.808000,39.725840
11641.582745,349.850000,37.086390
11644.932162,349.891000,40.349308
11648.280794,349.932000,36.645396
11651.628641,349.973000,41.040157
11654.975704,350.014000,42.534411
11658.403590,350.056000,35.261847
11661.749066,350.097000,44.692410
11665.093759,350.138000,35.797508
11668.437668,350.179000,37.418218
11671.780795,350.220000,39.971925
11675.123139,350.261000,38.012025
11678.464700,350.302000,40.922951
11681.805480,350.343000,47.744210
11685.145477,350.384000,42.672335
11688.484693,350.425000,38.276275
11691.904543,350.467000,43.037993
11695.242178,350.508000,43.981829
11698.579032,350.549000,32.455795
11701.915105,350.590000,39.516168
11705.250398,350.631000,45.451168
11708.584912,350.672000,41.476688
11711.918645,350.713000,37.666642
11715.251600,350.754000,36.554000
11718.502512,350.794000,43.568234
11721.833927,350.835000,46.865187
11725.164564,350.876000,39.128005
11728.494422,350.917000,47.040763
11731.823503,350.958000,35.296434
11735.151806,350.999000,40.762795
11738.479331,351.040000,38.263554
11741.806079,351.081000,42.879865
11745.132050,351.122000,40.649112
11748.457245,351.163000,39.305703
11751.700589,351.203000,41.355329
11755.024250,351.244000,38.182555
11758.347135,351.285000,37.810039
11761.669245,351.326000,42.272815
11764.990579,351.367000,38.596326
11768.230159,351.407000,45.759234
11771.549962,351.448000,46.777968
11774.868991,351.489000,38.236404
11778.187246,351.530000,42.228062
11781.423822,351.570000,41.552048
11784.740548,351.611000,38.802303
11788.056500,351.652000,43.019535
11791.371680,351.693000,37.920030
11794.605256,351.733000,40.831406
11797.918909,351.774000,33.753608
11801.231790,351.815000,49.052279
11804.463124,351.855000,45.746080
11807.774479,351.896000,37.429904
11811.085063,351.937000,41.213030
11814.314158,351.977000,44.761897
11817.623218,352.018000,43.140460
11820.850827,352.058000,39.148079
11824.158365,352.099000,38.981167
11827.465133,352.140000,41.976515
11830.690506,352.180000,41.864360
11833.995753,352.221000,37.051134
11837.219643,352.261000,41.677725
11840.523370,352.302000,49.147131
11843.745778,352.342000,41.534369
11847.047986,352.383000,35.401135
11850.268913,352.423000,37.901442
11853.569603,352.464000,33.904018
11856.789050,352.504000,42.523429
11860.088224,352.545000,39.718779
11863.306191,352.585000,48.256800
11866.603850,352.626000,39.596917
11869.820339,352.666000,33.598338
11873.116483,352.707000,43.410799
11876.331495,352.747000,33.537921
11879.545777,352.787000,34.764765
11882.839661,352.828000,37.106221
11886.052468,352.868000,38.797310
11889.264547,352.908000,36.056985
11892.556173,352.949000,34.867620
11895.766777,352.989000,36.247115
11899.056892,353.030000,42.569890
11902.266024,353.070000,33.989977
11905.474429,353.110000,39.444540
11908.682107,353.150000,35.723611
11911.969223,353.191000,41.444970
11915.175430,353.231000,38.817091
11918.380911,353.271000,43.404440
11921.665775,353.312000,40.685417
11924.869787,353.352000,43.042839
11928.073073,353.392000,37.697585
11931.275634,353.432000,32.605956
11934.477470,353.472000,43.943760
11937.758600,353.513000,33.879345
11940.958969,353.553000,35.350018
11944.158614,353.593000,40.526337
11947.357536,353.633000,43.585875
11950.555733,353.673000,38.504070
11953.753208,353.713000,38.354874
11957.029868,353.754000,28.857930
11960.225879,353.794000,38.901414
11963.421166,353.834000,33.717096
11966.615732,353.874000,36.773254
11969.809575,353.914000,36.568342
11973.002696,353.954000,33.040982
11976.195096,353.994000,39.137578
11979.386774,354.034000,36.204824
11982.577731,354.074000,35.859150
11985.767968,354.114000,38.642640
11988.957483,354.154000,37.206442
11992.146279,354.194000,41.911320
11995.334354,354.234000,30.070775
11998.521709,354.274000,36.285775
12001.708345,354.314000,41.040180
12004.894261,354.354000,30.391406
12008.079458,354.394000,29.800339
12011.263936,354.434000,34.290279
12014.447695,354.474000,35.150932
12017.630736,354.514000,36.187749
12020.813059,354.554000,35.234357
12023.994663,354.594000,34.773228
12027.175550,354.634000,31.887154
12030.276224,354.673000,24.512259
12033.455694,354.713000,30.214938
12036.634448,354.753000,30.261798
12039.812484,354.793000,28.900981
12042.989804,354.833000,8.105144
12046.166408,354.873000,23.525086
12049.262907,354.912000,25.083801
12052.438097,354.952000,28.610549
12055.612571,354.992000,27.102698
12058.786330,355.032000,20.236340
12061.880056,355.071000,18.205285
12065.052403,355.111000,18.755076
12068.224035,355.151000,15.161664
12071.394953,355.191000,15.208715
12074.485910,355.230000,9.006149
12077.655418,355.270000,18.435385
12080.824212,355.310000,12.046072
12083.913100,355.349000,14.403817
12087.080485,355.389000,8.441066
12090.247158,355.429000,8.166900
12093.333977,355.468000,3.655078
12096.499242,355.508000,8.834673
12099.663795,355.548000,-0.255190
12102.748549,355.587000,0.822890
12105.911696,355.627000,-0.134681
12108.995079,355.666000,1.444969
12112.156822,355.706000,0.552287
12115.317853,355.746000,-1.528766
12118.399174,355.785000,1.192816
12121.558801,355.825000,2.524056
12124.638754,355.864000,0.121617
12127.796979,355.904000,0.037258
12130.875565,355.943000,-1.854337
12134.032389,355.983000,0.014485
12137.109608,356.022000,1.472231
12140.265031,356.062000,-2.440565
12143.340885,356.101000,-1.376672
12146.494908,356.141000,-0.654634
12149.569398,356.180000,1.090185
12152.643215,356.219000,-0.815013
12155.795149,356.259000,-4.946433
12158.867603,356.298000,1.051204
12162.018139,356.338000,0.371981
12165.089231,356.377000,-1.548539
12168.159651,356.416000,-1.311445
12171.308101,356.456000,-0.794145
12174.377160,356.495000,-1.625867
12177.445548,356.534000,-1.172596
12180.591915,356.574000,-1.973542
12183.658943,356.613000,0.907468
12186.725300,356.652000,2.847468
12189.869585,356.692000,0.746894
12192.934585,356.731000,-1.669399
12195.998914,356.770000,-1.149403
12199.062573,356.809000,2.710495
12202.204093,356.849000,-1.144363
12205.266396,356.888000,-2.028197
12208.328030,356.927000,0.399123
12211.388995,356.966000,-1.844016
12214.527751,357.006000,1.698873
12217.587361,357.045000,-1.204170
12220.646304,357.084000,-0.367702
12223.704578,357.123000,0.267267
12226.762184,357.162000,-2.182085
12229.819122,357.201000,-1.534290
12232.953750,357.241000,2.438902
12236.009337,357.280000,-1.565715
12239.064257,357.319000,-0.673105
12242.118510,357.358000,0.793276
12245.172096,357.397000,-0.425157
12248.225016,357.436000,-3.205296
