raman_shift_cm-1,wavelength_nm,intensity
-311.444523,246.690000,0.000000
-300.766377,246.755000,0.000000
-290.093855,246.820000,-0.001500
-279.262891,246.886000,0.000000
-268.601691,246.951000,0.015000
-257.946101,247.016000,0.005500
-247.296118,247.081000,0.305000
-236.651737,247.146000,-0.293500
-226.012953,247.211000,-0.626500
-215.216219,247.277000,-0.506000
-204.588703,247.342000,-0.544000
-193.966771,247.407000,-0.531500
-183.350419,247.472000,0.089500
-172.739643,247.537000,-0.091000
-162.134437,247.602000,0.504500
-151.534799,247.667000,0.236000
-140.940722,247.732000,-0.321000
-130.352203,247.797000,-0.054500
-119.769238,247.862000,-0.308500
-109.191822,247.927000,-0.683000
-98.619951,247.992000,0.605500
-88.053621,248.057000,-0.050500
-77.655258,248.121000,0.522000
-67.099910,248.186000,-0.262500
-56.550089,248.251000,0.123000
-46.005792,248.316000,-0.304500
-35.467013,248.381000,-0.482000
-24.933749,248.446000,0.163000
-14.405995,248.511000,0.359500
-4.045586,248.575000,0.652000
6.471245,248.640000,0.188000
16.982580,248.705000,0.135000
27.488421,248.770000,1.105000
37.827271,248.834000,0.697500
48.322224,248.899000,0.413000
58.811696,248.964000,0.648500
69.134442,249.028000,0.631500
79.613052,249.093000,0.316000
90.086194,249.158000,0.089500
100.392873,249.222000,-0.288000
110.855177,249.287000,0.305000
121.312027,249.352000,-0.299500
131.602677,249.416000,0.748500
142.048715,249.481000,0.515500
152.328727,249.545000,-0.143000
162.763968,249.610000,0.458500
173.033359,249.674000,0.245500
183.457821,249.739000,-0.215000
193.716607,249.803000,-0.352500
204.130307,249.868000,0.042500
214.378504,249.932000,0.396500
224.781458,249.997000,0.342500
235.019083,250.061000,0.474000
245.411309,250.126000,0.555500
255.638378,250.190000,4.966000
265.860216,250.254000,1.087000
276.236420,250.319000,0.821000
286.447727,250.383000,2.334500
296.813243,250.448000,2.094000
307.014035,250.512000,-0.956000
317.209616,250.576000,1.594500
327.399990,250.640000,-0.564000
337.744263,250.705000,-0.321500
347.924154,250.769000,1.293500
358.098850,250.833000,1.977000
368.268355,250.897000,-1.881500
378.591450,250.962000,-2.256000
388.750505,251.026000,-0.983500
398.904381,251.090000,0.532500
409.053082,251.154000,0.000000
419.196612,251.218000,0.360000
429.334975,251.282000,-2.940500
439.626466,251.347000,0.304500
449.754426,251.411000,0.297000
459.877231,251.475000,-0.091000
469.994885,251.539000,-0.435000
480.107392,251.603000,-0.687500
490.214756,251.667000,0.169000
500.316980,251.731000,-0.075000
510.414069,251.795000,2.230500
520.506026,251.859000,-0.935000
530.592855,251.923000,0.321000
540.674561,251.987000,2.230500
550.751147,252.051000,-2.126500
560.822617,252.115000,-1.732000
570.888975,252.179000,0.575500
580.950225,252.243000,2.819500
590.849282,252.306000,3.667500
600.900407,252.370000,4.135500
610.946435,252.434000,5.162000
620.987371,252.498000,5.718500
631.023218,252.562000,0.074000
641.053980,252.626000,-0.564500
650.923048,252.689000,-4.373000
660.943731,252.753000,0.710000
670.959341,252.817000,-1.645000
680.969880,252.881000,-0.834000
690.819058,252.944000,11.682500
700.819549,253.008000,34.789000
710.814983,253.072000,12.646500
720.805362,253.136000,3.712500
730.634708,253.199000,8.346500
740.615069,253.263000,2.307500
750.434561,253.326000,-4.625500
760.404919,253.390000,-2.582000
770.370241,253.454000,-2.180000
780.174941,253.517000,-1.236000
790.130283,253.581000,-1.192000
799.925166,253.644000,-4.312500
809.870542,253.708000,-2.375000
819.655623,253.771000,-5.751500
829.591048,253.835000,-5.806000
839.366341,253.898000,-5.283000
849.291831,253.962000,-2.419000
859.057350,254.025000,-0.038000
868.972920,254.089000,-0.697500
878.728681,254.152000,-0.778500
888.634344,254.216000,-2.412500
898.380361,254.279000,-0.465000
908.121550,254.342000,16.410000
918.012421,254.406000,-0.274000
927.743888,254.469000,-0.249500
937.470538,254.532000,-1.707000
947.346650,254.596000,-2.831000
957.063600,254.659000,-3.088000
966.775743,254.722000,-1.202000
976.637128,254.786000,-2.606500
986.339593,254.849000,-2.856500
996.037261,254.912000,0.034000
1005.730138,254.975000,0.446000
1015.571966,255.039000,-1.976500
1025.255192,255.102000,0.780500
1034.933637,255.165000,-1.350000
1044.607304,255.228000,0.563500
1054.276196,255.291000,0.930500
1063.940318,255.354000,1.016500
1073.599672,255.417000,0.130000
1083.407471,255.481000,-0.410000
1093.057225,255.544000,-0.101500
1102.702223,255.607000,1.044500
1112.342467,255.670000,-0.635000
1121.977961,255.733000,10.733000
1131.608710,255.796000,4.375000
1141.234715,255.859000,-1.014000
1150.855981,255.922000,9.128000
1160.472512,255.985000,23.293500
1170.084310,256.048000,-4.011000
1179.691379,256.111000,-5.478500
1189.293724,256.174000,-1.160500
1198.739040,256.236000,-0.356500
1208.332019,256.299000,0.189000
1217.920283,256.362000,-1.079500
1227.503835,256.425000,-2.320500
1237.082680,256.488000,1.830500
1246.656820,256.551000,1.627500
1256.226260,256.614000,-1.088000
1265.639217,256.676000,1.190000
1275.199339,256.739000,-1.030500
1284.754770,256.802000,-2.515000
1294.305515,256.865000,-0.784500
1303.700087,256.927000,0.394000
1313.241541,256.990000,0.176500
1322.778319,257.053000,-10.977500
1332.310423,257.116000,-4.483000
1341.686664,257.178000,-2.519500
1351.209505,257.241000,-4.183500
1360.727683,257.304000,-5.104000
1370.090229,257.366000,-2.209000
1379.599165,257.429000,-1.777000
1388.952622,257.491000,2.665500
1398.452329,257.554000,-7.085000
1407.796710,257.616000,-4.812500
1417.287202,257.679000,-1.330500
1426.773053,257.742000,0.704500
1436.103810,257.804000,-1.694500
1445.580466,257.867000,-1.430500
1454.902179,257.929000,-2.168000
1464.369654,257.992000,-0.457000
1473.682337,258.054000,-0.475000
1482.990547,258.116000,-0.176500
1492.444310,258.179000,1.547500
1501.743510,258.241000,-0.301000
1511.188124,258.304000,-1.669000
1520.478327,258.366000,-2.460500
1529.764072,258.428000,-0.831000
1539.195025,258.491000,-4.558000
1548.471792,258.553000,0.374000
1557.744112,258.615000,2.119500
1567.161432,258.678000,0.171000
1576.424794,258.740000,1.683500
1585.683718,258.802000,-2.366500
1594.938206,258.864000,-0.078500
1604.337420,258.927000,-3.039500
1613.582976,258.989000,-0.612000
1622.824106,259.051000,0.335000
1632.060814,259.113000,-0.112000
1641.293103,259.175000,-0.546000
1650.669776,259.238000,-4.491500
1659.893165,259.300000,-0.942000
1669.112144,259.362000,0.450000
1678.326716,259.424000,-0.064500
1687.536886,259.486000,-14.331000
1696.742655,259.548000,-1.150500
1705.944027,259.610000,2.686000
1715.141005,259.672000,1.666000
1724.333592,259.734000,-0.664000
1733.521792,259.796000,-1.997500
1742.705607,259.858000,1.899500
1751.885041,259.920000,-2.819500
1761.060096,259.982000,5.383500
1770.230777,260.044000,-1.535500
1779.397086,260.106000,-1.398000
1788.559026,260.168000,3.362000
1797.716600,260.230000,-1.950000
1806.869812,260.292000,-11.860000
1816.018664,260.354000,-6.550000
1825.163160,260.416000,-3.735000
1834.155916,260.477000,0.721500
1843.291778,260.539000,-2.485000
1852.423294,260.601000,1.213500
1861.550466,260.663000,1.334000
1870.673297,260.725000,2.812500
1879.644752,260.786000,1.590000
1888.758980,260.848000,16.517000
1897.868877,260.910000,6.731500
1906.974445,260.972000,10.246000
1915.928928,261.033000,-0.508000
1925.025918,261.095000,-0.717500
1934.118588,261.157000,-9.171500
1943.060391,261.218000,-4.378000
1952.144502,261.280000,-1.977000
1961.224302,261.342000,-4.643500
1970.153451,261.403000,-3.503000
1979.224710,261.465000,-2.110000
1988.145460,261.526000,-0.713000
1997.208190,261.588000,-2.160500
2006.120554,261.649000,2.449000
2015.174766,261.711000,-2.932000
2024.078756,261.772000,-3.396000
2033.124461,261.834000,0.128000
2042.020089,261.895000,-2.641500
2051.057301,261.957000,-0.358500
2059.944578,262.018000,1.904000
2068.973308,262.080000,-0.446500
2077.852245,262.141000,0.302500
2086.872506,262.203000,-1.021500
2095.743116,262.264000,0.348000
2104.609601,262.325000,-1.261500
2113.617214,262.387000,0.238000
2122.475388,262.448000,-2.106000
2131.329447,262.509000,0.489500
2140.324438,262.571000,0.888500
2149.170203,262.632000,2.081000
2158.011861,262.693000,-0.525500
2166.994257,262.755000,-0.109000
2175.827640,262.816000,0.140500
2184.656923,262.877000,0.473000
2193.482109,262.938000,2.451500
2202.303202,262.999000,3.830000
2211.264711,263.061000,-0.029000
2220.077557,263.122000,-1.236000
2228.886318,263.183000,-0.447500
2237.690997,263.244000,-0.619500
2246.491597,263.305000,3.422000
2255.288119,263.366000,-0.090000
2264.080568,263.427000,0.237000
2272.868945,263.488000,0.645000
2281.653255,263.549000,-0.435000
2290.577403,263.611000,-3.203000
2299.353518,263.672000,1.466500
2308.125573,263.733000,-0.020000
2316.893571,263.794000,0.255500
2325.657515,263.855000,-14.337500
2334.273836,263.915000,-25.238500
2343.029746,263.976000,-24.276000
2351.781611,264.037000,-12.514000
2360.529433,264.098000,-1.257000
2369.273215,264.159000,0.371000
2378.012959,264.220000,-0.513000
2386.748669,264.281000,-0.866500
2395.480347,264.342000,-0.109000
2404.207997,264.403000,-0.161000
2412.788642,264.463000,1.231500
2421.508308,264.524000,0.135500
2430.223953,264.585000,-8.353000
2438.935580,264.646000,-1.270000
2447.643192,264.707000,2.150000
2456.204142,264.767000,2.461500
2464.903798,264.828000,-0.586500
2473.599447,264.889000,0.141500
2482.148639,264.949000,0.484500
2490.836348,265.010000,-0.898000
2499.520059,265.071000,-1.045000
2508.057516,265.131000,0.738000
2516.733303,265.192000,3.589500
2525.405101,265.253000,6.805000
2533.930847,265.313000,-0.207500
2542.594737,265.374000,1.724500
2551.112712,265.434000,-0.953000
2559.768705,265.495000,1.315500
2568.278918,265.555000,3.612500
2576.927027,265.616000,2.035500
2585.571164,265.677000,-2.365500
2594.069722,265.737000,-0.846000
2602.564444,265.797000,1.304000
2611.196813,265.858000,9.204000
2619.683805,265.918000,-1.823500
2628.308321,265.979000,-1.717500
2636.787594,266.039000,-1.001500
2645.404268,266.100000,-0.077000
2653.875831,266.160000,0.205000
2662.343577,266.220000,-0.831000
2670.948539,266.281000,-0.765000
2679.408591,266.341000,1.318000
2687.864833,266.401000,-0.163000
2696.458108,266.462000,-0.744500
2704.906672,266.522000,0.190500
2713.351433,266.582000,0.263500
2721.792393,266.642000,-1.731500
2730.370143,266.703000,-0.743000
2738.803447,266.763000,0.960500
2747.232958,266.823000,2.158000
2755.658679,266.883000,6.729000
2764.220946,266.944000,-1.261000
2772.639032,267.004000,-1.626000
2781.053334,267.064000,1.690000
2789.463857,267.124000,2.351000
2797.870602,267.184000,4.075500
2806.273573,267.244000,-1.166500
2814.672771,267.304000,4.478500
2823.068200,267.364000,4.901500
2831.459861,267.424000,-0.726000
2839.847757,267.484000,0.357500
2848.231891,267.544000,2.735500
2856.612266,267.604000,0.457500
2864.988884,267.664000,-0.598000
2873.361747,267.724000,-1.286000
2881.730857,267.784000,-0.296000
2890.096219,267.844000,0.254500
2898.457833,267.904000,-0.800000
2906.815703,267.964000,-2.033500
2915.169831,268.024000,-8.085000
2923.520219,268.084000,-3.956500
2931.866870,268.144000,0.140000
2940.209787,268.204000,1.122000
2948.410016,268.263000,-0.477000
2956.745534,268.323000,1.250500
2965.077324,268.383000,0.867000
2973.405390,268.443000,2.309500
2981.729735,268.503000,-0.605000
2989.911713,268.562000,1.516500
2998.228682,268.622000,1.847500
3006.541937,268.682000,-0.408000
3014.851480,268.742000,1.222000
3023.018913,268.801000,0.226000
3031.321101,268.861000,-2.416000
3039.619584,268.921000,0.600500
3047.776149,268.980000,0.940500
3056.067292,269.040000,1.517000
3064.216644,269.099000,-0.297000
3072.500457,269.159000,0.001500
3080.780577,269.219000,1.863500
3088.919097,269.278000,6.355000
3097.191901,269.338000,-0.030000
3105.323232,269.397000,-1.443000
3113.588730,269.457000,-2.267500
3121.712881,269.516000,-12.859000
3129.971082,269.576000,-8.629000
3138.088063,269.635000,-3.261500
3146.338978,269.695000,11.541500
3154.448798,269.754000,1.102500
3162.692435,269.814000,-2.478500
3170.795104,269.873000,-2.153500
3178.894231,269.932000,0.456500
3187.127001,269.992000,1.762500
3195.218991,270.051000,0.335000
3203.307445,270.110000,-1.775500
3211.529370,270.170000,0.177000
3219.610701,270.229000,3.739500
3227.688505,270.288000,2.555500
3235.899605,270.348000,1.091000
3243.970299,270.407000,0.873500
3252.037473,270.466000,1.102000
3260.101128,270.525000,-1.347000
3268.297848,270.585000,1.494000
3276.354413,270.644000,-2.047500
3284.407466,270.703000,-0.036000
3292.457009,270.762000,-4.539500
3300.503044,270.821000,-16.802500
3308.545575,270.880000,-7.733000
3316.720828,270.940000,-8.081000
3324.756296,270.999000,-1.361500
3332.788267,271.058000,-1.050000
3340.816741,271.117000,0.654000
3348.841722,271.176000,-2.466000
3356.863212,271.235000,-0.855500
3364.881213,271.294000,0.271000
3372.895727,271.353000,-1.284000
3380.906756,271.412000,-0.590500
3388.914304,271.471000,0.145000
3396.918371,271.530000,-1.651500
3404.918961,271.589000,-0.478000
3412.916076,271.648000,0.854000
3420.909718,271.707000,1.053500
3428.899888,271.766000,3.098000
3436.886591,271.825000,2.885500
3444.734546,271.883000,-1.118000
3452.714377,271.942000,-0.330500
3460.690746,272.001000,-0.888500
3468.663655,272.060000,0.658000
3476.633107,272.119000,-1.822500
3484.599104,272.178000,-1.046500
3492.426718,272.236000,-4.116500
3500.385870,272.295000,-4.151500
3508.341573,272.354000,-8.402000
3516.293830,272.413000,-14.971500
3524.107947,272.471000,-19.011500
3532.053377,272.530000,-0.851000
3539.995368,272.589000,-2.986000
3547.799398,272.647000,-0.471000
3555.734574,272.706000,0.195500
3563.666318,272.765000,-6.041500
3571.460282,272.823000,-2.385000
3579.385225,272.882000,-1.475500
3587.306741,272.941000,-9.173000
3595.090658,272.999000,-0.038000
3603.005387,273.058000,-3.911500
3610.782635,273.116000,1.433500
3618.690585,273.175000,-0.288500
3626.461173,273.233000,0.569500
3634.362353,273.292000,1.251500
3642.126290,273.350000,-0.645000
3650.020708,273.409000,-9.347000
3657.778002,273.467000,0.891500
3665.665667,273.526000,1.057000
3673.416327,273.584000,0.486000
3681.163701,273.642000,-2.144500
3689.041282,273.701000,-1.305000
3696.782035,273.759000,0.936000
3704.652885,273.818000,-0.102500
3712.387025,273.876000,0.163500
3720.117889,273.934000,-0.334000
3727.845481,273.992000,-2.347500
3735.702951,274.051000,-2.544000
3743.423947,274.109000,-0.981500
3751.141676,274.167000,-3.084000
3758.989119,274.226000,-1.429000
3766.700265,274.284000,-1.773000
3774.408150,274.342000,0.264000
3782.112776,274.400000,-3.627000
3789.814146,274.458000,-2.153500
3797.644960,274.517000,-0.250500
3805.339767,274.575000,-4.061000
3813.031324,274.633000,-2.186500
3820.719634,274.691000,-0.543500
3828.404697,274.749000,-1.218500
3836.086516,274.807000,-0.307500
3843.765093,274.865000,0.362500
3851.440431,274.923000,1.123500
3859.112530,274.981000,-0.399000
3866.781394,275.039000,3.387500
3874.447024,275.097000,1.345000
3882.109423,275.155000,-0.496000
3889.768591,275.213000,-0.317000
3897.424533,275.271000,0.811500
3905.077248,275.329000,0.489000
3912.726740,275.387000,1.482500
3920.373011,275.445000,0.032500
3928.016062,275.503000,-0.886500
3935.655896,275.561000,0.766000
3943.292514,275.619000,0.983000
3950.925919,275.677000,0.558000
3958.424585,275.734000,1.954000
3966.051625,275.792000,0.556500
3973.675457,275.850000,2.790000
3981.296084,275.908000,0.044000
3988.913508,275.966000,-5.463000
3996.396478,276.023000,0.788500
4004.007557,276.081000,-2.534000
4011.615438,276.139000,0.608500
4019.220124,276.197000,-0.417000
4026.690584,276.254000,6.217000
4034.288940,276.312000,2.061000
4041.884108,276.370000,1.905500
4049.345219,276.427000,-0.105000
4056.934068,276.485000,0.431000
4064.519735,276.543000,-0.787000
4071.971515,276.600000,0.764500
4079.550876,276.658000,-0.174000
4086.996462,276.715000,-0.136000
4094.569525,276.773000,-0.865500
4102.008927,276.830000,0.007500
4109.575700,276.888000,-2.796000
4117.008923,276.945000,1.347500
4124.569414,277.003000,0.336000
4131.996467,277.060000,2.013000
4139.550684,277.118000,-0.604000
4146.971575,277.175000,0.591500
4154.519525,277.233000,-0.808000
4161.934262,277.290000,-1.328500
4169.475953,277.348000,-1.088000
4228.011654,277.799000,-4.866500
4235.396210,277.856000,0.187500
4242.907211,277.914000,-0.304500
4250.415077,277.972000,1.810000
4257.790445,278.029000,-1.002500
4265.292102,278.087000,-8.737500
4272.790631,278.145000,0.560000
4280.156828,278.202000,1.743500
4287.649159,278.260000,0.509000
4295.138368,278.318000,-0.378500
4302.495411,278.375000,-0.331000
4309.978434,278.433000,-0.235500
4317.329402,278.490000,0.535500
4324.806246,278.548000,0.878500
4332.151147,278.605000,2.203000
4339.621821,278.663000,-0.419500
4346.960661,278.720000,1.366000
4354.425172,278.778000,0.650500
4361.757959,278.835000,-0.740500
4369.216314,278.893000,-0.247500
4376.543056,278.950000,2.160500
4383.995264,279.008000,4.101000
4391.315968,279.065000,-1.299000
4398.762036,279.123000,2.137000
4406.076709,279.180000,1.516500
4413.516644,279.238000,-0.038000
4420.825295,279.295000,3.258500
4428.130962,279.352000,-0.856000
4435.561740,279.410000,6.596000
4442.861395,279.467000,0.379500
4450.158074,279.524000,-0.954500
4457.579711,279.582000,-0.477500
4464.870389,279.639000,0.190000
4472.158095,279.696000,2.149000
4479.570607,279.754000,0.074000
4486.852324,279.811000,-3.033000
4494.131074,279.868000,-3.741500
4501.534479,279.926000,-16.284000
4508.807251,279.983000,0.571500
4516.077062,280.040000,-2.178500
4523.343914,280.097000,-4.418000
4530.735220,280.155000,-3.127500
4537.996108,280.212000,-3.340500
4545.254043,280.269000,-7.201500
4552.509026,280.326000,-5.404000
4559.888262,280.384000,-2.891000
4567.137295,280.441000,-2.674500
4574.383383,280.498000,-3.138000
4581.626526,280.555000,-1.612000
4588.866727,280.612000,3.424500
4596.103987,280.669000,-3.998500
4603.338308,280.726000,-3.450500
4610.696532,280.784000,-5.278000
4617.924929,280.841000,-5.363000
4625.150392,280.898000,-0.593500
4632.372923,280.955000,-2.480500
4639.592525,281.012000,-5.423500
4646.809198,281.069000,-3.776500
4654.022945,281.126000,-5.217500
4661.233767,281.183000,-5.978000
4668.441666,281.240000,-2.887500
4675.646644,281.297000,-2.247000
4682.848703,281.354000,-4.042500
4690.047844,281.411000,-2.068000
4697.244070,281.468000,-4.202000
4704.437381,281.525000,-2.043500
4711.627780,281.582000,-0.124500
4718.815269,281.639000,0.836000
4725.999849,281.696000,-3.779500
4733.181522,281.753000,1.059000
4740.360290,281.810000,-0.687500
4747.536154,281.867000,1.870500
4754.583300,281.923000,0.130000
4761.753414,281.980000,-3.839000
4768.920629,282.037000,3.413000
4776.084949,282.094000,-0.777000
4783.246373,282.151000,0.113500
4790.404904,282.208000,0.977500
4797.435032,282.264000,-0.963000
4804.587834,282.321000,1.577000
4811.737748,282.378000,-3.773000
4818.884776,282.435000,-1.738000
4826.028920,282.492000,-1.754500
4833.044920,282.548000,-0.417500
4840.183352,282.605000,-2.632000
4847.318904,282.662000,-1.718500
4854.451579,282.719000,0.030500
4861.456319,282.775000,-0.109500
4868.583295,282.832000,0.328000
4875.707399,282.889000,0.155500
4882.703723,282.945000,1.147000
4889.822139,283.002000,-0.911500
4896.937687,283.059000,0.431000
4903.925611,283.115000,-1.296000
4911.035481,283.172000,0.311000
4918.142490,283.229000,0.396500
4925.122029,283.285000,2.344000
4932.223369,283.342000,0.147500
4939.197342,283.398000,1.431500
4946.293021,283.455000,-0.629000
4953.385847,283.512000,-4.943500
4960.351460,283.568000,0.195500
4967.438635,283.625000,-0.139500
4974.398699,283.681000,-0.352500
4981.480229,283.738000,2.390500
4988.434752,283.794000,0.910500
4995.510644,283.851000,-0.299500
5002.459631,283.907000,-0.699500
5009.529893,283.964000,-0.247000
5016.473351,284.020000,-0.605000
5023.537988,284.077000,-2.415000
5030.475924,284.133000,0.303500
5037.534943,284.190000,-0.461000
5044.467363,284.246000,1.469000
5051.397052,284.302000,43.517000
5058.447683,284.359000,10.990500
5065.371866,284.415000,2.226000
5072.416896,284.472000,0.522500
5079.335580,284.528000,1.176000
5086.251541,284.584000,-0.656500
5093.288207,284.641000,1.750500
5100.198678,284.697000,-2.942000
5107.106432,284.753000,-0.160500
5114.134748,284.810000,0.057000
5121.037022,284.866000,-0.229000
5127.936582,284.922000,-3.030000
5134.833431,284.978000,2.389500
5141.850655,285.035000,6.702000
5148.742037,285.091000,3.708500
5155.630712,285.147000,-1.364000
5162.516682,285.203000,-0.332000
5169.522840,285.260000,0.474000
5176.403356,285.316000,1.996000
5183.281172,285.372000,2.453500
5190.156289,285.428000,0.944500
5197.028709,285.484000,-0.538500
5204.021082,285.541000,-0.411500
5210.888064,285.597000,0.290500
5217.752353,285.653000,1.102500
5224.613952,285.709000,-2.258500
5231.472862,285.765000,-0.551500
5238.329083,285.821000,-0.329000
5245.182619,285.877000,-1.802500
5252.033470,285.933000,0.188500
5258.881638,285.989000,-4.437500
5265.727125,286.045000,-1.372000
5272.569932,286.101000,0.718000
5279.532182,286.158000,-0.386500
5286.369586,286.214000,-1.608000
5293.204315,286.270000,0.248500
5300.036371,286.326000,2.103500
5306.865755,286.382000,0.270000
5313.692468,286.438000,1.055500
5320.516513,286.494000,11.757500
5327.216104,286.549000,4.623000
5334.034863,286.605000,-1.773500
5340.850958,286.661000,0.099500
5347.664391,286.717000,-0.218000
5354.475163,286.773000,1.155500
5361.283275,286.829000,1.358000
5368.088729,286.885000,1.102000
5374.891528,286.941000,3.058000
5381.691671,286.997000,1.944000
5388.489161,287.053000,-2.663500
5395.162686,287.108000,2.044500
5401.954922,287.164000,1.038500
5408.744509,287.220000,-1.048500
5415.531448,287.276000,-0.568500
5422.315743,287.332000,-0.738500
5428.976316,287.387000,0.072500
5435.755371,287.443000,-1.741000
5442.531785,287.499000,-2.261000
5449.305560,287.555000,-0.175500
5456.076697,287.611000,2.408500
5462.724355,287.666000,0.348000
5469.490268,287.722000,-0.634000
5476.253548,287.778000,-0.589000
5482.893494,287.833000,0.558500
5489.651559,287.889000,-0.807000
5496.406995,287.945000,0.198500
5503.039242,288.000000,0.489000
5509.789473,288.056000,-0.504500
5516.537079,288.112000,0.720000
5523.161640,288.167000,4.041500
5529.904050,288.223000,-0.258000
5536.643840,288.279000,0.351000
5543.260729,288.334000,-0.173000
5549.995332,288.390000,-0.124500
5556.607128,288.445000,2.141500
5563.336549,288.501000,-0.795500
5569.943259,288.556000,-0.515500
5576.667504,288.612000,-0.561000
5583.269134,288.667000,2.367000
5589.988209,288.723000,0.154500
5596.584764,288.778000,0.293500
5603.298676,288.834000,-0.012500
5609.890162,288.889000,-3.612000
5616.598916,288.945000,1.656500
5623.185340,289.000000,1.149000
5629.888941,289.056000,1.504500
5636.470308,289.111000,-0.676000
5643.168763,289.167000,1.450500
5649.745079,289.222000,0.494500
5656.438394,289.278000,0.994000
5663.009664,289.333000,1.816000
5669.578437,289.388000,-1.084500
5676.264076,289.444000,-1.811000
5682.827812,289.499000,13.449000
5689.389054,289.554000,4.359500
5696.067030,289.610000,-0.711500
5702.623244,289.665000,0.234500
5709.176969,289.720000,0.659500
5715.847296,289.776000,-1.538500
5722.396001,289.831000,-4.436000
5728.942221,289.886000,-0.599000
5735.485958,289.941000,0.608000
5742.146122,289.997000,-0.990000
5748.684850,290.052000,0.172000
5755.221100,290.107000,0.597500
5761.754871,290.162000,-1.136500
5768.404894,290.218000,1.853500
5774.933669,290.273000,-1.812500
5781.459971,290.328000,-2.473000
5787.983800,290.383000,-1.337000
5794.505158,290.438000,0.515000
5801.142550,290.494000,0.598000
5807.658926,290.549000,8.960500
5814.172835,290.604000,1.211000
5820.684279,290.659000,2.090500
5827.193260,290.714000,-0.784500
5833.699778,290.769000,0.670000
5840.203835,290.824000,-8.929000
5846.705432,290.879000,-35.524000
5853.204572,290.934000,-18.142500
5859.701254,290.989000,-3.855500
5866.195481,291.044000,-0.187500
5872.687254,291.099000,-0.916500
5879.176574,291.154000,-2.583500
5885.663444,291.209000,-0.919000
5892.147863,291.264000,-1.841000
5898.629834,291.319000,1.460000
5905.109357,291.374000,-2.037000
5911.586435,291.429000,2.188500
5918.061069,291.484000,3.416000
5924.533260,291.539000,5.094000
5931.003009,291.594000,2.155500
5937.470318,291.649000,3.156000
5943.935188,291.704000,4.963500
5950.397621,291.759000,14.858000
5956.857618,291.814000,5.098000
5963.315180,291.869000,1.610500
5969.770309,291.924000,0.834500
5976.105706,291.978000,-0.151000
5982.556017,292.033000,-1.439000
5989.003898,292.088000,-1.809500
5995.449352,292.143000,-3.780000
6001.892379,292.198000,-0.258500
6008.215901,292.252000,2.611500
6014.654123,292.307000,2.011500
6021.089923,292.362000,4.352000
6027.523303,292.417000,0.098000
6033.954262,292.472000,-0.671500
6040.265942,292.526000,0.050000
6046.692111,292.581000,-6.672000
6053.115864,292.636000,-0.187500
6059.420472,292.690000,1.227500
6065.839442,292.745000,-0.243500
6072.256000,292.800000,-0.115000
6078.553548,292.854000,0.590000
6084.965331,292.909000,-0.282500
6091.374707,292.964000,1.161000
6097.665207,293.018000,-1.058500
6104.069816,293.073000,0.005500
6110.472021,293.128000,1.863500
6116.755485,293.182000,1.234000
6123.152931,293.237000,0.026500
6129.431725,293.291000,-1.164000
6135.824417,293.346000,-1.531500
6142.098547,293.400000,-2.786000
6148.486490,293.455000,0.467500
6154.872040,293.510000,1.146500
6161.139160,293.564000,-0.310500
6167.519969,293.619000,2.949500
6173.782438,293.673000,0.426500
6180.158512,293.728000,0.272500
6186.416334,293.782000,-2.993000
6192.787678,293.837000,1.348000
6199.040859,293.891000,0.423500
6205.291742,293.945000,1.886500
6211.656022,294.000000,-0.640500
6217.902272,294.054000,3.624000
6224.261835,294.109000,0.931500
6230.503456,294.163000,0.575500
6236.742786,294.217000,1.886500
6243.095305,294.272000,1.219500
6249.330014,294.326000,0.777000
6255.677829,294.381000,-0.563500
6261.907923,294.435000,-1.506000
6268.135731,294.489000,-1.054000
6274.476522,294.544000,0.356500
6280.699722,294.598000,0.506000
6286.920642,294.652000,0.775000
6293.139281,294.706000,-1.855000
6299.470739,294.761000,1.366500
6305.684781,294.815000,1.096000
6311.896546,294.869000,4.702000
6318.106037,294.923000,3.628000
6324.428182,294.978000,0.625000
6330.633085,295.032000,-0.266000
6336.835717,295.086000,0.947000
6343.036080,295.140000,1.147000
6349.234174,295.194000,-0.349500
6355.544717,295.249000,0.081500
6361.738236,295.303000,3.754500
6367.929490,295.357000,1.563000
6374.118480,295.411000,2.037500
6380.305209,295.465000,2.683000
6386.489676,295.519000,1.330500
6392.671884,295.573000,3.441500
6398.851833,295.627000,11.706500
6405.143905,295.682000,14.910500
6411.319300,295.736000,22.035500
6417.492439,295.790000,4.918000
6423.663325,295.844000,2.968500
6429.831958,295.898000,-0.061000
6435.998340,295.952000,1.359500
6442.162473,296.006000,1.085500
6448.324357,296.060000,-3.456000
6454.483993,296.114000,-2.399500
6460.641384,296.168000,2.069000
6466.796529,296.222000,3.697000
6472.949431,296.276000,3.352500
6479.100090,296.330000,1.098000
6485.248508,296.384000,2.882000
6491.280888,296.437000,0.459000
6497.424869,296.491000,-1.732500
6503.566612,296.545000,1.622000
6509.706118,296.599000,-1.961000
6515.843390,296.653000,1.353000
6521.978427,296.707000,1.927500
6528.111232,296.761000,0.850000
6534.241805,296.815000,3.834000
6540.256681,296.868000,0.803000
6546.382836,296.922000,-0.933500
6552.506763,296.976000,0.695500
6558.628464,297.030000,4.097000
6564.747939,297.084000,1.902000
6570.751928,297.137000,-0.009000
6576.866997,297.191000,0.833500
6582.979845,297.245000,1.820000
6589.090471,297.299000,-0.079000
6595.085780,297.352000,1.610500
6601.192010,297.406000,0.554500
6607.296023,297.460000,0.775500
6613.397821,297.514000,4.211500
6619.384468,297.567000,-2.281500
6625.481879,297.621000,-0.996000
6631.577077,297.675000,2.017000
6637.557251,297.728000,0.321500
6643.648069,297.782000,0.366000
6649.623947,297.835000,-0.843500
6655.710390,297.889000,0.240000
6661.794627,297.943000,4.751500
6667.764048,297.996000,-0.598000
6673.843917,298.050000,-2.859500
6679.809053,298.103000,0.585000
6685.884559,298.157000,0.091000
6691.957864,298.211000,-0.227500
6697.916562,298.264000,-1.756000
6703.985510,298.318000,-1.183500
6709.939935,298.371000,-0.404500
6716.004532,298.425000,1.344500
6721.954688,298.478000,12.713000
6728.014938,298.532000,2.407500
6733.960830,298.585000,-0.442500
6739.904611,298.638000,2.153000
6745.958369,298.692000,0.419500
6751.897893,298.745000,-0.247000
6757.947317,298.799000,0.693500
6763.882588,298.852000,-0.418000
6769.927680,298.906000,-3.691000
6775.858703,298.959000,-0.093000
6781.787624,299.012000,0.331000
6787.826249,299.066000,2.545500
6793.750928,299.119000,4.123500
6799.673508,299.172000,6.716500
6805.705677,299.226000,2.309000
6811.624022,299.279000,-0.287000
6817.540272,299.332000,-1.927000
6823.565994,299.386000,-0.456500
6829.478016,299.439000,-0.303000
6835.387945,299.492000,-1.099500
6841.407231,299.546000,-0.990000
6847.312940,299.599000,-1.427500
6853.216559,299.652000,5.196500
6859.118090,299.705000,2.957000
6865.017534,299.758000,1.541000
6871.026143,299.812000,3.832000
6876.921378,299.865000,4.270000
6882.814529,299.918000,0.957500
6888.705597,299.971000,-1.372500
6894.594584,300.024000,-0.223000
6900.592545,300.078000,0.421500
6906.477333,300.131000,0.062500
6912.360044,300.184000,-0.253000
6918.240677,300.237000,-0.182500
6924.119235,300.290000,-1.308000
6929.995718,300.343000,-3.603500
6935.870127,300.396000,5.640000
6941.742464,300.449000,3.744000
6947.612730,300.502000,2.764000
6953.480925,300.555000,1.633000
6959.347051,300.608000,10.455500
6965.211108,300.661000,2.602500
6971.073099,300.714000,2.382000
6976.933024,300.767000,-0.435500
6982.790884,300.820000,-0.728000
6988.646680,300.873000,0.178500
6994.500413,300.926000,-1.343500
7000.352085,300.979000,0.712000
7006.201696,301.032000,1.555500
7012.049248,301.085000,-2.307000
7017.894742,301.138000,-0.661000
7023.738178,301.191000,-1.808000
7029.579559,301.244000,-0.251500
7035.418884,301.297000,-0.724500
7041.256155,301.350000,-0.935500
7047.091373,301.403000,-2.176000
7052.924539,301.456000,-2.065500
7058.645653,301.508000,-0.874500
7064.474758,301.561000,5.069500
7070.301814,301.614000,0.446000
7076.126822,301.667000,-1.403500
7081.949784,301.720000,-0.583500
7087.660892,301.772000,0.997000
7093.479803,301.825000,1.519500
7099.296670,301.878000,4.010000
7105.111496,301.931000,-2.412000
7110.814624,301.983000,-0.477500
7116.625408,302.036000,9.334500
7122.434152,302.089000,42.327500
7128.240858,302.142000,46.651000
7133.936024,302.194000,45.549000
7139.738696,302.247000,12.127500
7145.539334,302.300000,1.261000
7151.228549,302.352000,0.369000
7157.025159,302.405000,-1.282500
7162.819737,302.458000,0.838000
7168.503010,302.510000,-1.410000
7174.293567,302.563000,-0.352500
7180.082095,302.616000,0.344000
7185.759436,302.668000,1.183000
7191.543949,302.721000,-0.075000
7197.217352,302.773000,1.220500
7202.997854,302.826000,0.956500
7208.667324,302.878000,5.684000
7214.443819,302.931000,-0.552000
7220.109360,302.983000,0.664500
7225.881853,303.036000,1.093500
7231.543468,303.088000,3.746500
7237.311962,303.141000,-0.271000
7242.969657,303.193000,0.143000
7248.734156,303.246000,-0.551500
7254.387934,303.298000,-0.331000
7260.148443,303.351000,-0.689500
7265.798308,303.403000,1.053500
7271.554831,303.456000,1.089500
7277.200787,303.508000,-0.400000
7282.953328,303.561000,-0.906000
7288.595379,303.613000,-0.914000
7294.235498,303.665000,-4.347000
7299.982093,303.718000,-2.093000
7305.618313,303.770000,-8.210000
7311.252604,303.822000,-1.767500
7316.993262,303.875000,8.525500
7322.623660,303.927000,14.717000
7328.252131,303.979000,1.630000
7333.986862,304.032000,1.053500
7339.611446,304.084000,-0.389500
7345.234108,304.136000,-0.103000
7350.962920,304.189000,0.418500
7356.581700,304.241000,-1.844500
7362.198561,304.293000,-0.884500
7367.813502,304.345000,-0.490500
7373.426525,304.397000,0.884000
7379.145517,304.450000,-0.843500
7384.754669,304.502000,-0.817500
7390.361906,304.554000,0.832500
7395.967228,304.606000,-1.592000
7401.570637,304.658000,-25.761000
7407.279836,304.711000,-1.191500
7412.879384,304.763000,-0.447500
7418.477021,304.815000,0.664000
7424.072749,304.867000,9.144000
7429.666569,304.919000,8.376500
7435.258480,304.971000,-1.746500
7440.848486,305.023000,0.046500
7446.436585,305.075000,-0.382000
7452.022780,305.127000,-3.334000
7457.607071,305.179000,-2.285500
7463.296795,305.232000,-0.859500
7468.877245,305.284000,6.838000
7474.455794,305.336000,1.220000
7480.032444,305.388000,0.091500
7485.607195,305.440000,-2.684500
7491.180048,305.492000,-1.147000
7496.751004,305.544000,-1.021000
7502.212985,305.595000,-0.695000
7507.780187,305.647000,-0.602500
7513.345495,305.699000,1.101000
7518.908909,305.751000,-1.748500
7524.470432,305.803000,-2.430500
7530.030064,305.855000,-0.589500
7535.587805,305.907000,-7.308000
7541.143658,305.959000,-3.369000
7546.697622,306.011000,-0.985000
7552.249699,306.063000,2.677500
7557.693173,306.114000,8.009000
7563.241514,306.166000,12.290000
7568.787971,306.218000,2.088500
7574.332545,306.270000,0.075000
7579.875237,306.322000,2.355500
7585.416047,306.374000,0.191000
7590.848476,306.425000,0.634500
7596.385562,306.477000,-0.287000
7601.920769,306.529000,0.806500
7607.454098,306.581000,-0.265000
7612.879195,306.632000,3.597000
7618.408808,306.684000,0.660000
7623.936546,306.736000,2.321000
7629.462411,306.788000,4.366000
7634.880189,306.839000,1.440000
7640.402345,306.891000,2.199500
7645.922629,306.943000,2.319000
7651.334938,306.994000,-2.511500
7656.851519,307.046000,1.032500
7662.260197,307.097000,-0.757000
7667.773079,307.149000,-1.843000
7673.284094,307.201000,2.245000
7678.687317,307.252000,-0.490000
7684.194638,307.304000,-18.190000
7689.700096,307.356000,-2.681000
7695.097870,307.407000,-0.558500
7700.599639,307.459000,-0.754000
7705.993798,307.510000,1.670500
7711.491883,307.562000,14.246500
7716.882430,307.613000,2.351500
7722.376833,307.665000,0.465500
7727.763772,307.716000,0.703000
7733.254498,307.768000,-0.960000
7738.637831,307.819000,1.658500
7744.124884,307.871000,-0.268000
7749.504617,307.922000,1.804000
7754.988000,307.974000,0.431000
7760.364134,308.025000,-0.482000
7765.738489,308.076000,-1.608500
7771.216392,308.128000,-1.383500
7776.587155,308.179000,-1.587500
7782.061397,308.231000,-2.451500
7787.428571,308.282000,-2.230000
7792.793970,308.333000,-1.031000
7798.262745,308.385000,-0.596500
7803.624561,308.436000,1.367000
7808.984603,308.487000,-1.964000
7814.447920,308.539000,0.230500
7819.804385,308.590000,-2.426000
7825.159080,308.641000,0.699000
7830.616947,308.693000,4.116000
7835.968069,308.744000,-2.049500
7841.317424,308.795000,-0.100500
7846.665012,308.846000,-0.845000
7852.115636,308.898000,-1.532500
7857.459659,308.949000,-0.620000
7862.801917,309.000000,1.670000
7868.142413,309.051000,1.226000
7873.481146,309.102000,-1.364500
7878.922746,309.154000,-1.122500
7884.257923,309.205000,-0.517500
7889.591340,309.256000,-1.938500
7894.922998,309.307000,1.055000
7900.252898,309.358000,1.047000
7905.581041,309.409000,2.050000
7910.907428,309.460000,0.316500
7916.336447,309.512000,-0.494500
7921.659290,309.563000,-0.160500
7926.980379,309.614000,2.899000
7932.299715,309.665000,0.738500
7937.617300,309.716000,-0.656500
7942.933134,309.767000,3.037500
7948.247217,309.818000,2.910500
7953.559551,309.869000,0.725000
7958.870137,309.920000,0.579500
7964.178976,309.971000,-1.148500
7969.486068,310.022000,-2.079500
7974.791414,310.073000,-0.528000
7980.095015,310.124000,0.384000
7985.396872,310.175000,0.020500
7990.696985,310.226000,-0.751500
7995.995357,310.277000,-5.956500
8001.291987,310.328000,-2.000000
8006.586876,310.379000,-1.165000
8011.880026,310.430000,0.003500
8017.067700,310.480000,0.536500
8022.357406,310.531000,0.258500
8027.645376,310.582000,0.594000
8032.931609,310.633000,1.882000
8038.216106,310.684000,1.616500
8043.498869,310.735000,3.837500
8048.779898,310.786000,2.122500
8053.955695,310.836000,1.814000
8059.233293,310.887000,1.291500
8064.509160,310.938000,-1.968500
8069.783296,310.989000,-0.601000
8074.952339,311.039000,-3.721500
8080.223051,311.090000,-0.036500
8085.492035,311.141000,5.120000
8090.759292,311.192000,8.114500
8095.921594,311.242000,1.184500
8101.185433,311.293000,2.064000
8106.447548,311.344000,0.669500
8111.604811,311.394000,1.078500
8116.863513,311.445000,-1.167000
8122.120493,311.496000,0.525500
8127.272724,311.546000,0.783000
8132.526297,311.597000,1.718500
8137.778150,311.648000,0.680000
8142.925357,311.698000,2.264500
8148.173807,311.749000,2.656000
8153.420541,311.800000,-0.250000
8158.562731,311.850000,-0.049500
8163.806066,311.901000,-0.450000
8168.944927,311.951000,-0.235500
8174.184869,312.002000,-0.468000
8179.320403,312.052000,-11.677500
8184.556953,312.103000,-20.984000
8189.689165,312.153000,-49.739500
8194.922327,312.204000,-48.229000
8200.051219,312.254000,-49.610500
8205.280996,312.305000,-49.523000
8210.406572,312.355000,-1.193000
8215.632968,312.406000,-2.100500
8220.755230,312.456000,-1.065000
8225.978248,312.507000,-1.866500
8231.097200,312.557000,1.873500
8236.316843,312.608000,-1.664500
8241.432488,312.658000,2.287000
8246.546497,312.708000,-0.535500
8251.761101,312.759000,-1.274500
8256.871808,312.809000,1.223000
8261.980881,312.859000,-0.768500
8267.190453,312.910000,1.329000
8272.296229,312.960000,-0.808500
8277.400373,313.010000,0.424500
8282.604921,313.061000,-0.144000
8287.705773,313.111000,-1.326000
8292.804996,313.161000,-1.031000
8298.004526,313.212000,-1.403000
8303.100462,313.262000,1.443500
8308.194770,313.312000,8.161500
8313.287453,313.362000,-2.331000
8318.480316,313.413000,-0.715000
8323.569717,313.463000,-2.059500
8328.657496,313.513000,-0.191000
8333.743651,313.563000,-0.484000
8338.828185,313.613000,0.659500
8344.012739,313.664000,1.748000
8349.094000,313.714000,-0.159000
8354.173640,313.764000,-1.760500
8359.251662,313.814000,0.995500
8364.328066,313.864000,3.297500
8369.402853,313.914000,2.178500
8374.476024,313.964000,3.243500
8379.547579,314.014000,0.358000
8384.718901,314.065000,0.897000
8389.787195,314.115000,-0.492500
8394.853876,314.165000,-2.765000
8399.918944,314.215000,-1.330000
8404.982400,314.265000,-1.126000
8410.044246,314.315000,-2.718000
8415.104481,314.365000,-0.797000
8420.163107,314.415000,-0.869000
8425.220124,314.465000,1.552500
8430.275533,314.515000,-0.167000
8435.329336,314.565000,-1.023500
8440.381532,314.615000,-2.550000
8445.432122,314.665000,-3.186000
8450.481107,314.715000,-10.081500
8455.528489,314.765000,-3.235500
8460.473367,314.814000,0.136500
8465.517575,314.864000,-0.001000
8470.560181,314.914000,2.951500
8475.601186,314.964000,1.204500
8480.640590,315.014000,-1.546500
8485.678395,315.064000,-1.666000
8490.714602,315.114000,-0.975500
8495.749210,315.164000,-2.868500
8500.681577,315.213000,-0.125000
8505.713024,315.263000,0.765500
8510.742875,315.313000,1.690500
8515.771131,315.363000,1.696000
8520.797793,315.413000,1.011500
8525.722375,315.462000,0.497500
8530.745883,315.512000,-0.122500
8535.767799,315.562000,3.364000
8540.788124,315.612000,-2.047500
8545.706499,315.661000,-0.525500
8550.723675,315.711000,1.089500
8555.739262,315.761000,7.620500
8560.652997,315.810000,1.831000
8565.665441,315.860000,-0.254500
8570.676298,315.910000,-2.182500
8575.585399,315.959000,-0.984500
8580.593116,316.009000,-2.028500
8585.599249,316.059000,-0.366000
8590.503723,316.108000,0.051500
8595.506721,316.158000,-0.930500
8600.508137,316.208000,0.075500
8605.407991,316.257000,-0.941500
8610.406276,316.307000,2.255500
8615.303063,316.356000,-2.693000
8620.298221,316.406000,-2.196000
8625.191944,316.455000,-0.660500
8630.183977,316.505000,-1.344000
8635.074640,316.554000,-4.746500
8640.063551,316.604000,-3.517500
8644.951156,316.653000,-4.531000
8649.936949,316.703000,-4.223000
8654.821499,316.752000,-1.006000
8659.804175,316.802000,-0.300000
8664.685673,316.851000,-0.081000
8669.665237,316.901000,0.447000
8674.543685,316.950000,3.414500
8679.520139,317.000000,1.065500
8684.395541,317.049000,-0.656500
8689.269436,317.098000,0.179000
8694.241247,317.148000,-3.021500
8699.112100,317.197000,-1.034500
8703.981448,317.246000,-1.934500
8708.948621,317.296000,1.672000
8713.814931,317.345000,6.235500
8718.779005,317.395000,2.544000
8723.642281,317.444000,-1.691500
8728.504055,317.493000,2.705000
8733.364329,317.542000,2.469000
8738.322247,317.592000,-17.397000
8743.179491,317.641000,-25.201500
8748.035237,317.690000,-13.991500
8752.889486,317.739000,-1.736000
8757.841258,317.789000,0.250500
8762.692483,317.838000,0.903500
8767.542212,317.887000,-0.467500
8772.390446,317.936000,-0.889500
8777.336084,317.986000,0.362000
8782.181300,318.035000,0.540000
8787.025024,318.084000,1.144500
8791.867255,318.133000,-0.645000
8796.707995,318.182000,1.480000
8801.547244,318.231000,4.977000
8806.385003,318.280000,0.936000
8811.319957,318.330000,0.876000
8816.154708,318.379000,1.146000
8820.987971,318.428000,2.049500
8825.819746,318.477000,2.218000
8830.650035,318.526000,-0.992500
8835.478838,318.575000,0.327000
8840.306156,318.624000,-0.041500
8845.131990,318.673000,-0.285500
8849.956339,318.722000,-0.601000
8854.779206,318.771000,0.569000
8859.600590,318.820000,-0.383000
8864.420492,318.869000,-2.385500
8869.238913,318.918000,0.495500
8874.055854,318.967000,-1.131500
8878.871314,319.016000,-0.296500
8883.685296,319.065000,-1.592000
8888.497800,319.114000,-0.937500
8893.308826,319.163000,0.232500
8898.118374,319.212000,0.081500
8902.926447,319.261000,2.181000
8907.634964,319.309000,-2.178500
8912.440116,319.358000,0.296000
8917.243794,319.407000,2.074000
8922.045998,319.456000,-0.645500
8926.846729,319.505000,0.200500
8931.645988,319.554000,-0.844500
8936.443775,319.603000,-1.823500
8941.142222,319.651000,-1.844500
8945.937098,319.700000,-2.447000
8950.730504,319.749000,-10.839500
8955.522441,319.798000,-1.891500
8960.215161,319.846000,-1.665500
8965.004192,319.895000,-15.199000
8969.791757,319.944000,-1.209500
8974.577855,319.993000,-0.381500
8979.264858,320.041000,1.094000
8984.048055,320.090000,1.058000
8988.829789,320.139000,1.424500
8993.512517,320.187000,-0.576500
8998.291355,320.236000,-0.800000
9003.068730,320.285000,-1.497500
9007.747190,320.333000,24.062000
9012.521672,320.382000,16.206000
9017.294694,320.431000,1.281500
9021.968893,320.479000,-0.895500
9026.739026,320.528000,0.221500
9031.410396,320.576000,-0.812500
9036.177644,320.625000,2.808000
9040.943434,320.674000,-0.000500
9045.610552,320.722000,4.538500
9050.373460,320.771000,6.347500
9055.037756,320.819000,-2.705000
9059.797784,320.868000,1.967500
9064.459261,320.916000,-3.665500
9069.216413,320.965000,6.884000
9073.875072,321.013000,12.728500
9078.629350,321.062000,2.480000
9083.285194,321.110000,1.033000
9088.036601,321.159000,0.719000
9092.689634,321.207000,-2.392000
9097.438171,321.256000,0.648000
9102.088394,321.304000,0.666000
9106.737229,321.352000,1.485500
9111.481482,321.401000,1.776500
9116.127511,321.449000,-0.875000
9120.868902,321.498000,-2.173000
9125.512128,321.546000,-2.893500
9130.153968,321.594000,-4.461500
9134.891085,321.643000,0.731000
9139.530126,321.691000,0.204500
9144.167783,321.739000,-0.163500
9148.900630,321.788000,0.396000
9153.535492,321.836000,0.042000
9158.168971,321.884000,3.478000
9162.801069,321.932000,-0.855000
9167.528244,321.981000,2.379000
9172.157551,322.029000,-1.140500
9176.785479,322.077000,-0.809000
9181.412027,322.125000,-1.614000
9186.133540,322.174000,1.452000
9190.757302,322.222000,-3.052500
9195.379688,322.270000,-2.156000
9200.000697,322.318000,-1.837500
9204.620330,322.366000,-1.788500
9209.334786,322.415000,0.713000
9213.951640,322.463000,0.589500
9218.567119,322.511000,-1.408000
9223.181225,322.559000,-2.003500
9227.793957,322.607000,-3.729500
9232.405318,322.655000,-2.745500
9237.015306,322.703000,-8.335000
9241.623923,322.751000,-1.816500
9246.231170,322.799000,1.704500
9250.932988,322.848000,-1.558500
9255.537466,322.896000,1.507000
9260.140576,322.944000,5.009500
9264.742318,322.992000,3.334000
9269.342693,323.040000,-1.698500
9273.941700,323.088000,-0.908000
9278.539341,323.136000,-0.079000
9283.135616,323.184000,-0.069500
9287.730527,323.232000,-1.244000
9292.324072,323.280000,-1.212500
9296.916254,323.328000,-2.059500
9301.411445,323.375000,0.514000
9306.000929,323.423000,-1.790500
9310.589052,323.471000,-0.886500
9315.175812,323.519000,0.573500
9319.761212,323.567000,-0.771000
9324.345252,323.615000,0.522500
9328.927932,323.663000,0.445000
9333.509253,323.711000,3.442500
9338.089216,323.759000,1.522000
9342.572447,323.806000,-2.328000
9347.149722,323.854000,-1.926000
9351.725642,323.902000,0.304500
9356.300205,323.950000,7.509500
9360.873412,323.998000,-0.445000
9365.350032,324.045000,0.367000
9369.920559,324.093000,1.713000
9374.489732,324.141000,-0.637000
9379.057552,324.189000,0.980000
9383.528899,324.236000,-0.589500
9388.094043,324.284000,0.455000
9392.657836,324.332000,0.082000
9397.125241,324.379000,-0.645500
9401.686361,324.427000,-0.638000
9406.246132,324.475000,1.030500
9410.804554,324.523000,1.450000
9415.266702,324.570000,-1.879000
9419.822456,324.618000,-1.190500
9424.281993,324.665000,0.147500
9428.835082,324.713000,1.818500
9433.386824,324.761000,-0.341000
9437.842435,324.808000,-3.272500
9442.391516,324.856000,0.123500
9446.844521,324.903000,-0.433000
9451.390942,324.951000,-3.456500
9455.936020,324.999000,-5.661000
9460.385108,325.046000,-10.840000
9464.927530,325.094000,0.450500
9469.374018,325.141000,4.717000
9473.913786,325.189000,3.494000
9478.357677,325.236000,4.827000
9482.894794,325.284000,8.632000
9487.336090,325.331000,1.759000
9491.870557,325.379000,2.482500
9496.309260,325.426000,2.826500
9500.746681,325.473000,1.237000
9505.277193,325.521000,-0.238000
9509.712024,325.568000,-0.252000
9514.239893,325.616000,-0.897000
9518.672137,325.663000,-0.572500
9523.103102,325.710000,0.305000
9527.627024,325.758000,-3.322500
9532.055405,325.805000,-0.344000
9536.576689,325.853000,1.740000
9541.002489,325.900000,-1.535500
9545.427013,325.947000,-1.102000
9549.850260,325.994000,2.182000
9554.366303,326.042000,1.162000
9558.786974,326.089000,-2.350000
9563.206371,326.136000,-1.649000
9567.718482,326.184000,0.304000
9572.135305,326.231000,2.186500
9576.550855,326.278000,1.568000
9580.965134,326.325000,2.853500
9585.472021,326.373000,0.749500
9589.883730,326.420000,7.157500
9594.294169,326.467000,3.409000
9598.703338,326.514000,4.184500
9603.111238,326.561000,1.480500
9607.611614,326.609000,3.650500
9612.016950,326.656000,15.953000
9616.421019,326.703000,4.233000
9620.823821,326.750000,4.645000
9625.225356,326.797000,0.307500
9629.625626,326.844000,-1.471500
9634.024630,326.891000,2.662000
9638.422369,326.938000,0.852500
9642.818845,326.985000,-3.517000
9647.214056,327.032000,-0.247000
9651.701479,327.080000,5.256000
9656.094138,327.127000,4.680000
9660.485535,327.174000,-0.720000
9664.875670,327.221000,-0.326500
9669.264544,327.268000,-1.231500
9673.652158,327.315000,1.885000
9678.038512,327.362000,4.886000
9682.423607,327.409000,0.285500
9686.807443,327.456000,-1.624500
9691.190021,327.503000,1.842000
9695.478134,327.549000,5.795500
9699.858224,327.596000,6.195000
9704.237057,327.643000,-2.673500
9708.614633,327.690000,-2.896500
9712.990955,327.737000,1.926000
9717.366021,327.784000,-3.455000
9721.739833,327.831000,0.849500
9726.112390,327.878000,-0.878000
9730.483695,327.925000,1.952000
9734.760780,327.971000,13.472000
9739.129606,328.018000,36.191500
9743.497180,328.065000,6.527000
9747.863503,328.112000,-0.001000
9752.228575,328.159000,-0.142000
9756.499562,328.205000,1.608000
9760.862161,328.252000,1.145500
9765.223511,328.299000,0.197500
9769.583612,328.346000,6.702000
9773.849737,328.392000,1.276500
9778.207369,328.439000,-0.722500
9782.563754,328.486000,2.705500
9786.918893,328.533000,0.429000
9791.180163,328.579000,1.245000
9795.532837,328.626000,-0.872000
9799.884266,328.673000,-2.744000
9804.141906,328.719000,0.481500
9808.490874,328.766000,0.681500
9812.838598,328.813000,1.003000
9817.092614,328.859000,0.160000
9821.437879,328.906000,0.335500
9825.689490,328.952000,0.974500
9830.032299,328.999000,1.988000
9834.373868,329.046000,-2.619500
9838.621862,329.092000,1.366000
9842.960977,329.139000,1.111000
9847.206571,329.185000,1.592000
9851.543235,329.232000,0.022500
9855.786431,329.278000,0.340500
9860.120646,329.325000,0.448500
9864.361446,329.371000,-1.614000
9868.693214,329.418000,0.861000
9872.931619,329.464000,-0.344500
9877.260942,329.511000,0.157000
9881.496956,329.557000,0.480500
9885.823836,329.604000,2.300000
9890.057460,329.650000,2.333500
9894.289903,329.696000,0.163000
9898.613135,329.743000,1.004500
9902.843191,329.789000,1.019500
9907.163985,329.836000,1.823500
9911.391656,329.882000,2.412000
9915.618148,329.928000,1.982000
9919.935303,329.975000,2.150500
9924.159413,330.021000,1.660500
9928.382346,330.067000,1.516000
9932.695866,330.114000,2.805500
9936.916419,330.160000,0.021500
9941.135797,330.206000,0.530000
9945.445687,330.253000,1.573500
9949.662689,330.299000,4.212500
9953.878516,330.345000,7.170000
9958.093170,330.391000,1.990000
9962.398234,330.438000,0.969000
9966.610516,330.484000,1.605500
9970.821625,330.530000,0.930500
9975.031562,330.576000,0.457500
9979.240328,330.622000,-1.758000
9983.539380,330.669000,-8.662000
9987.745778,330.715000,-4.454500
9991.951007,330.761000,-3.101500
9996.155067,330.807000,5.674500
10000.357957,330.853000,-1.138000
10004.559679,330.899000,-1.710500
10008.760233,330.945000,-4.174000
10013.050897,330.992000,-22.778500
10017.249091,331.038000,-5.768500
10021.446118,331.084000,-0.276000
10025.641979,331.130000,0.699000
10029.836675,331.176000,0.345000
10034.030205,331.222000,1.445000
10038.222571,331.268000,-2.720000
10042.413773,331.314000,2.393000
10046.603811,331.360000,8.053500
10050.792686,331.406000,12.308000
10054.980398,331.452000,17.684500
10059.166948,331.498000,1.888000
10063.352336,331.544000,1.309000
10067.536563,331.590000,1.458500
10071.719629,331.636000,-5.490000
10075.901535,331.682000,-6.634000
10080.082281,331.728000,-4.717500
10084.261868,331.774000,-7.055500
10088.440296,331.820000,-5.861000
10092.526768,331.865000,6.174500
10096.702905,331.911000,15.423000
10100.877884,331.957000,9.150000
10105.051707,332.003000,-0.632000
10109.224373,332.049000,-1.847000
10113.395884,332.095000,0.710500
10117.475591,332.140000,0.898500
10121.644816,332.186000,-1.361000
10125.812886,332.232000,0.761500
10129.979802,332.278000,0.032500
10134.145565,332.324000,-0.795500
10138.219652,332.369000,2.502500
10142.383134,332.415000,-1.787000
10146.545464,332.461000,-1.545500
10150.706643,332.507000,9.197500
10154.776247,332.552000,0.701000
10158.935148,332.598000,-2.844000
10163.092900,332.644000,0.008500
10167.159152,332.689000,-1.209000
10171.314630,332.735000,-1.313000
10175.468958,332.781000,0.518500
10179.531864,332.826000,1.561000
10183.683921,332.872000,1.925000
10187.834831,332.918000,-5.523000
10191.894393,332.963000,-7.278500
10196.043035,333.009000,-4.944500
10200.190530,333.055000,-5.032000
10204.246754,333.100000,-1.065500
10208.391984,333.146000,-0.141000
10212.445992,333.191000,0.120500
10216.588958,333.237000,0.131000
10220.640753,333.282000,-1.481500
10224.781457,333.328000,-3.907000
10228.831039,333.373000,-3.450000
10232.969483,333.419000,1.324000
10237.016856,333.464000,1.872500
10241.153042,333.510000,0.634500
10245.198206,333.555000,-1.295500
10249.332135,333.601000,-10.905500
10253.375094,333.646000,14.069500
10257.506768,333.692000,3.753000
10261.547522,333.737000,1.673000
10265.587186,333.782000,0.105000
10269.715494,333.828000,5.168000
10273.752956,333.873000,5.251000
10277.879015,333.919000,5.873000
10281.914277,333.964000,9.943500
10285.948452,334.009000,-0.324000
10290.071151,334.055000,0.558000
10294.103128,334.100000,-0.352500
10298.134020,334.145000,-0.850000
10302.253364,334.191000,0.790000
10306.282060,334.236000,-0.608000
10310.309672,334.281000,1.654000
10314.425666,334.327000,6.133000
10318.451085,334.372000,-0.814500
10322.475422,334.417000,-0.775500
10326.498675,334.462000,0.066000
10330.610215,334.508000,-0.556000
10334.631280,334.553000,0.810000
10338.651263,334.598000,-2.211500
10342.670165,334.643000,-3.265500
10346.687987,334.688000,-1.460000
10350.704728,334.733000,0.150500
10354.809614,334.779000,-3.629000
10358.824172,334.824000,-30.385000
10362.837651,334.869000,-10.427500
10366.850051,334.914000,-1.034000
10370.861373,334.959000,2.235000
10374.871618,335.004000,0.922000
10378.880786,335.049000,0.149000
10382.888876,335.094000,0.487000
10386.984923,335.140000,-0.814000
10390.990838,335.185000,0.422500
10394.995677,335.230000,-4.318000
10398.999440,335.275000,-47.291500
10403.002130,335.320000,-10.506500
10407.003745,335.365000,-3.886000
10411.004286,335.410000,-0.530000
10415.003755,335.455000,-3.171500
10419.002150,335.500000,-2.337000
10422.999473,335.545000,1.967500
10426.995723,335.590000,-0.382000
10430.990902,335.635000,2.228500
10434.985010,335.680000,1.358000
10438.889325,335.724000,2.491500
10442.881316,335.769000,1.241000
10446.872237,335.814000,-0.623500
10450.862088,335.859000,-1.053000
10454.850871,335.904000,-0.437500
10458.838585,335.949000,-1.036500
10462.825230,335.994000,-1.098000
10466.810808,336.039000,0.588500
10470.706786,336.083000,0.000000
10474.690253,336.128000,0.054000
10478.672654,336.173000,-0.346000
10482.653989,336.218000,-1.593500
10486.634259,336.263000,1.751500
10490.525048,336.307000,2.491500
10494.503211,336.352000,2.625000
10498.480310,336.397000,-0.030000
10502.456345,336.442000,-1.580500
10506.342995,336.486000,-7.126500
10510.316927,336.531000,0.965000
10514.289797,336.576000,1.696000
10518.261604,336.621000,-4.027500
10522.144122,336.665000,3.977500
10526.113830,336.710000,0.783000
10530.082477,336.755000,0.240000
10533.961906,336.799000,-0.887500
10537.928455,336.844000,2.310000
10541.893946,336.889000,1.491500
10545.770289,336.933000,5.061500
10549.733685,336.978000,3.122500
10553.607982,337.022000,4.340500
10557.569284,337.067000,33.024500
10561.529529,337.112000,6.750500
10565.400747,337.156000,-33.440500
10569.358902,337.201000,-40.532500
10573.228076,337.245000,-5.606000
10577.184142,337.290000,15.214500
10581.051275,337.334000,2.283000
10585.005254,337.379000,-6.530000
10588.870347,337.423000,-0.102000
10592.822240,337.468000,-0.969000
10596.685295,337.512000,2.286500
10600.635105,337.557000,0.538000
10604.496123,337.601000,-2.575000
10608.443850,337.646000,-6.424000
10612.302834,337.690000,-0.025000
10616.160811,337.734000,8.379000
10620.105430,337.779000,3.890000
10623.961375,337.823000,3.131000
10627.903916,337.868000,3.585000
10631.757830,337.912000,8.628000
10635.610740,337.956000,4.655000
10639.550179,338.001000,6.363500
10643.401061,338.045000,7.127000
10647.250940,338.089000,8.784500
10651.187281,338.134000,5.392500
10655.035134,338.178000,6.676500
10658.881986,338.222000,2.075500
10662.815231,338.267000,2.705500
10666.660059,338.311000,8.429000
10670.503887,338.355000,7.021500
10674.346716,338.399000,6.240000
10678.275848,338.444000,6.434500
10682.116656,338.488000,9.352000
10685.956465,338.532000,7.202500
10689.795276,338.576000,7.505000
10693.633090,338.620000,15.826000
10697.557096,338.665000,3.516500
10701.392893,338.709000,7.373500
10705.227693,338.753000,9.172000
10709.061498,338.797000,10.618500
10712.894307,338.841000,7.463000
10716.726120,338.885000,6.913500
10720.556939,338.929000,10.330500
10724.386763,338.973000,10.103500
10728.302601,339.018000,7.528000
10732.130414,339.062000,6.294000
10735.957235,339.106000,10.947000
10739.783062,339.150000,6.716000
10743.607897,339.194000,7.846500
10747.431740,339.238000,5.539500
10751.254591,339.282000,12.805500
10755.076450,339.326000,4.627500
10758.897319,339.370000,8.072000
10762.717197,339.414000,7.234000
10766.536084,339.458000,4.796000
10770.353982,339.502000,4.223500
10774.170890,339.546000,0.975000
10777.986809,339.590000,6.774000
10781.801740,339.634000,8.107500
10785.615682,339.678000,7.304000
10789.341989,339.721000,5.235000
10793.153978,339.765000,6.182500
10796.964980,339.809000,3.530000
10800.774995,339.853000,1.567500
10804.584024,339.897000,5.594000
10808.392066,339.941000,3.903500
10812.199123,339.985000,9.244500
10816.005195,340.029000,17.505500
10819.723813,340.072000,10.237500
10823.527938,340.116000,7.962500
10827.331078,340.160000,7.647500
10831.133235,340.204000,7.361500
10834.848029,340.247000,7.754000
10838.648242,340.291000,8.324000
10842.447472,340.335000,-5.714500
10846.245720,340.379000,7.180000
10849.956695,340.422000,7.681500
10853.753002,340.466000,7.841500
10857.548328,340.510000,8.672000
10861.342673,340.554000,9.368000
10865.049836,340.597000,9.005500
10868.842243,340.641000,8.781500
10872.633670,340.685000,8.527000
10876.337983,340.728000,10.232000
10880.127474,340.772000,9.772000
10883.829896,340.815000,6.914000
10887.617453,340.859000,8.302500
10891.404033,340.903000,7.007000
10895.103609,340.946000,7.633500
10898.888257,340.990000,6.781500
10902.585946,341.033000,9.859000
10906.368663,341.077000,7.869500
10910.150404,341.121000,7.824500
10913.845254,341.164000,9.068000
10917.625066,341.208000,6.957500
10921.318033,341.251000,3.281000
10925.095918,341.295000,4.020000
10928.787002,341.338000,8.661500
10932.562962,341.382000,7.251000
10936.252165,341.425000,6.213000
10939.940439,341.468000,6.936500
10943.713524,341.512000,6.587500
10947.399919,341.555000,5.719000
10951.171083,341.599000,6.498500
10954.855601,341.642000,7.089000
10958.624845,341.686000,7.759500
10962.307486,341.729000,10.452500
10965.989201,341.772000,8.295000
10969.755578,341.816000,7.948000
10973.435419,341.859000,-18.384000
10977.114334,341.902000,7.475500
10980.877848,341.946000,9.552000
10984.554892,341.989000,9.175000
10988.231011,342.032000,7.340000
10991.991665,342.076000,7.585500
10995.665914,342.119000,5.081500
10999.339240,342.162000,-6.909000
11003.011643,342.205000,7.077500
11006.768496,342.249000,8.083500
11010.439032,342.292000,10.088000
11014.108646,342.335000,8.329000
11017.777338,342.378000,8.510000
11021.530396,342.422000,11.006500
11025.197224,342.465000,4.405000
11028.863132,342.508000,8.763500
11032.528119,342.551000,11.141000
11036.192187,342.594000,4.412000
11039.855335,342.637000,6.013500
11043.602720,342.681000,3.193000
11047.264009,342.724000,4.824000
11050.924378,342.767000,7.404000
11054.583829,342.810000,9.689000
11058.242363,342.853000,8.065500
11061.899979,342.896000,6.891000
11065.556677,342.939000,7.783500
11069.212459,342.982000,8.012000
11072.867324,343.025000,7.778500
11076.521273,343.068000,7.954000
11080.174306,343.111000,4.117500
11083.826423,343.154000,6.048000
11087.477626,343.197000,6.673500
11091.127913,343.240000,7.681000
11094.777286,343.283000,5.370000
11098.425745,343.326000,5.825500
11102.073291,343.369000,4.548500
11105.719922,343.412000,7.509500
11109.365641,343.455000,7.812000
11113.010447,343.498000,6.197500
11116.654340,343.541000,6.479000
11120.297322,343.584000,7.340500
11123.939391,343.627000,7.435500
11127.580549,343.670000,5.739500
11131.220797,343.713000,8.108500
11134.775508,343.755000,5.995000
11138.413955,343.798000,2.607500
11142.051492,343.841000,-2.824500
11145.688120,343.884000,6.320500
11149.323838,343.927000,9.034500
11152.958647,343.970000,8.416500
11156.508049,344.012000,8.902000
11160.141062,344.055000,9.004000
11163.773167,344.098000,9.068000
11167.404365,344.141000,9.563500
11170.950240,344.183000,8.259500
11174.579645,344.226000,11.154000
11178.208143,344.269000,5.001500
11181.751382,344.311000,5.312000
11185.378088,344.354000,8.672000
11189.003889,344.397000,30.501500
11192.628785,344.440000,9.426500
11196.168507,344.482000,-0.477000
11199.791614,344.525000,5.003500
11203.413817,344.568000,7.520000
11206.950910,344.610000,9.143500
11210.571327,344.653000,7.069500
11214.106675,344.695000,8.924000
11217.725306,344.738000,8.238000
11221.343035,344.781000,7.937500
11224.875759,344.823000,7.763500
11228.491704,344.866000,11.943000
11232.022687,344.908000,15.165000
11235.636851,344.951000,6.868000
11239.166094,344.993000,8.176000
11242.778477,345.036000,9.424500
11246.305982,345.078000,5.321000
11249.916585,345.121000,6.340500
11253.442353,345.163000,7.313500
11257.051178,345.206000,6.489500
11260.575210,345.248000,5.629000
11264.182259,345.291000,8.698500
11267.704555,345.333000,6.054500
11271.309829,345.376000,9.611000
11274.830392,345.418000,8.471500
11278.350100,345.460000,8.730000
11281.952723,345.503000,6.962500
11285.470699,345.545000,5.760500
11288.987820,345.587000,7.358000
11292.587796,345.630000,7.234500
11296.103187,345.672000,5.828000
11299.701393,345.715000,5.115000
11303.215056,345.757000,10.846000
11306.727865,345.799000,0.432000
11310.239821,345.841000,10.958000
11313.834512,345.884000,24.944500
11317.344742,345.926000,10.413000
11320.854120,345.968000,7.110500
11324.446172,346.011000,8.129000
11327.953826,346.053000,6.802500
11331.460629,346.095000,9.179000
11334.966581,346.137000,7.265000
11338.471682,346.179000,7.072000
11342.059357,346.222000,7.215500
11345.562737,346.264000,10.797500
11349.065268,346.306000,9.747500
11352.566949,346.348000,8.008500
11356.067781,346.390000,7.498000
11359.567764,346.432000,8.409000
11363.150201,346.475000,7.886000
11366.648467,346.517000,6.415000
11370.145885,346.559000,9.266000
11373.642456,346.601000,8.284500
11377.138179,346.643000,8.131000
11380.633055,346.685000,10.117000
11384.127085,346.727000,10.224500
11387.620268,346.769000,16.559500
11391.112605,346.811000,8.227000
11394.604096,346.853000,8.542500
11398.094742,346.895000,6.742500
11401.584543,346.937000,6.897000
11405.073499,346.979000,11.322500
11408.561610,347.021000,6.586000
11412.048877,347.063000,9.841000
11415.535301,347.105000,8.520000
11419.020880,347.147000,7.301500
11422.505617,347.189000,9.288500
11425.989510,347.231000,6.205500
11429.472560,347.273000,7.069500
11432.954769,347.315000,6.653500
11436.436135,347.357000,7.984500
11439.916659,347.399000,8.937500
11443.313502,347.440000,7.734000
11446.792364,347.482000,7.620500
11450.270384,347.524000,6.157500
11453.747565,347.566000,8.237000
11457.223905,347.608000,7.618000
11460.699405,347.650000,10.009000
11464.091345,347.691000,9.349500
11467.565186,347.733000,8.122500
11471.038188,347.775000,6.076500
11474.510351,347.817000,5.932000
11477.981676,347.859000,8.712000
11481.369541,347.900000,8.439000
11484.839210,347.942000,8.538500
11488.308041,347.984000,8.274000
11491.693473,348.025000,8.566500
11495.160650,348.067000,7.828000
11498.626991,348.109000,8.293000
11502.092494,348.151000,7.265000
11505.474680,348.192000,6.440500
11508.938532,348.234000,7.933500
11512.401549,348.276000,7.074000
11515.781307,348.317000,3.547000
11519.242673,348.359000,6.747000
11522.620821,348.400000,9.591000
11526.080539,348.442000,5.768000
11529.539422,348.484000,6.377500
11532.915148,348.525000,3.295500
11536.372384,348.567000,7.955000
11539.746502,348.608000,9.251000
11543.202092,348.650000,10.585000
11546.574604,348.691000,9.298500
11550.028550,348.733000,7.407500
11553.399456,348.774000,5.772500
11556.851758,348.816000,4.634000
11560.221061,348.857000,2.947000
11563.671720,348.899000,2.756500
11567.039420,348.940000,3.108500
11570.488439,348.982000,8.581000
11573.854537,349.023000,9.745500
11577.301915,349.065000,9.195000
11580.666413,349.106000,8.140000
11584.030120,349.147000,7.534000
11587.475051,349.189000,9.236000
11590.837159,349.230000,14.542500
11594.280452,349.272000,9.903000
11597.640963,349.313000,13.010500
11601.000686,349.354000,12.945000
11604.441535,349.396000,9.066000
11607.799661,349.437000,6.835000
11611.157000,349.478000,9.018500
11614.595408,349.520000,10.483000
11617.951152,349.561000,18.749500
11621.306109,349.602000,9.541500
11624.660280,349.643000,7.831500
11628.095443,349.685000,6.560000
11631.448022,349.726000,22.073500
11634.799814,349.767000,10.933500
11638.150821,349.808000,7.129000
11641.582745,349.850000,2.804000
11644.932162,349.891000,6.201500
11648.280794,349.932000,7.295500
11651.628641,349.973000,5.645500
11654.975704,350.014000,26.954000
11658.403590,350.056000,17.933000
11661.749066,350.097000,8.926000
11665.093759,350.138000,7.599500
11668.437668,350.179000,8.214500
11671.780795,350.220000,9.095500
11675.123139,350.261000,5.268500
11678.464700,350.302000,7.123500
11681.805480,350.343000,6.323000
11685.145477,350.384000,9.029500
11688.484693,350.425000,5.997000
11691.904543,350.467000,8.693500
11695.242178,350.508000,6.727500
11698.579032,350.549000,-10.171000
11701.915105,350.590000,7.861000
11705.250398,350.631000,20.322000
11708.584912,350.672000,13.706000
11711.918645,350.713000,10.996500
11715.251600,350.754000,14.040500
11718.502512,350.794000,10.020000
11721.833927,350.835000,8.033000
11725.164564,350.876000,7.065500
11728.494422,350.917000,7.643500
11731.823503,350.958000,8.416000
11735.151806,350.999000,9.606000
11738.479331,351.040000,9.908500
11741.806079,351.081000,6.606500
11745.132050,351.122000,7.785500
11748.457245,351.163000,5.812000
11751.700589,351.203000,7.357500
11755.024250,351.244000,9.069500
11758.347135,351.285000,-0.988000
11761.669245,351.326000,6.930500
11764.990579,351.367000,12.096000
11768.230159,351.407000,9.268500
11771.549962,351.448000,8.796500
11774.868991,351.489000,8.655500
11778.187246,351.530000,9.331000
11781.423822,351.570000,11.068000
11784.740548,351.611000,5.788500
11788.056500,351.652000,11.268500
11791.371680,351.693000,6.631000
11794.605256,351.733000,7.782500
11797.918909,351.774000,9.279500
11801.231790,351.815000,17.936000
11804.463124,351.855000,10.261500
11807.774479,351.896000,10.549500
11811.085063,351.937000,14.281500
11814.314158,351.977000,11.888000
11817.623218,352.018000,13.469000
11820.850827,352.058000,8.490000
11824.158365,352.099000,8.498000
11827.465133,352.140000,6.544000
11830.690506,352.180000,5.232500
11833.995753,352.221000,8.631000
11837.219643,352.261000,5.463000
11840.523370,352.302000,6.510500
11843.745778,352.342000,7.134500
11847.047986,352.383000,9.291500
11850.268913,352.423000,16.190500
11853.569603,352.464000,6.950000
11856.789050,352.504000,12.891000
11860.088224,352.545000,6.129500
11863.306191,352.585000,4.416500
11866.603850,352.626000,7.316000
11869.820339,352.666000,5.424500
11873.116483,352.707000,4.577500
11876.331495,352.747000,7.588000
11879.545777,352.787000,9.238500
11882.839661,352.828000,12.671000
11886.052468,352.868000,8.076500
11889.264547,352.908000,8.440500
11892.556173,352.949000,7.830000
11895.766777,352.989000,8.145000
11899.056892,353.030000,7.636500
11902.266024,353.070000,5.446000
11905.474429,353.110000,5.889500
11908.682107,353.150000,7.420500
11911.969223,353.191000,7.765500
11915.175430,353.231000,6.882500
11918.380911,353.271000,6.192000
11921.665775,353.312000,7.419500
11924.869787,353.352000,15.144500
11928.073073,353.392000,18.627500
11931.275634,353.432000,7.892000
11934.477470,353.472000,5.781000
11937.758600,353.513000,3.527000
11940.958969,353.553000,8.536500
11944.158614,353.593000,7.742000
11947.357536,353.633000,8.069000
11950.555733,353.673000,7.792500
11953.753208,353.713000,8.674500
11957.029868,353.754000,8.797000
11960.225879,353.794000,7.725000
11963.421166,353.834000,5.723000
11966.615732,353.874000,8.186000
11969.809575,353.914000,6.592500
11973.002696,353.954000,5.869500
11976.195096,353.994000,7.918000
11979.386774,354.034000,6.931500
11982.577731,354.074000,7.526000
11985.767968,354.114000,4.925000
11988.957483,354.154000,6.652500
11992.146279,354.194000,4.476000
11995.334354,354.234000,6.336500
11998.521709,354.274000,6.284000
12001.708345,354.314000,7.082000
12004.894261,354.354000,7.379500
12008.079458,354.394000,7.400000
12011.263936,354.434000,8.780500
12014.447695,354.474000,8.275500
12017.630736,354.514000,6.697000
12020.813059,354.554000,7.085000
12023.994663,354.594000,6.853500
12027.175550,354.634000,9.270000
12030.276224,354.673000,6.119500
12033.455694,354.713000,6.511500
12036.634448,354.753000,3.802000
12039.812484,354.793000,7.355000
12042.989804,354.833000,8.573000
12046.166408,354.873000,5.633000
12049.262907,354.912000,-0.265500
12052.438097,354.952000,5.658000
12055.612571,354.992000,3.262500
12058.786330,355.032000,3.525500
12061.880056,355.071000,4.471500
12065.052403,355.111000,4.160000
12068.224035,355.151000,3.022000
12071.394953,355.191000,4.546000
12074.485910,355.230000,2.322500
12077.655418,355.270000,4.085000
12080.824212,355.310000,3.317000
12083.913100,355.349000,0.733000
12087.080485,355.389000,-0.134000
12090.247158,355.429000,1.645500
12093.333977,355.468000,0.161500
12096.499242,355.508000,-0.382000
12099.663795,355.548000,-0.111500
12102.748549,355.587000,0.835000
12105.911696,355.627000,-0.472000
12108.995079,355.666000,-0.757000
12112.156822,355.706000,-0.398500
12115.317853,355.746000,0.424000
12118.399174,355.785000,-0.207500
12121.558801,355.825000,-0.423000
12124.638754,355.864000,-0.925500
12127.796979,355.904000,1.146000
12130.875565,355.943000,-1.308000
12134.032389,355.983000,0.587000
12137.109608,356.022000,-0.339000
12140.265031,356.062000,-0.095000
12143.340885,356.101000,-0.423500
12146.494908,356.141000,-0.596500
12149.569398,356.180000,-0.517500
12152.643215,356.219000,-0.486000
12155.795149,356.259000,-0.338000
12158.867603,356.298000,0.715500
12162.018139,356.338000,-0.058000
12165.089231,356.377000,-0.068500
12168.159651,356.416000,-0.435500
12171.308101,356.456000,-0.393500
12174.377160,356.495000,-0.450500
12177.445548,356.534000,-0.163500
12180.591915,356.574000,0.015000
12183.658943,356.613000,-1.072500
12186.725300,356.652000,0.064000
12189.869585,356.692000,0.269000
12192.934585,356.731000,0.030000
12195.998914,356.770000,0.149000
12199.062573,356.809000,-0.855000
12202.204093,356.849000,0.363500
12205.266396,356.888000,-0.066000
12208.328030,356.927000,0.130000
12211.388995,356.966000,-0.709000
12214.527751,357.006000,-0.639000
12217.587361,357.045000,-0.106500
12220.646304,357.084000,-0.034000
12223.704578,357.123000,-0.244500
12226.762184,357.162000,0.183000
12229.819122,357.201000,0.130500
12232.953750,357.241000,0.211000
12236.009337,357.280000,0.808500
12239.064257,357.319000,-0.018500
12242.118510,357.358000,-0.585000
12245.172096,357.397000,0.373500
12248.225016,357.436000,-0.225000
