raman_shift_cm-1,wavelength_nm,intensity
-311.444523,246.690000,0.000000
-300.766377,246.755000,0.000000
-290.093855,246.820000,-43.934500
-279.262891,246.886000,-78.263000
-268.601691,246.951000,-27.631000
-257.946101,247.016000,-62.449500
-247.296118,247.081000,-62.467000
-236.651737,247.146000,-40.649500
-226.012953,247.211000,-59.488000
-215.216219,247.277000,-29.209500
-204.588703,247.342000,-42.972000
-193.966771,247.407000,-44.522000
-183.350419,247.472000,-55.299500
-172.739643,247.537000,-53.862500
-162.134437,247.602000,-58.510000
-151.534799,247.667000,-53.828500
-140.940722,247.732000,-53.537000
-130.352203,247.797000,-43.015500
-119.769238,247.862000,-56.204500
-109.191822,247.927000,-33.976500
-98.619951,247.992000,-40.733500
-88.053621,248.057000,-53.148000
-77.655258,248.121000,-32.342500
-67.099910,248.186000,-60.733500
-56.550089,248.251000,-58.916500
-46.005792,248.316000,-32.622500
-35.467013,248.381000,-78.639000
-24.933749,248.446000,-44.075000
-14.405995,248.511000,-36.153500
-4.045586,248.575000,-26.339000
6.471245,248.640000,-82.717500
16.982580,248.705000,-43.807000
27.488421,248.770000,-47.189000
37.827271,248.834000,-50.157000
48.322224,248.899000,-42.291500
58.811696,248.964000,-44.234000
69.134442,249.028000,-60.501000
79.613052,249.093000,-45.072500
90.086194,249.158000,-49.993500
100.392873,249.222000,-56.270500
110.855177,249.287000,-51.122000
121.312027,249.352000,-61.592000
131.602677,249.416000,-51.517000
142.048715,249.481000,-49.049500
152.328727,249.545000,-60.857000
162.763968,249.610000,-52.050500
173.033359,249.674000,-52.428000
183.457821,249.739000,-92.043000
193.716607,249.803000,-71.540000
204.130307,249.868000,-24.328500
214.378504,249.932000,-7.825500
224.781458,249.997000,0.632000
235.019083,250.061000,1.159000
245.411309,250.126000,0.671500
255.638378,250.190000,0.363000
265.860216,250.254000,0.560500
276.236420,250.319000,0.341500
286.447727,250.383000,1.103000
296.813243,250.448000,0.492000
307.014035,250.512000,-0.047500
317.209616,250.576000,-0.179000
327.399990,250.640000,1.188500
337.744263,250.705000,2.250000
347.924154,250.769000,0.085500
358.098850,250.833000,3.159000
368.268355,250.897000,2.254500
378.591450,250.962000,0.341000
388.750505,251.026000,0.107500
398.904381,251.090000,1.011000
409.053082,251.154000,0.087000
419.196612,251.218000,1.060000
429.334975,251.282000,0.220000
439.626466,251.347000,0.622000
449.754426,251.411000,1.539000
459.877231,251.475000,1.865000
469.994885,251.539000,1.545500
480.107392,251.603000,2.385000
490.214756,251.667000,3.111500
500.316980,251.731000,4.356500
510.414069,251.795000,3.869500
520.506026,251.859000,4.669000
530.592855,251.923000,4.171500
540.674561,251.987000,3.767500
550.751147,252.051000,4.327000
560.822617,252.115000,-0.073500
570.888975,252.179000,4.560500
580.950225,252.243000,2.865500
590.849282,252.306000,4.014000
600.900407,252.370000,4.223000
610.946435,252.434000,3.902000
620.987371,252.498000,5.670000
631.023218,252.562000,11.161000
641.053980,252.626000,15.655000
650.923048,252.689000,22.054500
660.943731,252.753000,16.461500
670.959341,252.817000,11.072500
680.969880,252.881000,6.844500
690.819058,252.944000,8.183500
700.819549,253.008000,6.235000
710.814983,253.072000,6.753500
720.805362,253.136000,5.687500
730.634708,253.199000,4.858000
740.615069,253.263000,5.597500
750.434561,253.326000,6.375000
760.404919,253.390000,5.583500
770.370241,253.454000,4.831500
780.174941,253.517000,6.610500
790.130283,253.581000,7.316500
799.925166,253.644000,7.578500
809.870542,253.708000,6.608500
819.655623,253.771000,7.763500
829.591048,253.835000,7.058500
839.366341,253.898000,6.175500
849.291831,253.962000,6.906000
859.057350,254.025000,5.786000
868.972920,254.089000,1.875500
878.728681,254.152000,-3.103500
888.634344,254.216000,4.218000
898.380361,254.279000,5.729500
908.121550,254.342000,5.416000
918.012421,254.406000,6.894500
927.743888,254.469000,5.659000
937.470538,254.532000,7.226500
947.346650,254.596000,7.470500
957.063600,254.659000,7.456000
966.775743,254.722000,4.932000
976.637128,254.786000,6.408500
986.339593,254.849000,8.042000
996.037261,254.912000,8.429000
1005.730138,254.975000,9.044000
1015.571966,255.039000,8.663500
1025.255192,255.102000,7.335500
1034.933637,255.165000,5.466500
1044.607304,255.228000,5.743000
1054.276196,255.291000,5.943000
1063.940318,255.354000,5.013000
1073.599672,255.417000,6.526500
1083.407471,255.481000,6.361000
1093.057225,255.544000,6.306500
1102.702223,255.607000,5.592500
1112.342467,255.670000,3.522500
1121.977961,255.733000,5.025500
1131.608710,255.796000,4.924500
1141.234715,255.859000,4.211500
1150.855981,255.922000,3.076500
1160.472512,255.985000,3.646000
1170.084310,256.048000,3.996500
1179.691379,256.111000,4.827000
1189.293724,256.174000,3.372000
1198.739040,256.236000,4.069500
1208.332019,256.299000,4.309500
1217.920283,256.362000,4.547000
1227.503835,256.425000,3.667000
1237.082680,256.488000,4.235500
1246.656820,256.551000,5.989500
1256.226260,256.614000,4.663000
1265.639217,256.676000,3.691500
1275.199339,256.739000,4.469000
1284.754770,256.802000,3.818500
1294.305515,256.865000,3.402000
1303.700087,256.927000,-20.725000
1313.241541,256.990000,1.551000
1322.778319,257.053000,5.244500
1332.310423,257.116000,4.964000
1341.686664,257.178000,5.133500
1351.209505,257.241000,5.331000
1360.727683,257.304000,5.775000
1370.090229,257.366000,5.768500
1379.599165,257.429000,6.939000
1388.952622,257.491000,5.839500
1398.452329,257.554000,5.962500
1407.796710,257.616000,5.478500
1417.287202,257.679000,7.549500
1426.773053,257.742000,5.877500
1436.103810,257.804000,5.826500
1445.580466,257.867000,6.263500
1454.902179,257.929000,7.697000
1464.369654,257.992000,7.004000
1473.682337,258.054000,4.709000
1482.990547,258.116000,6.135000
1492.444310,258.179000,6.244500
1501.743510,258.241000,6.028500
1511.188124,258.304000,6.898500
1520.478327,258.366000,7.452500
1529.764072,258.428000,5.492000
1539.195025,258.491000,6.674500
1548.471792,258.553000,6.747500
1557.744112,258.615000,8.107500
1567.161432,258.678000,8.065500
1576.424794,258.740000,5.510500
1585.683718,258.802000,7.916000
1594.938206,258.864000,11.328500
1604.337420,258.927000,10.993000
1613.582976,258.989000,8.886500
1622.824106,259.051000,7.997500
1632.060814,259.113000,8.869500
1641.293103,259.175000,6.980500
1650.669776,259.238000,5.706000
1659.893165,259.300000,5.754500
1669.112144,259.362000,4.587000
1678.326716,259.424000,5.202000
1687.536886,259.486000,5.003000
1696.742655,259.548000,3.364000
1705.944027,259.610000,4.560000
1715.141005,259.672000,4.130500
1724.333592,259.734000,4.132000
1733.521792,259.796000,4.245000
1742.705607,259.858000,3.994000
1751.885041,259.920000,3.910500
1761.060096,259.982000,3.802500
1770.230777,260.044000,4.276500
1779.397086,260.106000,3.911000
1788.559026,260.168000,4.237000
1797.716600,260.230000,2.855000
1806.869812,260.292000,4.317500
1816.018664,260.354000,4.140500
1825.163160,260.416000,3.288500
1834.155916,260.477000,4.384000
1843.291778,260.539000,3.612500
1852.423294,260.601000,2.410000
1861.550466,260.663000,1.878000
1870.673297,260.725000,3.595500
1879.644752,260.786000,3.464500
1888.758980,260.848000,3.633000
1897.868877,260.910000,3.774000
1906.974445,260.972000,3.748500
1915.928928,261.033000,3.529500
1925.025918,261.095000,4.019000
1934.118588,261.157000,1.100500
1943.060391,261.218000,1.970000
1952.144502,261.280000,4.369000
1961.224302,261.342000,2.924500
1970.153451,261.403000,3.202000
1979.224710,261.465000,3.268500
1988.145460,261.526000,4.008500
1997.208190,261.588000,3.514000
2006.120554,261.649000,3.912500
2015.174766,261.711000,4.261000
2024.078756,261.772000,5.534000
2033.124461,261.834000,3.657500
2042.020089,261.895000,4.387000
2051.057301,261.957000,2.573000
2059.944578,262.018000,2.623500
2068.973308,262.080000,3.177500
2077.852245,262.141000,4.269500
2086.872506,262.203000,3.902000
2095.743116,262.264000,5.574500
2104.609601,262.325000,3.535000
2113.617214,262.387000,-7.753000
2122.475388,262.448000,0.927500
2131.329447,262.509000,2.491000
2140.324438,262.571000,3.633500
2149.170203,262.632000,4.401000
2158.011861,262.693000,3.591000
2166.994257,262.755000,3.845500
2175.827640,262.816000,3.679000
2184.656923,262.877000,4.041500
2193.482109,262.938000,2.057500
2202.303202,262.999000,2.979000
2211.264711,263.061000,3.085500
2220.077557,263.122000,3.251500
2228.886318,263.183000,4.277000
2237.690997,263.244000,3.874000
2246.491597,263.305000,4.248500
2255.288119,263.366000,4.008500
2264.080568,263.427000,3.711000
2272.868945,263.488000,3.310000
2281.653255,263.549000,2.933500
2290.577403,263.611000,2.937500
2299.353518,263.672000,3.290500
2308.125573,263.733000,2.946500
2316.893571,263.794000,2.238500
2325.657515,263.855000,3.559500
2334.273836,263.915000,4.105000
2343.029746,263.976000,2.547000
2351.781611,264.037000,2.658000
2360.529433,264.098000,2.791000
2369.273215,264.159000,3.365500
2378.012959,264.220000,3.606500
2386.748669,264.281000,1.578500
2395.480347,264.342000,3.892500
2404.207997,264.403000,1.845000
2412.788642,264.463000,3.376500
2421.508308,264.524000,1.973000
2430.223953,264.585000,-1.219000
2438.935580,264.646000,1.181500
2447.643192,264.707000,3.608500
2456.204142,264.767000,3.010000
2464.903798,264.828000,1.971500
2473.599447,264.889000,3.190500
2482.148639,264.949000,3.385000
2490.836348,265.010000,2.765000
2499.520059,265.071000,3.795500
2508.057516,265.131000,3.961500
2516.733303,265.192000,3.429500
2525.405101,265.253000,2.865500
2533.930847,265.313000,2.162500
2542.594737,265.374000,2.605000
2551.112712,265.434000,3.251000
2559.768705,265.495000,2.339500
2568.278918,265.555000,3.443500
2576.927027,265.616000,2.119500
2585.571164,265.677000,2.753000
2594.069722,265.737000,4.100500
2602.564444,265.797000,2.527000
2611.196813,265.858000,-0.634500
2619.683805,265.918000,-3.469000
2628.308321,265.979000,4.020000
2636.787594,266.039000,3.565000
2645.404268,266.100000,2.632500
2653.875831,266.160000,3.774000
2662.343577,266.220000,3.400000
2670.948539,266.281000,2.366500
2679.408591,266.341000,4.130000
2687.864833,266.401000,3.339000
2696.458108,266.462000,2.868500
2704.906672,266.522000,2.622000
2713.351433,266.582000,3.014500
2721.792393,266.642000,3.837500
2730.370143,266.703000,3.182000
2738.803447,266.763000,2.959500
2747.232958,266.823000,3.049000
2755.658679,266.883000,3.123500
2764.220946,266.944000,2.940000
2772.639032,267.004000,2.760500
2781.053334,267.064000,3.244500
2789.463857,267.124000,3.351000
2797.870602,267.184000,3.048000
2806.273573,267.244000,2.626500
2814.672771,267.304000,4.153500
2823.068200,267.364000,2.593500
2831.459861,267.424000,3.413500
2839.847757,267.484000,3.622500
2848.231891,267.544000,2.799000
2856.612266,267.604000,1.982500
2864.988884,267.664000,3.453000
2873.361747,267.724000,3.747000
2881.730857,267.784000,4.134000
2890.096219,267.844000,3.775500
2898.457833,267.904000,3.883500
2906.815703,267.964000,3.636000
2915.169831,268.024000,2.007000
2923.520219,268.084000,0.941500
2931.866870,268.144000,2.099500
2940.209787,268.204000,4.516500
2948.410016,268.263000,3.676000
2956.745534,268.323000,4.197500
2965.077324,268.383000,4.805500
2973.405390,268.443000,4.193500
2981.729735,268.503000,3.584500
2989.911713,268.562000,3.938500
2998.228682,268.622000,4.648500
3006.541937,268.682000,5.300500
3014.851480,268.742000,3.210500
3023.018913,268.801000,5.565000
3031.321101,268.861000,6.899500
3039.619584,268.921000,5.632000
3047.776149,268.980000,4.254000
3056.067292,269.040000,3.230000
3064.216644,269.099000,4.028500
3072.500457,269.159000,2.821000
3080.780577,269.219000,3.361500
3088.919097,269.278000,3.013000
3097.191901,269.338000,4.182500
3105.323232,269.397000,3.869500
3113.588730,269.457000,4.046500
3121.712881,269.516000,5.833500
3129.971082,269.576000,5.723500
3138.088063,269.635000,4.380500
3146.338978,269.695000,2.536500
3154.448798,269.754000,1.604000
3162.692435,269.814000,0.281500
3170.795104,269.873000,4.512500
3178.894231,269.932000,3.231500
3187.127001,269.992000,3.694500
3195.218991,270.051000,3.326500
3203.307445,270.110000,3.926500
3211.529370,270.170000,3.453000
3219.610701,270.229000,4.285500
3227.688505,270.288000,3.911000
3235.899605,270.348000,4.481500
3243.970299,270.407000,3.479500
3252.037473,270.466000,3.402500
3260.101128,270.525000,4.702500
3268.297848,270.585000,5.233500
3276.354413,270.644000,3.819500
3284.407466,270.703000,0.185500
3292.457009,270.762000,2.272500
3300.503044,270.821000,3.886500
3308.545575,270.880000,3.400000
3316.720828,270.940000,3.825500
3324.756296,270.999000,2.635500
3332.788267,271.058000,1.239000
3340.816741,271.117000,1.986000
3348.841722,271.176000,-1.496500
3356.863212,271.235000,2.475000
3364.881213,271.294000,3.274500
3372.895727,271.353000,3.177500
3380.906756,271.412000,2.016500
3388.914304,271.471000,2.855000
3396.918371,271.530000,2.971500
3404.918961,271.589000,3.365000
3412.916076,271.648000,4.074500
3420.909718,271.707000,3.596500
3428.899888,271.766000,3.130500
3436.886591,271.825000,2.540000
3444.734546,271.883000,3.390000
3452.714377,271.942000,3.155000
3460.690746,272.001000,3.014500
3468.663655,272.060000,2.634500
3476.633107,272.119000,3.500000
3484.599104,272.178000,2.729000
3492.426718,272.236000,2.262500
3500.385870,272.295000,3.079000
3508.341573,272.354000,3.676500
3516.293830,272.413000,3.380500
3524.107947,272.471000,5.940000
3532.053377,272.530000,3.536500
3539.995368,272.589000,6.851000
3547.799398,272.647000,5.099000
3555.734574,272.706000,4.418000
3563.666318,272.765000,3.170500
3571.460282,272.823000,3.033000
3579.385225,272.882000,3.035000
3587.306741,272.941000,2.910500
3595.090658,272.999000,3.058500
3603.005387,273.058000,3.513000
3610.782635,273.116000,3.312000
3618.690585,273.175000,3.066000
3626.461173,273.233000,3.405000
3634.362353,273.292000,1.918500
3642.126290,273.350000,3.548500
3650.020708,273.409000,3.421500
3657.778002,273.467000,2.947500
3665.665667,273.526000,3.417500
3673.416327,273.584000,2.516000
3681.163701,273.642000,3.459000
3689.041282,273.701000,2.952000
3696.782035,273.759000,2.730000
3704.652885,273.818000,2.134500
3712.387025,273.876000,3.776500
3720.117889,273.934000,2.994500
3727.845481,273.992000,3.534000
3735.702951,274.051000,2.692000
3743.423947,274.109000,2.690500
3751.141676,274.167000,2.841000
3758.989119,274.226000,3.326500
3766.700265,274.284000,2.915000
3774.408150,274.342000,2.990500
3782.112776,274.400000,2.625000
3789.814146,274.458000,4.149000
3797.644960,274.517000,4.562500
3805.339767,274.575000,3.049500
3813.031324,274.633000,3.092500
3820.719634,274.691000,3.111500
3828.404697,274.749000,3.120500
3836.086516,274.807000,3.566500
3843.765093,274.865000,2.491000
3851.440431,274.923000,7.646000
3859.112530,274.981000,8.587000
3866.781394,275.039000,3.333000
3874.447024,275.097000,2.848000
3882.109423,275.155000,2.818500
3889.768591,275.213000,4.006000
3897.424533,275.271000,3.785500
3905.077248,275.329000,2.293500
3912.726740,275.387000,3.730000
3920.373011,275.445000,3.192500
3928.016062,275.503000,2.493000
3935.655896,275.561000,3.376500
3943.292514,275.619000,3.148000
3950.925919,275.677000,4.132500
3958.424585,275.734000,1.503000
3966.051625,275.792000,1.408500
3973.675457,275.850000,2.711000
3981.296084,275.908000,4.100000
3988.913508,275.966000,3.209000
3996.396478,276.023000,2.619500
4004.007557,276.081000,3.378000
4011.615438,276.139000,1.258500
4019.220124,276.197000,-3.768500
4026.690584,276.254000,-12.173000
4034.288940,276.312000,2.201500
4041.884108,276.370000,2.631500
4049.345219,276.427000,3.240000
4056.934068,276.485000,3.913000
4064.519735,276.543000,2.774000
4071.971515,276.600000,4.315500
4079.550876,276.658000,-0.494000
4086.996462,276.715000,0.560000
4094.569525,276.773000,2.777500
4102.008927,276.830000,3.041000
4109.575700,276.888000,3.487000
4117.008923,276.945000,3.260000
4124.569414,277.003000,3.698000
4131.996467,277.060000,3.112500
4139.550684,277.118000,3.306000
4146.971575,277.175000,3.974000
4154.519525,277.233000,3.404000
4161.934262,277.290000,2.662500
4169.475953,277.348000,2.338000
4228.011654,277.799000,3.420500
4235.396210,277.856000,3.704500
4242.907211,277.914000,3.097500
4250.415077,277.972000,3.159000
4257.790445,278.029000,3.934500
4265.292102,278.087000,3.136500
4272.790631,278.145000,2.501500
4280.156828,278.202000,3.376500
4287.649159,278.260000,3.971000
4295.138368,278.318000,3.929500
4302.495411,278.375000,3.591500
4309.978434,278.433000,2.452500
4317.329402,278.490000,2.483500
4324.806246,278.548000,2.887000
4332.151147,278.605000,2.075500
4339.621821,278.663000,2.902000
4346.960661,278.720000,2.556500
4354.425172,278.778000,3.155500
4361.757959,278.835000,3.430500
4369.216314,278.893000,3.928000
4376.543056,278.950000,4.051000
4383.995264,279.008000,1.818500
4391.315968,279.065000,2.561000
4398.762036,279.123000,3.736500
4406.076709,279.180000,2.515500
4413.516644,279.238000,3.271000
4420.825295,279.295000,2.364500
4428.130962,279.352000,1.900500
4435.561740,279.410000,2.627500
4442.861395,279.467000,3.300000
4450.158074,279.524000,2.850500
4457.579711,279.582000,2.747500
4464.870389,279.639000,4.673500
4472.158095,279.696000,3.393000
4479.570607,279.754000,2.611000
4486.852324,279.811000,2.771500
4494.131074,279.868000,2.945500
4501.534479,279.926000,4.043000
4508.807251,279.983000,2.362000
4516.077062,280.040000,3.034000
4523.343914,280.097000,1.988500
4530.735220,280.155000,3.045000
4537.996108,280.212000,3.954500
4545.254043,280.269000,3.049000
4552.509026,280.326000,2.236000
4559.888262,280.384000,2.971500
4567.137295,280.441000,2.448500
4574.383383,280.498000,0.203500
4581.626526,280.555000,2.939000
4588.866727,280.612000,2.900500
4596.103987,280.669000,7.122500
4603.338308,280.726000,3.212500
4610.696532,280.784000,4.248000
4617.924929,280.841000,3.070500
4625.150392,280.898000,2.977500
4632.372923,280.955000,3.609000
4639.592525,281.012000,3.379500
4646.809198,281.069000,3.337000
4654.022945,281.126000,3.074000
4661.233767,281.183000,2.667500
4668.441666,281.240000,4.600500
4675.646644,281.297000,4.707500
4682.848703,281.354000,3.501000
4690.047844,281.411000,3.941000
4697.244070,281.468000,4.714500
4704.437381,281.525000,3.934500
4711.627780,281.582000,4.312500
4718.815269,281.639000,3.346500
4725.999849,281.696000,3.113500
4733.181522,281.753000,3.575500
4740.360290,281.810000,5.236500
4747.536154,281.867000,4.912000
4754.583300,281.923000,3.694000
4761.753414,281.980000,3.917500
4768.920629,282.037000,4.268500
4776.084949,282.094000,3.778500
4783.246373,282.151000,5.415000
4790.404904,282.208000,4.149000
4797.435032,282.264000,4.875000
4804.587834,282.321000,3.327000
4811.737748,282.378000,5.051000
4818.884776,282.435000,4.435500
4826.028920,282.492000,3.640500
4833.044920,282.548000,3.514000
4840.183352,282.605000,4.150000
4847.318904,282.662000,3.258000
4854.451579,282.719000,3.730500
4861.456319,282.775000,3.748500
4868.583295,282.832000,4.702000
4875.707399,282.889000,4.191000
4882.703723,282.945000,3.810500
4889.822139,283.002000,3.568500
4896.937687,283.059000,4.619000
4903.925611,283.115000,3.681000
4911.035481,283.172000,2.372000
4918.142490,283.229000,2.602000
4925.122029,283.285000,3.293500
4932.223369,283.342000,2.317000
4939.197342,283.398000,4.072500
4946.293021,283.455000,3.274000
4953.385847,283.512000,3.999500
4960.351460,283.568000,3.974000
4967.438635,283.625000,3.582500
4974.398699,283.681000,2.911000
4981.480229,283.738000,3.415000
4988.434752,283.794000,3.113500
4995.510644,283.851000,2.164500
5002.459631,283.907000,3.052500
5009.529893,283.964000,3.630500
5016.473351,284.020000,3.145000
5023.537988,284.077000,3.963000
5030.475924,284.133000,0.967000
5037.534943,284.190000,2.875500
5044.467363,284.246000,2.379500
5051.397052,284.302000,2.391500
5058.447683,284.359000,2.000000
5065.371866,284.415000,3.014000
5072.416896,284.472000,2.342500
5079.335580,284.528000,1.939000
5086.251541,284.584000,0.684000
5093.288207,284.641000,2.402500
5100.198678,284.697000,2.816500
5107.106432,284.753000,1.655000
5114.134748,284.810000,1.652500
5121.037022,284.866000,1.327500
5127.936582,284.922000,1.017500
5134.833431,284.978000,2.425500
5141.850655,285.035000,2.248500
5148.742037,285.091000,0.989500
5155.630712,285.147000,1.153500
5162.516682,285.203000,3.490500
5169.522840,285.260000,2.386500
5176.403356,285.316000,2.133500
5183.281172,285.372000,1.249000
5190.156289,285.428000,1.771000
5197.028709,285.484000,0.058500
5204.021082,285.541000,1.425000
5210.888064,285.597000,2.268500
5217.752353,285.653000,1.402500
5224.613952,285.709000,0.463000
5231.472862,285.765000,0.263000
5238.329083,285.821000,1.172000
5245.182619,285.877000,-4.556000
5252.033470,285.933000,-0.943000
5258.881638,285.989000,0.726500
5265.727125,286.045000,1.248000
5272.569932,286.101000,1.200000
5279.532182,286.158000,0.647500
5286.369586,286.214000,1.555000
5293.204315,286.270000,0.703500
5300.036371,286.326000,0.622500
5306.865755,286.382000,0.984500
5313.692468,286.438000,0.092500
5320.516513,286.494000,0.098500
5327.216104,286.549000,-3.216000
5334.034863,286.605000,-0.862500
5340.850958,286.661000,-0.172500
5347.664391,286.717000,0.212000
5354.475163,286.773000,1.843500
5361.283275,286.829000,-0.557500
5368.088729,286.885000,0.160500
5374.891528,286.941000,1.506000
5381.691671,286.997000,1.278000
5388.489161,287.053000,2.124500
5395.162686,287.108000,1.905000
5401.954922,287.164000,1.089500
5408.744509,287.220000,3.720000
5415.531448,287.276000,2.677500
5422.315743,287.332000,1.503000
5428.976316,287.387000,0.655000
5435.755371,287.443000,0.270000
5442.531785,287.499000,0.745000
5449.305560,287.555000,1.107500
5456.076697,287.611000,1.139500
5462.724355,287.666000,1.135000
5469.490268,287.722000,0.868500
5476.253548,287.778000,0.461500
5482.893494,287.833000,0.963500
5489.651559,287.889000,0.738000
5496.406995,287.945000,0.485500
5503.039242,288.000000,1.494500
5509.789473,288.056000,0.847000
5516.537079,288.112000,1.741500
5523.161640,288.167000,1.621000
5529.904050,288.223000,0.893500
5536.643840,288.279000,0.876500
5543.260729,288.334000,0.772500
5549.995332,288.390000,0.691000
5556.607128,288.445000,0.380000
5563.336549,288.501000,0.131000
5569.943259,288.556000,0.928500
5576.667504,288.612000,1.015000
5583.269134,288.667000,1.558500
5589.988209,288.723000,1.969000
5596.584764,288.778000,3.854000
5603.298676,288.834000,1.380500
5609.890162,288.889000,2.666500
5616.598916,288.945000,1.517000
5623.185340,289.000000,0.793000
5629.888941,289.056000,0.894500
5636.470308,289.111000,-0.091500
5643.168763,289.167000,2.784000
5649.745079,289.222000,1.499500
5656.438394,289.278000,1.178500
5663.009664,289.333000,0.854000
5669.578437,289.388000,-9.687500
5676.264076,289.444000,0.612000
5682.827812,289.499000,0.925000
5689.389054,289.554000,1.130500
5696.067030,289.610000,0.835000
5702.623244,289.665000,1.508500
5709.176969,289.720000,0.966000
5715.847296,289.776000,2.795500
5722.396001,289.831000,0.123000
5728.942221,289.886000,0.593000
5735.485958,289.941000,1.923000
5742.146122,289.997000,0.632000
5748.684850,290.052000,1.260000
5755.221100,290.107000,1.226000
5761.754871,290.162000,0.557000
5768.404894,290.218000,0.679000
5774.933669,290.273000,0.342500
5781.459971,290.328000,0.875000
5787.983800,290.383000,1.033500
5794.505158,290.438000,1.539500
5801.142550,290.494000,-0.123000
5807.658926,290.549000,1.614000
5814.172835,290.604000,0.510500
5820.684279,290.659000,1.716000
5827.193260,290.714000,1.248000
5833.699778,290.769000,1.014000
5840.203835,290.824000,1.652500
5846.705432,290.879000,0.196000
5853.204572,290.934000,1.886500
5859.701254,290.989000,1.538500
5866.195481,291.044000,2.438500
5872.687254,291.099000,0.844500
5879.176574,291.154000,1.604000
5885.663444,291.209000,1.171000
5892.147863,291.264000,1.187000
5898.629834,291.319000,1.244000
5905.109357,291.374000,0.561000
5911.586435,291.429000,0.473500
5918.061069,291.484000,1.917500
5924.533260,291.539000,-0.109500
5931.003009,291.594000,1.238500
5937.470318,291.649000,0.595000
5943.935188,291.704000,1.045000
5950.397621,291.759000,0.907500
5956.857618,291.814000,2.044500
5963.315180,291.869000,0.988000
5969.770309,291.924000,1.130000
5976.105706,291.978000,1.034000
5982.556017,292.033000,0.459000
5989.003898,292.088000,1.199000
5995.449352,292.143000,-0.014500
6001.892379,292.198000,1.560000
6008.215901,292.252000,0.529500
6014.654123,292.307000,0.510000
6021.089923,292.362000,-0.122000
6027.523303,292.417000,0.774500
6033.954262,292.472000,0.771000
6040.265942,292.526000,1.003500
6046.692111,292.581000,1.711000
6053.115864,292.636000,0.478500
6059.420472,292.690000,1.037500
6065.839442,292.745000,0.557000
6072.256000,292.800000,-0.087000
6078.553548,292.854000,1.074500
6084.965331,292.909000,0.645000
6091.374707,292.964000,1.643500
6097.665207,293.018000,0.849000
6104.069816,293.073000,0.909000
6110.472021,293.128000,1.283000
6116.755485,293.182000,0.958500
6123.152931,293.237000,0.913000
6129.431725,293.291000,2.034000
6135.824417,293.346000,0.876500
6142.098547,293.400000,0.481500
6148.486490,293.455000,1.423500
6154.872040,293.510000,0.144500
6161.139160,293.564000,1.433000
6167.519969,293.619000,2.299500
6173.782438,293.673000,0.882500
6180.158512,293.728000,1.017000
6186.416334,293.782000,1.015000
6192.787678,293.837000,0.835000
6199.040859,293.891000,3.278500
6205.291742,293.945000,1.262500
6211.656022,294.000000,1.038000
6217.902272,294.054000,0.526000
6224.261835,294.109000,-0.220500
6230.503456,294.163000,1.530000
6236.742786,294.217000,-0.663000
6243.095305,294.272000,1.054000
6249.330014,294.326000,0.439000
6255.677829,294.381000,0.828000
6261.907923,294.435000,0.175000
6268.135731,294.489000,0.111000
6274.476522,294.544000,-0.009000
6280.699722,294.598000,0.798500
6286.920642,294.652000,-0.253000
6293.139281,294.706000,-3.977000
6299.470739,294.761000,1.186000
6305.684781,294.815000,0.958500
6311.896546,294.869000,1.078500
6318.106037,294.923000,0.635000
6324.428182,294.978000,0.023000
6330.633085,295.032000,1.582500
6336.835717,295.086000,1.270000
6343.036080,295.140000,0.224500
6349.234174,295.194000,0.687500
6355.544717,295.249000,0.452000
6361.738236,295.303000,0.696000
6367.929490,295.357000,1.258500
6374.118480,295.411000,0.896000
6380.305209,295.465000,0.413000
6386.489676,295.519000,0.333000
6392.671884,295.573000,0.343000
6398.851833,295.627000,1.645500
6405.143905,295.682000,1.204000
6411.319300,295.736000,0.909000
6417.492439,295.790000,0.730500
6423.663325,295.844000,0.793500
6429.831958,295.898000,1.302500
6435.998340,295.952000,1.775500
6442.162473,296.006000,-0.057500
6448.324357,296.060000,1.002500
6454.483993,296.114000,2.634500
6460.641384,296.168000,0.880000
6466.796529,296.222000,-1.997500
6472.949431,296.276000,1.562000
6479.100090,296.330000,2.033500
6485.248508,296.384000,0.626500
6491.280888,296.437000,0.759000
6497.424869,296.491000,1.795000
6503.566612,296.545000,0.849000
6509.706118,296.599000,2.522500
6515.843390,296.653000,1.746500
6521.978427,296.707000,2.742000
6528.111232,296.761000,1.638500
6534.241805,296.815000,0.567000
6540.256681,296.868000,1.338000
6546.382836,296.922000,1.103500
6552.506763,296.976000,1.349000
6558.628464,297.030000,1.731500
6564.747939,297.084000,1.642000
6570.751928,297.137000,1.671500
6576.866997,297.191000,1.155000
6582.979845,297.245000,1.220000
6589.090471,297.299000,7.049000
6595.085780,297.352000,7.250000
6601.192010,297.406000,1.850500
6607.296023,297.460000,1.994000
6613.397821,297.514000,1.765500
6619.384468,297.567000,2.821000
6625.481879,297.621000,4.504000
6631.577077,297.675000,18.632500
6637.557251,297.728000,8.259500
6643.648069,297.782000,2.557000
6649.623947,297.835000,1.929000
6655.710390,297.889000,1.246000
6661.794627,297.943000,2.541000
6667.764048,297.996000,2.287000
6673.843917,298.050000,0.995500
6679.809053,298.103000,1.226000
6685.884559,298.157000,2.683000
6691.957864,298.211000,1.427500
6697.916562,298.264000,0.653500
6703.985510,298.318000,1.050500
6709.939935,298.371000,1.452500
6716.004532,298.425000,1.193000
6721.954688,298.478000,3.237500
6728.014938,298.532000,0.449000
6733.960830,298.585000,0.751500
6739.904611,298.638000,0.483500
6745.958369,298.692000,1.332000
6751.897893,298.745000,0.793500
6757.947317,298.799000,1.566000
6763.882588,298.852000,2.026000
6769.927680,298.906000,1.577000
6775.858703,298.959000,0.842500
6781.787624,299.012000,0.845500
6787.826249,299.066000,-0.059500
6793.750928,299.119000,1.118000
6799.673508,299.172000,0.946000
6805.705677,299.226000,0.989000
6811.624022,299.279000,0.681000
6817.540272,299.332000,0.348000
6823.565994,299.386000,1.345000
6829.478016,299.439000,0.816000
6835.387945,299.492000,0.960500
6841.407231,299.546000,0.945000
6847.312940,299.599000,0.465500
6853.216559,299.652000,1.217000
6859.118090,299.705000,1.812500
6865.017534,299.758000,1.107500
6871.026143,299.812000,0.886500
6876.921378,299.865000,1.326500
6882.814529,299.918000,1.220500
6888.705597,299.971000,0.519500
6894.594584,300.024000,0.979000
6900.592545,300.078000,0.730000
6906.477333,300.131000,0.071000
6912.360044,300.184000,-0.145000
6918.240677,300.237000,1.037000
6924.119235,300.290000,0.572500
6929.995718,300.343000,0.812500
6935.870127,300.396000,0.236500
6941.742464,300.449000,0.117500
6947.612730,300.502000,0.940500
6953.480925,300.555000,1.257500
6959.347051,300.608000,-0.023500
6965.211108,300.661000,0.888000
6971.073099,300.714000,-0.339500
6976.933024,300.767000,0.653500
6982.790884,300.820000,1.185000
6988.646680,300.873000,0.217000
6994.500413,300.926000,1.782500
7000.352085,300.979000,-0.921500
7006.201696,301.032000,1.201500
7012.049248,301.085000,1.194500
7017.894742,301.138000,0.780000
7023.738178,301.191000,1.222500
7029.579559,301.244000,1.530500
7035.418884,301.297000,0.425000
7041.256155,301.350000,0.745500
7047.091373,301.403000,1.392000
7052.924539,301.456000,0.419500
7058.645653,301.508000,-1.701500
7064.474758,301.561000,0.115000
7070.301814,301.614000,1.058500
7076.126822,301.667000,0.996000
7081.949784,301.720000,0.232000
7087.660892,301.772000,2.514500
7093.479803,301.825000,2.185500
7099.296670,301.878000,-0.035500
7105.111496,301.931000,1.446000
7110.814624,301.983000,0.477000
7116.625408,302.036000,0.714500
7122.434152,302.089000,1.156000
7128.240858,302.142000,1.101500
7133.936024,302.194000,0.898000
7139.738696,302.247000,-0.491500
7145.539334,302.300000,1.313500
7151.228549,302.352000,2.063500
7157.025159,302.405000,0.712000
7162.819737,302.458000,0.505500
7168.503010,302.510000,0.789500
7174.293567,302.563000,0.848500
7180.082095,302.616000,0.884500
7185.759436,302.668000,0.591000
7191.543949,302.721000,1.798500
7197.217352,302.773000,2.073500
7202.997854,302.826000,1.850500
7208.667324,302.878000,2.027500
7214.443819,302.931000,0.201000
7220.109360,302.983000,0.940500
7225.881853,303.036000,0.934500
7231.543468,303.088000,-1.929000
7237.311962,303.141000,0.316000
7242.969657,303.193000,0.540000
7248.734156,303.246000,0.942000
7254.387934,303.298000,1.388500
7260.148443,303.351000,0.916000
7265.798308,303.403000,0.910500
7271.554831,303.456000,0.614000
7277.200787,303.508000,1.731000
7282.953328,303.561000,0.960500
7288.595379,303.613000,1.230000
7294.235498,303.665000,0.762000
7299.982093,303.718000,0.869500
7305.618313,303.770000,1.922000
7311.252604,303.822000,0.582500
7316.993262,303.875000,1.649000
7322.623660,303.927000,1.176500
7328.252131,303.979000,1.816500
7333.986862,304.032000,1.145000
7339.611446,304.084000,0.208500
7345.234108,304.136000,0.926500
7350.962920,304.189000,0.285500
7356.581700,304.241000,2.304500
7362.198561,304.293000,5.133500
7367.813502,304.345000,0.155500
7373.426525,304.397000,0.942000
7379.145517,304.450000,0.478000
7384.754669,304.502000,1.464500
7390.361906,304.554000,0.480000
7395.967228,304.606000,2.090500
7401.570637,304.658000,2.104500
7407.279836,304.711000,4.409000
7412.879384,304.763000,1.874500
7418.477021,304.815000,0.776000
7424.072749,304.867000,0.484000
7429.666569,304.919000,2.459500
7435.258480,304.971000,1.053500
7440.848486,305.023000,0.394000
7446.436585,305.075000,-0.165000
7452.022780,305.127000,0.572500
7457.607071,305.179000,0.702000
7463.296795,305.232000,1.336000
7468.877245,305.284000,0.414500
7474.455794,305.336000,-0.104000
7480.032444,305.388000,0.659500
7485.607195,305.440000,0.612500
7491.180048,305.492000,1.221500
7496.751004,305.544000,1.344500
7502.212985,305.595000,0.642500
7507.780187,305.647000,1.113000
7513.345495,305.699000,0.441500
7518.908909,305.751000,0.263500
7524.470432,305.803000,0.691500
7530.030064,305.855000,1.637000
7535.587805,305.907000,0.907000
7541.143658,305.959000,0.267000
7546.697622,306.011000,-0.241500
7552.249699,306.063000,1.152000
7557.693173,306.114000,-0.055000
7563.241514,306.166000,1.295000
7568.787971,306.218000,1.892000
7574.332545,306.270000,0.588500
7579.875237,306.322000,0.545000
7585.416047,306.374000,1.099500
7590.848476,306.425000,1.055000
7596.385562,306.477000,0.621000
7601.920769,306.529000,2.002000
7607.454098,306.581000,1.004500
7612.879195,306.632000,1.391000
7618.408808,306.684000,1.381000
7623.936546,306.736000,1.086500
7629.462411,306.788000,0.768000
7634.880189,306.839000,1.004500
7640.402345,306.891000,0.751500
7645.922629,306.943000,0.935000
7651.334938,306.994000,0.353500
7656.851519,307.046000,1.752500
7662.260197,307.097000,0.923500
7667.773079,307.149000,1.091500
7673.284094,307.201000,2.331500
7678.687317,307.252000,2.893500
7684.194638,307.304000,2.832500
7689.700096,307.356000,1.244500
7695.097870,307.407000,0.734000
7700.599639,307.459000,-0.264000
7705.993798,307.510000,0.576500
7711.491883,307.562000,1.056500
7716.882430,307.613000,1.482500
7722.376833,307.665000,0.118000
7727.763772,307.716000,1.039500
7733.254498,307.768000,1.521000
7738.637831,307.819000,1.129000
7744.124884,307.871000,1.165000
7749.504617,307.922000,0.999000
7754.988000,307.974000,1.288500
7760.364134,308.025000,0.076500
7765.738489,308.076000,1.760000
7771.216392,308.128000,0.140000
7776.587155,308.179000,0.495000
7782.061397,308.231000,1.516000
7787.428571,308.282000,1.030000
7792.793970,308.333000,0.012000
7798.262745,308.385000,0.599000
7803.624561,308.436000,1.470500
7808.984603,308.487000,0.734500
7814.447920,308.539000,0.385000
7819.804385,308.590000,1.139000
7825.159080,308.641000,0.736500
7830.616947,308.693000,-0.008500
7835.968069,308.744000,0.376000
7841.317424,308.795000,1.545500
7846.665012,308.846000,3.368500
7852.115636,308.898000,12.755500
7857.459659,308.949000,2.614500
7862.801917,309.000000,0.743000
7868.142413,309.051000,0.873500
7873.481146,309.102000,0.278500
7878.922746,309.154000,0.784000
7884.257923,309.205000,0.964000
7889.591340,309.256000,3.010500
7894.922998,309.307000,1.134500
7900.252898,309.358000,0.944500
7905.581041,309.409000,0.484500
7910.907428,309.460000,-0.298500
7916.336447,309.512000,0.258500
7921.659290,309.563000,-0.476000
7926.980379,309.614000,1.097500
7932.299715,309.665000,0.970500
7937.617300,309.716000,0.470000
7942.933134,309.767000,0.746000
7948.247217,309.818000,1.541500
7953.559551,309.869000,-0.255500
7958.870137,309.920000,-0.037500
7964.178976,309.971000,0.605000
7969.486068,310.022000,0.259500
7974.791414,310.073000,-0.223000
7980.095015,310.124000,0.710000
7985.396872,310.175000,1.237500
7990.696985,310.226000,0.008500
7995.995357,310.277000,-0.696000
8001.291987,310.328000,0.902000
8006.586876,310.379000,-0.074500
8011.880026,310.430000,-0.943500
8017.067700,310.480000,1.303000
8022.357406,310.531000,0.548000
8027.645376,310.582000,1.248500
8032.931609,310.633000,2.174500
8038.216106,310.684000,-1.872000
8043.498869,310.735000,-0.635000
8048.779898,310.786000,0.437500
8053.955695,310.836000,0.179500
8059.233293,310.887000,0.574500
8064.509160,310.938000,-0.586500
8069.783296,310.989000,-0.929000
8074.952339,311.039000,0.178000
8080.223051,311.090000,0.130500
8085.492035,311.141000,0.480000
8090.759292,311.192000,0.853000
8095.921594,311.242000,-0.191500
8101.185433,311.293000,-0.394500
8106.447548,311.344000,-0.051500
8111.604811,311.394000,0.206000
8116.863513,311.445000,-1.110500
8122.120493,311.496000,-4.577000
8127.272724,311.546000,-7.409000
8132.526297,311.597000,1.522000
8137.778150,311.648000,0.324500
8142.925357,311.698000,1.574500
8148.173807,311.749000,0.950500
8153.420541,311.800000,-0.024000
8158.562731,311.850000,0.140500
8163.806066,311.901000,0.087000
8168.944927,311.951000,-0.717000
8174.184869,312.002000,0.370000
8179.320403,312.052000,0.808000
8184.556953,312.103000,0.518000
8189.689165,312.153000,0.456000
8194.922327,312.204000,-0.045500
8200.051219,312.254000,0.834000
8205.280996,312.305000,0.275500
8210.406572,312.355000,-0.069500
8215.632968,312.406000,-0.348500
8220.755230,312.456000,0.616000
8225.978248,312.507000,1.743000
8231.097200,312.557000,0.222500
8236.316843,312.608000,2.169000
8241.432488,312.658000,0.206000
8246.546497,312.708000,0.157000
8251.761101,312.759000,1.236000
8256.871808,312.809000,1.817500
8261.980881,312.859000,0.227500
8267.190453,312.910000,1.138000
8272.296229,312.960000,1.190500
8277.400373,313.010000,0.529500
8282.604921,313.061000,0.116000
8287.705773,313.111000,1.173500
8292.804996,313.161000,1.187500
8298.004526,313.212000,-0.226000
8303.100462,313.262000,1.553500
8308.194770,313.312000,-0.128000
8313.287453,313.362000,1.277500
8318.480316,313.413000,1.392000
8323.569717,313.463000,-0.066500
8328.657496,313.513000,0.010000
8333.743651,313.563000,1.375000
8338.828185,313.613000,0.586000
8344.012739,313.664000,1.047500
8349.094000,313.714000,0.482000
8354.173640,313.764000,0.038500
8359.251662,313.814000,1.190500
8364.328066,313.864000,1.236500
8369.402853,313.914000,-0.169500
8374.476024,313.964000,0.717500
8379.547579,314.014000,1.102500
8384.718901,314.065000,0.540500
8389.787195,314.115000,0.884500
8394.853876,314.165000,0.750000
8399.918944,314.215000,0.969000
8404.982400,314.265000,0.521500
8410.044246,314.315000,0.282000
8415.104481,314.365000,1.044000
8420.163107,314.415000,0.241500
8425.220124,314.465000,0.395000
8430.275533,314.515000,0.034500
8435.329336,314.565000,-1.208500
8440.381532,314.615000,0.657500
8445.432122,314.665000,0.136500
8450.481107,314.715000,-0.369500
8455.528489,314.765000,1.878500
8460.473367,314.814000,-0.327000
8465.517575,314.864000,0.869500
8470.560181,314.914000,0.527500
8475.601186,314.964000,0.148000
8480.640590,315.014000,-0.158500
8485.678395,315.064000,1.649000
8490.714602,315.114000,0.377000
8495.749210,315.164000,0.080000
8500.681577,315.213000,1.659000
8505.713024,315.263000,0.112000
8510.742875,315.313000,0.301500
8515.771131,315.363000,0.044000
8520.797793,315.413000,0.669500
8525.722375,315.462000,0.208500
8530.745883,315.512000,0.659000
8535.767799,315.562000,-0.921500
8540.788124,315.612000,0.779500
8545.706499,315.661000,-0.187500
8550.723675,315.711000,-0.241500
8555.739262,315.761000,-0.468500
8560.652997,315.810000,0.541500
8565.665441,315.860000,-0.230000
8570.676298,315.910000,-0.689000
8575.585399,315.959000,0.757000
8580.593116,316.009000,-0.236500
8585.599249,316.059000,-1.293000
8590.503723,316.108000,-1.328000
8595.506721,316.158000,-0.792500
8600.508137,316.208000,-0.454500
8605.407991,316.257000,-0.197500
8610.406276,316.307000,-0.314000
8615.303063,316.356000,-1.757000
8620.298221,316.406000,-0.736000
8625.191944,316.455000,-0.636500
8630.183977,316.505000,-1.308000
8635.074640,316.554000,1.092000
8640.063551,316.604000,0.281500
8644.951156,316.653000,-1.497000
8649.936949,316.703000,-0.389000
8654.821499,316.752000,-0.430500
8659.804175,316.802000,-0.146000
8664.685673,316.851000,0.440500
8669.665237,316.901000,0.817500
8674.543685,316.950000,0.676000
8679.520139,317.000000,-0.041500
8684.395541,317.049000,-1.596500
8689.269436,317.098000,-1.113000
8694.241247,317.148000,-0.159000
8699.112100,317.197000,0.914500
8703.981448,317.246000,0.683000
8708.948621,317.296000,0.977000
8713.814931,317.345000,0.398500
8718.779005,317.395000,-0.711500
8723.642281,317.444000,-0.625000
8728.504055,317.493000,-0.481500
8733.364329,317.542000,-0.087500
8738.322247,317.592000,0.925000
8743.179491,317.641000,-0.673000
8748.035237,317.690000,0.081000
8752.889486,317.739000,-0.535500
8757.841258,317.789000,-0.207500
8762.692483,317.838000,-0.963000
8767.542212,317.887000,0.893500
8772.390446,317.936000,0.113000
8777.336084,317.986000,0.473000
8782.181300,318.035000,-0.565000
8787.025024,318.084000,-2.465000
8791.867255,318.133000,-0.405000
8796.707995,318.182000,0.259500
8801.547244,318.231000,-0.756000
8806.385003,318.280000,0.614000
8811.319957,318.330000,0.322500
8816.154708,318.379000,0.150500
8820.987971,318.428000,-0.320500
8825.819746,318.477000,-1.049500
8830.650035,318.526000,-0.356500
8835.478838,318.575000,0.380500
8840.306156,318.624000,-0.394500
8845.131990,318.673000,-0.561500
8849.956339,318.722000,-0.337500
8854.779206,318.771000,-1.320000
8859.600590,318.820000,0.084000
8864.420492,318.869000,0.268000
8869.238913,318.918000,-0.278500
8874.055854,318.967000,0.312500
8878.871314,319.016000,0.317000
8883.685296,319.065000,-0.283000
8888.497800,319.114000,0.162000
8893.308826,319.163000,-0.639500
8898.118374,319.212000,-0.958000
8902.926447,319.261000,-1.309500
8907.634964,319.309000,0.001500
8912.440116,319.358000,-0.252500
8917.243794,319.407000,-0.689000
8922.045998,319.456000,0.372500
8926.846729,319.505000,0.451500
8931.645988,319.554000,-0.820000
8936.443775,319.603000,0.329000
8941.142222,319.651000,-0.170500
8945.937098,319.700000,-1.077500
8950.730504,319.749000,-0.464500
8955.522441,319.798000,0.007000
8960.215161,319.846000,-0.561000
8965.004192,319.895000,0.013500
8969.791757,319.944000,-0.583000
8974.577855,319.993000,-0.476000
8979.264858,320.041000,-0.728500
8984.048055,320.090000,-0.804500
8988.829789,320.139000,0.261000
8993.512517,320.187000,-1.183500
8998.291355,320.236000,-1.348000
9003.068730,320.285000,0.040000
9007.747190,320.333000,0.342000
9012.521672,320.382000,-0.163500
9017.294694,320.431000,-0.087000
9021.968893,320.479000,0.391000
9026.739026,320.528000,-0.212000
9031.410396,320.576000,0.428000
9036.177644,320.625000,-0.655000
9040.943434,320.674000,-1.179000
9045.610552,320.722000,-0.414000
9050.373460,320.771000,0.639000
9055.037756,320.819000,-0.920000
9059.797784,320.868000,0.908000
9064.459261,320.916000,-0.561500
9069.216413,320.965000,-0.796000
9073.875072,321.013000,-0.517000
9078.629350,321.062000,-0.248500
9083.285194,321.110000,-0.183000
9088.036601,321.159000,-0.264500
9092.689634,321.207000,-0.194000
9097.438171,321.256000,0.495500
9102.088394,321.304000,-0.001000
9106.737229,321.352000,-0.057000
9111.481482,321.401000,-0.290500
9116.127511,321.449000,0.187000
9120.868902,321.498000,-0.869000
9125.512128,321.546000,0.270000
9130.153968,321.594000,0.233000
9134.891085,321.643000,-0.276000
9139.530126,321.691000,-1.422000
9144.167783,321.739000,-0.333500
9148.900630,321.788000,-0.714500
9153.535492,321.836000,-0.261500
9158.168971,321.884000,-1.058500
9162.801069,321.932000,0.016000
9167.528244,321.981000,1.351000
9172.157551,322.029000,0.633500
9176.785479,322.077000,-0.981500
9181.412027,322.125000,0.423500
9186.133540,322.174000,-0.216500
9190.757302,322.222000,1.242000
9195.379688,322.270000,-0.202000
9200.000697,322.318000,0.413500
9204.620330,322.366000,-1.714500
9209.334786,322.415000,-0.031000
9213.951640,322.463000,-0.168500
9218.567119,322.511000,-0.135000
9223.181225,322.559000,0.115500
9227.793957,322.607000,0.299500
9232.405318,322.655000,-0.186500
9237.015306,322.703000,-0.380500
9241.623923,322.751000,-0.616000
9246.231170,322.799000,-0.346000
9250.932988,322.848000,0.698000
9255.537466,322.896000,0.869500
9260.140576,322.944000,-1.156500
9264.742318,322.992000,-0.559500
9269.342693,323.040000,-0.020000
9273.941700,323.088000,0.207000
9278.539341,323.136000,-1.078500
9283.135616,323.184000,-0.202000
9287.730527,323.232000,0.300500
9292.324072,323.280000,-1.118500
9296.916254,323.328000,-1.027000
9301.411445,323.375000,0.108500
9306.000929,323.423000,-1.401000
9310.589052,323.471000,-0.847500
9315.175812,323.519000,0.290500
9319.761212,323.567000,-0.127500
9324.345252,323.615000,-0.538000
9328.927932,323.663000,0.357500
9333.509253,323.711000,0.494000
9338.089216,323.759000,0.687500
9342.572447,323.806000,0.106500
9347.149722,323.854000,-1.176500
9351.725642,323.902000,0.334500
9356.300205,323.950000,0.734000
9360.873412,323.998000,-1.005000
9365.350032,324.045000,-0.134000
9369.920559,324.093000,-0.375500
9374.489732,324.141000,-0.521000
9379.057552,324.189000,0.335000
9383.528899,324.236000,-0.586500
9388.094043,324.284000,0.727500
9392.657836,324.332000,-0.454500
9397.125241,324.379000,0.040000
9401.686361,324.427000,0.297000
9406.246132,324.475000,-1.108500
9410.804554,324.523000,-0.973500
9415.266702,324.570000,-0.546500
9419.822456,324.618000,0.632500
9424.281993,324.665000,0.248500
9428.835082,324.713000,0.360500
9433.386824,324.761000,1.088000
9437.842435,324.808000,0.064000
9442.391516,324.856000,-0.294000
9446.844521,324.903000,-1.098000
9451.390942,324.951000,-0.166000
9455.936020,324.999000,-0.578000
9460.385108,325.046000,-0.506000
9464.927530,325.094000,-0.684000
9469.374018,325.141000,-0.693500
9473.913786,325.189000,-13.110500
9478.357677,325.236000,-2.458500
9482.894794,325.284000,-1.192500
9487.336090,325.331000,0.143500
9491.870557,325.379000,-0.591500
9496.309260,325.426000,0.060000
9500.746681,325.473000,-1.163500
9505.277193,325.521000,0.873500
9509.712024,325.568000,-1.417500
9514.239893,325.616000,-0.939000
9518.672137,325.663000,-1.260000
9523.103102,325.710000,-1.845000
9527.627024,325.758000,-0.108000
9532.055405,325.805000,-0.453000
9536.576689,325.853000,0.552500
9541.002489,325.900000,0.426500
9545.427013,325.947000,-1.047500
9549.850260,325.994000,-0.711000
9554.366303,326.042000,-0.030000
9558.786974,326.089000,-1.740000
9563.206371,326.136000,-0.230000
9567.718482,326.184000,-0.092500
9572.135305,326.231000,-1.276500
9576.550855,326.278000,-0.243500
9580.965134,326.325000,-0.930000
9585.472021,326.373000,0.074500
9589.883730,326.420000,-0.349000
9594.294169,326.467000,1.976500
9598.703338,326.514000,0.023500
9603.111238,326.561000,1.021500
9607.611614,326.609000,-0.268000
9612.016950,326.656000,-0.706500
9616.421019,326.703000,-0.986500
9620.823821,326.750000,0.003000
9625.225356,326.797000,-0.244500
9629.625626,326.844000,0.429000
9634.024630,326.891000,-0.020000
9638.422369,326.938000,-0.396500
9642.818845,326.985000,0.203000
9647.214056,327.032000,-0.902500
9651.701479,327.080000,0.035000
9656.094138,327.127000,-0.598000
9660.485535,327.174000,0.108000
9664.875670,327.221000,-0.239500
9669.264544,327.268000,-0.554500
9673.652158,327.315000,-1.258500
9678.038512,327.362000,-0.970500
9682.423607,327.409000,-0.559000
9686.807443,327.456000,-0.050000
9691.190021,327.503000,-0.741500
9695.478134,327.549000,0.355500
9699.858224,327.596000,-0.139000
9704.237057,327.643000,-0.478500
9708.614633,327.690000,-0.107000
9712.990955,327.737000,-1.252000
9717.366021,327.784000,0.329500
9721.739833,327.831000,0.474500
9726.112390,327.878000,-2.841000
9730.483695,327.925000,0.261500
9734.760780,327.971000,-0.071500
9739.129606,328.018000,-0.560000
9743.497180,328.065000,-0.625000
9747.863503,328.112000,-0.221500
9752.228575,328.159000,0.013500
9756.499562,328.205000,-0.446500
9760.862161,328.252000,-1.054000
9765.223511,328.299000,-0.878500
9769.583612,328.346000,-0.080500
9773.849737,328.392000,0.596500
9778.207369,328.439000,-1.261500
9782.563754,328.486000,-0.088500
9786.918893,328.533000,1.060000
9791.180163,328.579000,0.087000
9795.532837,328.626000,-1.224000
9799.884266,328.673000,-1.122500
9804.141906,328.719000,0.019500
9808.490874,328.766000,-0.872500
9812.838598,328.813000,-0.065500
9817.092614,328.859000,0.166500
9821.437879,328.906000,-0.919500
9825.689490,328.952000,0.049500
9830.032299,328.999000,-0.559000
9834.373868,329.046000,-2.513000
9838.621862,329.092000,-0.991500
9842.960977,329.139000,-0.749500
9847.206571,329.185000,1.544500
9851.543235,329.232000,-0.907000
9855.786431,329.278000,0.508500
9860.120646,329.325000,-1.139000
9864.361446,329.371000,-1.212500
9868.693214,329.418000,0.964000
9872.931619,329.464000,1.777000
9877.260942,329.511000,-0.130500
9881.496956,329.557000,-1.217000
9885.823836,329.604000,-0.400500
9890.057460,329.650000,0.150500
9894.289903,329.696000,0.052000
9898.613135,329.743000,-0.168000
9902.843191,329.789000,0.155500
9907.163985,329.836000,1.206000
9911.391656,329.882000,-1.031500
9915.618148,329.928000,-1.054000
9919.935303,329.975000,1.130500
9924.159413,330.021000,-0.215500
9928.382346,330.067000,-0.174500
9932.695866,330.114000,0.538000
9936.916419,330.160000,-0.310000
9941.135797,330.206000,-0.660500
9945.445687,330.253000,-0.940500
9949.662689,330.299000,-2.062500
9953.878516,330.345000,-1.142000
9958.093170,330.391000,1.002500
9962.398234,330.438000,-0.436000
9966.610516,330.484000,-1.101000
9970.821625,330.530000,-0.324000
9975.031562,330.576000,0.237000
9979.240328,330.622000,-0.592000
9983.539380,330.669000,-0.979500
9987.745778,330.715000,-0.257000
9991.951007,330.761000,-0.049500
9996.155067,330.807000,-0.194500
10000.357957,330.853000,0.194500
10004.559679,330.899000,-0.404500
10008.760233,330.945000,0.734000
10013.050897,330.992000,-0.033500
10017.249091,331.038000,-0.225000
10021.446118,331.084000,-0.243500
10025.641979,331.130000,-0.838000
10029.836675,331.176000,-0.912500
10034.030205,331.222000,-1.118000
10038.222571,331.268000,0.109500
10042.413773,331.314000,0.062000
10046.603811,331.360000,-1.037000
10050.792686,331.406000,-0.177000
10054.980398,331.452000,-0.538500
10059.166948,331.498000,1.054000
10063.352336,331.544000,-0.155000
10067.536563,331.590000,-0.812500
10071.719629,331.636000,0.525000
10075.901535,331.682000,-0.281000
10080.082281,331.728000,-0.927000
10084.261868,331.774000,-3.742500
10088.440296,331.820000,-1.151000
10092.526768,331.865000,-2.414000
10096.702905,331.911000,-0.590500
10100.877884,331.957000,-0.445000
10105.051707,332.003000,-0.209500
10109.224373,332.049000,-0.150000
10113.395884,332.095000,0.492500
10117.475591,332.140000,6.289000
10121.644816,332.186000,0.030000
10125.812886,332.232000,-0.311500
10129.979802,332.278000,0.190000
10134.145565,332.324000,0.104000
10138.219652,332.369000,0.908000
10142.383134,332.415000,0.060000
10146.545464,332.461000,1.788500
10150.706643,332.507000,4.394000
10154.776247,332.552000,0.689500
10158.935148,332.598000,0.245500
10163.092900,332.644000,3.959000
10167.159152,332.689000,-0.644500
10171.314630,332.735000,0.284000
10175.468958,332.781000,0.316000
10179.531864,332.826000,0.438000
10183.683921,332.872000,-0.896000
10187.834831,332.918000,2.517000
10191.894393,332.963000,-0.077500
10196.043035,333.009000,0.587000
10200.190530,333.055000,-0.314000
10204.246754,333.100000,-1.101000
10208.391984,333.146000,0.036500
10212.445992,333.191000,-0.622000
10216.588958,333.237000,8.227000
10220.640753,333.282000,1.182000
10224.781457,333.328000,-0.902000
10228.831039,333.373000,-1.305000
10232.969483,333.419000,0.460500
10237.016856,333.464000,-0.312000
10241.153042,333.510000,-2.366500
10245.198206,333.555000,0.335000
10249.332135,333.601000,0.896500
10253.375094,333.646000,0.927000
10257.506768,333.692000,0.884500
10261.547522,333.737000,-0.875000
10265.587186,333.782000,-1.105000
10269.715494,333.828000,-0.031000
10273.752956,333.873000,0.537000
10277.879015,333.919000,0.174000
10281.914277,333.964000,-0.041000
10285.948452,334.009000,-0.024000
10290.071151,334.055000,-0.078500
10294.103128,334.100000,-0.263000
10298.134020,334.145000,0.086000
10302.253364,334.191000,-0.326000
10306.282060,334.236000,1.581500
10310.309672,334.281000,-1.528500
10314.425666,334.327000,0.097000
10318.451085,334.372000,-0.361000
10322.475422,334.417000,0.014000
10326.498675,334.462000,0.273500
10330.610215,334.508000,-0.205500
10334.631280,334.553000,-0.317000
10338.651263,334.598000,-0.307500
10342.670165,334.643000,-0.666500
10346.687987,334.688000,-0.359000
10350.704728,334.733000,0.325000
10354.809614,334.779000,0.188500
10358.824172,334.824000,1.513500
10362.837651,334.869000,5.793000
10366.850051,334.914000,14.284000
10370.861373,334.959000,0.242500
10374.871618,335.004000,-0.363000
10378.880786,335.049000,-0.775500
10382.888876,335.094000,-0.113500
10386.984923,335.140000,0.260000
10390.990838,335.185000,0.391000
10394.995677,335.230000,-1.143000
10398.999440,335.275000,-0.004500
10403.002130,335.320000,-0.213000
10407.003745,335.365000,-0.324000
10411.004286,335.410000,0.898500
10415.003755,335.455000,0.423000
10419.002150,335.500000,-0.864500
10422.999473,335.545000,-0.923000
10426.995723,335.590000,0.377000
10430.990902,335.635000,-0.926500
10434.985010,335.680000,0.084000
10438.889325,335.724000,-3.621500
10442.881316,335.769000,0.703500
10446.872237,335.814000,0.252500
10450.862088,335.859000,-0.832000
10454.850871,335.904000,0.613500
10458.838585,335.949000,-0.997000
10462.825230,335.994000,0.745000
10466.810808,336.039000,-0.453500
10470.706786,336.083000,-0.768500
10474.690253,336.128000,-0.170000
10478.672654,336.173000,-0.505500
10482.653989,336.218000,-0.007000
10486.634259,336.263000,-1.190500
10490.525048,336.307000,0.228000
10494.503211,336.352000,0.419000
10498.480310,336.397000,-0.181000
10502.456345,336.442000,-0.358000
10506.342995,336.486000,-0.547000
10510.316927,336.531000,-0.171000
10514.289797,336.576000,-1.605500
10518.261604,336.621000,-0.716000
10522.144122,336.665000,0.376500
10526.113830,336.710000,0.051500
10530.082477,336.755000,-0.806000
10533.961906,336.799000,-0.458500
10537.928455,336.844000,1.689000
10541.893946,336.889000,0.695000
10545.770289,336.933000,1.535000
10549.733685,336.978000,-0.384500
10553.607982,337.022000,0.692000
10557.569284,337.067000,1.146500
10561.529529,337.112000,0.479500
10565.400747,337.156000,0.102500
10569.358902,337.201000,0.958500
10573.228076,337.245000,-0.346500
10577.184142,337.290000,0.305500
10581.051275,337.334000,-0.484500
10585.005254,337.379000,-0.078000
10588.870347,337.423000,-0.568000
10592.822240,337.468000,1.540000
10596.685295,337.512000,4.444500
10600.635105,337.557000,5.414000
10604.496123,337.601000,0.354000
10608.443850,337.646000,-1.047000
10612.302834,337.690000,-0.063000
10616.160811,337.734000,-0.134500
10620.105430,337.779000,-0.510000
10623.961375,337.823000,0.711000
10627.903916,337.868000,-0.182000
10631.757830,337.912000,0.046000
10635.610740,337.956000,-0.689000
10639.550179,338.001000,0.969000
10643.401061,338.045000,-0.538500
10647.250940,338.089000,0.008500
10651.187281,338.134000,-0.576500
10655.035134,338.178000,-0.264000
10658.881986,338.222000,0.013000
10662.815231,338.267000,-1.034000
10666.660059,338.311000,-0.282000
10670.503887,338.355000,-0.207500
10674.346716,338.399000,-1.708000
10678.275848,338.444000,-0.826500
10682.116656,338.488000,-0.654500
10685.956465,338.532000,-1.231000
10689.795276,338.576000,-1.610500
10693.633090,338.620000,-0.789500
10697.557096,338.665000,-0.308500
10701.392893,338.709000,-0.578500
10705.227693,338.753000,0.785500
10709.061498,338.797000,0.028000
10712.894307,338.841000,-0.579000
10716.726120,338.885000,-0.079500
10720.556939,338.929000,-0.253000
10724.386763,338.973000,-0.209000
10728.302601,339.018000,-0.656500
10732.130414,339.062000,-0.174500
10735.957235,339.106000,-1.295000
10739.783062,339.150000,0.509500
10743.607897,339.194000,-0.694500
10747.431740,339.238000,0.486000
10751.254591,339.282000,-0.206000
10755.076450,339.326000,-0.751000
10758.897319,339.370000,-0.465500
10762.717197,339.414000,-0.757000
10766.536084,339.458000,-0.083500
10770.353982,339.502000,0.538500
10774.170890,339.546000,1.301000
10777.986809,339.590000,6.477000
10781.801740,339.634000,0.193000
10785.615682,339.678000,-0.237000
10789.341989,339.721000,-0.914500
10793.153978,339.765000,-0.386500
10796.964980,339.809000,0.988500
10800.774995,339.853000,0.169000
10804.584024,339.897000,-0.220000
10808.392066,339.941000,0.579500
10812.199123,339.985000,0.074500
10816.005195,340.029000,-2.014000
10819.723813,340.072000,-2.815500
10823.527938,340.116000,-0.116500
10827.331078,340.160000,-0.497000
10831.133235,340.204000,-0.428500
10834.848029,340.247000,-0.599000
10838.648242,340.291000,0.473000
10842.447472,340.335000,-0.162500
10846.245720,340.379000,0.375000
10849.956695,340.422000,-0.064500
10853.753002,340.466000,0.270500
10857.548328,340.510000,-0.693500
10861.342673,340.554000,-0.184000
10865.049836,340.597000,0.052500
10868.842243,340.641000,-0.828000
10872.633670,340.685000,-0.531500
10876.337983,340.728000,-0.247500
10880.127474,340.772000,-0.781500
10883.829896,340.815000,0.526500
10887.617453,340.859000,0.593500
10891.404033,340.903000,0.995000
10895.103609,340.946000,-0.963000
10898.888257,340.990000,0.095000
10902.585946,341.033000,0.003000
10906.368663,341.077000,0.573500
10910.150404,341.121000,-0.143500
10913.845254,341.164000,-1.255500
10917.625066,341.208000,-0.934500
10921.318033,341.251000,0.694500
10925.095918,341.295000,-0.256500
10928.787002,341.338000,-0.341000
10932.562962,341.382000,-0.305500
10936.252165,341.425000,-0.378000
10939.940439,341.468000,-0.025500
10943.713524,341.512000,0.051000
10947.399919,341.555000,-0.203000
10951.171083,341.599000,0.853500
10954.855601,341.642000,0.901000
10958.624845,341.686000,-0.968500
10962.307486,341.729000,-0.791500
10965.989201,341.772000,0.205000
10969.755578,341.816000,0.209000
10973.435419,341.859000,0.756000
10977.114334,341.902000,-0.369500
10980.877848,341.946000,-0.641000
10984.554892,341.989000,-0.454500
10988.231011,342.032000,-0.029000
10991.991665,342.076000,-0.410000
10995.665914,342.119000,0.311000
10999.339240,342.162000,0.257000
11003.011643,342.205000,-0.532500
11006.768496,342.249000,-0.344000
11010.439032,342.292000,0.574500
11014.108646,342.335000,-0.529500
11017.777338,342.378000,-0.098000
11021.530396,342.422000,-0.264000
11025.197224,342.465000,0.247000
11028.863132,342.508000,-1.683000
11032.528119,342.551000,1.076500
11036.192187,342.594000,-0.991500
11039.855335,342.637000,-1.362000
11043.602720,342.681000,0.592000
11047.264009,342.724000,0.416000
11050.924378,342.767000,0.099500
11054.583829,342.810000,-0.967000
11058.242363,342.853000,-1.514500
11061.899979,342.896000,-0.960000
11065.556677,342.939000,-0.199500
11069.212459,342.982000,-0.379500
11072.867324,343.025000,-0.077500
11076.521273,343.068000,0.323000
11080.174306,343.111000,-0.391500
11083.826423,343.154000,-0.282000
11087.477626,343.197000,0.158500
11091.127913,343.240000,-0.683000
11094.777286,343.283000,0.036500
11098.425745,343.326000,-1.281500
11102.073291,343.369000,-0.791500
11105.719922,343.412000,-0.233000
11109.365641,343.455000,-0.187500
11113.010447,343.498000,-0.030000
11116.654340,343.541000,0.857500
11120.297322,343.584000,0.385000
11123.939391,343.627000,1.319000
11127.580549,343.670000,-0.399000
11131.220797,343.713000,-0.140000
11134.775508,343.755000,-0.450000
11138.413955,343.798000,-0.482500
11142.051492,343.841000,-0.416000
11145.688120,343.884000,-0.344000
11149.323838,343.927000,0.971000
11152.958647,343.970000,0.184000
11156.508049,344.012000,0.491000
11160.141062,344.055000,0.245500
11163.773167,344.098000,0.468500
11167.404365,344.141000,-0.957000
11170.950240,344.183000,-1.121000
11174.579645,344.226000,0.545500
11178.208143,344.269000,-0.257000
11181.751382,344.311000,0.619500
11185.378088,344.354000,-0.699000
11189.003889,344.397000,0.269000
11192.628785,344.440000,-0.166000
11196.168507,344.482000,0.170500
11199.791614,344.525000,0.433500
11203.413817,344.568000,-0.641000
11206.950910,344.610000,0.066500
11210.571327,344.653000,-0.601500
11214.106675,344.695000,0.202000
11217.725306,344.738000,0.163000
11221.343035,344.781000,-0.667000
11224.875759,344.823000,0.149000
11228.491704,344.866000,-0.400000
11232.022687,344.908000,-0.674500
11235.636851,344.951000,-0.165000
11239.166094,344.993000,-0.349500
11242.778477,345.036000,-0.675000
11246.305982,345.078000,0.170000
11249.916585,345.121000,-0.477500
11253.442353,345.163000,0.627500
11257.051178,345.206000,0.221500
11260.575210,345.248000,0.401000
11264.182259,345.291000,-0.209000
11267.704555,345.333000,0.884000
11271.309829,345.376000,2.391500
11274.830392,345.418000,-0.365500
11278.350100,345.460000,0.570000
11281.952723,345.503000,-0.587000
11285.470699,345.545000,0.187000
11288.987820,345.587000,0.503000
11292.587796,345.630000,-0.256000
11296.103187,345.672000,-1.110000
11299.701393,345.715000,-0.082500
11303.215056,345.757000,-1.008500
11306.727865,345.799000,-0.298500
11310.239821,345.841000,-0.502500
11313.834512,345.884000,1.104000
11317.344742,345.926000,-0.192000
11320.854120,345.968000,-0.667500
11324.446172,346.011000,-0.910500
11327.953826,346.053000,0.890000
11331.460629,346.095000,-0.668500
11334.966581,346.137000,-0.154500
11338.471682,346.179000,-0.295500
11342.059357,346.222000,0.355500
11345.562737,346.264000,0.022000
11349.065268,346.306000,0.374000
11352.566949,346.348000,-0.780000
11356.067781,346.390000,0.491000
11359.567764,346.432000,-0.598000
11363.150201,346.475000,-0.392000
11366.648467,346.517000,0.907500
11370.145885,346.559000,-0.653000
11373.642456,346.601000,0.286000
11377.138179,346.643000,-0.349500
11380.633055,346.685000,0.443500
11384.127085,346.727000,-1.123500
11387.620268,346.769000,-4.558000
11391.112605,346.811000,-2.838000
11394.604096,346.853000,-0.361500
11398.094742,346.895000,-0.115000
11401.584543,346.937000,-1.504000
11405.073499,346.979000,-0.300500
11408.561610,347.021000,0.218500
11412.048877,347.063000,-1.086000
11415.535301,347.105000,-0.345500
11419.020880,347.147000,0.948000
11422.505617,347.189000,0.326500
11425.989510,347.231000,-0.619000
11429.472560,347.273000,1.067000
11432.954769,347.315000,-0.359000
11436.436135,347.357000,0.316000
11439.916659,347.399000,-0.223000
11443.313502,347.440000,-0.599000
11446.792364,347.482000,-0.602000
11450.270384,347.524000,-0.411000
11453.747565,347.566000,0.562500
11457.223905,347.608000,0.953000
11460.699405,347.650000,1.460500
11464.091345,347.691000,-0.421500
11467.565186,347.733000,0.449000
11471.038188,347.775000,0.278500
11474.510351,347.817000,-0.603000
11477.981676,347.859000,0.546000
11481.369541,347.900000,-0.051000
11484.839210,347.942000,-2.469000
11488.308041,347.984000,-10.250000
11491.693473,348.025000,-1.464500
11495.160650,348.067000,-14.422000
11498.626991,348.109000,-10.264000
11502.092494,348.151000,-0.631500
11505.474680,348.192000,-1.107000
11508.938532,348.234000,-0.292000
11512.401549,348.276000,-0.248500
11515.781307,348.317000,-1.117500
11519.242673,348.359000,-0.098000
11522.620821,348.400000,0.897000
11526.080539,348.442000,0.481500
11529.539422,348.484000,-0.433000
11532.915148,348.525000,-0.586500
11536.372384,348.567000,-1.011500
11539.746502,348.608000,-0.586000
11543.202092,348.650000,-0.788500
11546.574604,348.691000,-1.085000
11550.028550,348.733000,-3.107000
11553.399456,348.774000,-2.347000
11556.851758,348.816000,-1.247500
11560.221061,348.857000,-0.453000
11563.671720,348.899000,-0.710500
11567.039420,348.940000,1.166000
11570.488439,348.982000,-0.263000
11573.854537,349.023000,0.905500
11577.301915,349.065000,-0.306000
11580.666413,349.106000,-0.286500
11584.030120,349.147000,1.386500
11587.475051,349.189000,-0.271500
11590.837159,349.230000,1.028000
11594.280452,349.272000,-0.534500
11597.640963,349.313000,-0.671500
11601.000686,349.354000,-0.728500
11604.441535,349.396000,-1.282500
11607.799661,349.437000,-0.560500
11611.157000,349.478000,-0.563000
11614.595408,349.520000,-1.607500
11617.951152,349.561000,-1.671000
11621.306109,349.602000,-0.396000
11624.660280,349.643000,-0.161500
11628.095443,349.685000,0.806500
11631.448022,349.726000,0.148500
11634.799814,349.767000,-0.342500
11638.150821,349.808000,-1.159000
11641.582745,349.850000,-0.379500
11644.932162,349.891000,0.325000
11648.280794,349.932000,0.777000
11651.628641,349.973000,0.368500
11654.975704,350.014000,-0.493500
11658.403590,350.056000,-0.940500
11661.749066,350.097000,-0.540500
11665.093759,350.138000,0.284000
11668.437668,350.179000,-1.031500
11671.780795,350.220000,-0.207500
11675.123139,350.261000,0.622000
11678.464700,350.302000,-0.366500
11681.805480,350.343000,-1.385000
11685.145477,350.384000,0.550500
11688.484693,350.425000,0.274000
11691.904543,350.467000,-0.145000
11695.242178,350.508000,-0.404000
11698.579032,350.549000,-1.270000
11701.915105,350.590000,-0.013500
11705.250398,350.631000,0.046500
11708.584912,350.672000,-0.558000
11711.918645,350.713000,-0.362000
11715.251600,350.754000,0.651000
11718.502512,350.794000,-0.548000
11721.833927,350.835000,0.089000
11725.164564,350.876000,-2.667000
11728.494422,350.917000,-0.902000
11731.823503,350.958000,-0.772500
11735.151806,350.999000,2.608000
11738.479331,351.040000,-0.143500
11741.806079,351.081000,0.032000
11745.132050,351.122000,-0.504000
11748.457245,351.163000,0.561500
11751.700589,351.203000,-0.192000
11755.024250,351.244000,-0.231500
11758.347135,351.285000,0.088500
11761.669245,351.326000,-0.716000
11764.990579,351.367000,0.319500
11768.230159,351.407000,0.976500
11771.549962,351.448000,-0.040500
11774.868991,351.489000,0.033000
11778.187246,351.530000,0.064500
11781.423822,351.570000,1.314000
11784.740548,351.611000,-0.314000
11788.056500,351.652000,-0.465000
11791.371680,351.693000,-0.603500
11794.605256,351.733000,-1.002000
11797.918909,351.774000,-1.824000
11801.231790,351.815000,-1.025500
11804.463124,351.855000,-0.298000
11807.774479,351.896000,-2.285500
11811.085063,351.937000,-3.706500
11814.314158,351.977000,-1.404000
11817.623218,352.018000,0.271500
11820.850827,352.058000,-1.236000
11824.158365,352.099000,-1.075500
11827.465133,352.140000,-0.672500
11830.690506,352.180000,0.084000
11833.995753,352.221000,-0.329000
11837.219643,352.261000,-0.384000
11840.523370,352.302000,-1.277000
11843.745778,352.342000,-1.110000
11847.047986,352.383000,-0.797500
11850.268913,352.423000,-2.838500
11853.569603,352.464000,-1.879500
11856.789050,352.504000,-0.871500
11860.088224,352.545000,0.535500
11863.306191,352.585000,-1.676000
11866.603850,352.626000,-0.526000
11869.820339,352.666000,-4.292500
11873.116483,352.707000,-0.368000
11876.331495,352.747000,-0.666000
11879.545777,352.787000,0.201000
11882.839661,352.828000,0.178000
11886.052468,352.868000,-0.850000
11889.264547,352.908000,0.220500
11892.556173,352.949000,0.414000
11895.766777,352.989000,-0.592500
11899.056892,353.030000,2.258500
11902.266024,353.070000,2.021000
11905.474429,353.110000,-0.405000
11908.682107,353.150000,0.259500
11911.969223,353.191000,-1.194000
11915.175430,353.231000,-0.019000
11918.380911,353.271000,-0.372000
11921.665775,353.312000,-0.826500
11924.869787,353.352000,-0.285000
11928.073073,353.392000,-1.463500
11931.275634,353.432000,-4.765000
11934.477470,353.472000,-1.834000
11937.758600,353.513000,-1.545500
11940.958969,353.553000,0.128500
11944.158614,353.593000,-0.951000
11947.357536,353.633000,0.174500
11950.555733,353.673000,-0.056500
11953.753208,353.713000,-2.424500
11957.029868,353.754000,-0.279000
11960.225879,353.794000,-1.961000
11963.421166,353.834000,-0.603500
11966.615732,353.874000,0.071500
11969.809575,353.914000,0.586500
11973.002696,353.954000,0.134500
11976.195096,353.994000,-0.884500
11979.386774,354.034000,0.346000
11982.577731,354.074000,-0.010000
11985.767968,354.114000,-0.878000
11988.957483,354.154000,-0.272500
11992.146279,354.194000,0.318000
11995.334354,354.234000,0.720500
11998.521709,354.274000,0.822500
12001.708345,354.314000,2.734000
12004.894261,354.354000,0.070000
12008.079458,354.394000,-0.744000
12011.263936,354.434000,1.173000
12014.447695,354.474000,-0.104000
12017.630736,354.514000,0.649000
12020.813059,354.554000,-0.401000
12023.994663,354.594000,-0.317500
12027.175550,354.634000,-1.112500
12030.276224,354.673000,-0.367000
12033.455694,354.713000,-0.883500
12036.634448,354.753000,-1.292000
12039.812484,354.793000,-1.786500
12042.989804,354.833000,0.164500
12046.166408,354.873000,-0.042500
12049.262907,354.912000,0.390500
12052.438097,354.952000,-0.685000
12055.612571,354.992000,1.060000
12058.786330,355.032000,-0.919500
12061.880056,355.071000,-0.328000
12065.052403,355.111000,0.839500
12068.224035,355.151000,-0.390500
12071.394953,355.191000,-0.767000
12074.485910,355.230000,0.404500
12077.655418,355.270000,-0.305500
12080.824212,355.310000,-0.250500
12083.913100,355.349000,-0.213000
12087.080485,355.389000,-0.550500
12090.247158,355.429000,-0.658500
12093.333977,355.468000,0.372000
12096.499242,355.508000,-1.951000
12099.663795,355.548000,-44.907500
12102.748549,355.587000,-78.587000
12105.911696,355.627000,-44.785000
12108.995079,355.666000,-74.811000
12112.156822,355.706000,-47.178500
12115.317853,355.746000,-22.240500
12118.399174,355.785000,-57.034000
12121.558801,355.825000,-26.500000
12124.638754,355.864000,-72.589000
12127.796979,355.904000,-74.352000
12130.875565,355.943000,-60.972500
12134.032389,355.983000,-53.612000
12137.109608,356.022000,-48.227500
12140.265031,356.062000,-39.843500
12143.340885,356.101000,-90.081500
12146.494908,356.141000,-49.888000
12149.569398,356.180000,-42.329500
12152.643215,356.219000,-55.355500
12155.795149,356.259000,-56.930500
12158.867603,356.298000,-18.103000
12162.018139,356.338000,-82.605000
12165.089231,356.377000,-29.498000
12168.159651,356.416000,-33.651500
12171.308101,356.456000,-83.713000
12174.377160,356.495000,-75.944000
12177.445548,356.534000,-19.636500
12180.591915,356.574000,-36.700500
12183.658943,356.613000,-54.308000
12186.725300,356.652000,-35.636500
12189.869585,356.692000,-33.186000
12192.934585,356.731000,-52.555500
12195.998914,356.770000,-51.259000
12199.062573,356.809000,-77.189000
12202.204093,356.849000,-58.542000
12205.266396,356.888000,-46.256500
12208.328030,356.927000,-52.789500
12211.388995,356.966000,-23.180000
12214.527751,357.006000,-49.642000
12217.587361,357.045000,-28.855500
12220.646304,357.084000,-67.295000
12223.704578,357.123000,-34.369000
12226.762184,357.162000,-65.896500
12229.819122,357.201000,-66.309500
12232.953750,357.241000,-70.226000
12236.009337,357.280000,-34.975000
12239.064257,357.319000,-31.595500
12242.118510,357.358000,-49.026000
12245.172096,357.397000,-48.140500
12248.225016,357.436000,-56.059000
