raman_shift_cm-1,wavelength_nm,intensity
-311.444523,246.690000,0.000000
-300.766377,246.755000,0.000000
-290.093855,246.820000,-114.595350
-279.262891,246.886000,-212.540440
-268.601691,246.951000,-152.584200
-257.946101,247.016000,-232.268120
-247.296118,247.081000,-182.039490
-236.651737,247.146000,-174.156470
-226.012953,247.211000,-165.348090
-215.216219,247.277000,-123.619370
-204.588703,247.342000,-108.249740
-193.966771,247.407000,-174.557720
-183.350419,247.472000,-137.846640
-172.739643,247.537000,-148.132330
-162.134437,247.602000,-186.971180
-151.534799,247.667000,-186.506230
-140.940722,247.732000,-263.670340
-130.352203,247.797000,-236.560930
-119.769238,247.862000,-206.440330
-109.191822,247.927000,-169.670240
-98.619951,247.992000,-135.444600
-88.053621,248.057000,-105.048290
-77.655258,248.121000,-152.202250
-67.099910,248.186000,-279.086240
-56.550089,248.251000,-201.385030
-46.005792,248.316000,-133.594200
-35.467013,248.381000,-208.226370
-24.933749,248.446000,-161.937900
-14.405995,248.511000,-110.035300
-4.045586,248.575000,-99.406250
6.471245,248.640000,-171.586240
16.982580,248.705000,-209.136060
27.488421,248.770000,-138.799910
37.827271,248.834000,-149.770470
48.322224,248.899000,-146.867790
58.811696,248.964000,-140.285310
69.134442,249.028000,-219.441560
79.613052,249.093000,-198.069330
90.086194,249.158000,-210.979990
100.392873,249.222000,-253.383190
110.855177,249.287000,-154.029010
121.312027,249.352000,-165.642180
131.602677,249.416000,-210.548750
142.048715,249.481000,-172.706580
152.328727,249.545000,-261.904680
162.763968,249.610000,-208.561330
173.033359,249.674000,-217.191770
183.457821,249.739000,-225.554220
193.716607,249.803000,-82.319550
204.130307,249.868000,-152.138480
214.378504,249.932000,-8.684360
224.781458,249.997000,4.609060
235.019083,250.061000,26.825950
245.411309,250.126000,14.009900
255.638378,250.190000,0.480150
265.860216,250.254000,32.401520
276.236420,250.319000,23.836280
286.447727,250.383000,19.688230
296.813243,250.448000,31.169810
307.014035,250.512000,24.081250
317.209616,250.576000,29.310510
327.399990,250.640000,34.630300
337.744263,250.705000,3.115070
347.924154,250.769000,22.391230
358.098850,250.833000,25.599540
368.268355,250.897000,16.786040
378.591450,250.962000,23.909170
388.750505,251.026000,29.136570
398.904381,251.090000,43.772500
409.053082,251.154000,43.535230
419.196612,251.218000,38.145050
429.334975,251.282000,38.971800
439.626466,251.347000,51.670450
449.754426,251.411000,66.123000
459.877231,251.475000,99.187900
469.994885,251.539000,150.618150
480.107392,251.603000,186.648110
490.214756,251.667000,232.094660
500.316980,251.731000,246.873750
510.414069,251.795000,243.617610
520.506026,251.859000,267.494500
530.592855,251.923000,292.956160
540.674561,251.987000,294.625250
550.751147,252.051000,243.231570
560.822617,252.115000,251.147140
570.888975,252.179000,261.449420
580.950225,252.243000,257.930860
590.849282,252.306000,278.423700
600.900407,252.370000,276.386670
610.946435,252.434000,281.793060
620.987371,252.498000,438.061580
631.023218,252.562000,802.628270
641.053980,252.626000,1193.539800
650.923048,252.689000,1432.339650
660.943731,252.753000,1110.434040
670.959341,252.817000,673.839970
680.969880,252.881000,527.647230
690.819058,252.944000,538.326020
700.819549,253.008000,444.184850
710.814983,253.072000,378.445030
720.805362,253.136000,336.136940
730.634708,253.199000,331.248420
740.615069,253.263000,329.221190
750.434561,253.326000,344.573200
760.404919,253.390000,374.036750
770.370241,253.454000,372.982300
780.174941,253.517000,394.649750
790.130283,253.581000,405.176910
799.925166,253.644000,409.047120
809.870542,253.708000,428.457550
819.655623,253.771000,439.373530
829.591048,253.835000,418.905560
839.366341,253.898000,410.288310
849.291831,253.962000,390.482160
859.057350,254.025000,383.887100
868.972920,254.089000,356.052160
878.728681,254.152000,387.188040
888.634344,254.216000,368.087130
898.380361,254.279000,368.063220
908.121550,254.342000,374.936570
918.012421,254.406000,394.341730
927.743888,254.469000,401.353030
937.470538,254.532000,427.727240
947.346650,254.596000,450.024120
957.063600,254.659000,432.817450
966.775743,254.722000,466.014410
976.637128,254.786000,477.281240
986.339593,254.849000,512.784550
996.037261,254.912000,619.023950
1005.730138,254.975000,576.903770
1015.571966,255.039000,522.331950
1025.255192,255.102000,487.855400
1034.933637,255.165000,439.445310
1044.607304,255.228000,414.827820
1054.276196,255.291000,432.487910
1063.940318,255.354000,406.847230
1073.599672,255.417000,368.438200
1083.407471,255.481000,415.187830
1093.057225,255.544000,379.190890
1102.702223,255.607000,377.444380
1112.342467,255.670000,353.540870
1121.977961,255.733000,340.787420
1131.608710,255.796000,333.032810
1141.234715,255.859000,328.661690
1150.855981,255.922000,310.890800
1160.472512,255.985000,317.870050
1170.084310,256.048000,309.085130
1179.691379,256.111000,292.149460
1189.293724,256.174000,303.058380
1198.739040,256.236000,307.414420
1208.332019,256.299000,282.456160
1217.920283,256.362000,287.273200
1227.503835,256.425000,297.004570
1237.082680,256.488000,298.996860
1246.656820,256.551000,276.167140
1256.226260,256.614000,294.807050
1265.639217,256.676000,291.521750
1275.199339,256.739000,257.794170
1284.754770,256.802000,307.000360
1294.305515,256.865000,297.169780
1303.700087,256.927000,324.845640
1313.241541,256.990000,287.017560
1322.778319,257.053000,293.319170
1332.310423,257.116000,312.283150
1341.686664,257.178000,319.008050
1351.209505,257.241000,342.060970
1360.727683,257.304000,368.053400
1370.090229,257.366000,388.432390
1379.599165,257.429000,351.807530
1388.952622,257.491000,339.590220
1398.452329,257.554000,323.616210
1407.796710,257.616000,356.109400
1417.287202,257.679000,303.323880
1426.773053,257.742000,343.466550
1436.103810,257.804000,323.015480
1445.580466,257.867000,323.978940
1454.902179,257.929000,303.277840
1464.369654,257.992000,301.510830
1473.682337,258.054000,312.864790
1482.990547,258.116000,297.948580
1492.444310,258.179000,295.095920
1501.743510,258.241000,295.593210
1511.188124,258.304000,308.083690
1520.478327,258.366000,318.545220
1529.764072,258.428000,318.666330
1539.195025,258.491000,356.807520
1548.471792,258.553000,361.418620
1557.744112,258.615000,393.560930
1567.161432,258.678000,420.186720
1576.424794,258.740000,449.573950
1585.683718,258.802000,498.323380
1594.938206,258.864000,509.958150
1604.337420,258.927000,518.937950
1613.582976,258.989000,457.790470
1622.824106,259.051000,453.525920
1632.060814,259.113000,404.872380
1641.293103,259.175000,388.307370
1650.669776,259.238000,358.340700
1659.893165,259.300000,338.670500
1669.112144,259.362000,308.951690
1678.326716,259.424000,279.274530
1687.536886,259.486000,286.788740
1696.742655,259.548000,286.004250
1705.944027,259.610000,277.514410
1715.141005,259.672000,270.989780
1724.333592,259.734000,249.370650
1733.521792,259.796000,259.399180
1742.705607,259.858000,229.343200
1751.885041,259.920000,239.942730
1761.060096,259.982000,258.743100
1770.230777,260.044000,252.579000
1779.397086,260.106000,238.887300
1788.559026,260.168000,254.499730
1797.716600,260.230000,246.473980
1806.869812,260.292000,258.490110
1816.018664,260.354000,237.715300
1825.163160,260.416000,237.584250
1834.155916,260.477000,244.567830
1843.291778,260.539000,232.782030
1852.423294,260.601000,240.114490
1861.550466,260.663000,247.926720
1870.673297,260.725000,218.510870
1879.644752,260.786000,251.195650
1888.758980,260.848000,227.011520
1897.868877,260.910000,234.571740
1906.974445,260.972000,227.947630
1915.928928,261.033000,235.431810
1925.025918,261.095000,189.726080
1934.118588,261.157000,221.155520
1943.060391,261.218000,247.364710
1952.144502,261.280000,240.892510
1961.224302,261.342000,233.073770
1970.153451,261.403000,242.156320
1979.224710,261.465000,236.690310
1988.145460,261.526000,232.892260
1997.208190,261.588000,226.873490
2006.120554,261.649000,228.751420
2015.174766,261.711000,236.722050
2024.078756,261.772000,239.008140
2033.124461,261.834000,232.080110
2042.020089,261.895000,193.341190
2051.057301,261.957000,242.888750
2059.944578,262.018000,213.317160
2068.973308,262.080000,242.073720
2077.852245,262.141000,215.532530
2086.872506,262.203000,213.441390
2095.743116,262.264000,221.680850
2104.609601,262.325000,215.393120
2113.617214,262.387000,223.997090
2122.475388,262.448000,221.278130
2131.329447,262.509000,212.055530
2140.324438,262.571000,215.377310
2149.170203,262.632000,199.071320
2158.011861,262.693000,218.759930
2166.994257,262.755000,236.902490
2175.827640,262.816000,200.626800
2184.656923,262.877000,213.122020
2193.482109,262.938000,192.152430
2202.303202,262.999000,205.562610
2211.264711,263.061000,201.926550
2220.077557,263.122000,210.662800
2228.886318,263.183000,217.788710
2237.690997,263.244000,185.685250
2246.491597,263.305000,208.208390
2255.288119,263.366000,211.617500
2264.080568,263.427000,218.756730
2272.868945,263.488000,237.876170
2281.653255,263.549000,218.783560
2290.577403,263.611000,206.033020
2299.353518,263.672000,207.553360
2308.125573,263.733000,192.997320
2316.893571,263.794000,205.200160
2325.657515,263.855000,186.493110
2334.273836,263.915000,199.275450
2343.029746,263.976000,207.302430
2351.781611,264.037000,230.259520
2360.529433,264.098000,217.320830
2369.273215,264.159000,226.273440
2378.012959,264.220000,211.985270
2386.748669,264.281000,213.171820
2395.480347,264.342000,199.256500
2404.207997,264.403000,214.163520
2412.788642,264.463000,214.188760
2421.508308,264.524000,228.590150
2430.223953,264.585000,196.965060
2438.935580,264.646000,221.384450
2447.643192,264.707000,191.844080
2456.204142,264.767000,214.106490
2464.903798,264.828000,195.864940
2473.599447,264.889000,164.886620
2482.148639,264.949000,202.463910
2490.836348,265.010000,184.576330
2499.520059,265.071000,248.132760
2508.057516,265.131000,223.879400
2516.733303,265.192000,204.366840
2525.405101,265.253000,198.455310
2533.930847,265.313000,208.379400
2542.594737,265.374000,204.876890
2551.112712,265.434000,206.581520
2559.768705,265.495000,228.782920
2568.278918,265.555000,187.049260
2576.927027,265.616000,205.469490
2585.571164,265.677000,214.517980
2594.069722,265.737000,211.842720
2602.564444,265.797000,208.440020
2611.196813,265.858000,175.729150
2619.683805,265.918000,200.261360
2628.308321,265.979000,203.941850
2636.787594,266.039000,215.065820
2645.404268,266.100000,197.631660
2653.875831,266.160000,230.469460
2662.343577,266.220000,206.933030
2670.948539,266.281000,212.441630
2679.408591,266.341000,199.795550
2687.864833,266.401000,187.782290
2696.458108,266.462000,224.286350
2704.906672,266.522000,210.469110
2713.351433,266.582000,206.768760
2721.792393,266.642000,231.300370
2730.370143,266.703000,229.001810
2738.803447,266.763000,207.553070
2747.232958,266.823000,200.654480
2755.658679,266.883000,205.278940
2764.220946,266.944000,207.210060
2772.639032,267.004000,202.325400
2781.053334,267.064000,192.659270
2789.463857,267.124000,184.006170
2797.870602,267.184000,208.829920
2806.273573,267.244000,184.175220
2814.672771,267.304000,215.758290
2823.068200,267.364000,190.424500
2831.459861,267.424000,204.001900
2839.847757,267.484000,206.240320
2848.231891,267.544000,203.325070
2856.612266,267.604000,214.432110
2864.988884,267.664000,193.780570
2873.361747,267.724000,201.351730
2881.730857,267.784000,205.972920
2890.096219,267.844000,195.305040
2898.457833,267.904000,196.938870
2906.815703,267.964000,220.954050
2915.169831,268.024000,200.819650
2923.520219,268.084000,198.276450
2931.866870,268.144000,191.118200
2940.209787,268.204000,199.320700
2948.410016,268.263000,199.061410
2956.745534,268.323000,196.410840
2965.077324,268.383000,186.203750
2973.405390,268.443000,193.927210
2981.729735,268.503000,179.276450
2989.911713,268.562000,190.188320
2998.228682,268.622000,224.403270
3006.541937,268.682000,193.590890
3014.851480,268.742000,189.982530
3023.018913,268.801000,200.961820
3031.321101,268.861000,204.904420
3039.619584,268.921000,204.229200
3047.776149,268.980000,204.160280
3056.067292,269.040000,208.838690
3064.216644,269.099000,200.500930
3072.500457,269.159000,203.774870
3080.780577,269.219000,205.194860
3088.919097,269.278000,194.442280
3097.191901,269.338000,203.032590
3105.323232,269.397000,198.599700
3113.588730,269.457000,199.793680
3121.712881,269.516000,205.132620
3129.971082,269.576000,203.865060
3138.088063,269.635000,194.701170
3146.338978,269.695000,199.281630
3154.448798,269.754000,198.542210
3162.692435,269.814000,206.728330
3170.795104,269.873000,208.742200
3178.894231,269.932000,201.219950
3187.127001,269.992000,208.793510
3195.218991,270.051000,240.818780
3203.307445,270.110000,219.675810
3211.529370,270.170000,216.598930
3219.610701,270.229000,209.867820
3227.688505,270.288000,209.046070
3235.899605,270.348000,207.716360
3243.970299,270.407000,189.568770
3252.037473,270.466000,204.483070
3260.101128,270.525000,196.568250
3268.297848,270.585000,198.921450
3276.354413,270.644000,210.756060
3284.407466,270.703000,189.571770
3292.457009,270.762000,182.861750
3300.503044,270.821000,182.838770
3308.545575,270.880000,183.315910
3316.720828,270.940000,189.000050
3324.756296,270.999000,185.502150
3332.788267,271.058000,179.661360
3340.816741,271.117000,190.731140
3348.841722,271.176000,193.830540
3356.863212,271.235000,166.853270
3364.881213,271.294000,177.314990
3372.895727,271.353000,182.957060
3380.906756,271.412000,182.896810
3388.914304,271.471000,207.891980
3396.918371,271.530000,181.567000
3404.918961,271.589000,197.965010
3412.916076,271.648000,193.888780
3420.909718,271.707000,194.878360
3428.899888,271.766000,175.021700
3436.886591,271.825000,169.993610
3444.734546,271.883000,179.772240
3452.714377,271.942000,194.721880
3460.690746,272.001000,178.439330
3468.663655,272.060000,187.321650
3476.633107,272.119000,201.601650
3484.599104,272.178000,172.842480
3492.426718,272.236000,176.277380
3500.385870,272.295000,178.566720
3508.341573,272.354000,181.827890
3516.293830,272.413000,184.954870
3524.107947,272.471000,225.828820
3532.053377,272.530000,181.101570
3539.995368,272.589000,179.879170
3547.799398,272.647000,187.500120
3555.734574,272.706000,177.361870
3563.666318,272.765000,172.933350
3571.460282,272.823000,193.337740
3579.385225,272.882000,192.705010
3587.306741,272.941000,189.143640
3595.090658,272.999000,196.360180
3603.005387,273.058000,230.091180
3610.782635,273.116000,179.326730
3618.690585,273.175000,183.838940
3626.461173,273.233000,182.851970
3634.362353,273.292000,175.893690
3642.126290,273.350000,189.680840
3650.020708,273.409000,187.733590
3657.778002,273.467000,191.481830
3665.665667,273.526000,176.922420
3673.416327,273.584000,186.575860
3681.163701,273.642000,190.522070
3689.041282,273.701000,191.609370
3696.782035,273.759000,191.159450
3704.652885,273.818000,173.942810
3712.387025,273.876000,188.576620
3720.117889,273.934000,175.108850
3727.845481,273.992000,165.380100
3735.702951,274.051000,174.529350
3743.423947,274.109000,169.503090
3751.141676,274.167000,175.419570
3758.989119,274.226000,171.255420
3766.700265,274.284000,184.629930
3774.408150,274.342000,181.084880
3782.112776,274.400000,174.376840
3789.814146,274.458000,190.033660
3797.644960,274.517000,178.415190
3805.339767,274.575000,179.823760
3813.031324,274.633000,177.725610
3820.719634,274.691000,209.234930
3828.404697,274.749000,189.520020
3836.086516,274.807000,171.457940
3843.765093,274.865000,187.766540
3851.440431,274.923000,171.431260
3859.112530,274.981000,208.826310
3866.781394,275.039000,162.347720
3874.447024,275.097000,169.441320
3882.109423,275.155000,169.048700
3889.768591,275.213000,170.145990
3897.424533,275.271000,179.040480
3905.077248,275.329000,193.747050
3912.726740,275.387000,143.362920
3920.373011,275.445000,187.846230
3928.016062,275.503000,182.916940
3935.655896,275.561000,171.062970
3943.292514,275.619000,270.704190
3950.925919,275.677000,173.071840
3958.424585,275.734000,186.675760
3966.051625,275.792000,169.697890
3973.675457,275.850000,180.831180
3981.296084,275.908000,173.447130
3988.913508,275.966000,195.892660
3996.396478,276.023000,193.350640
4004.007557,276.081000,171.844680
4011.615438,276.139000,196.347820
4019.220124,276.197000,177.633770
4026.690584,276.254000,178.484080
4034.288940,276.312000,173.997620
4041.884108,276.370000,177.976470
4049.345219,276.427000,190.273810
4056.934068,276.485000,185.230690
4064.519735,276.543000,158.712110
4071.971515,276.600000,175.915810
4079.550876,276.658000,187.437780
4086.996462,276.715000,184.084060
4094.569525,276.773000,177.662290
4102.008927,276.830000,184.790200
4109.575700,276.888000,181.449630
4117.008923,276.945000,182.548050
4124.569414,277.003000,182.610410
4131.996467,277.060000,184.805340
4139.550684,277.118000,183.252330
4146.971575,277.175000,173.811210
4154.519525,277.233000,171.467920
4161.934262,277.290000,192.165550
4169.475953,277.348000,218.681880
4228.011654,277.799000,210.209150
4235.396210,277.856000,171.748790
4242.907211,277.914000,178.117740
4250.415077,277.972000,172.731130
4257.790445,278.029000,230.869370
4265.292102,278.087000,185.285470
4272.790631,278.145000,182.017890
4280.156828,278.202000,186.253000
4287.649159,278.260000,176.983460
4295.138368,278.318000,155.916570
4302.495411,278.375000,192.002060
4309.978434,278.433000,188.984560
4317.329402,278.490000,182.953260
4324.806246,278.548000,180.056280
4332.151147,278.605000,181.006280
4339.621821,278.663000,206.303690
4346.960661,278.720000,194.489080
4354.425172,278.778000,212.940000
4361.757959,278.835000,187.075640
4369.216314,278.893000,197.860540
4376.543056,278.950000,187.763700
4383.995264,279.008000,196.906020
4391.315968,279.065000,158.994240
4398.762036,279.123000,181.674560
4406.076709,279.180000,182.430610
4413.516644,279.238000,175.272560
4420.825295,279.295000,198.033840
4428.130962,279.352000,191.745880
4435.561740,279.410000,183.575240
4442.861395,279.467000,190.517540
4450.158074,279.524000,198.608030
4457.579711,279.582000,197.310540
4464.870389,279.639000,203.047960
4472.158095,279.696000,212.630380
4479.570607,279.754000,188.585320
4486.852324,279.811000,174.204140
4494.131074,279.868000,205.304100
4501.534479,279.926000,209.118920
4508.807251,279.983000,193.845630
4516.077062,280.040000,205.443050
4523.343914,280.097000,211.905290
4530.735220,280.155000,189.599520
4537.996108,280.212000,216.887700
4545.254043,280.269000,249.635020
4552.509026,280.326000,190.905580
4559.888262,280.384000,213.623620
4567.137295,280.441000,186.065830
4574.383383,280.498000,179.663060
4581.626526,280.555000,190.495700
4588.866727,280.612000,176.722470
4596.103987,280.669000,191.356150
4603.338308,280.726000,196.622940
4610.696532,280.784000,182.357990
4617.924929,280.841000,192.301530
4625.150392,280.898000,187.599010
4632.372923,280.955000,180.356200
4639.592525,281.012000,197.465930
4646.809198,281.069000,195.280670
4654.022945,281.126000,145.479880
4661.233767,281.183000,192.952990
4668.441666,281.240000,194.846950
4675.646644,281.297000,200.051550
4682.848703,281.354000,179.248400
4690.047844,281.411000,181.287950
4697.244070,281.468000,185.231740
4704.437381,281.525000,198.344680
4711.627780,281.582000,185.846150
4718.815269,281.639000,193.543340
4725.999849,281.696000,194.491160
4733.181522,281.753000,198.420320
4740.360290,281.810000,179.091250
4747.536154,281.867000,174.175610
4754.583300,281.923000,207.975990
4761.753414,281.980000,190.733850
4768.920629,282.037000,208.440560
4776.084949,282.094000,207.865810
4783.246373,282.151000,207.723370
4790.404904,282.208000,198.233340
4797.435032,282.264000,220.463720
4804.587834,282.321000,209.468480
4811.737748,282.378000,184.506010
4818.884776,282.435000,204.485790
4826.028920,282.492000,196.045140
4833.044920,282.548000,197.089310
4840.183352,282.605000,195.265350
4847.318904,282.662000,212.111620
4854.451579,282.719000,204.964940
4861.456319,282.775000,198.767890
4868.583295,282.832000,193.028510
4875.707399,282.889000,192.159640
4882.703723,282.945000,189.160130
4889.822139,283.002000,194.910690
4896.937687,283.059000,179.335150
4903.925611,283.115000,212.451860
4911.035481,283.172000,197.054450
4918.142490,283.229000,176.960350
4925.122029,283.285000,181.551110
4932.223369,283.342000,186.851400
4939.197342,283.398000,176.581930
4946.293021,283.455000,165.656990
4953.385847,283.512000,181.994660
4960.351460,283.568000,184.925670
4967.438635,283.625000,167.127930
4974.398699,283.681000,149.799140
4981.480229,283.738000,157.187390
4988.434752,283.794000,145.059330
4995.510644,283.851000,164.035650
5002.459631,283.907000,161.713010
5009.529893,283.964000,148.929700
5016.473351,284.020000,140.035750
5023.537988,284.077000,158.225480
5030.475924,284.133000,145.439480
5037.534943,284.190000,152.603920
5044.467363,284.246000,133.237080
5051.397052,284.302000,139.887530
5058.447683,284.359000,128.634950
5065.371866,284.415000,92.381640
5072.416896,284.472000,132.056980
5079.335580,284.528000,126.529590
5086.251541,284.584000,132.797450
5093.288207,284.641000,104.798000
5100.198678,284.697000,120.952040
5107.106432,284.753000,109.225440
5114.134748,284.810000,124.326890
5121.037022,284.866000,117.455500
5127.936582,284.922000,106.910630
5134.833431,284.978000,100.890800
5141.850655,285.035000,99.329920
5148.742037,285.091000,110.299640
5155.630712,285.147000,97.662120
5162.516682,285.203000,76.152000
5169.522840,285.260000,90.642160
5176.403356,285.316000,91.411850
5183.281172,285.372000,103.245020
5190.156289,285.428000,92.282380
5197.028709,285.484000,112.679850
5204.021082,285.541000,101.364060
5210.888064,285.597000,78.593450
5217.752353,285.653000,90.685220
5224.613952,285.709000,93.775090
5231.472862,285.765000,87.859260
5238.329083,285.821000,105.357430
5245.182619,285.877000,79.513330
5252.033470,285.933000,77.622970
5258.881638,285.989000,78.557560
5265.727125,286.045000,68.563500
5272.569932,286.101000,86.128140
5279.532182,286.158000,71.435490
5286.369586,286.214000,58.311780
5293.204315,286.270000,66.098850
5300.036371,286.326000,62.170800
5306.865755,286.382000,67.135940
5313.692468,286.438000,81.430660
5320.516513,286.494000,66.517560
5327.216104,286.549000,76.394470
5334.034863,286.605000,63.389990
5340.850958,286.661000,58.259660
5347.664391,286.717000,64.069980
5354.475163,286.773000,68.761050
5361.283275,286.829000,64.855900
5368.088729,286.885000,69.241360
5374.891528,286.941000,51.683180
5381.691671,286.997000,69.987940
5388.489161,287.053000,37.802800
5395.162686,287.108000,60.655960
5401.954922,287.164000,66.639230
5408.744509,287.220000,68.890370
5415.531448,287.276000,62.946070
5422.315743,287.332000,69.658470
5428.976316,287.387000,71.480800
5435.755371,287.443000,42.132590
5442.531785,287.499000,62.251720
5449.305560,287.555000,57.916940
5456.076697,287.611000,57.757720
5462.724355,287.666000,51.813150
5469.490268,287.722000,62.222650
5476.253548,287.778000,61.740690
5482.893494,287.833000,58.158090
5489.651559,287.889000,62.354060
5496.406995,287.945000,65.283290
5503.039242,288.000000,74.166530
5509.789473,288.056000,58.533980
5516.537079,288.112000,85.113350
5523.161640,288.167000,79.880900
5529.904050,288.223000,60.821060
5536.643840,288.279000,50.930110
5543.260729,288.334000,91.208070
5549.995332,288.390000,59.667210
5556.607128,288.445000,37.210490
5563.336549,288.501000,63.064040
5569.943259,288.556000,54.866170
5576.667504,288.612000,58.370970
5583.269134,288.667000,54.023320
5589.988209,288.723000,68.668200
5596.584764,288.778000,57.175220
5603.298676,288.834000,63.146190
5609.890162,288.889000,86.099500
5616.598916,288.945000,66.736230
5623.185340,289.000000,87.042800
5629.888941,289.056000,72.637680
5636.470308,289.111000,50.977450
5643.168763,289.167000,55.891330
5649.745079,289.222000,51.888360
5656.438394,289.278000,64.372000
5663.009664,289.333000,51.945620
5669.578437,289.388000,65.077170
5676.264076,289.444000,68.174590
5682.827812,289.499000,61.736890
5689.389054,289.554000,60.507910
5696.067030,289.610000,125.385410
5702.623244,289.665000,52.165610
5709.176969,289.720000,61.052190
5715.847296,289.776000,57.625560
5722.396001,289.831000,64.099570
5728.942221,289.886000,63.088760
5735.485958,289.941000,81.555360
5742.146122,289.997000,47.759260
5748.684850,290.052000,69.788560
5755.221100,290.107000,90.139460
5761.754871,290.162000,72.871250
5768.404894,290.218000,77.879650
5774.933669,290.273000,52.805480
5781.459971,290.328000,65.870860
5787.983800,290.383000,63.172870
5794.505158,290.438000,55.132610
5801.142550,290.494000,65.390420
5807.658926,290.549000,76.486010
5814.172835,290.604000,72.680450
5820.684279,290.659000,65.189450
5827.193260,290.714000,67.054920
5833.699778,290.769000,65.200790
5840.203835,290.824000,59.629750
5846.705432,290.879000,45.782960
5853.204572,290.934000,63.907390
5859.701254,290.989000,72.043190
5866.195481,291.044000,72.404430
5872.687254,291.099000,67.895770
5879.176574,291.154000,57.147720
5885.663444,291.209000,69.294270
5892.147863,291.264000,57.163020
5898.629834,291.319000,75.734920
5905.109357,291.374000,64.154690
5911.586435,291.429000,48.953880
5918.061069,291.484000,65.378170
5924.533260,291.539000,57.165260
5931.003009,291.594000,54.624590
5937.470318,291.649000,73.828810
5943.935188,291.704000,65.585730
5950.397621,291.759000,60.202200
5956.857618,291.814000,21.751400
5963.315180,291.869000,53.493880
5969.770309,291.924000,65.543940
5976.105706,291.978000,54.918130
5982.556017,292.033000,72.583220
5989.003898,292.088000,71.180370
5995.449352,292.143000,61.658160
6001.892379,292.198000,63.467670
6008.215901,292.252000,70.790530
6014.654123,292.307000,68.773980
6021.089923,292.362000,77.394010
6027.523303,292.417000,56.014610
6033.954262,292.472000,64.239820
6040.265942,292.526000,52.756030
6046.692111,292.581000,68.213420
6053.115864,292.636000,66.277910
6059.420472,292.690000,74.728870
6065.839442,292.745000,79.108370
6072.256000,292.800000,76.608310
6078.553548,292.854000,58.870550
6084.965331,292.909000,69.565170
6091.374707,292.964000,61.537640
6097.665207,293.018000,75.835530
6104.069816,293.073000,79.911280
6110.472021,293.128000,70.025280
6116.755485,293.182000,74.132190
6123.152931,293.237000,97.290020
6129.431725,293.291000,21.717820
6135.824417,293.346000,66.485890
6142.098547,293.400000,72.291310
6148.486490,293.455000,65.618630
6154.872040,293.510000,75.086360
6161.139160,293.564000,61.476970
6167.519969,293.619000,73.265190
6173.782438,293.673000,64.072950
6180.158512,293.728000,104.191250
6186.416334,293.782000,99.067150
6192.787678,293.837000,81.989350
6199.040859,293.891000,54.999700
6205.291742,293.945000,66.047170
6211.656022,294.000000,46.530170
6217.902272,294.054000,86.637560
6224.261835,294.109000,74.527470
6230.503456,294.163000,66.110620
6236.742786,294.217000,60.077230
6243.095305,294.272000,61.668400
6249.330014,294.326000,64.150760
6255.677829,294.381000,73.938120
6261.907923,294.435000,85.597990
6268.135731,294.489000,73.928020
6274.476522,294.544000,57.901310
6280.699722,294.598000,72.798360
6286.920642,294.652000,60.004310
6293.139281,294.706000,75.708630
6299.470739,294.761000,57.971870
6305.684781,294.815000,67.160830
6311.896546,294.869000,42.275170
6318.106037,294.923000,70.881450
6324.428182,294.978000,57.888510
6330.633085,295.032000,60.172730
6336.835717,295.086000,69.538570
6343.036080,295.140000,68.937320
6349.234174,295.194000,66.441510
6355.544717,295.249000,80.576060
6361.738236,295.303000,85.718780
6367.929490,295.357000,61.009970
6374.118480,295.411000,55.558010
6380.305209,295.465000,82.419090
6386.489676,295.519000,72.696740
6392.671884,295.573000,61.386320
6398.851833,295.627000,57.298010
6405.143905,295.682000,55.203270
6411.319300,295.736000,63.368470
6417.492439,295.790000,61.604470
6423.663325,295.844000,58.548420
6429.831958,295.898000,70.733410
6435.998340,295.952000,57.159270
6442.162473,296.006000,64.737010
6448.324357,296.060000,61.557880
6454.483993,296.114000,56.689520
6460.641384,296.168000,57.732470
6466.796529,296.222000,68.518820
6472.949431,296.276000,67.739030
6479.100090,296.330000,64.898640
6485.248508,296.384000,77.020720
6491.280888,296.437000,67.656890
6497.424869,296.491000,63.424690
6503.566612,296.545000,64.851880
6509.706118,296.599000,74.382900
6515.843390,296.653000,61.647980
6521.978427,296.707000,59.226720
6528.111232,296.761000,57.994870
6534.241805,296.815000,73.686120
6540.256681,296.868000,80.853920
6546.382836,296.922000,69.080930
6552.506763,296.976000,73.429700
6558.628464,297.030000,65.215320
6564.747939,297.084000,93.788760
6570.751928,297.137000,67.534640
6576.866997,297.191000,72.280550
6582.979845,297.245000,68.863560
6589.090471,297.299000,65.821330
6595.085780,297.352000,66.686760
6601.192010,297.406000,68.893070
6607.296023,297.460000,71.527350
6613.397821,297.514000,70.041610
6619.384468,297.567000,92.082210
6625.481879,297.621000,71.953990
6631.577077,297.675000,58.147290
6637.557251,297.728000,60.677210
6643.648069,297.782000,84.996820
6649.623947,297.835000,67.673260
6655.710390,297.889000,64.242480
6661.794627,297.943000,52.072820
6667.764048,297.996000,50.542840
6673.843917,298.050000,77.801760
6679.809053,298.103000,44.616950
6685.884559,298.157000,61.262950
6691.957864,298.211000,74.645100
6697.916562,298.264000,77.306880
6703.985510,298.318000,85.885520
6709.939935,298.371000,86.125510
6716.004532,298.425000,58.121350
6721.954688,298.478000,68.829750
6728.014938,298.532000,53.528930
6733.960830,298.585000,63.056260
6739.904611,298.638000,62.073710
6745.958369,298.692000,48.951240
6751.897893,298.745000,75.418450
6757.947317,298.799000,58.562500
6763.882588,298.852000,45.626080
6769.927680,298.906000,75.531920
6775.858703,298.959000,61.278770
6781.787624,299.012000,60.947430
6787.826249,299.066000,87.311430
6793.750928,299.119000,69.654250
6799.673508,299.172000,72.798690
6805.705677,299.226000,65.117250
6811.624022,299.279000,48.033200
6817.540272,299.332000,54.724110
6823.565994,299.386000,74.691420
6829.478016,299.439000,60.759110
6835.387945,299.492000,72.433160
6841.407231,299.546000,66.920750
6847.312940,299.599000,65.154030
6853.216559,299.652000,83.597110
6859.118090,299.705000,60.433600
6865.017534,299.758000,67.838840
6871.026143,299.812000,71.479380
6876.921378,299.865000,63.671060
6882.814529,299.918000,53.517120
6888.705597,299.971000,60.489050
6894.594584,300.024000,74.130730
6900.592545,300.078000,70.390840
6906.477333,300.131000,60.803350
6912.360044,300.184000,63.250120
6918.240677,300.237000,65.283840
6924.119235,300.290000,84.639510
6929.995718,300.343000,65.925460
6935.870127,300.396000,80.813420
6941.742464,300.449000,59.408060
6947.612730,300.502000,58.136550
6953.480925,300.555000,59.483820
6959.347051,300.608000,61.178630
6965.211108,300.661000,-24.668820
6971.073099,300.714000,89.443650
6976.933024,300.767000,67.736030
6982.790884,300.820000,58.273040
6988.646680,300.873000,73.981110
6994.500413,300.926000,77.461010
7000.352085,300.979000,-117.964080
7006.201696,301.032000,52.895970
7012.049248,301.085000,34.044110
7017.894742,301.138000,101.193370
7023.738178,301.191000,67.022990
7029.579559,301.244000,62.470380
7035.418884,301.297000,66.712210
7041.256155,301.350000,55.635820
7047.091373,301.403000,60.479000
7052.924539,301.456000,72.556850
7058.645653,301.508000,74.779620
7064.474758,301.561000,69.996360
7070.301814,301.614000,58.472380
7076.126822,301.667000,57.315300
7081.949784,301.720000,68.039780
7087.660892,301.772000,60.292880
7093.479803,301.825000,62.921230
7099.296670,301.878000,77.975620
7105.111496,301.931000,65.632870
7110.814624,301.983000,67.018370
7116.625408,302.036000,84.307990
7122.434152,302.089000,67.118030
7128.240858,302.142000,75.136180
7133.936024,302.194000,57.367010
7139.738696,302.247000,52.785850
7145.539334,302.300000,62.103530
7151.228549,302.352000,55.482850
7157.025159,302.405000,81.650460
7162.819737,302.458000,60.608390
7168.503010,302.510000,48.841380
7174.293567,302.563000,56.643140
7180.082095,302.616000,57.001450
7185.759436,302.668000,65.829050
7191.543949,302.721000,51.904910
7197.217352,302.773000,50.640170
7202.997854,302.826000,63.079520
7208.667324,302.878000,57.056650
7214.443819,302.931000,58.039270
7220.109360,302.983000,66.641000
7225.881853,303.036000,67.971390
7231.543468,303.088000,68.916560
7237.311962,303.141000,44.940190
7242.969657,303.193000,86.856580
7248.734156,303.246000,53.588980
7254.387934,303.298000,59.637190
7260.148443,303.351000,70.348710
7265.798308,303.403000,66.374760
7271.554831,303.456000,59.042430
7277.200787,303.508000,63.626920
7282.953328,303.561000,58.181190
7288.595379,303.613000,76.623860
7294.235498,303.665000,71.780400
7299.982093,303.718000,81.318310
7305.618313,303.770000,50.585930
7311.252604,303.822000,79.652450
7316.993262,303.875000,85.340120
7322.623660,303.927000,66.469140
7328.252131,303.979000,70.443850
7333.986862,304.032000,63.521650
7339.611446,304.084000,54.369910
7345.234108,304.136000,44.104040
7350.962920,304.189000,54.949590
7356.581700,304.241000,75.492410
7362.198561,304.293000,72.430670
7367.813502,304.345000,61.035250
7373.426525,304.397000,71.508730
7379.145517,304.450000,78.308360
7384.754669,304.502000,73.857720
7390.361906,304.554000,61.623470
7395.967228,304.606000,62.328180
7401.570637,304.658000,59.856230
7407.279836,304.711000,66.562170
7412.879384,304.763000,75.733190
7418.477021,304.815000,55.582350
7424.072749,304.867000,47.869510
7429.666569,304.919000,76.201880
7435.258480,304.971000,67.217100
7440.848486,305.023000,73.845110
7446.436585,305.075000,68.471750
7452.022780,305.127000,58.735660
7457.607071,305.179000,56.409590
7463.296795,305.232000,57.542860
7468.877245,305.284000,63.262190
7474.455794,305.336000,51.567340
7480.032444,305.388000,64.546890
7485.607195,305.440000,52.010400
7491.180048,305.492000,70.324640
7496.751004,305.544000,74.902070
7502.212985,305.595000,44.155290
7507.780187,305.647000,65.018700
7513.345495,305.699000,76.165860
7518.908909,305.751000,68.024440
7524.470432,305.803000,69.993510
7530.030064,305.855000,57.127760
7535.587805,305.907000,51.764230
7541.143658,305.959000,48.726650
7546.697622,306.011000,42.674440
7552.249699,306.063000,46.470490
7557.693173,306.114000,64.974080
7563.241514,306.166000,53.911650
7568.787971,306.218000,57.035440
7574.332545,306.270000,70.688770
7579.875237,306.322000,57.176890
7585.416047,306.374000,67.755240
7590.848476,306.425000,49.640980
7596.385562,306.477000,50.893530
7601.920769,306.529000,46.404720
7607.454098,306.581000,53.560490
7612.879195,306.632000,61.632480
7618.408808,306.684000,61.765460
7623.936546,306.736000,70.106970
7629.462411,306.788000,55.401050
7634.880189,306.839000,62.183650
7640.402345,306.891000,73.831920
7645.922629,306.943000,53.185890
7651.334938,306.994000,53.281030
7656.851519,307.046000,46.007870
7662.260197,307.097000,61.942690
7667.773079,307.149000,51.014670
7673.284094,307.201000,40.336780
7678.687317,307.252000,42.529700
7684.194638,307.304000,45.600180
7689.700096,307.356000,55.929070
7695.097870,307.407000,22.067020
7700.599639,307.459000,54.503920
7705.993798,307.510000,71.264000
7711.491883,307.562000,58.087110
7716.882430,307.613000,66.601960
7722.376833,307.665000,64.384270
7727.763772,307.716000,66.616920
7733.254498,307.768000,65.381110
7738.637831,307.819000,62.227620
7744.124884,307.871000,62.467160
7749.504617,307.922000,50.845100
7754.988000,307.974000,57.842000
7760.364134,308.025000,55.852030
7765.738489,308.076000,52.809200
7771.216392,308.128000,56.769130
7776.587155,308.179000,53.009540
7782.061397,308.231000,62.252410
7787.428571,308.282000,53.544770
7792.793970,308.333000,47.141810
7798.262745,308.385000,52.948500
7803.624561,308.436000,51.192240
7808.984603,308.487000,48.502640
7814.447920,308.539000,75.848810
7819.804385,308.590000,56.546000
7825.159080,308.641000,49.589790
7830.616947,308.693000,64.834830
7835.968069,308.744000,37.025530
7841.317424,308.795000,42.942250
7846.665012,308.846000,52.257300
7852.115636,308.898000,54.612740
7857.459659,308.949000,55.988740
7862.801917,309.000000,53.020400
7868.142413,309.051000,51.231270
7873.481146,309.102000,39.541310
7878.922746,309.154000,50.483540
7884.257923,309.205000,64.093360
7889.591340,309.256000,52.122740
7894.922998,309.307000,53.813240
7900.252898,309.358000,49.917130
7905.581041,309.409000,52.544020
7910.907428,309.460000,50.594120
7916.336447,309.512000,30.737490
7921.659290,309.563000,33.908150
7926.980379,309.614000,32.650040
7932.299715,309.665000,36.626510
7937.617300,309.716000,50.529580
7942.933134,309.767000,58.141850
7948.247217,309.818000,53.242970
7953.559551,309.869000,51.442140
7958.870137,309.920000,28.422990
7964.178976,309.971000,42.883770
7969.486068,310.022000,49.175230
7974.791414,310.073000,58.147300
7980.095015,310.124000,48.690270
7985.396872,310.175000,51.116760
7990.696985,310.226000,60.951710
7995.995357,310.277000,43.325690
8001.291987,310.328000,48.141660
8006.586876,310.379000,41.186160
8011.880026,310.430000,36.620960
8017.067700,310.480000,44.196930
8022.357406,310.531000,44.714180
8027.645376,310.582000,47.841630
8032.931609,310.633000,38.433440
8038.216106,310.684000,31.924630
8043.498869,310.735000,46.919310
8048.779898,310.786000,28.837040
8053.955695,310.836000,38.687980
8059.233293,310.887000,46.469000
8064.509160,310.938000,42.901550
8069.783296,310.989000,54.194880
8074.952339,311.039000,38.944680
8080.223051,311.090000,26.442920
8085.492035,311.141000,56.469240
8090.759292,311.192000,37.147340
8095.921594,311.242000,35.314510
8101.185433,311.293000,43.157650
8106.447548,311.344000,45.414440
8111.604811,311.394000,50.446460
8116.863513,311.445000,36.581620
8122.120493,311.496000,37.148210
8127.272724,311.546000,49.327930
8132.526297,311.597000,53.689610
8137.778150,311.648000,35.130910
8142.925357,311.698000,38.597150
8148.173807,311.749000,28.787150
8153.420541,311.800000,42.849940
8158.562731,311.850000,34.208210
8163.806066,311.901000,41.466320
8168.944927,311.951000,46.074100
8174.184869,312.002000,53.896200
8179.320403,312.052000,52.748510
8184.556953,312.103000,28.777790
8189.689165,312.153000,36.147770
8194.922327,312.204000,42.754280
8200.051219,312.254000,34.768520
8205.280996,312.305000,26.852410
8210.406572,312.355000,33.573190
8215.632968,312.406000,45.267470
8220.755230,312.456000,36.547740
8225.978248,312.507000,17.130160
8231.097200,312.557000,16.801170
8236.316843,312.608000,19.958250
8241.432488,312.658000,25.934000
8246.546497,312.708000,38.423820
8251.761101,312.759000,20.002510
8256.871808,312.809000,5.837540
8261.980881,312.859000,31.189940
8267.190453,312.910000,34.587640
8272.296229,312.960000,29.385260
8277.400373,313.010000,28.561310
8282.604921,313.061000,30.133670
8287.705773,313.111000,40.119150
8292.804996,313.161000,27.494050
8298.004526,313.212000,27.589570
8303.100462,313.262000,55.321090
8308.194770,313.312000,36.814450
8313.287453,313.362000,33.633190
8318.480316,313.413000,10.891490
8323.569717,313.463000,17.485900
8328.657496,313.513000,19.133930
8333.743651,313.563000,28.118650
8338.828185,313.613000,28.468920
8344.012739,313.664000,36.084390
8349.094000,313.714000,26.937300
8354.173640,313.764000,17.937920
8359.251662,313.814000,16.083590
8364.328066,313.864000,17.785880
8369.402853,313.914000,5.172740
8374.476024,313.964000,45.512660
8379.547579,314.014000,25.314580
8384.718901,314.065000,12.669360
8389.787195,314.115000,11.458560
8394.853876,314.165000,19.864420
8399.918944,314.215000,36.251430
8404.982400,314.265000,26.485650
8410.044246,314.315000,17.621870
8415.104481,314.365000,-5.611340
8420.163107,314.415000,30.540710
8425.220124,314.465000,9.847560
8430.275533,314.515000,16.096910
8435.329336,314.565000,27.110110
8440.381532,314.615000,9.900180
8445.432122,314.665000,16.513010
8450.481107,314.715000,11.885820
8455.528489,314.765000,15.342550
8460.473367,314.814000,22.374850
8465.517575,314.864000,26.977670
8470.560181,314.914000,25.955590
8475.601186,314.964000,23.580220
8480.640590,315.014000,19.369080
8485.678395,315.064000,26.771270
8490.714602,315.114000,21.350750
8495.749210,315.164000,25.313100
8500.681577,315.213000,-5.491330
8505.713024,315.263000,-15.973570
8510.742875,315.313000,20.739150
8515.771131,315.363000,8.790960
8520.797793,315.413000,-2.752380
8525.722375,315.462000,-23.218520
8530.745883,315.512000,39.526140
8535.767799,315.562000,36.618230
8540.788124,315.612000,19.633140
8545.706499,315.661000,31.068260
8550.723675,315.711000,32.736370
8555.739262,315.761000,14.171720
8560.652997,315.810000,17.357560
8565.665441,315.860000,9.983830
8570.676298,315.910000,15.270600
8575.585399,315.959000,14.138550
8580.593116,316.009000,23.027660
8585.599249,316.059000,23.530020
8590.503723,316.108000,19.556840
8595.506721,316.158000,2.192380
8600.508137,316.208000,11.553100
8605.407991,316.257000,8.931870
8610.406276,316.307000,6.920710
8615.303063,316.356000,7.989480
8620.298221,316.406000,16.697710
8625.191944,316.455000,11.546450
8630.183977,316.505000,3.834120
8635.074640,316.554000,5.983100
8640.063551,316.604000,4.705280
8644.951156,316.653000,17.036980
8649.936949,316.703000,9.552810
8654.821499,316.752000,0.955870
8659.804175,316.802000,10.552220
8664.685673,316.851000,10.438060
8669.665237,316.901000,0.106290
8674.543685,316.950000,17.973390
8679.520139,317.000000,8.287660
8684.395541,317.049000,13.228640
8689.269436,317.098000,-6.064860
8694.241247,317.148000,3.376380
8699.112100,317.197000,-3.682890
8703.981448,317.246000,-5.862740
8708.948621,317.296000,1.354450
8713.814931,317.345000,0.593570
8718.779005,317.395000,4.477950
8723.642281,317.444000,2.277970
8728.504055,317.493000,14.771140
8733.364329,317.542000,32.130760
8738.322247,317.592000,12.115930
8743.179491,317.641000,14.761300
8748.035237,317.690000,-5.636360
8752.889486,317.739000,5.459580
8757.841258,317.789000,8.862400
8762.692483,317.838000,-8.422300
8767.542212,317.887000,0.823870
8772.390446,317.936000,-14.563550
8777.336084,317.986000,-2.694260
8782.181300,318.035000,0.213140
8787.025024,318.084000,19.092540
8791.867255,318.133000,-3.110000
8796.707995,318.182000,11.328860
8801.547244,318.231000,-3.912580
8806.385003,318.280000,3.305670
8811.319957,318.330000,-5.060100
8816.154708,318.379000,-4.371280
8820.987971,318.428000,-9.290060
8825.819746,318.477000,-3.927040
8830.650035,318.526000,-1.939520
8835.478838,318.575000,1.940950
8840.306156,318.624000,6.222610
8845.131990,318.673000,-7.188750
8849.956339,318.722000,2.080600
8854.779206,318.771000,-2.226280
8859.600590,318.820000,-18.193790
8864.420492,318.869000,-6.280930
8869.238913,318.918000,5.370350
8874.055854,318.967000,1.779520
8878.871314,319.016000,-2.616970
8883.685296,319.065000,0.845160
8888.497800,319.114000,3.793020
8893.308826,319.163000,1.873330
8898.118374,319.212000,5.983500
8902.926447,319.261000,12.285500
8907.634964,319.309000,6.510650
8912.440116,319.358000,-10.242290
8917.243794,319.407000,12.802420
8922.045998,319.456000,-3.456900
8926.846729,319.505000,-4.328700
8931.645988,319.554000,-2.748910
8936.443775,319.603000,19.846870
8941.142222,319.651000,6.607700
8945.937098,319.700000,12.011570
8950.730504,319.749000,-10.941680
8955.522441,319.798000,7.802030
8960.215161,319.846000,5.805680
8965.004192,319.895000,12.368440
8969.791757,319.944000,-9.876160
8974.577855,319.993000,-4.204070
8979.264858,320.041000,0.890380
8984.048055,320.090000,14.647750
8988.829789,320.139000,3.720480
8993.512517,320.187000,-7.520060
8998.291355,320.236000,4.093050
9003.068730,320.285000,-13.957490
9007.747190,320.333000,2.209440
9012.521672,320.382000,9.958280
9017.294694,320.431000,-2.381280
9021.968893,320.479000,2.211970
9026.739026,320.528000,-19.925420
9031.410396,320.576000,17.009310
9036.177644,320.625000,-2.177500
9040.943434,320.674000,30.891680
9045.610552,320.722000,-13.875930
9050.373460,320.771000,-1.074300
9055.037756,320.819000,-3.834690
9059.797784,320.868000,2.540670
9064.459261,320.916000,15.061830
9069.216413,320.965000,2.232980
9073.875072,321.013000,-14.872710
9078.629350,321.062000,-1.624280
9083.285194,321.110000,10.400420
9088.036601,321.159000,-12.854280
9092.689634,321.207000,17.025390
9097.438171,321.256000,5.948020
9102.088394,321.304000,-15.043020
9106.737229,321.352000,6.998530
9111.481482,321.401000,2.008930
9116.127511,321.449000,1.188970
9120.868902,321.498000,4.112490
9125.512128,321.546000,-6.590880
9130.153968,321.594000,4.747110
9134.891085,321.643000,7.419500
9139.530126,321.691000,15.175730
9144.167783,321.739000,-7.035340
9148.900630,321.788000,15.518440
9153.535492,321.836000,14.594760
9158.168971,321.884000,-0.118930
9162.801069,321.932000,-20.213370
9167.528244,321.981000,4.681260
9172.157551,322.029000,17.058850
9176.785479,322.077000,-2.790610
9181.412027,322.125000,-0.813860
9186.133540,322.174000,1.230810
9190.757302,322.222000,-7.175810
9195.379688,322.270000,-6.839300
9200.000697,322.318000,11.178310
9204.620330,322.366000,-4.877610
9209.334786,322.415000,10.214210
9213.951640,322.463000,25.343810
9218.567119,322.511000,-13.995260
9223.181225,322.559000,7.764660
9227.793957,322.607000,1.904340
9232.405318,322.655000,-3.197560
9237.015306,322.703000,-0.252510
9241.623923,322.751000,33.283680
9246.231170,322.799000,9.274600
9250.932988,322.848000,-11.567110
9255.537466,322.896000,7.104000
9260.140576,322.944000,5.780960
9264.742318,322.992000,-21.680210
9269.342693,323.040000,-22.222670
9273.941700,323.088000,-57.851930
9278.539341,323.136000,-20.359840
9283.135616,323.184000,-13.807330
9287.730527,323.232000,-14.085810
9292.324072,323.280000,81.854070
9296.916254,323.328000,5.071020
9301.411445,323.375000,21.752780
9306.000929,323.423000,-24.451420
9310.589052,323.471000,5.427990
9315.175812,323.519000,-8.072890
9319.761212,323.567000,-7.664900
9324.345252,323.615000,-2.541410
9328.927932,323.663000,12.219170
9333.509253,323.711000,3.224780
9338.089216,323.759000,-8.841050
9342.572447,323.806000,-6.395330
9347.149722,323.854000,11.051660
9351.725642,323.902000,0.582460
9356.300205,323.950000,14.073350
9360.873412,323.998000,-3.136130
9365.350032,324.045000,-11.910930
9369.920559,324.093000,5.942540
9374.489732,324.141000,-3.110930
9379.057552,324.189000,14.737790
9383.528899,324.236000,-18.122440
9388.094043,324.284000,7.329850
9392.657836,324.332000,-2.834180
9397.125241,324.379000,-2.282990
9401.686361,324.427000,4.379820
9406.246132,324.475000,-0.160490
9410.804554,324.523000,-7.559300
9415.266702,324.570000,-9.957540
9419.822456,324.618000,-12.880490
9424.281993,324.665000,3.133770
9428.835082,324.713000,-2.584940
9433.386824,324.761000,-14.485920
9437.842435,324.808000,-6.053250
9442.391516,324.856000,-4.903790
9446.844521,324.903000,14.684080
9451.390942,324.951000,4.802210
9455.936020,324.999000,12.047620
9460.385108,325.046000,11.171880
9464.927530,325.094000,0.557370
9469.374018,325.141000,0.875920
9473.913786,325.189000,9.313510
9478.357677,325.236000,-5.180460
9482.894794,325.284000,-13.193310
9487.336090,325.331000,7.770570
9491.870557,325.379000,-18.537670
9496.309260,325.426000,-6.836030
9500.746681,325.473000,-3.675330
9505.277193,325.521000,7.184500
9509.712024,325.568000,-8.674470
9514.239893,325.616000,-6.748660
9518.672137,325.663000,-4.042240
9523.103102,325.710000,-1.552980
9527.627024,325.758000,-10.256620
9532.055405,325.805000,-1.262290
9536.576689,325.853000,1.324980
9541.002489,325.900000,-1.433350
9545.427013,325.947000,9.074630
9549.850260,325.994000,-12.973360
9554.366303,326.042000,44.018800
9558.786974,326.089000,0.808010
9563.206371,326.136000,-4.656060
9567.718482,326.184000,-2.402170
9572.135305,326.231000,26.756870
9576.550855,326.278000,-1.829620
9580.965134,326.325000,28.932730
9585.472021,326.373000,14.934660
9589.883730,326.420000,16.013790
9594.294169,326.467000,7.845850
9598.703338,326.514000,6.890690
9603.111238,326.561000,5.215980
9607.611614,326.609000,11.863140
9612.016950,326.656000,17.095310
9616.421019,326.703000,-3.644510
9620.823821,326.750000,-0.349230
9625.225356,326.797000,3.615180
9629.625626,326.844000,-10.276960
9634.024630,326.891000,2.084670
9638.422369,326.938000,-15.307180
9642.818845,326.985000,-3.314810
9647.214056,327.032000,-5.469340
9651.701479,327.080000,-1.162590
9656.094138,327.127000,4.197500
9660.485535,327.174000,0.796960
9664.875670,327.221000,19.124170
9669.264544,327.268000,0.128460
9673.652158,327.315000,3.521360
9678.038512,327.362000,1.961270
9682.423607,327.409000,-5.161210
9686.807443,327.456000,0.979740
9691.190021,327.503000,-9.687190
9695.478134,327.549000,12.597070
9699.858224,327.596000,5.719850
9704.237057,327.643000,-4.776190
9708.614633,327.690000,3.399610
9712.990955,327.737000,1.578190
9717.366021,327.784000,-2.842690
9721.739833,327.831000,0.170810
9726.112390,327.878000,17.439230
9730.483695,327.925000,-0.252480
9734.760780,327.971000,13.685470
9739.129606,328.018000,4.939590
9743.497180,328.065000,-0.996760
9747.863503,328.112000,-1.571770
9752.228575,328.159000,-11.125790
9756.499562,328.205000,-6.752050
9760.862161,328.252000,2.820630
9765.223511,328.299000,-2.880270
9769.583612,328.346000,14.893730
9773.849737,328.392000,-3.049220
9778.207369,328.439000,10.477040
9782.563754,328.486000,-8.963240
9786.918893,328.533000,-29.032160
9791.180163,328.579000,1.848100
9795.532837,328.626000,1.099870
9799.884266,328.673000,5.126700
9804.141906,328.719000,5.677270
9808.490874,328.766000,7.284590
9812.838598,328.813000,0.160100
9817.092614,328.859000,-14.907140
9821.437879,328.906000,2.951680
9825.689490,328.952000,-3.143630
9830.032299,328.999000,-18.660650
9834.373868,329.046000,-20.497730
9838.621862,329.092000,6.249190
9842.960977,329.139000,-6.898210
9847.206571,329.185000,-11.907680
9851.543235,329.232000,-25.671640
9855.786431,329.278000,-18.205500
9860.120646,329.325000,-13.770710
9864.361446,329.371000,-2.611190
9868.693214,329.418000,-8.273830
9872.931619,329.464000,-6.489790
9877.260942,329.511000,-10.669370
9881.496956,329.557000,-1.947270
9885.823836,329.604000,-3.142060
9890.057460,329.650000,8.267780
9894.289903,329.696000,9.942790
9898.613135,329.743000,11.467350
9902.843191,329.789000,10.461270
9907.163985,329.836000,2.272030
9911.391656,329.882000,-9.273360
9915.618148,329.928000,10.792150
9919.935303,329.975000,-7.859060
9924.159413,330.021000,-1.382580
9928.382346,330.067000,7.171240
9932.695866,330.114000,7.890380
9936.916419,330.160000,-3.257550
9941.135797,330.206000,6.096590
9945.445687,330.253000,-3.594730
9949.662689,330.299000,12.781940
9953.878516,330.345000,17.155850
9958.093170,330.391000,-18.630990
9962.398234,330.438000,-2.474350
9966.610516,330.484000,9.037880
9970.821625,330.530000,1.760910
9975.031562,330.576000,-6.356620
9979.240328,330.622000,7.075460
9983.539380,330.669000,-17.017720
9987.745778,330.715000,-34.634640
9991.951007,330.761000,4.233190
9996.155067,330.807000,4.593040
10000.357957,330.853000,4.879140
10004.559679,330.899000,15.143780
10008.760233,330.945000,-4.683130
10013.050897,330.992000,3.998650
10017.249091,331.038000,-11.420850
10021.446118,331.084000,-1.638160
10025.641979,331.130000,-11.109060
10029.836675,331.176000,-7.214300
10034.030205,331.222000,11.959580
10038.222571,331.268000,5.061650
10042.413773,331.314000,-0.401040
10046.603811,331.360000,5.413960
10050.792686,331.406000,2.645070
10054.980398,331.452000,-6.112710
10059.166948,331.498000,7.764450
10063.352336,331.544000,18.102360
10067.536563,331.590000,-3.819540
10071.719629,331.636000,12.903020
10075.901535,331.682000,2.311540
10080.082281,331.728000,0.584240
10084.261868,331.774000,8.276460
10088.440296,331.820000,1.537650
10092.526768,331.865000,-9.130750
10096.702905,331.911000,4.444040
10100.877884,331.957000,14.848210
10105.051707,332.003000,20.600670
10109.224373,332.049000,-14.288080
10113.395884,332.095000,4.411730
10117.475591,332.140000,-0.689980
10121.644816,332.186000,-16.359250
10125.812886,332.232000,-4.835490
10129.979802,332.278000,5.678050
10134.145565,332.324000,6.371530
10138.219652,332.369000,2.977350
10142.383134,332.415000,1.635330
10146.545464,332.461000,-4.453950
10150.706643,332.507000,-21.371570
10154.776247,332.552000,-7.424760
10158.935148,332.598000,4.017560
10163.092900,332.644000,1.506960
10167.159152,332.689000,13.640690
10171.314630,332.735000,0.341680
10175.468958,332.781000,-18.634080
10179.531864,332.826000,-1.441810
10183.683921,332.872000,4.975820
10187.834831,332.918000,-6.416720
10191.894393,332.963000,-16.234790
10196.043035,333.009000,-3.160780
10200.190530,333.055000,4.628580
10204.246754,333.100000,3.181140
10208.391984,333.146000,-10.351130
10212.445992,333.191000,-1.646310
10216.588958,333.237000,-5.303120
10220.640753,333.282000,-8.498160
10224.781457,333.328000,12.026950
10228.831039,333.373000,6.889780
10232.969483,333.419000,-27.796590
10237.016856,333.464000,-11.300070
10241.153042,333.510000,2.199120
10245.198206,333.555000,8.227530
10249.332135,333.601000,-7.555730
10253.375094,333.646000,-5.633410
10257.506768,333.692000,-9.844080
10261.547522,333.737000,-7.647590
10265.587186,333.782000,2.472250
10269.715494,333.828000,2.794540
10273.752956,333.873000,-6.586480
10277.879015,333.919000,-6.579730
10281.914277,333.964000,9.274290
10285.948452,334.009000,-3.200990
10290.071151,334.055000,-14.262400
10294.103128,334.100000,-12.123140
10298.134020,334.145000,0.614260
10302.253364,334.191000,-19.580460
10306.282060,334.236000,-13.312750
10310.309672,334.281000,-1.155370
10314.425666,334.327000,-2.788230
10318.451085,334.372000,-4.327970
10322.475422,334.417000,-0.417840
10326.498675,334.462000,-2.873790
10330.610215,334.508000,-8.493260
10334.631280,334.553000,-0.392130
10338.651263,334.598000,1.713080
10342.670165,334.643000,12.120460
10346.687987,334.688000,-6.351600
10350.704728,334.733000,-0.973550
10354.809614,334.779000,6.486710
10358.824172,334.824000,-7.388060
10362.837651,334.869000,0.082870
10366.850051,334.914000,2.135490
10370.861373,334.959000,-0.550000
10374.871618,335.004000,-11.854660
10378.880786,335.049000,-4.848080
10382.888876,335.094000,2.070690
10386.984923,335.140000,0.096380
10390.990838,335.185000,-3.052030
10394.995677,335.230000,5.956310
10398.999440,335.275000,9.237490
10403.002130,335.320000,7.080500
10407.003745,335.365000,14.758070
10411.004286,335.410000,11.309500
10415.003755,335.455000,2.373910
10419.002150,335.500000,2.310230
10422.999473,335.545000,-1.165730
10426.995723,335.590000,15.650810
10430.990902,335.635000,-3.896760
10434.985010,335.680000,10.377680
10438.889325,335.724000,-1.549100
10442.881316,335.769000,3.489480
10446.872237,335.814000,-1.753540
10450.862088,335.859000,-6.767700
10454.850871,335.904000,2.745660
10458.838585,335.949000,-9.925770
10462.825230,335.994000,-43.038200
10466.810808,336.039000,3.420640
10470.706786,336.083000,-28.655720
10474.690253,336.128000,-5.506750
10478.672654,336.173000,11.622360
10482.653989,336.218000,-12.143320
10486.634259,336.263000,-16.953950
10490.525048,336.307000,-4.854950
10494.503211,336.352000,3.514960
10498.480310,336.397000,-12.043330
10502.456345,336.442000,-7.761430
10506.342995,336.486000,8.603520
10510.316927,336.531000,22.730710
10514.289797,336.576000,-16.577970
10518.261604,336.621000,-21.122250
10522.144122,336.665000,4.907040
10526.113830,336.710000,4.333980
10530.082477,336.755000,10.458540
10533.961906,336.799000,-11.156080
10537.928455,336.844000,14.031970
10541.893946,336.889000,39.650880
10545.770289,336.933000,7.702550
10549.733685,336.978000,0.398660
10553.607982,337.022000,-9.385810
10557.569284,337.067000,-4.246970
10561.529529,337.112000,2.798960
10565.400747,337.156000,-5.307420
10569.358902,337.201000,-0.685120
10573.228076,337.245000,6.972300
10577.184142,337.290000,-1.171090
10581.051275,337.334000,-3.071730
10585.005254,337.379000,3.974550
10588.870347,337.423000,-6.646700
10592.822240,337.468000,-5.013430
10596.685295,337.512000,-7.645140
10600.635105,337.557000,-4.364950
10604.496123,337.601000,3.661620
10608.443850,337.646000,14.943470
10612.302834,337.690000,1.788390
10616.160811,337.734000,-7.742080
10620.105430,337.779000,-8.068060
10623.961375,337.823000,-9.058280
10627.903916,337.868000,3.431720
10631.757830,337.912000,-4.334790
10635.610740,337.956000,22.221020
10639.550179,338.001000,-3.840100
10643.401061,338.045000,13.821910
10647.250940,338.089000,-9.797960
10651.187281,338.134000,6.625590
10655.035134,338.178000,31.246960
10658.881986,338.222000,-5.507430
10662.815231,338.267000,-7.827260
10666.660059,338.311000,-4.606430
10670.503887,338.355000,-13.672160
10674.346716,338.399000,4.730340
10678.275848,338.444000,1.902150
10682.116656,338.488000,12.227470
10685.956465,338.532000,-8.435260
10689.795276,338.576000,32.329970
10693.633090,338.620000,9.499790
10697.557096,338.665000,-5.322490
10701.392893,338.709000,-5.654420
10705.227693,338.753000,1.393670
10709.061498,338.797000,-6.483950
10712.894307,338.841000,6.026830
10716.726120,338.885000,-5.538460
10720.556939,338.929000,-9.344720
10724.386763,338.973000,-2.094390
10728.302601,339.018000,-7.599670
10732.130414,339.062000,16.072870
10735.957235,339.106000,0.769870
10739.783062,339.150000,-8.678960
10743.607897,339.194000,8.116000
10747.431740,339.238000,-28.221860
10751.254591,339.282000,3.206730
10755.076450,339.326000,-11.493850
10758.897319,339.370000,-39.726310
10762.717197,339.414000,6.149980
10766.536084,339.458000,-4.190010
10770.353982,339.502000,-16.258310
10774.170890,339.546000,6.826150
10777.986809,339.590000,4.120100
10781.801740,339.634000,-4.655880
10785.615682,339.678000,5.159530
10789.341989,339.721000,13.916610
10793.153978,339.765000,12.803090
10796.964980,339.809000,12.941340
10800.774995,339.853000,13.322310
10804.584024,339.897000,4.982860
10808.392066,339.941000,4.444740
10812.199123,339.985000,0.066450
10816.005195,340.029000,-1.920570
10819.723813,340.072000,-25.392440
10823.527938,340.116000,5.374260
10827.331078,340.160000,-3.305910
10831.133235,340.204000,-16.297160
10834.848029,340.247000,13.637930
10838.648242,340.291000,3.081380
10842.447472,340.335000,3.246600
10846.245720,340.379000,-3.458450
10849.956695,340.422000,-8.998850
10853.753002,340.466000,7.314900
10857.548328,340.510000,-2.250720
10861.342673,340.554000,11.773510
10865.049836,340.597000,12.309570
10868.842243,340.641000,20.954230
10872.633670,340.685000,-2.622680
10876.337983,340.728000,7.718470
10880.127474,340.772000,9.876560
10883.829896,340.815000,6.033780
10887.617453,340.859000,9.541230
10891.404033,340.903000,-5.086010
10895.103609,340.946000,2.871450
10898.888257,340.990000,4.720390
10902.585946,341.033000,-8.398740
10906.368663,341.077000,-6.756680
10910.150404,341.121000,-6.877410
10913.845254,341.164000,-11.563950
10917.625066,341.208000,-8.235600
10921.318033,341.251000,0.324750
10925.095918,341.295000,-5.784940
10928.787002,341.338000,8.670330
10932.562962,341.382000,6.275790
10936.252165,341.425000,-0.441330
10939.940439,341.468000,7.444750
10943.713524,341.512000,2.396000
10947.399919,341.555000,2.601050
10951.171083,341.599000,-4.027520
10954.855601,341.642000,0.952060
10958.624845,341.686000,1.182410
10962.307486,341.729000,-7.177600
10965.989201,341.772000,-6.809690
10969.755578,341.816000,-16.917230
10973.435419,341.859000,-9.869220
10977.114334,341.902000,4.693800
10980.877848,341.946000,22.648560
10984.554892,341.989000,9.298780
10988.231011,342.032000,-12.076740
10991.991665,342.076000,-1.502810
10995.665914,342.119000,6.947150
10999.339240,342.162000,0.100030
11003.011643,342.205000,5.031900
11006.768496,342.249000,-1.379190
11010.439032,342.292000,-1.140470
11014.108646,342.335000,3.357230
11017.777338,342.378000,8.778980
11021.530396,342.422000,9.444450
11025.197224,342.465000,-25.484420
11028.863132,342.508000,4.087600
11032.528119,342.551000,20.480420
11036.192187,342.594000,4.261300
11039.855335,342.637000,3.285130
11043.602720,342.681000,0.184670
11047.264009,342.724000,-1.120940
11050.924378,342.767000,5.522300
11054.583829,342.810000,-10.168280
11058.242363,342.853000,1.240440
11061.899979,342.896000,-10.738480
11065.556677,342.939000,-12.120350
11069.212459,342.982000,3.397870
11072.867324,343.025000,11.100950
11076.521273,343.068000,5.523680
11080.174306,343.111000,-4.861900
11083.826423,343.154000,11.010520
11087.477626,343.197000,4.405400
11091.127913,343.240000,10.505800
11094.777286,343.283000,7.996490
11098.425745,343.326000,-8.857420
11102.073291,343.369000,-16.215880
11105.719922,343.412000,10.139030
11109.365641,343.455000,16.648780
11113.010447,343.498000,-2.286140
11116.654340,343.541000,-2.940310
11120.297322,343.584000,-7.407770
11123.939391,343.627000,18.483750
11127.580549,343.670000,-5.303850
11131.220797,343.713000,-1.575190
11134.775508,343.755000,15.986590
11138.413955,343.798000,-5.625280
11142.051492,343.841000,-0.204500
11145.688120,343.884000,-5.303090
11149.323838,343.927000,2.435420
11152.958647,343.970000,5.983730
11156.508049,344.012000,6.094570
11160.141062,344.055000,17.221600
11163.773167,344.098000,-2.914720
11167.404365,344.141000,-5.353560
11170.950240,344.183000,-8.569230
11174.579645,344.226000,-7.656760
11178.208143,344.269000,11.872930
11181.751382,344.311000,5.473870
11185.378088,344.354000,17.005600
11189.003889,344.397000,-5.224490
11192.628785,344.440000,10.523280
11196.168507,344.482000,10.074110
11199.791614,344.525000,-5.333510
11203.413817,344.568000,1.931110
11206.950910,344.610000,-16.191280
11210.571327,344.653000,10.753450
11214.106675,344.695000,1.829740
11217.725306,344.738000,-9.013410
11221.343035,344.781000,-4.211580
11224.875759,344.823000,-9.094300
11228.491704,344.866000,13.450090
11232.022687,344.908000,12.042830
11235.636851,344.951000,0.219720
11239.166094,344.993000,12.359310
11242.778477,345.036000,6.791570
11246.305982,345.078000,4.805550
11249.916585,345.121000,-22.193930
11253.442353,345.163000,-11.566750
11257.051178,345.206000,8.784330
11260.575210,345.248000,-6.483490
11264.182259,345.291000,-12.233940
11267.704555,345.333000,-15.121880
11271.309829,345.376000,-21.418170
11274.830392,345.418000,-11.876910
11278.350100,345.460000,7.912450
11281.952723,345.503000,-1.440810
11285.470699,345.545000,-7.423760
11288.987820,345.587000,2.477730
11292.587796,345.630000,4.704150
11296.103187,345.672000,4.745750
11299.701393,345.715000,6.007200
11303.215056,345.757000,-19.908860
11306.727865,345.799000,-5.993990
11310.239821,345.841000,-9.635450
11313.834512,345.884000,14.474680
11317.344742,345.926000,-11.584430
11320.854120,345.968000,-10.123760
11324.446172,346.011000,3.547040
11327.953826,346.053000,1.355100
11331.460629,346.095000,-3.267510
11334.966581,346.137000,-46.012350
11338.471682,346.179000,-0.342660
11342.059357,346.222000,4.583520
11345.562737,346.264000,23.507370
11349.065268,346.306000,-17.138930
11352.566949,346.348000,-5.996190
11356.067781,346.390000,-10.450360
11359.567764,346.432000,-0.613730
11363.150201,346.475000,-9.331190
11366.648467,346.517000,1.295040
11370.145885,346.559000,3.047160
11373.642456,346.601000,-5.087060
11377.138179,346.643000,-5.897910
11380.633055,346.685000,-30.183750
11384.127085,346.727000,2.234730
11387.620268,346.769000,2.499880
11391.112605,346.811000,20.668970
11394.604096,346.853000,4.677770
11398.094742,346.895000,-0.616540
11401.584543,346.937000,-10.688110
11405.073499,346.979000,-2.447810
11408.561610,347.021000,20.221650
11412.048877,347.063000,2.383960
11415.535301,347.105000,-0.333670
11419.020880,347.147000,33.860250
11422.505617,347.189000,12.086600
11425.989510,347.231000,7.912510
11429.472560,347.273000,7.075360
11432.954769,347.315000,6.731540
11436.436135,347.357000,-4.978260
11439.916659,347.399000,-4.552480
11443.313502,347.440000,-5.299720
11446.792364,347.482000,7.065760
11450.270384,347.524000,2.942620
11453.747565,347.566000,-9.057250
11457.223905,347.608000,0.832330
11460.699405,347.650000,-34.495400
11464.091345,347.691000,3.242240
11467.565186,347.733000,-27.292380
11471.038188,347.775000,6.773320
11474.510351,347.817000,-5.511560
11477.981676,347.859000,-5.348730
11481.369541,347.900000,-9.653580
11484.839210,347.942000,-1.754540
11488.308041,347.984000,14.913370
11491.693473,348.025000,-5.798940
11495.160650,348.067000,5.326780
11498.626991,348.109000,20.019180
11502.092494,348.151000,5.563790
11505.474680,348.192000,-3.101170
11508.938532,348.234000,-5.692570
11512.401549,348.276000,26.782510
11515.781307,348.317000,15.990500
11519.242673,348.359000,2.609920
11522.620821,348.400000,-7.068420
11526.080539,348.442000,-7.768640
11529.539422,348.484000,1.548660
11532.915148,348.525000,11.698040
11536.372384,348.567000,-1.448030
11539.746502,348.608000,-0.736290
11543.202092,348.650000,3.892930
11546.574604,348.691000,-7.383510
11550.028550,348.733000,-1.712090
11553.399456,348.774000,7.980760
11556.851758,348.816000,-11.705750
11560.221061,348.857000,-13.391940
11563.671720,348.899000,1.734530
11567.039420,348.940000,-24.009160
11570.488439,348.982000,-2.279170
11573.854537,349.023000,34.953540
11577.301915,349.065000,5.394240
11580.666413,349.106000,7.917600
11584.030120,349.147000,0.046250
11587.475051,349.189000,7.219340
11590.837159,349.230000,-0.447780
11594.280452,349.272000,-5.208420
11597.640963,349.313000,-3.804680
11601.000686,349.354000,-10.729560
11604.441535,349.396000,-1.145430
11607.799661,349.437000,-9.050520
11611.157000,349.478000,9.469620
11614.595408,349.520000,-3.928420
11617.951152,349.561000,15.659940
11621.306109,349.602000,5.679170
11624.660280,349.643000,0.683450
11628.095443,349.685000,1.338140
11631.448022,349.726000,2.963820
11634.799814,349.767000,-6.173990
11638.150821,349.808000,8.505260
11641.582745,349.850000,2.582010
11644.932162,349.891000,-27.960760
11648.280794,349.932000,8.020590
11651.628641,349.973000,-0.714070
11654.975704,350.014000,-3.648830
11658.403590,350.056000,16.785580
11661.749066,350.097000,-6.219450
11665.093759,350.138000,0.795960
11668.437668,350.179000,-10.746950
11671.780795,350.220000,-11.790110
11675.123139,350.261000,5.550890
11678.464700,350.302000,-2.471070
11681.805480,350.343000,-5.847350
11685.145477,350.384000,-4.833280
11688.484693,350.425000,6.875910
11691.904543,350.467000,-4.185230
11695.242178,350.508000,-14.532450
11698.579032,350.549000,-8.733890
11701.915105,350.590000,-5.897790
11705.250398,350.631000,0.336070
11708.584912,350.672000,0.489180
11711.918645,350.713000,-5.911970
11715.251600,350.754000,7.197750
11718.502512,350.794000,-11.531370
11721.833927,350.835000,6.732900
11725.164564,350.876000,-15.713030
11728.494422,350.917000,15.857850
11731.823503,350.958000,-17.174720
11735.151806,350.999000,3.319910
11738.479331,351.040000,-5.822610
11741.806079,351.081000,-8.321900
11745.132050,351.122000,-25.360260
11748.457245,351.163000,6.697770
11751.700589,351.203000,-5.584380
11755.024250,351.244000,7.257310
11758.347135,351.285000,13.469840
11761.669245,351.326000,-6.465740
11764.990579,351.367000,-3.786690
11768.230159,351.407000,-7.260920
11771.549962,351.448000,25.632340
11774.868991,351.489000,-9.144140
11778.187246,351.530000,4.300710
11781.423822,351.570000,-12.657950
11784.740548,351.611000,3.607750
11788.056500,351.652000,-2.732010
11791.371680,351.693000,-13.956700
11794.605256,351.733000,2.686350
11797.918909,351.774000,5.381490
11801.231790,351.815000,-5.204280
11804.463124,351.855000,3.366830
11807.774479,351.896000,8.378070
11811.085063,351.937000,-4.835070
11814.314158,351.977000,-9.063890
11817.623218,352.018000,0.550390
11820.850827,352.058000,0.793910
11824.158365,352.099000,5.532340
11827.465133,352.140000,6.672220
11830.690506,352.180000,8.960270
11833.995753,352.221000,-9.824840
11837.219643,352.261000,8.963230
11840.523370,352.302000,6.623300
11843.745778,352.342000,5.870290
11847.047986,352.383000,3.565750
11850.268913,352.423000,-19.237850
11853.569603,352.464000,22.651920
11856.789050,352.504000,13.671610
11860.088224,352.545000,37.369890
11863.306191,352.585000,47.980180
11866.603850,352.626000,-16.771630
11869.820339,352.666000,9.712280
11873.116483,352.707000,-0.975600
11876.331495,352.747000,-8.469740
11879.545777,352.787000,5.848740
11882.839661,352.828000,-4.860850
11886.052468,352.868000,-1.688810
11889.264547,352.908000,-1.512540
11892.556173,352.949000,-2.911910
11895.766777,352.989000,2.658040
11899.056892,353.030000,10.834970
11902.266024,353.070000,15.633820
11905.474429,353.110000,7.610790
11908.682107,353.150000,-2.211930
11911.969223,353.191000,-29.513240
11915.175430,353.231000,1.608110
11918.380911,353.271000,-9.415150
11921.665775,353.312000,-2.238090
11924.869787,353.352000,7.079520
11928.073073,353.392000,19.116350
11931.275634,353.432000,-8.482770
11934.477470,353.472000,-11.807920
11937.758600,353.513000,-4.608210
11940.958969,353.553000,-9.813720
11944.158614,353.593000,21.229010
11947.357536,353.633000,0.817030
11950.555733,353.673000,4.268120
11953.753208,353.713000,4.925140
11957.029868,353.754000,9.984130
11960.225879,353.794000,15.877870
11963.421166,353.834000,-32.289720
11966.615732,353.874000,12.078440
11969.809575,353.914000,-3.353890
11973.002696,353.954000,13.758090
11976.195096,353.994000,-19.761880
11979.386774,354.034000,-2.705640
11982.577731,354.074000,12.249230
11985.767968,354.114000,-5.853100
11988.957483,354.154000,-11.025490
11992.146279,354.194000,-5.293200
11995.334354,354.234000,-1.164790
11998.521709,354.274000,-15.614860
12001.708345,354.314000,-4.244540
12004.894261,354.354000,5.394910
12008.079458,354.394000,8.964630
12011.263936,354.434000,30.473730
12014.447695,354.474000,-1.001730
12017.630736,354.514000,2.639520
12020.813059,354.554000,15.207180
12023.994663,354.594000,0.727670
12027.175550,354.634000,-11.072670
12030.276224,354.673000,7.713390
12033.455694,354.713000,-29.260080
12036.634448,354.753000,-0.097270
12039.812484,354.793000,-3.552640
12042.989804,354.833000,-4.512340
12046.166408,354.873000,1.866310
12049.262907,354.912000,-4.962920
12052.438097,354.952000,7.185250
12055.612571,354.992000,-3.403430
12058.786330,355.032000,-6.255090
12061.880056,355.071000,-0.843830
12065.052403,355.111000,-10.843760
12068.224035,355.151000,-22.926450
12071.394953,355.191000,10.261980
12074.485910,355.230000,-5.687050
12077.655418,355.270000,9.209920
12080.824212,355.310000,-12.195040
12083.913100,355.349000,-1.819970
12087.080485,355.389000,3.682130
12090.247158,355.429000,-14.332710
12093.333977,355.468000,3.323810
12096.499242,355.508000,-21.889810
12099.663795,355.548000,-196.181600
12102.748549,355.587000,-152.234400
12105.911696,355.627000,-92.123730
12108.995079,355.666000,-159.085650
12112.156822,355.706000,-147.338960
12115.317853,355.746000,-162.405950
12118.399174,355.785000,-202.991400
12121.558801,355.825000,-184.689020
12124.638754,355.864000,-227.082110
12127.796979,355.904000,-195.160060
12130.875565,355.943000,-199.909840
12134.032389,355.983000,-105.991120
12137.109608,356.022000,-172.923580
12140.265031,356.062000,-131.650290
12143.340885,356.101000,-244.086380
12146.494908,356.141000,-174.981060
12149.569398,356.180000,-126.132530
12152.643215,356.219000,-99.650110
12155.795149,356.259000,-150.045450
12158.867603,356.298000,-160.611130
12162.018139,356.338000,-142.617190
12165.089231,356.377000,-184.005120
12168.159651,356.416000,-201.575070
12171.308101,356.456000,-182.335240
12174.377160,356.495000,-146.583110
12177.445548,356.534000,-105.027270
12180.591915,356.574000,-143.638890
12183.658943,356.613000,-183.157660
12186.725300,356.652000,-146.152710
12189.869585,356.692000,-106.185630
12192.934585,356.731000,-295.236830
12195.998914,356.770000,-101.385070
12199.062573,356.809000,-208.456680
12202.204093,356.849000,-206.471890
12205.266396,356.888000,-144.884730
12208.328030,356.927000,-144.019570
12211.388995,356.966000,-97.346120
12214.527751,357.006000,-154.068570
12217.587361,357.045000,-117.105490
12220.646304,357.084000,-181.959940
12223.704578,357.123000,-236.340900
12226.762184,357.162000,-192.142950
12229.819122,357.201000,-213.610960
12232.953750,357.241000,-158.261790
12236.009337,357.280000,-155.558160
12239.064257,357.319000,-146.637260
12242.118510,357.358000,-163.775640
12245.172096,357.397000,-235.852940
12248.225016,357.436000,-121.822890
