raman_shift_cm-1,wavelength_nm,intensity
-311.444523,246.690000,0.000000
-300.766377,246.755000,0.000000
-290.093855,246.820000,-0.003976
-279.262891,246.886000,0.000000
-268.601691,246.951000,0.039474
-257.946101,247.016000,0.013130
-247.296118,247.081000,0.826570
-236.651737,247.146000,-0.819793
-226.012953,247.211000,-1.774872
-215.216219,247.277000,-1.402330
-204.588703,247.342000,-1.505296
-193.966771,247.407000,-1.457080
-183.350419,247.472000,0.233605
-172.739643,247.537000,-0.264498
-162.134437,247.602000,1.364426
-151.534799,247.667000,0.637804
-140.940722,247.732000,-0.905346
-130.352203,247.797000,-0.144582
-119.769238,247.862000,-0.874050
-109.191822,247.927000,-1.862924
-98.619951,247.992000,1.684213
-88.053621,248.057000,-0.148459
-77.655258,248.121000,1.520404
-67.099910,248.186000,-0.746143
-56.550089,248.251000,0.340648
-46.005792,248.316000,-0.808162
-35.467013,248.381000,-1.356415
-24.933749,248.446000,0.427478
-14.405995,248.511000,1.009073
-4.045586,248.575000,1.800216
6.471245,248.640000,0.509575
16.982580,248.705000,0.361427
27.488421,248.770000,3.093593
37.827271,248.834000,1.924114
48.322224,248.899000,1.189066
58.811696,248.964000,1.795060
69.134442,249.028000,1.734569
79.613052,249.093000,0.892434
90.086194,249.158000,0.262644
100.392873,249.222000,-0.717008
110.855177,249.287000,0.855991
121.312027,249.352000,-0.822637
131.602677,249.416000,2.070337
142.048715,249.481000,1.450918
152.328727,249.545000,-0.419362
162.763968,249.610000,1.249153
173.033359,249.674000,0.662477
183.457821,249.739000,-0.637123
193.716607,249.803000,-0.978093
204.130307,249.868000,0.113492
214.378504,249.932000,1.150268
224.781458,249.997000,1.049259
235.019083,250.061000,1.123307
245.411309,250.126000,0.863403
255.638378,250.190000,5.505932
265.860216,250.254000,0.242204
276.236420,250.319000,1.792996
286.447727,250.383000,3.061313
296.813243,250.448000,1.645032
307.014035,250.512000,-2.779237
317.209616,250.576000,1.684963
327.399990,250.640000,-0.591850
337.744263,250.705000,2.119087
347.924154,250.769000,-0.837487
358.098850,250.833000,2.114336
368.268355,250.897000,-3.873496
378.591450,250.962000,-6.261917
388.750505,251.026000,-2.667707
398.904381,251.090000,1.544617
409.053082,251.154000,0.027567
419.196612,251.218000,0.931319
429.334975,251.282000,-8.592308
439.626466,251.347000,-0.445765
449.754426,251.411000,-1.951915
459.877231,251.475000,-0.497062
469.994885,251.539000,-1.284575
480.107392,251.603000,-1.865986
490.214756,251.667000,0.482877
500.316980,251.731000,-0.087735
510.414069,251.795000,5.972589
520.506026,251.859000,-2.620487
530.592855,251.923000,-0.094039
540.674561,251.987000,0.510409
550.751147,252.051000,-3.354431
560.822617,252.115000,0.046192
570.888975,252.179000,-4.213389
580.950225,252.243000,-4.956026
590.849282,252.306000,0.449881
600.900407,252.370000,1.728122
610.946435,252.434000,4.170900
620.987371,252.498000,1.130408
631.023218,252.562000,-1.845028
641.053980,252.626000,-3.497618
650.923048,252.689000,-0.979621
660.943731,252.753000,3.371357
670.959341,252.817000,-3.766000
680.969880,252.881000,-3.362243
690.819058,252.944000,0.637988
700.819549,253.008000,-11.921704
710.814983,253.072000,0.592978
720.805362,253.136000,0.502086
730.634708,253.199000,1.241156
740.615069,253.263000,3.527083
750.434561,253.326000,-2.518292
760.404919,253.390000,2.851408
770.370241,253.454000,0.014042
780.174941,253.517000,2.084753
790.130283,253.581000,0.144925
799.925166,253.644000,-8.711652
809.870542,253.708000,0.003947
819.655623,253.771000,-5.745009
829.591048,253.835000,-2.946327
839.366341,253.898000,5.063199
849.291831,253.962000,5.826998
859.057350,254.025000,1.843525
868.972920,254.089000,-2.182146
878.728681,254.152000,-2.364536
888.634344,254.216000,-2.480152
898.380361,254.279000,-0.785149
908.121550,254.342000,-4.886066
918.012421,254.406000,-2.070331
927.743888,254.469000,-1.542326
937.470538,254.532000,-5.765511
947.346650,254.596000,-4.272965
957.063600,254.659000,-7.644950
966.775743,254.722000,-5.527526
976.637128,254.786000,0.738561
986.339593,254.849000,0.456801
996.037261,254.912000,1.162124
1005.730138,254.975000,1.593992
1015.571966,255.039000,-5.460088
1025.255192,255.102000,1.415296
1034.933637,255.165000,-4.481665
1044.607304,255.228000,0.322079
1054.276196,255.291000,2.434262
1063.940318,255.354000,1.355176
1073.599672,255.417000,-3.260418
1083.407471,255.481000,1.861535
1093.057225,255.544000,3.020853
1102.702223,255.607000,3.350558
1112.342467,255.670000,-1.651373
1121.977961,255.733000,-5.455427
1131.608710,255.796000,-6.811637
1141.234715,255.859000,-5.041200
1150.855981,255.922000,-3.022997
1160.472512,255.985000,-3.344595
1170.084310,256.048000,-1.651600
1179.691379,256.111000,-4.838998
1189.293724,256.174000,3.310929
1198.739040,256.236000,-0.461063
1208.332019,256.299000,0.578503
1217.920283,256.362000,-1.628502
1227.503835,256.425000,-0.344565
1237.082680,256.488000,-0.626105
1246.656820,256.551000,3.799357
1256.226260,256.614000,-3.020208
1265.639217,256.676000,3.250144
1275.199339,256.739000,-4.563323
1284.754770,256.802000,-7.626749
1294.305515,256.865000,-1.709842
1303.700087,256.927000,1.655992
1313.241541,256.990000,4.700417
1322.778319,257.053000,-5.894706
1332.310423,257.116000,-3.667180
1341.686664,257.178000,-5.657178
1351.209505,257.241000,-2.906082
1360.727683,257.304000,2.830348
1370.090229,257.366000,-0.680507
1379.599165,257.429000,-5.469503
1388.952622,257.491000,-1.374506
1398.452329,257.554000,0.754579
1407.796710,257.616000,1.826894
1417.287202,257.679000,-0.609178
1426.773053,257.742000,4.573737
1436.103810,257.804000,-2.267050
1445.580466,257.867000,-3.510071
1454.902179,257.929000,-5.702749
1464.369654,257.992000,-1.056108
1473.682337,258.054000,-1.349158
1482.990547,258.116000,-0.597199
1492.444310,258.179000,4.335567
1501.743510,258.241000,-0.628870
1511.188124,258.304000,-4.497758
1520.478327,258.366000,-5.139198
1529.764072,258.428000,-1.044180
1539.195025,258.491000,-4.483579
1548.471792,258.553000,2.345110
1557.744112,258.615000,-1.045042
1567.161432,258.678000,-3.071175
1576.424794,258.740000,3.604770
1585.683718,258.802000,-7.142108
1594.938206,258.864000,-0.419158
1604.337420,258.927000,-2.805370
1613.582976,258.989000,2.928562
1622.824106,259.051000,1.161829
1632.060814,259.113000,-0.741890
1641.293103,259.175000,-1.181588
1650.669776,259.238000,-1.136877
1659.893165,259.300000,-0.358039
1669.112144,259.362000,-1.279303
1678.326716,259.424000,1.533190
1687.536886,259.486000,-3.150679
1696.742655,259.548000,-2.660726
1705.944027,259.610000,6.636353
1715.141005,259.672000,4.429292
1724.333592,259.734000,-0.350311
1733.521792,259.796000,-4.433885
1742.705607,259.858000,6.201065
1751.885041,259.920000,-5.486035
1761.060096,259.982000,2.438181
1770.230777,260.044000,-4.986022
1779.397086,260.106000,-4.386072
1788.559026,260.168000,7.084908
1797.716600,260.230000,-3.787106
1806.869812,260.292000,-2.150454
1816.018664,260.354000,-10.552007
1825.163160,260.416000,-6.536654
1834.155916,260.477000,2.364235
1843.291778,260.539000,0.662495
1852.423294,260.601000,2.844197
1861.550466,260.663000,-0.062004
1870.673297,260.725000,9.103697
1879.644752,260.786000,0.241490
1888.758980,260.848000,-3.542640
1897.868877,260.910000,0.811483
1906.974445,260.972000,-2.807851
1915.928928,261.033000,-5.289316
1925.025918,261.095000,-0.950822
1934.118588,261.157000,2.524424
1943.060391,261.218000,0.092100
1952.144502,261.280000,-0.327293
1961.224302,261.342000,-2.290380
1970.153451,261.403000,2.154648
1979.224710,261.465000,-5.339246
1988.145460,261.526000,-0.865090
1997.208190,261.588000,2.398147
2006.120554,261.649000,7.432253
2015.174766,261.711000,-5.151677
2024.078756,261.772000,-4.213473
2033.124461,261.834000,0.540296
2042.020089,261.895000,-7.407966
2051.057301,261.957000,-1.115278
2059.944578,262.018000,5.231151
2068.973308,262.080000,-1.306321
2077.852245,262.141000,0.782829
2086.872506,262.203000,-2.806592
2095.743116,262.264000,0.958368
2104.609601,262.325000,-3.551985
2113.617214,262.387000,0.804910
2122.475388,262.448000,-5.699826
2131.329447,262.509000,1.360083
2140.324438,262.571000,-4.044343
2149.170203,262.632000,1.772221
2158.011861,262.693000,-1.527674
2166.994257,262.755000,-0.220231
2175.827640,262.816000,0.374008
2184.656923,262.877000,1.438708
2193.482109,262.938000,3.248497
2202.303202,262.999000,-0.230762
2211.264711,263.061000,-1.980336
2220.077557,263.122000,0.454995
2228.886318,263.183000,1.488158
2237.690997,263.244000,-2.205141
2246.491597,263.305000,3.417578
2255.288119,263.366000,-1.457468
2264.080568,263.427000,-0.612988
2272.868945,263.488000,-0.479609
2281.653255,263.549000,-1.277939
2290.577403,263.611000,0.452644
2299.353518,263.672000,-2.137503
2308.125573,263.733000,-3.997833
2316.893571,263.794000,-0.164140
2325.657515,263.855000,-1.226787
2334.273836,263.915000,1.707746
2343.029746,263.976000,-0.344771
2351.781611,264.037000,-5.031407
2360.529433,264.098000,-3.451485
2369.273215,264.159000,0.396301
2378.012959,264.220000,-1.233323
2386.748669,264.281000,-1.758745
2395.480347,264.342000,-1.483425
2404.207997,264.403000,-3.463282
2412.788642,264.463000,2.991423
2421.508308,264.524000,0.717664
2430.223953,264.585000,-4.816752
2438.935580,264.646000,-3.043118
2447.643192,264.707000,3.176962
2456.204142,264.767000,4.723312
2464.903798,264.828000,-2.297334
2473.599447,264.889000,-0.079625
2482.148639,264.949000,2.885239
2490.836348,265.010000,-0.434633
2499.520059,265.071000,-3.025032
2508.057516,265.131000,5.491649
2516.733303,265.192000,-0.110986
2525.405101,265.253000,-4.339345
2533.930847,265.313000,-0.614296
2542.594737,265.374000,5.119258
2551.112712,265.434000,-2.777675
2559.768705,265.495000,3.232961
2568.278918,265.555000,6.731346
2576.927027,265.616000,-0.596644
2585.571164,265.677000,-6.767702
2594.069722,265.737000,-2.503662
2602.564444,265.797000,1.363623
2611.196813,265.858000,1.715917
2619.683805,265.918000,-1.595287
2628.308321,265.979000,-5.156927
2636.787594,266.039000,-3.311330
2645.404268,266.100000,-0.571938
2653.875831,266.160000,-2.082097
2662.343577,266.220000,-2.822769
2670.948539,266.281000,-2.339086
2679.408591,266.341000,3.256328
2687.864833,266.401000,-5.506194
2696.458108,266.462000,-3.425522
2704.906672,266.522000,0.133025
2713.351433,266.582000,0.428346
2721.792393,266.642000,-4.933731
2730.370143,266.703000,-1.842552
2738.803447,266.763000,2.576046
2747.232958,266.823000,3.073116
2755.658679,266.883000,2.842951
2764.220946,266.944000,0.007134
2772.639032,267.004000,0.831817
2781.053334,267.064000,1.051238
2789.463857,267.124000,-0.285580
2797.870602,267.184000,5.192213
2806.273573,267.244000,-3.720538
2814.672771,267.304000,-2.981788
2823.068200,267.364000,-5.875025
2831.459861,267.424000,-2.278473
2839.847757,267.484000,0.114458
2848.231891,267.544000,-0.936613
2856.612266,267.604000,3.293134
2864.988884,267.664000,-1.399623
2873.361747,267.724000,-3.452333
2881.730857,267.784000,-0.783994
2890.096219,267.844000,0.745688
2898.457833,267.904000,-1.300484
2906.815703,267.964000,-0.636053
2915.169831,268.024000,6.438530
2923.520219,268.084000,2.041073
2931.866870,268.144000,0.729192
2940.209787,268.204000,3.891575
2948.410016,268.263000,0.367720
2956.745534,268.323000,3.625782
2965.077324,268.383000,2.254287
2973.405390,268.443000,2.619000
2981.729735,268.503000,-2.178952
2989.911713,268.562000,4.102978
2998.228682,268.622000,5.167846
3006.541937,268.682000,-1.075507
3014.851480,268.742000,3.532280
3023.018913,268.801000,0.809160
3031.321101,268.861000,-8.397014
3039.619584,268.921000,-6.072563
3047.776149,268.980000,-2.339022
3056.067292,269.040000,3.607596
3064.216644,269.099000,-1.222106
3072.500457,269.159000,-0.024833
3080.780577,269.219000,-0.803444
3088.919097,269.278000,7.572989
3097.191901,269.338000,-0.695595
3105.323232,269.397000,-3.446215
3113.588730,269.457000,-0.092239
3121.712881,269.516000,-4.473364
3129.971082,269.576000,-4.123858
3138.088063,269.635000,0.714569
3146.338978,269.695000,2.699641
3154.448798,269.754000,-2.018918
3162.692435,269.814000,-6.335610
3170.795104,269.873000,-2.299953
3178.894231,269.932000,-0.719729
3187.127001,269.992000,0.944001
3195.218991,270.051000,-0.180373
3203.307445,270.110000,-5.097357
3211.529370,270.170000,-0.071647
3219.610701,270.229000,-0.814113
3227.688505,270.288000,3.812921
3235.899605,270.348000,2.456844
3243.970299,270.407000,-0.286049
3252.037473,270.466000,0.531535
3260.101128,270.525000,0.754045
3268.297848,270.585000,6.207413
3276.354413,270.644000,-1.627488
3284.407466,270.703000,1.859758
3292.457009,270.762000,-3.152819
3300.503044,270.821000,-2.949615
3308.545575,270.880000,0.341267
3316.720828,270.940000,-1.739306
3324.756296,270.999000,-0.048229
3332.788267,271.058000,-2.429897
3340.816741,271.117000,0.833620
3348.841722,271.176000,-2.708336
3356.863212,271.235000,-2.529478
3364.881213,271.294000,-2.638414
3372.895727,271.353000,-4.352620
3380.906756,271.412000,2.131073
3388.914304,271.471000,-1.849677
3396.918371,271.530000,-4.286978
3404.918961,271.589000,-0.935546
3412.916076,271.648000,3.935106
3420.909718,271.707000,-0.917836
3428.899888,271.766000,2.080203
3436.886591,271.825000,1.195062
3444.734546,271.883000,-3.577912
3452.714377,271.942000,2.071152
3460.690746,272.001000,3.577147
3468.663655,272.060000,2.362585
3476.633107,272.119000,-5.295808
3484.599104,272.178000,-2.210609
3492.426718,272.236000,-1.699045
3500.385870,272.295000,-0.338934
3508.341573,272.354000,-2.139946
3516.293830,272.413000,-2.283266
3524.107947,272.471000,1.418397
3532.053377,272.530000,4.177350
3539.995368,272.589000,-7.396191
3547.799398,272.647000,-1.216552
3555.734574,272.706000,-2.363246
3563.666318,272.765000,-3.867684
3571.460282,272.823000,-2.769401
3579.385225,272.882000,-2.233478
3587.306741,272.941000,0.609739
3595.090658,272.999000,-0.836820
3603.005387,273.058000,-4.350833
3610.782635,273.116000,-3.523032
3618.690585,273.175000,2.189540
3626.461173,273.233000,-0.067185
3634.362353,273.292000,3.418847
3642.126290,273.350000,-0.914025
3650.020708,273.409000,0.441740
3657.778002,273.467000,0.320326
3665.665667,273.526000,-2.248432
3673.416327,273.584000,-0.087113
3681.163701,273.642000,-0.836432
3689.041282,273.701000,-0.884524
3696.782035,273.759000,2.846906
3704.652885,273.818000,-0.398017
3712.387025,273.876000,0.824743
3720.117889,273.934000,-0.012188
3727.845481,273.992000,-0.845478
3735.702951,274.051000,-1.132993
3743.423947,274.109000,-1.030381
3751.141676,274.167000,-8.075955
3758.989119,274.226000,-3.308880
3766.700265,274.284000,-5.213922
3774.408150,274.342000,0.583622
3782.112776,274.400000,-5.575634
3789.814146,274.458000,3.876737
3797.644960,274.517000,-0.371079
3805.339767,274.575000,-3.391634
3813.031324,274.633000,-0.004551
3820.719634,274.691000,-1.098784
3828.404697,274.749000,-3.225809
3836.086516,274.807000,-0.841956
3843.765093,274.865000,1.047362
3851.440431,274.923000,3.193804
3859.112530,274.981000,-2.961066
3866.781394,275.039000,-6.266738
3874.447024,275.097000,2.001262
3882.109423,275.155000,-2.950445
3889.768591,275.213000,-0.921454
3897.424533,275.271000,2.198652
3905.077248,275.329000,1.369121
3912.726740,275.387000,4.479819
3920.373011,275.445000,0.374426
3928.016062,275.503000,1.044475
3935.655896,275.561000,-0.162005
3943.292514,275.619000,-1.532107
3950.925919,275.677000,-2.498308
3958.424585,275.734000,4.604630
3966.051625,275.792000,1.480352
3973.675457,275.850000,7.470201
3981.296084,275.908000,-2.635309
3988.913508,275.966000,-0.868426
3996.396478,276.023000,1.096327
4004.007557,276.081000,-2.998593
4011.615438,276.139000,1.293375
4019.220124,276.197000,-3.002387
4026.690584,276.254000,-1.713590
4034.288940,276.312000,-0.196983
4041.884108,276.370000,4.300728
4049.345219,276.427000,-4.215978
4056.934068,276.485000,0.380527
4064.519735,276.543000,-2.333005
4071.971515,276.600000,2.326917
4079.550876,276.658000,-0.242299
4086.996462,276.715000,-0.265551
4094.569525,276.773000,-2.204653
4102.008927,276.830000,1.605953
4109.575700,276.888000,-0.948684
4117.008923,276.945000,4.222450
4124.569414,277.003000,0.690878
4131.996467,277.060000,1.863855
4139.550684,277.118000,-2.059931
4146.971575,277.175000,1.782552
4154.519525,277.233000,-1.699869
4161.934262,277.290000,-3.724677
4169.475953,277.348000,-2.631139
4228.011654,277.799000,-4.934101
4235.396210,277.856000,2.527473
4242.907211,277.914000,-0.247259
4250.415077,277.972000,3.547542
4257.790445,278.029000,0.119452
4265.292102,278.087000,1.293760
4272.790631,278.145000,5.866336
4280.156828,278.202000,5.304669
4287.649159,278.260000,1.203928
4295.138368,278.318000,-1.143134
4302.495411,278.375000,-0.987007
4309.978434,278.433000,-0.595809
4317.329402,278.490000,1.562863
4324.806246,278.548000,2.657542
4332.151147,278.605000,6.503915
4339.621821,278.663000,0.758349
4346.960661,278.720000,3.857691
4354.425172,278.778000,1.628475
4361.757959,278.835000,-1.494062
4369.216314,278.893000,-0.272939
4376.543056,278.950000,2.012019
4383.995264,279.008000,6.506367
4391.315968,279.065000,-4.124148
4398.762036,279.123000,6.613178
4406.076709,279.180000,4.156331
4413.516644,279.238000,-6.143235
4420.825295,279.295000,2.557953
4428.130962,279.352000,-5.499062
4435.561740,279.410000,4.596765
4442.861395,279.467000,0.284625
4450.158074,279.524000,-2.353873
4457.579711,279.582000,-1.279472
4464.870389,279.639000,-0.133705
4472.158095,279.696000,5.773828
4479.570607,279.754000,2.074709
4486.852324,279.811000,-3.494262
4494.131074,279.868000,-2.297508
4501.534479,279.926000,0.703990
4508.807251,279.983000,-0.050717
4516.077062,280.040000,0.266842
4523.343914,280.097000,-4.804248
4530.735220,280.155000,1.695483
4537.996108,280.212000,-1.199393
4545.254043,280.269000,-0.706681
4552.509026,280.326000,-0.356340
4559.888262,280.384000,-0.683241
4567.137295,280.441000,4.490620
4574.383383,280.498000,0.319640
4581.626526,280.555000,0.112558
4588.866727,280.612000,-0.174474
4596.103987,280.669000,-2.069678
4603.338308,280.726000,1.010888
4610.696532,280.784000,0.523241
4617.924929,280.841000,-1.416100
4625.150392,280.898000,2.247343
4632.372923,280.955000,1.891684
4639.592525,281.012000,-2.120594
4646.809198,281.069000,-2.991312
4654.022945,281.126000,-1.390829
4661.233767,281.183000,1.336005
4668.441666,281.240000,2.074916
4675.646644,281.297000,-0.129215
4682.848703,281.354000,-3.504027
4690.047844,281.411000,4.663828
4697.244070,281.468000,0.555921
4704.437381,281.525000,-2.319181
4711.627780,281.582000,-0.236983
4718.815269,281.639000,1.870576
4725.999849,281.696000,-11.514565
4733.181522,281.753000,-0.635145
4740.360290,281.810000,3.651866
4747.536154,281.867000,-4.373364
4754.583300,281.923000,1.897510
4761.753414,281.980000,-5.649371
4768.920629,282.037000,2.345746
4776.084949,282.094000,-4.246031
4783.246373,282.151000,-0.080425
4790.404904,282.208000,2.484197
4797.435032,282.264000,-3.842770
4804.587834,282.321000,-4.668293
4811.737748,282.378000,-5.554766
4818.884776,282.435000,-2.444720
4826.028920,282.492000,-4.955880
4833.044920,282.548000,-1.260718
4840.183352,282.605000,-7.514889
4847.318904,282.662000,-4.464931
4854.451579,282.719000,0.147244
4861.456319,282.775000,-1.151448
4868.583295,282.832000,-2.984344
4875.707399,282.889000,-0.266046
4882.703723,282.945000,-0.049578
4889.822139,283.002000,-3.041426
4896.937687,283.059000,1.134785
4903.925611,283.115000,-1.352924
4911.035481,283.172000,0.839714
4918.142490,283.229000,0.483429
4925.122029,283.285000,1.179401
4932.223369,283.342000,-5.737106
4939.197342,283.398000,2.138660
4946.293021,283.455000,-1.583586
4953.385847,283.512000,-5.579558
4960.351460,283.568000,0.854826
4967.438635,283.625000,-0.155486
4974.398699,283.681000,-4.025712
4981.480229,283.738000,2.095447
4988.434752,283.794000,2.964671
4995.510644,283.851000,2.657994
5002.459631,283.907000,-3.878149
5009.529893,283.964000,-2.522008
5016.473351,284.020000,-2.160127
5023.537988,284.077000,-7.172829
5030.475924,284.133000,0.775654
5037.534943,284.190000,-1.370855
5044.467363,284.246000,0.899531
5051.397052,284.302000,1.056172
5058.447683,284.359000,0.184567
5065.371866,284.415000,3.833885
5072.416896,284.472000,0.736422
5079.335580,284.528000,-4.191535
5086.251541,284.584000,-1.791039
5093.288207,284.641000,4.650194
5100.198678,284.697000,-6.348523
5107.106432,284.753000,1.114746
5114.134748,284.810000,1.121941
5121.037022,284.866000,4.172612
5127.936582,284.922000,1.599079
5134.833431,284.978000,-0.710348
5141.850655,285.035000,3.372593
5148.742037,285.091000,3.501748
5155.630712,285.147000,-4.884194
5162.516682,285.203000,-1.457410
5169.522840,285.260000,0.584521
5176.403356,285.316000,3.071783
5183.281172,285.372000,0.538174
5190.156289,285.428000,-2.157633
5197.028709,285.484000,-1.788582
5204.021082,285.541000,-1.655448
5210.888064,285.597000,-4.478877
5217.752353,285.653000,-2.632667
5224.613952,285.709000,-6.477856
5231.472862,285.765000,-1.693232
5238.329083,285.821000,-0.717778
5245.182619,285.877000,-3.063495
5252.033470,285.933000,1.335117
5258.881638,285.989000,-1.685205
5265.727125,286.045000,-1.187949
5272.569932,286.101000,2.432210
5279.532182,286.158000,-0.980951
5286.369586,286.214000,-4.381532
5293.204315,286.270000,0.197565
5300.036371,286.326000,3.132669
5306.865755,286.382000,-1.133312
5313.692468,286.438000,-1.879451
5320.516513,286.494000,-0.711181
5327.216104,286.549000,1.021811
5334.034863,286.605000,-5.546883
5340.850958,286.661000,-0.204341
5347.664391,286.717000,-0.869519
5354.475163,286.773000,0.379771
5361.283275,286.829000,-5.666848
5368.088729,286.885000,4.123029
5374.891528,286.941000,5.901182
5381.691671,286.997000,5.923141
5388.489161,287.053000,-4.405941
5395.162686,287.108000,8.011037
5401.954922,287.164000,3.011909
5408.744509,287.220000,-2.981249
5415.531448,287.276000,-1.887552
5422.315743,287.332000,-2.538462
5428.976316,287.387000,-0.183238
5435.755371,287.443000,-4.650134
5442.531785,287.499000,1.200324
5449.305560,287.555000,-0.258236
5456.076697,287.611000,4.518032
5462.724355,287.666000,-1.042971
5469.490268,287.722000,-2.123872
5476.253548,287.778000,-1.830794
5482.893494,287.833000,1.356312
5489.651559,287.889000,-2.317105
5496.406995,287.945000,-1.269046
5503.039242,288.000000,-0.964925
5509.789473,288.056000,-1.621004
5516.537079,288.112000,-0.439343
5523.161640,288.167000,6.677014
5529.904050,288.223000,-0.765353
5536.643840,288.279000,0.868179
5543.260729,288.334000,-0.687473
5549.995332,288.390000,-0.320239
5556.607128,288.445000,5.972654
5563.336549,288.501000,-2.235909
5569.943259,288.556000,-1.543948
5576.667504,288.612000,-1.421120
5583.269134,288.667000,8.674868
5589.988209,288.723000,1.283137
5596.584764,288.778000,1.167801
5603.298676,288.834000,2.489279
5609.890162,288.889000,1.048275
5616.598916,288.945000,6.611860
5623.185340,289.000000,3.643391
5629.888941,289.056000,4.427954
5636.470308,289.111000,-2.020670
5643.168763,289.167000,4.018758
5649.745079,289.222000,1.430568
5656.438394,289.278000,3.140200
5663.009664,289.333000,6.273573
5669.578437,289.388000,3.066962
5676.264076,289.444000,-1.938658
5682.827812,289.499000,3.190081
5689.389054,289.554000,5.701589
5696.067030,289.610000,-2.097510
5702.623244,289.665000,1.084178
5709.176969,289.720000,2.060048
5715.847296,289.776000,-3.593515
5722.396001,289.831000,-6.242115
5728.942221,289.886000,-0.904059
5735.485958,289.941000,1.864819
5742.146122,289.997000,-2.719702
5748.684850,290.052000,0.527506
5755.221100,290.107000,1.368978
5761.754871,290.162000,-3.829389
5768.404894,290.218000,0.853863
5774.933669,290.273000,2.408769
5781.459971,290.328000,-6.695672
5787.983800,290.383000,-3.855455
5794.505158,290.438000,1.428781
5801.142550,290.494000,0.175652
5807.658926,290.549000,3.604215
5814.172835,290.604000,-3.090494
5820.684279,290.659000,0.400677
5827.193260,290.714000,-0.174525
5833.699778,290.769000,6.712423
5840.203835,290.824000,5.495894
5846.705432,290.879000,1.535508
5853.204572,290.934000,2.938840
5859.701254,290.989000,-0.899242
5866.195481,291.044000,0.231421
5872.687254,291.099000,-2.516856
5879.176574,291.154000,-7.301882
5885.663444,291.209000,-2.890650
5892.147863,291.264000,-5.589930
5898.629834,291.319000,-2.407208
5905.109357,291.374000,-9.746333
5911.586435,291.429000,1.448181
5918.061069,291.484000,-1.176168
5924.533260,291.539000,1.730708
5931.003009,291.594000,-5.403600
5937.470318,291.649000,0.720816
5943.935188,291.704000,3.759560
5950.397621,291.759000,2.611700
5956.857618,291.814000,-2.644096
5963.315180,291.869000,0.953326
5969.770309,291.924000,2.425756
5976.105706,291.978000,0.018198
5982.556017,292.033000,-3.914190
5989.003898,292.088000,-2.458334
5995.449352,292.143000,-2.910311
6001.892379,292.198000,-0.734632
6008.215901,292.252000,3.389834
6014.654123,292.307000,-0.174958
6021.089923,292.362000,0.765508
6027.523303,292.417000,-0.857002
6033.954262,292.472000,-2.276677
6040.265942,292.526000,2.530312
6046.692111,292.581000,1.723636
6053.115864,292.636000,0.386988
6059.420472,292.690000,3.565614
6065.839442,292.745000,-0.663882
6072.256000,292.800000,-0.217775
6078.553548,292.854000,1.614244
6084.965331,292.909000,-0.872975
6091.374707,292.964000,3.305606
6097.665207,293.018000,-3.075508
6104.069816,293.073000,-0.042136
6110.472021,293.128000,5.149846
6116.755485,293.182000,3.310571
6123.152931,293.237000,0.123360
6129.431725,293.291000,-0.027424
6135.824417,293.346000,-3.685605
6142.098547,293.400000,-7.941698
6148.486490,293.455000,-0.440289
6154.872040,293.510000,2.686475
6161.139160,293.564000,-2.068203
6167.519969,293.619000,0.148471
6173.782438,293.673000,-3.566995
6180.158512,293.728000,1.026921
6186.416334,293.782000,-3.938698
6192.787678,293.837000,3.788965
6199.040859,293.891000,-0.460180
6205.291742,293.945000,2.149592
6211.656022,294.000000,-3.910386
6217.902272,294.054000,1.892683
6224.261835,294.109000,-4.420141
6230.503456,294.163000,1.199331
6236.742786,294.217000,4.753500
6243.095305,294.272000,3.558093
6249.330014,294.326000,2.224969
6255.677829,294.381000,-1.543757
6261.907923,294.435000,-1.274753
6268.135731,294.489000,-2.695205
6274.476522,294.544000,1.104002
6280.699722,294.598000,1.246676
6286.920642,294.652000,2.245052
6293.139281,294.706000,-6.205589
6299.470739,294.761000,-2.515680
6305.684781,294.815000,1.193921
6311.896546,294.869000,1.685033
6318.106037,294.923000,-1.360198
6324.428182,294.978000,1.195992
6330.633085,295.032000,-0.502144
6336.835717,295.086000,2.573985
6343.036080,295.140000,3.129596
6349.234174,295.194000,-1.035199
6355.544717,295.249000,0.197965
6361.738236,295.303000,10.519012
6367.929490,295.357000,4.297421
6374.118480,295.411000,5.410082
6380.305209,295.465000,6.765589
6386.489676,295.519000,5.880238
6392.671884,295.573000,7.450195
6398.851833,295.627000,7.195902
6405.143905,295.682000,18.366291
6411.319300,295.736000,34.867745
6417.492439,295.790000,10.920571
6423.663325,295.844000,10.593150
6429.831958,295.898000,5.144459
6435.998340,295.952000,4.390714
6442.162473,296.006000,7.537785
6448.324357,296.060000,2.380174
6454.483993,296.114000,8.431530
6460.641384,296.168000,5.880174
6466.796529,296.222000,10.779698
6472.949431,296.276000,9.370983
6479.100090,296.330000,3.051293
6485.248508,296.384000,10.073481
6491.280888,296.437000,5.939982
6497.424869,296.491000,-1.943125
6503.566612,296.545000,6.107350
6509.706118,296.599000,8.565265
6515.843390,296.653000,5.554816
6521.978427,296.707000,5.794015
6528.111232,296.761000,2.579509
6534.241805,296.815000,7.452856
6540.256681,296.868000,5.967806
6546.382836,296.922000,0.275916
6552.506763,296.976000,3.067033
6558.628464,297.030000,11.941960
6564.747939,297.084000,5.431654
6570.751928,297.137000,7.213191
6576.866997,297.191000,3.529517
6582.979845,297.245000,6.937846
6589.090471,297.299000,0.493257
6595.085780,297.352000,5.059027
6601.192010,297.406000,4.457289
6607.296023,297.460000,0.721580
6613.397821,297.514000,2.047291
6619.384468,297.567000,-0.262951
6625.481879,297.621000,0.419026
6631.577077,297.675000,9.085394
6637.557251,297.728000,-2.536127
6643.648069,297.782000,-1.550660
6649.623947,297.835000,-2.728089
6655.710390,297.889000,0.968961
6661.794627,297.943000,1.915390
6667.764048,297.996000,-1.300579
6673.843917,298.050000,4.587707
6679.809053,298.103000,0.057343
6685.884559,298.157000,0.129867
6691.957864,298.211000,-0.358641
6697.916562,298.264000,-4.721194
6703.985510,298.318000,-3.446297
6709.939935,298.371000,-1.299817
6716.004532,298.425000,-2.487904
6721.954688,298.478000,-3.711524
6728.014938,298.532000,0.577583
6733.960830,298.585000,-1.937284
6739.904611,298.638000,5.321831
6745.958369,298.692000,0.869506
6751.897893,298.745000,-2.057452
6757.947317,298.799000,-8.253413
6763.882588,298.852000,-0.370550
6769.927680,298.906000,-0.158861
6775.858703,298.959000,0.384438
6781.787624,299.012000,2.370357
6787.826249,299.066000,1.310480
6793.750928,299.119000,-0.206285
6799.673508,299.172000,-0.477685
6805.705677,299.226000,4.396862
6811.624022,299.279000,-1.219049
6817.540272,299.332000,-5.353133
6823.565994,299.386000,-1.153195
6829.478016,299.439000,-0.838689
6835.387945,299.492000,-4.393832
6841.407231,299.546000,-1.969508
6847.312940,299.599000,-2.791529
6853.216559,299.652000,3.802461
6859.118090,299.705000,1.442931
6865.017534,299.758000,3.246680
6871.026143,299.812000,2.095948
6876.921378,299.865000,2.454535
6882.814529,299.918000,-0.820240
6888.705597,299.971000,-3.708908
6894.594584,300.024000,-1.064775
6900.592545,300.078000,-1.094265
6906.477333,300.131000,-0.081844
6912.360044,300.184000,-0.749202
6918.240677,300.237000,-0.699534
6924.119235,300.290000,-3.665963
6929.995718,300.343000,1.548193
6935.870127,300.396000,0.561257
6941.742464,300.449000,2.242973
6947.612730,300.502000,4.130373
6953.480925,300.555000,-1.137946
6959.347051,300.608000,3.260800
6965.211108,300.661000,1.589086
6971.073099,300.714000,6.089765
6976.933024,300.767000,-1.250938
6982.790884,300.820000,-3.786526
6988.646680,300.873000,-1.575647
6994.500413,300.926000,-3.726606
7000.352085,300.979000,1.586390
7006.201696,301.032000,1.748944
7012.049248,301.085000,-6.355908
7017.894742,301.138000,-1.964377
7023.738178,301.191000,-5.178970
7029.579559,301.244000,-0.639249
7035.418884,301.297000,-1.623330
7041.256155,301.350000,-1.012636
7047.091373,301.403000,1.625531
7052.924539,301.456000,-2.114596
7058.645653,301.508000,-4.330623
7064.474758,301.561000,2.876424
7070.301814,301.614000,-3.886274
7076.126822,301.667000,-7.416118
7081.949784,301.720000,-4.948907
7087.660892,301.772000,0.669093
7093.479803,301.825000,2.756313
7099.296670,301.878000,0.530302
7105.111496,301.931000,-9.557836
7110.814624,301.983000,-3.250824
7116.625408,302.036000,1.397136
7122.434152,302.089000,3.282461
7128.240858,302.142000,2.533897
7133.936024,302.194000,-2.299425
7139.738696,302.247000,0.690380
7145.539334,302.300000,3.709356
7151.228549,302.352000,1.281705
7157.025159,302.405000,-3.757748
7162.819737,302.458000,2.345293
7168.503010,302.510000,-3.704377
7174.293567,302.563000,-1.018194
7180.082095,302.616000,0.976003
7185.759436,302.668000,2.834877
7191.543949,302.721000,-0.945490
7197.217352,302.773000,0.048031
7202.997854,302.826000,-3.822535
7208.667324,302.878000,-2.692435
7214.443819,302.931000,-5.877208
7220.109360,302.983000,3.822525
7225.881853,303.036000,3.229504
7231.543468,303.088000,-1.298654
7237.311962,303.141000,0.769816
7242.969657,303.193000,-1.952698
7248.734156,303.246000,-1.258294
7254.387934,303.298000,1.123522
7260.148443,303.351000,0.346469
7265.798308,303.403000,3.220547
7271.554831,303.456000,3.386468
7277.200787,303.508000,-0.944492
7282.953328,303.561000,-1.626437
7288.595379,303.613000,0.769833
7294.235498,303.665000,-1.897017
7299.982093,303.718000,0.939490
7305.618313,303.770000,4.393536
7311.252604,303.822000,-1.386888
7316.993262,303.875000,2.454600
7322.623660,303.927000,2.228847
7328.252131,303.979000,1.223889
7333.986862,304.032000,2.768415
7339.611446,304.084000,-0.940831
7345.234108,304.136000,-0.137130
7350.962920,304.189000,1.125799
7356.581700,304.241000,-5.239548
7362.198561,304.293000,-2.333056
7367.813502,304.345000,-1.352914
7373.426525,304.397000,2.410551
7379.145517,304.450000,-2.443419
7384.754669,304.502000,-2.209962
7390.361906,304.554000,2.385515
7395.967228,304.606000,-1.908646
7401.570637,304.658000,1.937468
7407.279836,304.711000,-1.903789
7412.879384,304.763000,1.674700
7418.477021,304.815000,1.340972
7424.072749,304.867000,-0.717858
7429.666569,304.919000,1.130123
7435.258480,304.971000,-6.472681
7440.848486,305.023000,0.455216
7446.436585,305.075000,0.781802
7452.022780,305.127000,-0.320258
7457.607071,305.179000,-2.826081
7463.296795,305.232000,0.595238
7468.877245,305.284000,-0.231161
7474.455794,305.336000,-0.827516
7480.032444,305.388000,-1.037258
7485.607195,305.440000,-4.227101
7491.180048,305.492000,1.230597
7496.751004,305.544000,0.384144
7502.212985,305.595000,-2.901660
7507.780187,305.647000,-7.824690
7513.345495,305.699000,-0.383600
7518.908909,305.751000,-5.497670
7524.470432,305.803000,-2.007683
7530.030064,305.855000,2.066832
7535.587805,305.907000,3.532501
7541.143658,305.959000,2.396413
7546.697622,306.011000,-5.174117
7552.249699,306.063000,0.246533
7557.693173,306.114000,0.364644
7563.241514,306.166000,4.691133
7568.787971,306.218000,6.215610
7574.332545,306.270000,0.195090
7579.875237,306.322000,-3.710855
7585.416047,306.374000,-0.353121
7590.848476,306.425000,0.917417
7596.385562,306.477000,-2.689132
7601.920769,306.529000,-0.481217
7607.454098,306.581000,-3.049022
7612.879195,306.632000,3.174113
7618.408808,306.684000,-0.457296
7623.936546,306.736000,1.084686
7629.462411,306.788000,4.935106
7634.880189,306.839000,-4.763767
7640.402345,306.891000,-0.527551
7645.922629,306.943000,1.329860
7651.334938,306.994000,-7.785701
7656.851519,307.046000,-2.338304
7662.260197,307.097000,-3.004518
7667.773079,307.149000,-4.979382
7673.284094,307.201000,2.583327
7678.687317,307.252000,1.081370
7684.194638,307.304000,-3.360257
7689.700096,307.356000,-3.652768
7695.097870,307.407000,-1.276194
7700.599639,307.459000,-2.098066
7705.993798,307.510000,3.372990
7711.491883,307.562000,-2.668807
7716.882430,307.613000,3.409490
7722.376833,307.665000,0.918394
7727.763772,307.716000,0.978696
7733.254498,307.768000,-3.782715
7738.637831,307.819000,3.619559
7744.124884,307.871000,-3.100093
7749.504617,307.922000,4.366413
7754.988000,307.974000,1.250096
7760.364134,308.025000,-1.427422
7765.738489,308.076000,-4.698340
7771.216392,308.128000,-1.272678
7776.587155,308.179000,0.073966
7782.061397,308.231000,0.600181
7787.428571,308.282000,-4.097789
7792.793970,308.333000,-1.324418
7798.262745,308.385000,2.319149
7803.624561,308.436000,5.631172
7808.984603,308.487000,1.271298
7814.447920,308.539000,1.878019
7819.804385,308.590000,0.889433
7825.159080,308.641000,1.386937
7830.616947,308.693000,4.995269
7835.968069,308.744000,-1.416606
7841.317424,308.795000,-0.424051
7846.665012,308.846000,0.014690
7852.115636,308.898000,-5.660735
7857.459659,308.949000,-1.860737
7862.801917,309.000000,4.826924
7868.142413,309.051000,3.645684
7873.481146,309.102000,-1.198941
7878.922746,309.154000,-1.721840
7884.257923,309.205000,-0.969023
7889.591340,309.256000,5.216818
7894.922998,309.307000,5.098542
7900.252898,309.358000,-0.610658
7905.581041,309.409000,5.175921
7910.907428,309.460000,-2.990572
7916.336447,309.512000,0.516900
7921.659290,309.563000,0.638819
7926.980379,309.614000,6.981643
7932.299715,309.665000,6.000778
7937.617300,309.716000,1.364884
7942.933134,309.767000,-1.457502
7948.247217,309.818000,6.349496
7953.559551,309.869000,-4.908802
7958.870137,309.920000,1.091150
7964.178976,309.971000,-3.743053
7969.486068,310.022000,-1.875140
7974.791414,310.073000,-5.936545
7980.095015,310.124000,-0.460948
7985.396872,310.175000,-0.818278
7990.696985,310.226000,-2.453242
7995.995357,310.277000,3.287978
8001.291987,310.328000,-4.494976
8006.586876,310.379000,-2.891091
8011.880026,310.430000,0.232511
8017.067700,310.480000,1.859579
8022.357406,310.531000,0.634768
8027.645376,310.582000,0.412691
8032.931609,310.633000,1.445069
8038.216106,310.684000,2.007023
8043.498869,310.735000,3.795609
8048.779898,310.786000,-1.406661
8053.955695,310.836000,3.322130
8059.233293,310.887000,3.004816
8064.509160,310.938000,-6.855627
8069.783296,310.989000,-2.659739
8074.952339,311.039000,-5.098319
8080.223051,311.090000,0.213734
8085.492035,311.141000,5.173827
8090.759292,311.192000,-3.825610
8095.921594,311.242000,-0.345322
8101.185433,311.293000,5.511188
8106.447548,311.344000,2.288452
8111.604811,311.394000,3.308332
8116.863513,311.445000,-3.057735
8122.120493,311.496000,1.075965
8127.272724,311.546000,0.901802
8132.526297,311.597000,-0.960556
8137.778150,311.648000,0.516243
8142.925357,311.698000,-0.869531
8148.173807,311.749000,2.449315
8153.420541,311.800000,-0.556684
8158.562731,311.850000,-0.114265
8163.806066,311.901000,-0.674900
8168.944927,311.951000,0.514704
8174.184869,312.002000,0.295904
8179.320403,312.052000,3.193443
8184.556953,312.103000,-3.542835
8189.689165,312.153000,-3.449529
8194.922327,312.204000,1.737890
8200.051219,312.254000,3.693527
8205.280996,312.305000,-1.020619
8210.406572,312.355000,-2.299899
8215.632968,312.406000,-2.984084
8220.755230,312.456000,-0.529659
8225.978248,312.507000,-1.456807
8231.097200,312.557000,5.069838
8236.316843,312.608000,-4.470935
8241.432488,312.658000,6.443093
8246.546497,312.708000,-1.523918
8251.761101,312.759000,-3.547400
8256.871808,312.809000,3.405150
8261.980881,312.859000,-2.081199
8267.190453,312.910000,3.714290
8272.296229,312.960000,-2.247684
8277.400373,313.010000,1.287689
8282.604921,313.061000,-0.451289
8287.705773,313.111000,-3.692095
8292.804996,313.161000,-2.618648
8298.004526,313.212000,-3.813384
8303.100462,313.262000,3.504503
8308.194770,313.312000,11.353775
8313.287453,313.362000,-5.851021
8318.480316,313.413000,-1.265475
8323.569717,313.463000,-2.153758
8328.657496,313.513000,5.847407
8333.743651,313.563000,4.371529
8338.828185,313.613000,3.448640
8344.012739,313.664000,1.164066
8349.094000,313.714000,3.528198
8354.173640,313.764000,-2.383620
8359.251662,313.814000,-5.345404
8364.328066,313.864000,5.741005
8369.402853,313.914000,0.578191
8374.476024,313.964000,1.458751
8379.547579,314.014000,0.642496
8384.718901,314.065000,-1.889626
8389.787195,314.115000,-2.784441
8394.853876,314.165000,1.038123
8399.918944,314.215000,1.468562
8404.982400,314.265000,4.336937
8410.044246,314.315000,-1.842601
8415.104481,314.365000,-2.667638
8420.163107,314.415000,-3.516175
8425.220124,314.465000,-2.795124
8430.275533,314.515000,-3.234694
8435.329336,314.565000,0.887133
8440.381532,314.615000,-2.500452
8445.432122,314.665000,-0.290097
8450.481107,314.715000,1.153589
8455.528489,314.765000,-2.664279
8460.473367,314.814000,0.085895
8465.517575,314.864000,-4.744097
8470.560181,314.914000,-4.554702
8475.601186,314.964000,1.590807
8480.640590,315.014000,-4.976289
8485.678395,315.064000,-4.515336
8490.714602,315.114000,-1.959841
8495.749210,315.164000,-0.914444
8500.681577,315.213000,0.070691
8505.713024,315.263000,2.150616
8510.742875,315.313000,4.106289
8515.771131,315.363000,0.840668
8520.797793,315.413000,2.191309
8525.722375,315.462000,0.926742
8530.745883,315.512000,-2.744581
8535.767799,315.562000,3.684630
8540.788124,315.612000,-6.044416
8545.706499,315.661000,0.760386
8550.723675,315.711000,0.212695
8555.739262,315.761000,3.134502
8560.652997,315.810000,3.434809
8565.665441,315.860000,-0.138402
8570.676298,315.910000,-3.502955
8575.585399,315.959000,3.070511
8580.593116,316.009000,-2.998361
8585.599249,316.059000,-0.614894
8590.503723,316.108000,0.315127
8595.506721,316.158000,-2.434650
8600.508137,316.208000,-0.006090
8605.407991,316.257000,-3.186920
8610.406276,316.307000,0.750032
8615.303063,316.356000,-0.293496
8620.298221,316.406000,1.986498
8625.191944,316.455000,-0.271238
8630.183977,316.505000,1.629113
8635.074640,316.554000,-4.501870
8640.063551,316.604000,-2.141908
8644.951156,316.653000,-6.857128
8649.936949,316.703000,-7.358916
8654.821499,316.752000,-0.262165
8659.804175,316.802000,-2.175202
8664.685673,316.851000,-0.015310
8669.665237,316.901000,-3.681132
8674.543685,316.950000,5.094257
8679.520139,317.000000,2.833373
8684.395541,317.049000,-1.812538
8689.269436,317.098000,2.562316
8694.241247,317.148000,-3.840829
8699.112100,317.197000,-2.639140
8703.981448,317.246000,-5.558157
8708.948621,317.296000,-1.267961
8713.814931,317.345000,1.676672
8718.779005,317.395000,2.599056
8723.642281,317.444000,-4.760961
8728.504055,317.493000,2.539176
8733.364329,317.542000,5.865492
8738.322247,317.592000,-3.464274
8743.179491,317.641000,-8.356781
8748.035237,317.690000,-0.903987
8752.889486,317.739000,-3.068171
8757.841258,317.789000,0.449473
8762.692483,317.838000,2.633887
8767.542212,317.887000,-0.921133
8772.390446,317.936000,-2.467505
8777.336084,317.986000,0.894160
8782.181300,318.035000,1.524669
8787.025024,318.084000,3.043829
8791.867255,318.133000,-2.002647
8796.707995,318.182000,2.945490
8801.547244,318.231000,-1.300486
8806.385003,318.280000,-4.341211
8811.319957,318.330000,1.531712
8816.154708,318.379000,2.690221
8820.987971,318.428000,5.574858
8825.819746,318.477000,6.282800
8830.650035,318.526000,1.099394
8835.478838,318.575000,1.648510
8840.306156,318.624000,-0.143904
8845.131990,318.673000,-0.672515
8849.956339,318.722000,-1.652012
8854.779206,318.771000,1.605931
8859.600590,318.820000,-1.053289
8864.420492,318.869000,-6.723687
8869.238913,318.918000,1.385996
8874.055854,318.967000,-2.758561
8878.871314,319.016000,-0.252700
8883.685296,319.065000,-0.287885
8888.497800,319.114000,-0.588563
8893.308826,319.163000,0.962519
8898.118374,319.212000,0.060150
8902.926447,319.261000,5.330298
8907.634964,319.309000,-6.394053
8912.440116,319.358000,0.066175
8917.243794,319.407000,2.420840
8922.045998,319.456000,-1.777457
8926.846729,319.505000,0.989738
8931.645988,319.554000,-1.911260
8936.443775,319.603000,-4.748366
8941.142222,319.651000,-1.300270
8945.937098,319.700000,3.180711
8950.730504,319.749000,-5.341935
8955.522441,319.798000,-4.344510
8960.215161,319.846000,3.845046
8965.004192,319.895000,-1.203133
8969.791757,319.944000,-1.793049
8974.577855,319.993000,-1.004077
8979.264858,320.041000,3.063198
8984.048055,320.090000,2.973765
8988.829789,320.139000,4.077188
8993.512517,320.187000,-1.604681
8998.291355,320.236000,-1.898830
9003.068730,320.285000,1.146262
9007.747190,320.333000,7.332656
9012.521672,320.382000,2.784624
9017.294694,320.431000,-1.867419
9021.968893,320.479000,-3.275467
9026.739026,320.528000,0.205197
9031.410396,320.576000,-5.935407
9036.177644,320.625000,2.390347
9040.943434,320.674000,-5.028131
9045.610552,320.722000,-0.994012
9050.373460,320.771000,-1.288914
9055.037756,320.819000,-2.891558
9059.797784,320.868000,0.893342
9064.459261,320.916000,4.615351
9069.216413,320.965000,0.997178
9073.875072,321.013000,-1.692296
9078.629350,321.062000,4.291787
9083.285194,321.110000,-0.133916
9088.036601,321.159000,-1.044709
9092.689634,321.207000,-6.905849
9097.438171,321.256000,1.816966
9102.088394,321.304000,1.992400
9106.737229,321.352000,4.514773
9111.481482,321.401000,4.596961
9116.127511,321.449000,-1.200997
9120.868902,321.498000,-1.464199
9125.512128,321.546000,-5.642471
9130.153968,321.594000,-6.582934
9134.891085,321.643000,2.050590
9139.530126,321.691000,1.333374
9144.167783,321.739000,-0.032877
9148.900630,321.788000,-0.255555
9153.535492,321.836000,-3.532941
9158.168971,321.884000,2.246032
9162.801069,321.932000,-4.395042
9167.528244,321.981000,7.637363
9172.157551,322.029000,-1.894358
9176.785479,322.077000,-0.857892
9181.412027,322.125000,1.072708
9186.133540,322.174000,5.926297
9190.757302,322.222000,-5.591540
9195.379688,322.270000,1.289386
9200.000697,322.318000,0.517168
9204.620330,322.366000,-4.309663
9209.334786,322.415000,1.273175
9213.951640,322.463000,0.597751
9218.567119,322.511000,-2.760400
9223.181225,322.559000,-0.803300
9227.793957,322.607000,-6.818636
9232.405318,322.655000,0.801992
9237.015306,322.703000,-2.359637
9241.623923,322.751000,1.803175
9246.231170,322.799000,7.623302
9250.932988,322.848000,-2.090218
9255.537466,322.896000,4.497196
9260.140576,322.944000,3.570019
9264.742318,322.992000,2.805689
9269.342693,323.040000,5.476903
9273.941700,323.088000,-0.686659
9278.539341,323.136000,0.476471
9283.135616,323.184000,1.397174
9287.730527,323.232000,4.746552
9292.324072,323.280000,0.230530
9296.916254,323.328000,-3.985715
9301.411445,323.375000,3.506469
9306.000929,323.423000,-0.279848
9310.589052,323.471000,-2.250863
9315.175812,323.519000,1.218292
9319.761212,323.567000,0.632684
9324.345252,323.615000,2.673818
9328.927932,323.663000,-2.343895
9333.509253,323.711000,4.953296
9338.089216,323.759000,3.825642
9342.572447,323.806000,-6.177691
9347.149722,323.854000,-5.129285
9351.725642,323.902000,-1.403968
9356.300205,323.950000,4.760110
9360.873412,323.998000,-2.430934
9365.350032,324.045000,0.912373
9369.920559,324.093000,4.833029
9374.489732,324.141000,-1.715688
9379.057552,324.189000,2.633103
9383.528899,324.236000,-1.666398
9388.094043,324.284000,1.260407
9392.657836,324.332000,0.287309
9397.125241,324.379000,-1.785449
9401.686361,324.427000,-2.226568
9406.246132,324.475000,-0.302108
9410.804554,324.523000,1.498259
9415.266702,324.570000,-1.892133
9419.822456,324.618000,0.799105
9424.281993,324.665000,-1.845637
9428.835082,324.713000,-1.524806
9433.386824,324.761000,-1.570800
9437.842435,324.808000,0.728159
9442.391516,324.856000,4.414838
9446.844521,324.903000,-1.537305
9451.390942,324.951000,-1.571359
9455.936020,324.999000,1.312142
9460.385108,325.046000,1.158640
9464.927530,325.094000,0.402930
9469.374018,325.141000,-0.695725
9473.913786,325.189000,-3.978057
9478.357677,325.236000,-1.797408
9482.894794,325.284000,2.588016
9487.336090,325.331000,-0.066915
9491.870557,325.379000,-1.807481
9496.309260,325.426000,1.938448
9500.746681,325.473000,-0.006283
9505.277193,325.521000,-0.891603
9509.712024,325.568000,-0.432140
9514.239893,325.616000,-2.721958
9518.672137,325.663000,-3.901289
9523.103102,325.710000,1.952653
9527.627024,325.758000,2.334832
9532.055405,325.805000,1.028738
9536.576689,325.853000,4.859333
9541.002489,325.900000,-4.190310
9545.427013,325.947000,-0.981789
9549.850260,325.994000,-0.533794
9554.366303,326.042000,-2.954462
9558.786974,326.089000,-8.119336
9563.206371,326.136000,0.555916
9567.718482,326.184000,2.419532
9572.135305,326.231000,6.423326
9576.550855,326.278000,2.094383
9580.965134,326.325000,0.903895
9585.472021,326.373000,-3.409627
9589.883730,326.420000,-5.603495
9594.294169,326.467000,0.796423
9598.703338,326.514000,7.267806
9603.111238,326.561000,1.918039
9607.611614,326.609000,6.736394
9612.016950,326.656000,8.291532
9616.421019,326.703000,2.850031
9620.823821,326.750000,6.565611
9625.225356,326.797000,-0.947832
9629.625626,326.844000,-1.171245
9634.024630,326.891000,-3.461799
9638.422369,326.938000,-0.658911
9642.818845,326.985000,-0.848622
9647.214056,327.032000,1.611610
9651.701479,327.080000,5.694525
9656.094138,327.127000,-3.606992
9660.485535,327.174000,-0.245763
9664.875670,327.221000,4.536687
9669.264544,327.268000,-3.326935
9673.652158,327.315000,3.396706
9678.038512,327.362000,-1.681220
9682.423607,327.409000,-0.483859
9686.807443,327.456000,-4.489207
9691.190021,327.503000,3.822538
9695.478134,327.549000,2.364473
9699.858224,327.596000,-1.690005
9704.237057,327.643000,-0.257980
9708.614633,327.690000,-5.121621
9712.990955,327.737000,-5.983193
9717.366021,327.784000,-0.025118
9721.739833,327.831000,2.719623
9726.112390,327.878000,-3.151991
9730.483695,327.925000,0.839222
9734.760780,327.971000,-2.745674
9739.129606,328.018000,1.715218
9743.497180,328.065000,1.114319
9747.863503,328.112000,-4.038750
9752.228575,328.159000,1.139316
9756.499562,328.205000,-2.748670
9760.862161,328.252000,3.167477
9765.223511,328.299000,-1.001101
9769.583612,328.346000,-1.023897
9773.849737,328.392000,2.218779
9778.207369,328.439000,-2.595031
9782.563754,328.486000,5.069251
9786.918893,328.533000,0.684043
9791.180163,328.579000,3.397982
9795.532837,328.626000,-1.404168
9799.884266,328.673000,-6.222728
9804.141906,328.719000,1.096911
9808.490874,328.766000,1.416070
9812.838598,328.813000,2.226040
9817.092614,328.859000,-0.800836
9821.437879,328.906000,-3.879892
9825.689490,328.952000,1.453623
9830.032299,328.999000,2.129366
9834.373868,329.046000,-8.358563
9838.621862,329.092000,2.691858
9842.960977,329.139000,2.287463
9847.206571,329.185000,2.175512
9851.543235,329.232000,-0.516867
9855.786431,329.278000,0.586792
9860.120646,329.325000,1.132738
9864.361446,329.371000,-4.502395
9868.693214,329.418000,0.848594
9872.931619,329.464000,4.141100
9877.260942,329.511000,5.022502
9881.496956,329.557000,2.071874
9885.823836,329.604000,3.805705
9890.057460,329.650000,4.725482
9894.289903,329.696000,0.956945
9898.613135,329.743000,-0.695485
9902.843191,329.789000,0.546863
9907.163985,329.836000,2.124583
9911.391656,329.882000,-3.264129
9915.618148,329.928000,3.343964
9919.935303,329.975000,1.602709
9924.159413,330.021000,-0.404473
9928.382346,330.067000,0.084010
9932.695866,330.114000,4.568215
9936.916419,330.160000,-6.113165
9941.135797,330.206000,-4.340728
9945.445687,330.253000,1.176677
9949.662689,330.299000,-0.306203
9953.878516,330.345000,-0.372451
9958.093170,330.391000,0.698056
9962.398234,330.438000,-1.261417
9966.610516,330.484000,0.959233
9970.821625,330.530000,0.297332
9975.031562,330.576000,1.720809
9979.240328,330.622000,0.253161
9983.539380,330.669000,2.305372
9987.745778,330.715000,-1.608835
9991.951007,330.761000,-5.001802
9996.155067,330.807000,1.438826
10000.357957,330.853000,-4.554386
10004.559679,330.899000,-2.507052
10008.760233,330.945000,2.929286
10013.050897,330.992000,-9.881362
10017.249091,331.038000,-0.653019
10021.446118,331.084000,0.249974
10025.641979,331.130000,2.243754
10029.836675,331.176000,0.943329
10034.030205,331.222000,4.067995
10038.222571,331.268000,-7.842620
10042.413773,331.314000,1.639755
10046.603811,331.360000,3.114923
10050.792686,331.406000,-0.587641
10054.980398,331.452000,-7.838433
10059.166948,331.498000,-4.031721
10063.352336,331.544000,2.591364
10067.536563,331.590000,4.732266
10071.719629,331.636000,3.241704
10075.901535,331.682000,0.894472
10080.082281,331.728000,0.784542
10084.261868,331.774000,-2.960999
10088.440296,331.820000,-9.984632
10092.526768,331.865000,0.109681
10096.702905,331.911000,3.629843
10100.877884,331.957000,-4.156653
10105.051707,332.003000,1.854916
10109.224373,332.049000,-4.343450
10113.395884,332.095000,1.988316
10117.475591,332.140000,2.313874
10121.644816,332.186000,-2.067355
10125.812886,332.232000,2.941245
10129.979802,332.278000,0.057767
10134.145565,332.324000,-2.772411
10138.219652,332.369000,-1.091199
10142.383134,332.415000,-2.530040
10146.545464,332.461000,-5.119285
10150.706643,332.507000,-1.297393
10154.776247,332.552000,-0.171931
10158.935148,332.598000,-8.394093
10163.092900,332.644000,-0.207137
10167.159152,332.689000,-3.407417
10171.314630,332.735000,-0.557307
10175.468958,332.781000,1.742495
10179.531864,332.826000,2.869758
10183.683921,332.872000,-0.022311
10187.834831,332.918000,-5.232195
10191.894393,332.963000,-1.204053
10196.043035,333.009000,-1.178894
10200.190530,333.055000,4.622933
10204.246754,333.100000,-5.184187
10208.391984,333.146000,-0.938093
10212.445992,333.191000,0.280755
10216.588958,333.237000,0.569429
10220.640753,333.282000,-3.581809
10224.781457,333.328000,-6.705067
10228.831039,333.373000,-4.518120
10232.969483,333.419000,1.819962
10237.016856,333.464000,-1.215800
10241.153042,333.510000,-1.585232
10245.198206,333.555000,2.459436
10249.332135,333.601000,-6.766544
10253.375094,333.646000,1.065087
10257.506768,333.692000,-0.158714
10261.547522,333.737000,-2.980623
10265.587186,333.782000,-5.060497
10269.715494,333.828000,7.020138
10273.752956,333.873000,-3.131451
10277.879015,333.919000,-2.206900
10281.914277,333.964000,2.130560
10285.948452,334.009000,-6.791738
10290.071151,334.055000,-0.312530
10294.103128,334.100000,-1.230751
10298.134020,334.145000,-4.692424
10302.253364,334.191000,-1.555996
10306.282060,334.236000,-4.613731
10310.309672,334.281000,-1.250478
10314.425666,334.327000,-0.537750
10318.451085,334.372000,-2.593367
10322.475422,334.417000,-2.211782
10326.498675,334.462000,0.314438
10330.610215,334.508000,-1.627468
10334.631280,334.553000,1.804317
10338.651263,334.598000,-6.387082
10342.670165,334.643000,-2.628416
10346.687987,334.688000,0.527220
10350.704728,334.733000,0.721584
10354.809614,334.779000,-5.158724
10358.824172,334.824000,-2.600613
10362.837651,334.869000,1.060623
10366.850051,334.914000,-5.000392
10370.861373,334.959000,0.358115
10374.871618,335.004000,2.168160
10378.880786,335.049000,1.809320
10382.888876,335.094000,1.426933
10386.984923,335.140000,-2.235520
10390.990838,335.185000,2.450981
10394.995677,335.230000,-0.221547
10398.999440,335.275000,1.109374
10403.002130,335.320000,1.450489
10407.003745,335.365000,-1.314522
10411.004286,335.410000,0.445831
10415.003755,335.455000,-4.950734
10419.002150,335.500000,1.841451
10422.999473,335.545000,2.772220
10426.995723,335.590000,-2.603847
10430.990902,335.635000,-1.405024
10434.985010,335.680000,3.187112
10438.889325,335.724000,6.723148
10442.881316,335.769000,3.518880
10446.872237,335.814000,-1.504804
10450.862088,335.859000,-2.074036
10454.850871,335.904000,2.099130
10458.838585,335.949000,-1.606489
10462.825230,335.994000,-1.798806
10466.810808,336.039000,4.335843
10470.706786,336.083000,3.997394
10474.690253,336.128000,-3.059637
10478.672654,336.173000,-0.819222
10482.653989,336.218000,-0.416409
10486.634259,336.263000,-0.776529
10490.525048,336.307000,2.566520
10494.503211,336.352000,6.746719
10498.480310,336.397000,0.223213
10502.456345,336.442000,-0.193680
10506.342995,336.486000,0.264029
10510.316927,336.531000,1.988683
10514.289797,336.576000,4.343552
10518.261604,336.621000,-2.296495
10522.144122,336.665000,2.109819
10526.113830,336.710000,1.523299
10530.082477,336.755000,6.110761
10533.961906,336.799000,-1.886138
10537.928455,336.844000,6.046471
10541.893946,336.889000,0.504433
10545.770289,336.933000,3.349046
10549.733685,336.978000,-1.782334
10553.607982,337.022000,6.315200
10557.569284,337.067000,-3.048260
10561.529529,337.112000,-1.134160
10565.400747,337.156000,-4.185023
10569.358902,337.201000,-1.829219
10573.228076,337.245000,2.863598
10577.184142,337.290000,0.419092
10581.051275,337.334000,0.649788
10585.005254,337.379000,-5.854927
10588.870347,337.423000,2.573184
10592.822240,337.468000,-1.035778
10596.685295,337.512000,6.019360
10600.635105,337.557000,1.727445
10604.496123,337.601000,0.345103
10608.443850,337.646000,2.892157
10612.302834,337.690000,-1.146565
10616.160811,337.734000,7.330270
10620.105430,337.779000,10.933743
10623.961375,337.823000,9.545754
10627.903916,337.868000,4.309291
10631.757830,337.912000,15.465393
10635.610740,337.956000,11.197600
10639.550179,338.001000,19.788047
10643.401061,338.045000,13.937552
10647.250940,338.089000,18.632624
10651.187281,338.134000,14.370216
10655.035134,338.178000,18.836857
10658.881986,338.222000,20.721920
10662.815231,338.267000,18.486853
10666.660059,338.311000,23.250789
10670.503887,338.355000,21.312170
10674.346716,338.399000,18.831671
10678.275848,338.444000,20.287075
10682.116656,338.488000,25.328450
10685.956465,338.532000,19.719856
10689.795276,338.576000,20.702415
10693.633090,338.620000,23.123110
10697.557096,338.665000,22.498133
10701.392893,338.709000,20.252406
10705.227693,338.753000,22.659079
10709.061498,338.797000,25.417252
10712.894307,338.841000,20.191596
10716.726120,338.885000,21.560840
10720.556939,338.929000,26.045995
10724.386763,338.973000,26.337942
10728.302601,339.018000,20.708289
10732.130414,339.062000,20.077414
10735.957235,339.106000,25.579694
10739.783062,339.150000,17.200461
10743.607897,339.194000,25.982174
10747.431740,339.238000,22.343655
10751.254591,339.282000,22.271733
10755.076450,339.326000,17.533731
10758.897319,339.370000,22.284051
10762.717197,339.414000,23.034924
10766.536084,339.458000,17.762283
10770.353982,339.502000,24.381148
10774.170890,339.546000,19.172386
10777.986809,339.590000,24.592566
10781.801740,339.634000,24.835843
10785.615682,339.678000,18.872596
10789.341989,339.721000,27.161181
10793.153978,339.765000,25.806900
10796.964980,339.809000,19.683878
10800.774995,339.853000,18.925852
10804.584024,339.897000,32.395900
10808.392066,339.941000,21.293330
10812.199123,339.985000,16.096894
10816.005195,340.029000,24.882228
10819.723813,340.072000,24.852857
10823.527938,340.116000,20.033843
10827.331078,340.160000,20.417678
10831.133235,340.204000,21.440369
10834.848029,340.247000,21.568856
10838.648242,340.291000,25.186600
10842.447472,340.335000,15.893828
10846.245720,340.379000,23.107830
10849.956695,340.422000,22.251554
10853.753002,340.466000,21.382086
10857.548328,340.510000,22.039155
10861.342673,340.554000,26.214486
10865.049836,340.597000,19.317700
10868.842243,340.641000,24.270103
10872.633670,340.685000,23.143126
10876.337983,340.728000,23.874212
10880.127474,340.772000,26.898860
10883.829896,340.815000,18.816706
10887.617453,340.859000,23.202471
10891.404033,340.903000,19.287892
10895.103609,340.946000,21.499721
10898.888257,340.990000,23.251008
10902.585946,341.033000,23.008867
10906.368663,341.077000,21.484133
10910.150404,341.121000,21.779341
10913.845254,341.164000,24.836910
10917.625066,341.208000,20.665019
10921.318033,341.251000,20.584225
10925.095918,341.295000,23.094464
10928.787002,341.338000,20.427424
10932.562962,341.382000,22.629870
10936.252165,341.425000,22.494369
10939.940439,341.468000,19.591212
10943.713524,341.512000,18.323840
10947.399919,341.555000,15.392041
10951.171083,341.599000,19.036931
10954.855601,341.642000,22.403785
10958.624845,341.686000,17.236144
10962.307486,341.729000,20.866275
10965.989201,341.772000,17.629113
10969.755578,341.816000,18.117857
10973.435419,341.859000,13.449386
10977.114334,341.902000,14.421589
10980.877848,341.946000,19.171242
10984.554892,341.989000,20.505327
10988.231011,342.032000,18.095774
10991.991665,342.076000,18.541315
10995.665914,342.119000,19.208420
10999.339240,342.162000,16.113470
11003.011643,342.205000,23.079252
11006.768496,342.249000,21.701791
11010.439032,342.292000,25.777941
11014.108646,342.335000,22.891904
11017.777338,342.378000,19.684778
11021.530396,342.422000,16.875004
11025.197224,342.465000,16.811199
11028.863132,342.508000,21.468583
11032.528119,342.551000,25.119858
11036.192187,342.594000,20.692799
11039.855335,342.637000,21.117369
11043.602720,342.681000,21.465840
11047.264009,342.724000,19.178091
11050.924378,342.767000,19.717636
11054.583829,342.810000,24.717164
11058.242363,342.853000,22.478833
11061.899979,342.896000,17.462606
11065.556677,342.939000,18.905117
11069.212459,342.982000,24.254742
11072.867324,343.025000,24.482462
11076.521273,343.068000,26.800645
11080.174306,343.111000,15.936651
11083.826423,343.154000,21.165674
11087.477626,343.197000,21.729147
11091.127913,343.240000,21.605091
11094.777286,343.283000,15.462961
11098.425745,343.326000,20.729037
11102.073291,343.369000,13.206143
11105.719922,343.412000,20.122366
11109.365641,343.455000,16.221789
11113.010447,343.498000,16.881022
11116.654340,343.541000,18.431025
11120.297322,343.584000,19.714418
11123.939391,343.627000,21.271884
11127.580549,343.670000,22.594098
11131.220797,343.713000,23.199150
11134.775508,343.755000,17.651779
11138.413955,343.798000,21.511863
11142.051492,343.841000,21.456677
11145.688120,343.884000,18.312554
11149.323838,343.927000,22.487839
11152.958647,343.970000,20.607569
11156.508049,344.012000,23.244730
11160.141062,344.055000,24.349044
11163.773167,344.098000,22.110291
11167.404365,344.141000,19.111604
11170.950240,344.183000,26.398841
11174.579645,344.226000,24.542874
11178.208143,344.269000,18.389975
11181.751382,344.311000,19.366633
11185.378088,344.354000,27.441706
11189.003889,344.397000,19.419603
11192.628785,344.440000,24.403415
11196.168507,344.482000,20.264144
11199.791614,344.525000,17.074714
11203.413817,344.568000,21.208868
11206.950910,344.610000,25.442949
11210.571327,344.653000,19.561219
11214.106675,344.695000,24.825975
11217.725306,344.738000,22.877894
11221.343035,344.781000,21.530746
11224.875759,344.823000,20.522140
11228.491704,344.866000,25.055864
11232.022687,344.908000,25.849456
11235.636851,344.951000,15.579078
11239.166094,344.993000,22.839637
11242.778477,345.036000,27.314513
11246.305982,345.078000,21.349672
11249.916585,345.121000,21.409755
11253.442353,345.163000,25.585478
11257.051178,345.206000,23.391230
11260.575210,345.248000,26.546127
11264.182259,345.291000,24.700513
11267.704555,345.333000,17.105806
11271.309829,345.376000,27.011005
11274.830392,345.418000,23.148481
11278.350100,345.460000,23.951413
11281.952723,345.503000,20.077639
11285.470699,345.545000,19.059539
11288.987820,345.587000,20.274474
11292.587796,345.630000,21.715235
11296.103187,345.672000,24.707755
11299.701393,345.715000,21.328404
11303.215056,345.757000,32.648441
11306.727865,345.799000,23.462916
11310.239821,345.841000,24.402245
11313.834512,345.884000,17.638052
11317.344742,345.926000,17.381809
11320.854120,345.968000,19.471725
11324.446172,346.011000,22.498927
11327.953826,346.053000,18.695971
11331.460629,346.095000,25.775856
11334.966581,346.137000,21.217152
11338.471682,346.179000,24.147437
11342.059357,346.222000,19.941389
11345.562737,346.264000,27.143751
11349.065268,346.306000,24.207126
11352.566949,346.348000,22.177141
11356.067781,346.390000,20.804116
11359.567764,346.432000,23.208796
11363.150201,346.475000,22.058262
11366.648467,346.517000,17.468593
11370.145885,346.559000,24.179062
11373.642456,346.601000,28.248505
11377.138179,346.643000,22.577201
11380.633055,346.685000,24.578255
11384.127085,346.727000,19.952931
11387.620268,346.769000,25.495287
11391.112605,346.811000,21.203187
11394.604096,346.853000,24.455133
11398.094742,346.895000,22.716835
11401.584543,346.937000,21.451304
11405.073499,346.979000,29.771678
11408.561610,347.021000,18.290095
11412.048877,347.063000,24.877348
11415.535301,347.105000,23.619415
11419.020880,347.147000,24.110820
11422.505617,347.189000,28.728645
11425.989510,347.231000,19.709746
11429.472560,347.273000,20.212208
11432.954769,347.315000,18.602378
11436.436135,347.357000,22.384077
11439.916659,347.399000,24.890312
11443.313502,347.440000,21.619930
11446.792364,347.482000,21.585856
11450.270384,347.524000,26.139795
11453.747565,347.566000,25.728539
11457.223905,347.608000,22.000343
11460.699405,347.650000,28.568492
11464.091345,347.691000,26.842050
11467.565186,347.733000,28.240024
11471.038188,347.775000,24.444410
11474.510351,347.817000,20.136860
11477.981676,347.859000,23.898914
11481.369541,347.900000,23.267724
11484.839210,347.942000,23.481961
11488.308041,347.984000,23.087846
11491.693473,348.025000,24.078073
11495.160650,348.067000,21.947515
11498.626991,348.109000,24.241937
11502.092494,348.151000,21.899170
11505.474680,348.192000,18.321154
11508.938532,348.234000,22.267147
11512.401549,348.276000,19.591245
11515.781307,348.317000,15.170941
11519.242673,348.359000,20.384194
11522.620821,348.400000,27.364856
11526.080539,348.442000,25.545704
11529.539422,348.484000,21.301192
11532.915148,348.525000,15.336579
11536.372384,348.567000,24.724836
11539.746502,348.608000,21.096417
11543.202092,348.650000,24.375305
11546.574604,348.691000,26.312052
11550.028550,348.733000,22.526005
11553.399456,348.774000,20.727660
11556.851758,348.816000,17.355167
11560.221061,348.857000,21.858558
11563.671720,348.899000,19.213951
11567.039420,348.940000,20.674823
11570.488439,348.982000,23.294498
11573.854537,349.023000,26.992075
11577.301915,349.065000,22.749914
11580.666413,349.106000,22.557127
11584.030120,349.147000,20.766174
11587.475051,349.189000,21.108035
11590.837159,349.230000,24.093002
11594.280452,349.272000,25.050115
11597.640963,349.313000,24.095738
11601.000686,349.354000,24.900792
11604.441535,349.396000,22.936667
11607.799661,349.437000,18.941896
11611.157000,349.478000,26.510905
11614.595408,349.520000,19.860510
11617.951152,349.561000,20.828549
11621.306109,349.602000,20.433799
11624.660280,349.643000,21.596907
11628.095443,349.685000,17.777661
11631.448022,349.726000,20.875958
11634.799814,349.767000,19.845261
11638.150821,349.808000,19.125692
11641.582745,349.850000,20.279198
11644.932162,349.891000,18.520681
11648.280794,349.932000,20.038138
11651.628641,349.973000,14.438152
11654.975704,350.014000,20.014343
11658.403590,350.056000,22.344144
11661.749066,350.097000,23.872423
11665.093759,350.138000,20.904201
11668.437668,350.179000,19.713248
11671.780795,350.220000,21.070215
11675.123139,350.261000,14.057789
11678.464700,350.302000,19.782706
11681.805480,350.343000,16.898515
11685.145477,350.384000,18.387377
11688.484693,350.425000,16.732164
11691.904543,350.467000,24.368430
11695.242178,350.508000,21.742906
11698.579032,350.549000,20.211038
11701.915105,350.590000,25.010158
11705.250398,350.631000,15.612201
11708.584912,350.672000,26.485658
11711.918645,350.713000,20.107657
11715.251600,350.754000,24.161633
11718.502512,350.794000,23.216083
11721.833927,350.835000,21.639751
11725.164564,350.876000,19.168633
11728.494422,350.917000,20.552681
11731.823503,350.958000,21.721600
11735.151806,350.999000,21.482529
11738.479331,351.040000,23.477399
11741.806079,351.081000,18.881694
11745.132050,351.122000,21.650463
11748.457245,351.163000,16.230958
11751.700589,351.203000,20.063196
11755.024250,351.244000,26.458554
11758.347135,351.285000,17.287995
11761.669245,351.326000,23.620787
11764.990579,351.367000,22.740596
11768.230159,351.407000,16.251420
11771.549962,351.448000,17.346846
11774.868991,351.489000,16.695799
11778.187246,351.530000,13.468519
11781.423822,351.570000,20.637417
11784.740548,351.611000,20.895071
11788.056500,351.652000,28.664519
11791.371680,351.693000,17.516341
11794.605256,351.733000,19.815268
11797.918909,351.774000,19.554914
11801.231790,351.815000,20.666543
11804.463124,351.855000,22.413301
11807.774479,351.896000,19.052150
11811.085063,351.937000,24.607521
11814.314158,351.977000,18.851367
11817.623218,352.018000,26.318423
11820.850827,352.058000,20.858992
11824.158365,352.099000,22.776048
11827.465133,352.140000,19.315353
11830.690506,352.180000,17.644429
11833.995753,352.221000,24.781100
11837.219643,352.261000,19.081019
11840.523370,352.302000,23.761372
11843.745778,352.342000,25.101302
11847.047986,352.383000,19.552327
11850.268913,352.423000,25.013261
11853.569603,352.464000,22.789377
11856.789050,352.504000,18.727124
11860.088224,352.545000,14.316066
11863.306191,352.585000,8.824340
11866.603850,352.626000,19.369292
11869.820339,352.666000,22.534444
11873.116483,352.707000,16.562255
11876.331495,352.747000,21.034785
11879.545777,352.787000,20.630690
11882.839661,352.828000,18.401304
11886.052468,352.868000,20.791083
11889.264547,352.908000,22.843637
11892.556173,352.949000,21.391783
11895.766777,352.989000,22.636826
11899.056892,353.030000,17.638293
11902.266024,353.070000,14.586382
11905.474429,353.110000,16.369363
11908.682107,353.150000,20.746549
11911.969223,353.191000,21.853451
11915.175430,353.231000,19.385121
11918.380911,353.271000,17.853073
11921.665775,353.312000,21.000215
11924.869787,353.352000,23.486552
11928.073073,353.392000,25.245008
11931.275634,353.432000,15.480027
11934.477470,353.472000,16.890644
11937.758600,353.513000,14.059962
11940.958969,353.553000,24.239603
11944.158614,353.593000,21.817621
11947.357536,353.633000,22.604860
11950.555733,353.673000,21.788139
11953.753208,353.713000,23.950069
11957.029868,353.754000,23.820704
11960.225879,353.794000,17.444265
11963.421166,353.834000,17.611231
11966.615732,353.874000,22.605612
11969.809575,353.914000,17.945745
11973.002696,353.954000,15.960916
11976.195096,353.994000,21.335949
11979.386774,354.034000,18.480988
11982.577731,354.074000,20.993988
11985.767968,354.114000,13.627525
11988.957483,354.154000,18.440089
11992.146279,354.194000,15.272262
11995.334354,354.234000,21.143012
11998.521709,354.274000,17.633912
12001.708345,354.314000,19.575391
12004.894261,354.354000,20.612458
12008.079458,354.394000,20.613025
12011.263936,354.434000,24.533285
12014.447695,354.474000,22.988147
12017.630736,354.514000,18.838244
12020.813059,354.554000,19.385709
12023.994663,354.594000,18.752901
12027.175550,354.634000,16.468890
12030.276224,354.673000,11.201272
12033.455694,354.713000,18.046902
12036.634448,354.753000,12.747814
12039.812484,354.793000,19.314450
12042.989804,354.833000,22.851211
12046.166408,354.873000,16.385107
12049.262907,354.912000,5.861755
12052.438097,354.952000,17.596203
12055.612571,354.992000,12.659505
12058.786330,355.032000,14.304641
12061.880056,355.071000,13.192359
12065.052403,355.111000,11.692512
12068.224035,355.151000,8.301602
12071.394953,355.191000,10.394195
12074.485910,355.230000,6.219161
12077.655418,355.270000,11.225528
12080.824212,355.310000,9.794230
12083.913100,355.349000,7.051374
12087.080485,355.389000,5.387400
12090.247158,355.429000,5.244651
12093.333977,355.468000,3.365010
12096.499242,355.508000,3.246761
12099.663795,355.548000,-0.274711
12102.748549,355.587000,2.423505
12105.911696,355.627000,-1.235639
12108.995079,355.666000,-2.122147
12112.156822,355.706000,-1.098198
12115.317853,355.746000,1.226336
12118.399174,355.785000,-0.594292
12121.558801,355.825000,-1.131868
12124.638754,355.864000,-2.514355
12127.796979,355.904000,3.171042
12130.875565,355.943000,-3.663344
12134.032389,355.983000,1.729988
12137.109608,356.022000,-0.934299
12140.265031,356.062000,-0.269160
12143.340885,356.101000,-1.180848
12146.494908,356.141000,-1.712605
12149.569398,356.180000,-1.440792
12152.643215,356.219000,-1.342201
12155.795149,356.259000,-0.940870
12158.867603,356.298000,1.954370
12162.018139,356.338000,-0.133177
12165.089231,356.377000,-0.168246
12168.159651,356.416000,-1.196035
12171.308101,356.456000,-1.114156
12174.377160,356.495000,-1.232204
12177.445548,356.534000,-0.439819
12180.591915,356.574000,0.060337
12183.658943,356.613000,-2.971911
12186.725300,356.652000,0.107441
12189.869585,356.692000,0.723060
12192.934585,356.731000,0.096895
12195.998914,356.770000,0.387130
12199.062573,356.809000,-2.334102
12202.204093,356.849000,1.071571
12205.266396,356.888000,-0.188602
12208.328030,356.927000,0.424621
12211.388995,356.966000,-2.038652
12214.527751,357.006000,-1.837996
12217.587361,357.045000,-0.319794
12220.646304,357.084000,-0.109202
12223.704578,357.123000,-0.649534
12226.762184,357.162000,0.542498
12229.819122,357.201000,0.388239
12232.953750,357.241000,0.539738
12236.009337,357.280000,2.305314
12239.064257,357.319000,-0.042586
12242.118510,357.358000,-1.667981
12245.172096,357.397000,1.014291
12248.225016,357.436000,-0.621942
