raman_shift_cm-1,wavelength_nm,intensity
-323.608033,246.616000,0.000000
-312.759145,246.682000,0.000000
-301.916061,246.748000,0.000000
-291.078776,246.814000,-0.018500
-280.083216,246.881000,-0.043000
-269.257603,246.947000,-0.020000
-258.437774,247.013000,-0.458000
-247.623726,247.079000,0.609000
-236.815454,247.145000,0.505500
-226.012953,247.211000,-0.813500
-215.216219,247.277000,-0.196000
-204.425246,247.343000,-0.030000
-193.640031,247.409000,-0.850500
-182.860568,247.475000,0.615000
-172.086854,247.541000,-1.025500
-161.318883,247.607000,-0.684000
-150.556651,247.673000,-0.264500
-139.800153,247.739000,-0.101500
-129.049385,247.805000,-0.755500
-118.467103,247.870000,0.313500
-107.727694,247.936000,0.170000
-96.994001,248.002000,0.744000
-86.266020,248.068000,-0.279500
-75.543746,248.134000,-0.229000
-64.827174,248.200000,0.089000
-54.278543,248.265000,-1.505500
-43.573277,248.331000,-0.159000
-32.873698,248.397000,0.415500
-22.179805,248.463000,0.766000
-11.653491,248.528000,-0.152000
-0.970866,248.594000,-0.631000
9.706087,248.660000,-1.022500
20.377375,248.726000,0.248000
30.881442,248.791000,0.340000
41.541497,248.857000,0.312500
52.195898,248.923000,0.281000
62.683348,248.988000,0.024500
73.326542,249.054000,-0.257000
83.802964,249.119000,-0.376000
94.434970,249.185000,-0.555500
104.900381,249.250000,-0.764000
115.521215,249.316000,-0.360500
125.975632,249.381000,-0.579500
136.585313,249.447000,-0.533000
147.028754,249.512000,0.519500
157.627298,249.578000,0.773000
168.059780,249.643000,0.946000
178.647205,249.709000,-0.178000
189.068746,249.774000,-1.994500
199.645070,249.840000,0.560000
210.055686,249.905000,-0.183500
220.620926,249.971000,-3.078000
231.020635,250.036000,-12.621500
241.414938,250.101000,-1.608000
251.963627,250.167000,-1.102500
262.347049,250.232000,0.161000
272.725077,250.297000,-5.514000
283.097717,250.362000,-19.360000
293.624427,250.428000,-2.137500
303.986219,250.493000,-6.407500
314.342635,250.558000,-2.768000
324.693679,250.623000,-2.302500
335.198478,250.689000,-0.271000
345.538708,250.754000,1.052500
355.873579,250.819000,-0.029000
366.203095,250.884000,-2.063000
376.527259,250.949000,-1.498500
386.846077,251.014000,-2.002500
397.318179,251.080000,3.627500
407.626234,251.145000,2.340500
417.928954,251.210000,-1.970000
428.226343,251.275000,1.807500
438.518407,251.340000,1.662500
448.805149,251.405000,0.775500
459.086573,251.470000,-1.058000
469.362683,251.535000,-3.190500
479.633483,251.600000,-3.444000
489.898978,251.665000,-1.529500
500.159172,251.730000,3.320500
510.414069,251.795000,4.008000
520.663672,251.860000,3.909000
530.907986,251.925000,2.541000
541.147015,251.990000,7.440000
551.223361,252.054000,4.226000
561.451914,252.119000,3.386000
571.675194,252.184000,13.674500
581.893205,252.249000,-1.098500
592.105952,252.314000,-0.613500
602.313438,252.379000,-5.377000
612.358750,252.443000,-2.533500
622.555807,252.508000,-6.538500
632.747617,252.573000,-2.073500
642.934182,252.638000,0.108000
652.958910,252.702000,-3.520000
663.135079,252.767000,-6.599500
673.306016,252.832000,-3.990500
683.315368,252.896000,1.402000
693.475932,252.961000,-1.392000
703.631276,253.026000,-2.432000
713.625287,253.090000,-4.013000
723.770283,253.155000,-1.378000
733.910070,253.220000,-0.702000
743.888776,253.284000,0.016000
754.018238,253.349000,-1.136500
763.986786,253.413000,-0.548500
774.105940,253.478000,-0.910500
784.064345,253.542000,-2.993000
794.173206,253.607000,0.385000
804.121484,253.671000,0.759500
814.220067,253.736000,2.115500
824.158233,253.800000,2.823000
834.246555,253.865000,-0.083500
844.174625,253.929000,-2.502000
854.252700,253.994000,-2.620000
864.170690,254.058000,-1.718000
874.083683,254.122000,-7.062500
884.146458,254.187000,-11.607000
894.049394,254.251000,-1.871000
903.947346,254.315000,-0.660500
913.994855,254.380000,0.231500
923.882772,254.444000,0.385000
933.765716,254.508000,-1.359500
943.797994,254.573000,-3.538500
953.670926,254.637000,-0.643500
963.538895,254.701000,-0.490500
973.401907,254.765000,-0.640000
983.259965,254.829000,0.205500
993.266988,254.894000,-3.230500
1003.115071,254.958000,-0.484500
1012.958212,255.022000,3.852500
1022.796413,255.086000,0.355500
1032.629679,255.150000,-1.242500
1042.458013,255.214000,-3.923500
1052.281419,255.278000,0.836000
1062.253275,255.343000,-1.578000
1072.066759,255.407000,-0.946000
1081.875326,255.471000,-2.452000
1091.678980,255.535000,-0.534000
1101.477725,255.599000,0.844000
1111.271563,255.663000,2.187500
1121.060500,255.727000,-1.132000
1130.844538,255.791000,-1.187000
1140.623681,255.855000,-1.854500
1150.397933,255.919000,-1.380500
1160.014689,255.982000,-0.033000
1169.779246,256.046000,-1.358000
1179.538923,256.110000,-0.476500
1189.293724,256.174000,0.771500
1199.043651,256.238000,0.909000
1208.788709,256.302000,-0.722000
1218.528902,256.366000,-2.450000
1228.112156,256.429000,-1.293500
1237.842704,256.493000,0.491000
1247.568398,256.557000,-0.485500
1257.289241,256.621000,1.513000
1267.005236,256.685000,-2.905000
1276.564688,256.748000,-3.228000
1286.271074,256.812000,-1.829500
1295.972624,256.876000,-3.004500
1305.517867,256.939000,0.550000
1315.209831,257.003000,-2.602000
1324.896968,257.067000,-3.389500
1334.428034,257.130000,-4.761000
1344.105605,257.194000,-4.266000
1353.778362,257.258000,0.588000
1363.295282,257.321000,-2.933000
1372.958494,257.385000,-0.798500
1382.466026,257.448000,-3.564500
1392.119708,257.512000,-0.993500
1401.617865,257.575000,-3.165500
1411.262031,257.639000,-43.891000
1420.750828,257.702000,-45.558000
1430.385491,257.766000,-10.326000
1439.864942,257.829000,20.082500
1449.490117,257.893000,41.758500
1458.960235,257.956000,39.491500
1468.575936,258.020000,-4.690500
1478.036734,258.083000,-2.473000
1487.492915,258.146000,-4.497500
1497.094468,258.210000,-2.689500
1506.541350,258.273000,-2.343500
1516.133465,258.337000,-5.549000
1525.571062,258.400000,-1.761000
1535.004058,258.463000,-1.955500
1544.432457,258.526000,-0.339500
1554.005809,258.590000,-2.451500
1563.424950,258.653000,2.057000
1572.839503,258.716000,-3.551500
1582.249473,258.779000,-4.453000
1591.804117,258.843000,-2.393000
1601.204857,258.906000,-3.023000
1610.601022,258.969000,-1.719500
1619.992617,259.032000,-2.983000
1629.379645,259.095000,-2.308500
1638.911000,259.159000,-0.614000
1648.288831,259.222000,-3.334000
1657.662104,259.285000,-6.788500
1667.030824,259.348000,-6.662000
1676.394994,259.411000,0.351500
1685.754616,259.474000,2.161500
1695.109694,259.537000,-0.617000
1704.460232,259.600000,-0.119500
1713.806232,259.663000,1.058000
1723.147698,259.726000,-1.137500
1732.484634,259.789000,-1.585500
1741.817042,259.852000,-1.012500
1751.144926,259.915000,1.007000
1760.468289,259.978000,-0.902000
1769.787135,260.041000,1.019000
1779.101467,260.104000,-0.420500
1788.411287,260.167000,-0.915500
1797.568932,260.229000,-0.611000
1806.869812,260.292000,-0.378500
1816.166190,260.355000,-1.507000
1825.458071,260.418000,4.835000
1834.745457,260.481000,1.589500
1844.028352,260.544000,0.802000
1853.159517,260.606000,-0.124000
1862.433510,260.669000,7.488500
1871.703021,260.732000,7.912000
1880.968054,260.795000,0.902500
1890.081653,260.857000,-2.077500
1899.337809,260.920000,-3.629000
1908.589497,260.983000,0.372000
1917.689973,261.045000,0.734500
1926.932803,261.108000,-1.027000
1936.171175,261.171000,-2.550500
1945.258555,261.233000,-1.281000
1954.488088,261.296000,-2.321000
1963.566777,261.358000,-1.947500
1972.787485,261.421000,-1.987000
1982.003751,261.484000,-0.497500
1991.069391,261.546000,-1.063000
2000.276850,261.609000,-2.674500
2009.333830,261.671000,7.961000
2018.532495,261.734000,5.895000
2027.580827,261.796000,16.310500
2036.770712,261.859000,18.305500
2045.810408,261.921000,20.686500
2054.845827,261.983000,22.981500
2064.022598,262.046000,42.346500
2073.049399,262.108000,30.245000
2082.217420,262.171000,36.962500
2091.235617,262.233000,36.365500
2100.249550,262.295000,34.693000
2109.404505,262.358000,34.808000
2118.409852,262.420000,32.395000
2127.410945,262.482000,44.294000
2136.552862,262.545000,36.176000
2145.545387,262.607000,39.011000
2154.533666,262.669000,34.789000
2163.517703,262.731000,43.776500
2172.642302,262.794000,42.456000
2181.617796,262.856000,44.020000
2190.589057,262.918000,43.175500
2199.556087,262.980000,44.777000
2208.518891,263.042000,44.497000
2217.621929,263.105000,45.125000
2226.576219,263.167000,17.997000
2235.526291,263.229000,0.318000
2244.472147,263.291000,-3.986500
2253.413792,263.353000,1.707500
2262.351228,263.415000,-3.841000
2271.284457,263.477000,-0.101500
2280.213483,263.539000,-1.545000
2289.138308,263.601000,-0.493000
2298.058937,263.663000,-4.697500
2306.975371,263.725000,-1.964000
2315.887613,263.787000,-15.403500
2324.795667,263.849000,-8.777000
2333.699536,263.911000,-1.664500
2342.599222,263.973000,-2.667500
2351.494729,264.035000,-4.231500
2360.386059,264.097000,-0.032000
2369.273215,264.159000,0.620000
2378.156200,264.221000,-0.830000
2386.891844,264.282000,-0.469000
2395.766564,264.344000,1.270000
2404.637121,264.406000,-0.971500
2413.503520,264.468000,0.426000
2422.365762,264.530000,-3.701500
2431.081012,264.591000,-2.920500
2439.935018,264.653000,-0.162000
2448.784876,264.715000,-3.307500
2457.630590,264.777000,-0.054000
2466.329589,264.838000,-1.966500
2475.167089,264.900000,-2.351000
2484.000453,264.962000,13.650000
2492.687310,265.023000,-3.788000
2501.512478,265.085000,9.049500
2510.333519,265.147000,10.795500
2519.008259,265.208000,0.921000
2527.821120,265.270000,0.136000
2536.487819,265.331000,-0.181000
2545.292512,265.393000,-0.455500
2554.093093,265.455000,-0.198500
2562.747717,265.516000,1.978000
2571.540147,265.578000,4.111000
2580.186758,265.639000,-1.906000
2588.971048,265.701000,-6.191500
2597.609655,265.762000,-15.618500
2606.385817,265.824000,-4.074500
2615.016433,265.885000,-10.581000
2623.643091,265.946000,-4.477500
2632.407114,266.008000,-6.914000
2641.025796,266.069000,-0.462000
2649.781719,266.131000,-0.459500
2658.392437,266.192000,-0.185000
2666.999210,266.253000,-1.073500
2675.743037,266.315000,-1.898500
2684.341862,266.376000,-2.342500
2692.936750,266.437000,1.755000
2701.668505,266.499000,0.913000
2710.255462,266.560000,0.374000
2718.838489,266.621000,0.943500
2727.417590,266.682000,0.444500
2736.133311,266.744000,6.109500
2744.704503,266.805000,0.361500
2753.271776,266.866000,-1.910500
2761.835134,266.927000,0.138500
2770.394579,266.988000,-0.976000
2778.950113,267.049000,-0.968000
2787.641898,267.111000,0.170500
2796.189555,267.172000,-2.387500
2804.733311,267.233000,-1.943000
2813.273167,267.294000,-0.227500
2821.809126,267.355000,-0.866500
2830.341190,267.416000,0.476000
2838.869363,267.477000,-0.565000
2847.393647,267.538000,-0.582000
2855.914045,267.599000,0.553000
2864.430559,267.660000,-1.353500
2872.943193,267.721000,0.095500
2881.451948,267.782000,-6.484000
2889.956827,267.843000,3.703000
2898.457833,267.904000,22.275500
2906.954969,267.965000,-10.560500
2915.448237,268.026000,-2.969500
2923.937640,268.087000,-1.839500
2932.284105,268.147000,-3.731500
2940.765849,268.208000,-6.271000
2949.243736,268.269000,-1.022500
2957.717768,268.330000,-4.489000
2966.187948,268.391000,-3.439000
2974.515518,268.451000,-3.051500
2982.978065,268.512000,-2.355000
2991.436768,268.573000,-5.163500
2999.891630,268.634000,-0.488500
3008.204142,268.694000,-1.932000
3016.651392,268.755000,-1.260500
3025.094807,268.816000,-0.182000
3033.396069,268.876000,-3.618000
3041.831888,268.937000,-39.926500
3050.263881,268.998000,-10.834000
3058.553914,269.058000,-4.999000
3066.978326,269.119000,-0.927500
3075.398919,269.180000,-0.885000
3083.677747,269.240000,0.041500
3092.090774,269.301000,-2.843500
3100.362165,269.361000,-2.663500
3108.767637,269.422000,-5.923000
3117.031601,269.482000,0.262500
3125.429526,269.543000,3.258000
3133.686074,269.603000,-0.269500
3142.076464,269.664000,-2.692000
3150.325604,269.724000,-0.404500
3158.708468,269.785000,-0.005000
3166.950211,269.845000,-1.977500
3175.325561,269.906000,0.547500
3183.559917,269.966000,-0.579500
3191.790613,270.026000,-1.010000
3200.154739,270.087000,-3.120500
3208.378064,270.147000,-0.889500
3216.597736,270.207000,-0.888000
3224.950662,270.268000,0.217500
3233.162976,270.328000,-0.680000
3241.371647,270.388000,-2.580500
3249.576675,270.448000,-1.384000
3257.914722,270.509000,-3.311000
3266.112412,270.569000,0.461000
3274.306467,270.629000,-1.111500
3282.496889,270.689000,-0.326500
3290.820098,270.750000,-0.528000
3299.003202,270.810000,-0.690000
3307.182681,270.870000,-0.011500
3315.358537,270.930000,7.741500
3323.530773,270.990000,-3.288500
3331.699391,271.050000,0.806000
3339.864393,271.110000,1.611000
3348.025782,271.170000,-1.332500
3356.319492,271.231000,-1.880500
3364.473602,271.291000,-0.905000
3372.624105,271.351000,2.290000
3380.771005,271.411000,2.568000
3388.914304,271.471000,0.172500
3397.054004,271.531000,0.562500
3405.190107,271.591000,2.690500
3413.322616,271.651000,-1.183500
3421.316081,271.710000,1.105000
3429.441469,271.770000,-0.540000
3437.563270,271.830000,-0.590000
3445.681487,271.890000,-0.614000
3453.796121,271.950000,-1.174500
3461.907176,272.010000,-0.836000
3470.014653,272.070000,-8.845500
3478.118555,272.130000,-27.927000
3486.083907,272.189000,-9.652000
3494.180726,272.249000,-41.228000
3502.273976,272.309000,18.865500
3510.363660,272.369000,1.862500
3518.315042,272.428000,0.853500
3526.397661,272.488000,-0.890500
3534.476722,272.548000,-2.012000
3542.552226,272.608000,0.944500
3550.489673,272.667000,2.026500
3558.558131,272.727000,-3.010000
3566.623039,272.787000,1.437500
3574.550074,272.846000,-0.471500
3582.607950,272.906000,-1.640500
3590.528073,272.965000,-0.757500
3598.578926,273.025000,-2.068500
3606.626241,273.085000,-2.706500
3614.535986,273.144000,3.184500
3622.576291,273.204000,-1.902500
3630.479148,273.263000,0.105500
3638.512453,273.323000,-0.939500
3646.408431,273.382000,2.156500
3654.434744,273.442000,0.938500
3662.323852,273.501000,-1.547500
3670.343183,273.561000,0.333500
3678.225429,273.620000,-2.947500
3686.237787,273.680000,-0.822000
3694.113181,273.739000,-3.957500
3701.985180,273.798000,-0.516000
3709.987125,273.858000,1.905000
3717.852286,273.917000,0.519500
3725.714059,273.976000,-0.940500
3733.705610,274.036000,-1.787500
3741.560558,274.095000,-0.309500
3749.412124,274.154000,2.406000
3757.393303,274.214000,1.879000
3765.238057,274.273000,-2.818000
3773.079437,274.332000,3.943500
3780.917444,274.391000,-0.443000
3788.884843,274.451000,6.317500
3796.716056,274.510000,-1.828000
3804.543903,274.569000,-0.693500
3812.368387,274.628000,-1.817000
3820.189510,274.687000,-0.061500
3828.007273,274.746000,-0.798000
3835.821680,274.805000,-8.453000
3843.765093,274.865000,-3.166000
3851.572736,274.924000,-1.653000
3859.377028,274.983000,-0.335000
3867.177971,275.042000,1.846000
3874.975569,275.101000,-1.036000
3882.769823,275.160000,8.182000
3890.560735,275.219000,38.676000
3898.348307,275.278000,-0.836500
3906.132542,275.337000,0.480000
3913.913442,275.396000,0.497000
3921.691008,275.455000,-2.455500
3929.465243,275.514000,-1.477500
3937.236150,275.573000,-1.576500
3944.872103,275.631000,3.073500
3952.636414,275.690000,4.554000
3960.397403,275.749000,-1.654500
3968.155071,275.808000,3.329500
3975.909421,275.867000,-1.755500
3983.660455,275.926000,-0.490000
3991.408175,275.985000,0.059500
3999.021349,276.043000,0.170500
4006.762504,276.102000,-0.856000
4014.500350,276.161000,1.729500
4022.234891,276.220000,-1.216000
4029.835118,276.278000,0.025000
4037.563110,276.337000,0.191500
4045.287803,276.396000,2.322000
4052.878355,276.454000,-2.249500
4060.596512,276.513000,2.613500
4068.311375,276.572000,-3.903500
4075.892271,276.630000,-0.108500
4083.600610,276.689000,-0.469000
4091.305663,276.748000,-2.537000
4098.876921,276.806000,-1.374000
4106.575462,276.865000,-2.138000
4114.140322,276.923000,0.415000
4121.832361,276.982000,-2.200000
4129.390832,277.040000,-1.982000
4137.076375,277.099000,0.805500
4144.628466,277.157000,-2.037000
4152.307522,277.216000,-3.263000
4159.853240,277.274000,4.755500
4167.525818,277.333000,-0.662000
4175.065171,277.391000,-1.184000
4182.731279,277.450000,0.764500
4190.264275,277.508000,-0.979000
4197.794123,277.566000,-0.390500
4205.450568,277.625000,-2.168000
4212.974072,277.683000,-5.670500
4220.494433,277.741000,-0.216000
4228.011654,277.799000,-1.269000
4235.396210,277.856000,-2.315500
4242.907211,277.914000,-0.011000
4250.415077,277.972000,-1.072500
4257.790445,278.029000,-0.714000
4265.292102,278.087000,0.516000
4272.790631,278.145000,1.461500
4280.156828,278.202000,1.596500
4287.649159,278.260000,3.842500
4295.138368,278.318000,1.699000
4302.495411,278.375000,0.254000
4309.978434,278.433000,-0.220500
4317.329402,278.490000,0.163500
4324.806246,278.548000,-0.711500
4332.151147,278.605000,-0.008500
4339.621821,278.663000,-0.473500
4346.960661,278.720000,1.935000
4354.425172,278.778000,0.159500
4361.757959,278.835000,1.135000
4369.216314,278.893000,-0.365500
4376.543056,278.950000,2.556500
4383.995264,279.008000,1.695000
4391.315968,279.065000,-1.610500
4398.762036,279.123000,-0.937000
4406.076709,279.180000,-0.418000
4413.516644,279.238000,-2.651500
4420.825295,279.295000,1.937500
4428.130962,279.352000,3.840500
4435.561740,279.410000,4.229000
4442.861395,279.467000,-0.826000
4450.158074,279.524000,-1.637500
4457.579711,279.582000,1.556500
4464.870389,279.639000,2.431500
4472.158095,279.696000,-1.078000
4479.570607,279.754000,-0.405500
4486.852324,279.811000,-1.757500
4494.131074,279.868000,0.095000
4501.534479,279.926000,-3.542000
4508.807251,279.983000,0.407500
4516.077062,280.040000,-1.637500
4523.343914,280.097000,-0.437500
4530.735220,280.155000,0.610500
4537.996108,280.212000,0.799500
4545.254043,280.269000,1.860000
4552.509026,280.326000,1.910500
4559.888262,280.384000,0.447000
4567.137295,280.441000,-11.747000
4574.383383,280.498000,-6.763500
4581.626526,280.555000,-6.668000
4588.866727,280.612000,-5.428500
4596.103987,280.669000,-7.720500
4603.338308,280.726000,-4.434500
4610.696532,280.784000,-1.433500
4617.924929,280.841000,-0.943000
4625.150392,280.898000,-0.564000
4632.372923,280.955000,0.432000
4639.592525,281.012000,4.036500
4646.809198,281.069000,0.625000
4654.022945,281.126000,-1.167000
4661.233767,281.183000,-1.101000
4668.441666,281.240000,-1.328500
4675.646644,281.297000,0.982000
4682.848703,281.354000,-3.979500
4690.047844,281.411000,-1.527000
4697.244070,281.468000,-0.420000
4704.437381,281.525000,-1.284000
4711.627780,281.582000,3.370500
4718.815269,281.639000,2.673500
4725.999849,281.696000,-0.174000
4733.181522,281.753000,0.192000
4740.360290,281.810000,-0.834000
4747.536154,281.867000,0.311500
4754.583300,281.923000,1.631500
4761.753414,281.980000,1.046500
4768.920629,282.037000,2.691500
4776.084949,282.094000,-0.490500
4783.246373,282.151000,3.532500
4790.404904,282.208000,0.153500
4797.435032,282.264000,0.285000
4804.587834,282.321000,-3.099500
4811.737748,282.378000,1.617500
4818.884776,282.435000,-0.629000
4826.028920,282.492000,0.226000
4833.044920,282.548000,0.679000
4840.183352,282.605000,-1.125500
4847.318904,282.662000,-0.027500
4854.451579,282.719000,-0.896500
4861.456319,282.775000,-1.618000
4868.583295,282.832000,-3.943000
4875.707399,282.889000,-1.068000
4882.703723,282.945000,2.861500
4889.822139,283.002000,0.517000
4896.937687,283.059000,0.027000
4903.925611,283.115000,-0.291000
4911.035481,283.172000,-2.825000
4918.142490,283.229000,0.556000
4925.122029,283.285000,2.963000
4932.223369,283.342000,1.905000
4939.197342,283.398000,-0.423500
4946.293021,283.455000,0.969500
4953.385847,283.512000,8.039000
4960.351460,283.568000,3.568500
4967.438635,283.625000,-2.464000
4974.398699,283.681000,-0.452000
4981.480229,283.738000,0.708000
4988.434752,283.794000,-2.804000
4995.510644,283.851000,1.867500
5002.459631,283.907000,-2.142500
5009.529893,283.964000,1.129500
5016.473351,284.020000,0.898000
5023.537988,284.077000,4.323000
5030.475924,284.133000,7.950000
5037.534943,284.190000,1.005000
5044.467363,284.246000,1.827000
5051.397052,284.302000,0.072500
5058.447683,284.359000,-1.125500
5065.371866,284.415000,-0.651000
5072.416896,284.472000,12.273500
5079.335580,284.528000,2.726500
5086.251541,284.584000,0.809500
5093.288207,284.641000,11.492000
5100.198678,284.697000,5.310500
5107.106432,284.753000,0.179500
5114.134748,284.810000,0.845000
5121.037022,284.866000,0.993500
5127.936582,284.922000,-0.014500
5134.833431,284.978000,0.228500
5141.850655,285.035000,-1.716000
5148.742037,285.091000,1.472500
5155.630712,285.147000,-1.557000
5162.516682,285.203000,-1.159000
5169.522840,285.260000,-0.319000
5176.403356,285.316000,-2.565500
5183.281172,285.372000,-1.614500
5190.156289,285.428000,-0.286000
5197.028709,285.484000,11.721000
5204.021082,285.541000,4.585500
5210.888064,285.597000,2.977500
5217.752353,285.653000,0.647000
5224.613952,285.709000,2.361000
5231.472862,285.765000,2.453500
5238.329083,285.821000,3.223000
5245.182619,285.877000,6.733500
5252.033470,285.933000,0.300000
5258.881638,285.989000,-3.457500
5265.727125,286.045000,1.285500
5272.569932,286.101000,0.457000
5279.532182,286.158000,-5.275500
5286.369586,286.214000,5.027000
5293.204315,286.270000,-0.075000
5300.036371,286.326000,0.687500
5306.865755,286.382000,-1.675500
5313.692468,286.438000,0.291500
5320.516513,286.494000,-0.496500
5327.216104,286.549000,1.960000
5334.034863,286.605000,0.171500
5340.850958,286.661000,1.686000
5347.664391,286.717000,-2.968000
5354.475163,286.773000,-0.863000
5361.283275,286.829000,1.336500
5368.088729,286.885000,0.856500
5374.891528,286.941000,-2.419000
5381.691671,286.997000,-0.197500
5388.489161,287.053000,-1.496500
5395.162686,287.108000,0.269500
5401.954922,287.164000,-0.509500
5408.744509,287.220000,-1.019000
5415.531448,287.276000,-3.601000
5422.315743,287.332000,-0.146500
5428.976316,287.387000,-0.316000
5435.755371,287.443000,-2.182000
5442.531785,287.499000,-5.747000
5449.305560,287.555000,0.838000
5456.076697,287.611000,-1.275500
5462.724355,287.666000,-4.042000
5469.490268,287.722000,9.725500
5476.253548,287.778000,16.024000
5482.893494,287.833000,2.436000
5489.651559,287.889000,-0.394000
5496.406995,287.945000,0.836000
5503.039242,288.000000,2.043500
5509.789473,288.056000,-0.104000
5516.537079,288.112000,-2.295000
5523.161640,288.167000,-3.940500
5529.904050,288.223000,-2.588000
5536.643840,288.279000,-0.437500
5543.260729,288.334000,-0.691500
5549.995332,288.390000,-1.311500
5556.607128,288.445000,-1.047500
5563.336549,288.501000,-6.556000
5569.943259,288.556000,-7.573500
5576.667504,288.612000,-5.052500
5583.269134,288.667000,-3.862000
5589.988209,288.723000,-2.132000
5596.584764,288.778000,-4.630000
5603.298676,288.834000,-4.540500
5609.890162,288.889000,-2.874500
5616.598916,288.945000,-6.237500
5623.185340,289.000000,-3.396500
5629.888941,289.056000,-4.481500
5636.470308,289.111000,-5.069500
5643.168763,289.167000,-0.683000
5649.745079,289.222000,10.957000
5656.438394,289.278000,6.505000
5663.009664,289.333000,-3.088000
5669.578437,289.388000,-1.100500
5676.264076,289.444000,-2.235000
5682.827812,289.499000,-1.779000
5689.389054,289.554000,-0.258000
5696.067030,289.610000,-0.694500
5702.623244,289.665000,2.144500
5709.176969,289.720000,0.644500
5715.847296,289.776000,2.968500
5722.396001,289.831000,-1.615000
5728.942221,289.886000,0.452000
5735.485958,289.941000,-0.369500
5742.146122,289.997000,-0.263000
5748.684850,290.052000,-0.160500
5755.221100,290.107000,-0.480500
5761.754871,290.162000,-2.442000
5768.404894,290.218000,-1.439500
5774.933669,290.273000,0.588000
5781.459971,290.328000,-1.472500
5787.983800,290.383000,0.024000
5794.505158,290.438000,0.843000
5801.142550,290.494000,-1.334000
5807.658926,290.549000,-2.084000
5814.172835,290.604000,0.347500
5820.684279,290.659000,-2.388000
5827.193260,290.714000,-4.236000
5833.699778,290.769000,-0.790000
5840.203835,290.824000,0.253500
5846.705432,290.879000,-2.265500
5853.204572,290.934000,1.447000
5859.701254,290.989000,2.080500
5866.195481,291.044000,0.826500
5872.687254,291.099000,0.514000
5879.176574,291.154000,3.706000
5885.663444,291.209000,1.045500
5892.147863,291.264000,2.346500
5898.629834,291.319000,0.027500
5905.109357,291.374000,0.827000
5911.586435,291.429000,-0.491000
5918.061069,291.484000,0.026000
5924.533260,291.539000,0.090000
5931.003009,291.594000,-1.738000
5937.470318,291.649000,0.575500
5943.935188,291.704000,-1.548000
5950.397621,291.759000,-1.632500
5956.857618,291.814000,-6.316000
5963.315180,291.869000,1.670500
5969.770309,291.924000,0.916000
5976.105706,291.978000,1.701000
5982.556017,292.033000,6.748500
5989.003898,292.088000,3.117500
5995.449352,292.143000,0.764500
6001.892379,292.198000,-1.172500
6008.215901,292.252000,-1.147500
6014.654123,292.307000,2.530500
6021.089923,292.362000,1.414000
6027.523303,292.417000,3.197500
6033.954262,292.472000,2.106500
6040.265942,292.526000,2.486500
6046.692111,292.581000,1.104500
6053.115864,292.636000,-1.546500
6059.420472,292.690000,-1.242000
6065.839442,292.745000,0.016500
6072.256000,292.800000,-12.050000
6078.553548,292.854000,0.304000
6084.965331,292.909000,-0.518500
6091.374707,292.964000,0.791000
6097.665207,293.018000,-1.640500
6104.069816,293.073000,-0.684500
6110.472021,293.128000,-0.455000
6116.755485,293.182000,0.853000
6123.152931,293.237000,5.035000
6129.431725,293.291000,3.326500
6135.824417,293.346000,-0.286000
6142.098547,293.400000,0.040500
6148.486490,293.455000,-1.698000
6154.872040,293.510000,-1.240500
6161.139160,293.564000,1.203500
6167.519969,293.619000,2.009000
6173.782438,293.673000,-0.694500
6180.158512,293.728000,-1.984500
6186.416334,293.782000,-1.795000
6192.787678,293.837000,0.440000
6199.040859,293.891000,0.205500
6205.291742,293.945000,1.389000
6211.656022,294.000000,-3.070000
6217.902272,294.054000,-1.141500
6224.261835,294.109000,-2.503500
6230.503456,294.163000,1.125000
6236.742786,294.217000,0.097000
6243.095305,294.272000,1.005500
6249.330014,294.326000,0.257000
6255.677829,294.381000,-0.446000
6261.907923,294.435000,0.779500
6268.135731,294.489000,0.114000
6274.476522,294.544000,-1.156000
6280.699722,294.598000,1.767500
6286.920642,294.652000,0.623500
6293.139281,294.706000,-1.265500
6299.470739,294.761000,2.325000
6305.684781,294.815000,0.133500
6311.896546,294.869000,0.540000
6318.106037,294.923000,-0.736500
6324.428182,294.978000,-0.933500
6330.633085,295.032000,1.789000
6336.835717,295.086000,0.079000
6343.036080,295.140000,-0.475500
6349.234174,295.194000,-1.089500
6355.544717,295.249000,-0.989500
6361.738236,295.303000,0.224500
6367.929490,295.357000,-0.015500
6374.118480,295.411000,-1.647500
6380.305209,295.465000,-0.035500
6386.489676,295.519000,-1.147500
6392.671884,295.573000,-2.010000
6398.851833,295.627000,-0.766000
6405.143905,295.682000,-0.739500
6411.319300,295.736000,0.417500
6417.492439,295.790000,-1.091000
6423.663325,295.844000,-2.122500
6429.831958,295.898000,2.842000
6435.998340,295.952000,2.222000
6442.162473,296.006000,-1.217000
6448.324357,296.060000,0.543000
6454.483993,296.114000,0.605500
6460.641384,296.168000,-0.039000
6466.796529,296.222000,0.798000
6472.949431,296.276000,-0.194500
6479.100090,296.330000,-1.774000
6485.248508,296.384000,-2.422000
6491.280888,296.437000,1.462500
6497.424869,296.491000,1.041500
6503.566612,296.545000,3.100000
6509.706118,296.599000,7.809000
6515.843390,296.653000,10.408500
6521.978427,296.707000,5.779000
6528.111232,296.761000,0.556000
6534.241805,296.815000,-0.143000
6540.256681,296.868000,-1.453500
6546.382836,296.922000,-0.464000
6552.506763,296.976000,-4.237000
6558.628464,297.030000,-2.085500
6564.747939,297.084000,-2.119000
6570.751928,297.137000,-1.497000
6576.866997,297.191000,1.950000
6582.979845,297.245000,4.070000
6589.090471,297.299000,0.401000
6595.085780,297.352000,2.273000
6601.192010,297.406000,-0.322500
6607.296023,297.460000,-0.504500
6613.397821,297.514000,4.265500
6619.384468,297.567000,1.768500
6625.481879,297.621000,-0.844000
6631.577077,297.675000,-2.284000
6637.557251,297.728000,-4.953500
6643.648069,297.782000,-5.350000
6649.623947,297.835000,-0.073000
6655.710390,297.889000,0.572000
6661.794627,297.943000,-2.180500
6667.764048,297.996000,-3.808500
6673.843917,298.050000,-6.425000
6679.809053,298.103000,-8.063500
6685.884559,298.157000,-5.391000
6691.957864,298.211000,-3.512500
6697.916562,298.264000,-1.062500
6703.985510,298.318000,0.710000
6709.939935,298.371000,-4.290000
6716.004532,298.425000,-2.503500
6721.954688,298.478000,-1.626500
6728.014938,298.532000,1.589000
6733.960830,298.585000,-2.116500
6739.904611,298.638000,0.085000
6745.958369,298.692000,-0.907500
6751.897893,298.745000,-1.520500
6757.947317,298.799000,-1.441500
6763.882588,298.852000,0.009500
6769.927680,298.906000,0.972000
6775.858703,298.959000,-2.238500
6781.787624,299.012000,1.309500
6787.826249,299.066000,3.049000
6793.750928,299.119000,-1.827500
6799.673508,299.172000,-2.019500
6805.705677,299.226000,5.112000
6811.624022,299.279000,-0.046500
6817.540272,299.332000,1.977500
6823.565994,299.386000,0.850500
6829.478016,299.439000,0.190500
6835.387945,299.492000,-0.473000
6841.407231,299.546000,-2.135500
6847.312940,299.599000,-0.268000
6853.216559,299.652000,0.714500
6859.118090,299.705000,4.954500
6865.017534,299.758000,3.133500
6871.026143,299.812000,-0.684000
6876.921378,299.865000,-1.224000
6882.814529,299.918000,-1.816000
6888.705597,299.971000,-0.162500
6894.594584,300.024000,0.385000
6900.592545,300.078000,-0.159500
6906.477333,300.131000,2.483000
6912.360044,300.184000,0.890500
6918.240677,300.237000,-2.584000
6924.119235,300.290000,1.691000
6929.995718,300.343000,0.131500
6935.870127,300.396000,-0.954000
6941.742464,300.449000,-2.834000
6947.612730,300.502000,6.257500
6953.480925,300.555000,-2.881000
6959.347051,300.608000,-1.788500
6965.211108,300.661000,-7.591000
6971.073099,300.714000,-7.838500
6976.933024,300.767000,1.752500
6982.790884,300.820000,-1.230000
6988.646680,300.873000,-3.534000
6994.500413,300.926000,1.253500
7000.352085,300.979000,-1.312500
7006.201696,301.032000,2.862000
7012.049248,301.085000,0.108000
7017.894742,301.138000,-1.468000
7023.738178,301.191000,0.319500
7029.579559,301.244000,5.572500
7035.418884,301.297000,1.069000
7041.256155,301.350000,1.289500
7047.091373,301.403000,1.311500
7052.924539,301.456000,1.160500
7058.645653,301.508000,-2.226000
7064.474758,301.561000,-3.915500
7070.301814,301.614000,1.061000
7076.126822,301.667000,0.753000
7081.949784,301.720000,0.725500
7087.660892,301.772000,-0.436000
7093.479803,301.825000,0.351000
7099.296670,301.878000,1.061000
7105.111496,301.931000,12.645000
7110.814624,301.983000,-1.208000
7116.625408,302.036000,-1.441000
7122.434152,302.089000,-1.007000
7128.240858,302.142000,-1.900000
7133.936024,302.194000,-0.616000
7139.738696,302.247000,-0.231500
7145.539334,302.300000,-2.549000
7151.228549,302.352000,2.747500
7157.025159,302.405000,0.887000
7162.819737,302.458000,1.754500
7168.503010,302.510000,0.302000
7174.293567,302.563000,-0.603500
7180.082095,302.616000,-3.775500
7185.759436,302.668000,-4.217500
7191.543949,302.721000,0.772500
7197.217352,302.773000,-0.422000
7202.997854,302.826000,2.112500
7208.667324,302.878000,2.837000
7214.443819,302.931000,-4.501500
7220.109360,302.983000,-4.100500
7225.881853,303.036000,0.060500
7231.543468,303.088000,-0.554000
7237.311962,303.141000,-2.945000
7242.969657,303.193000,-0.059500
7248.734156,303.246000,0.625000
7254.387934,303.298000,-0.772000
7260.148443,303.351000,0.274000
7265.798308,303.403000,1.598500
7271.554831,303.456000,1.436500
7277.200787,303.508000,0.553000
7282.953328,303.561000,0.903500
7288.595379,303.613000,-1.402500
7294.235498,303.665000,-2.386000
7299.982093,303.718000,0.396500
7305.618313,303.770000,0.722000
7311.252604,303.822000,2.307500
7316.993262,303.875000,-1.737000
7322.623660,303.927000,0.773000
7328.252131,303.979000,-2.400500
7333.986862,304.032000,0.450500
7339.611446,304.084000,-2.386500
7345.234108,304.136000,-1.886500
7350.962920,304.189000,3.067000
7356.581700,304.241000,-2.625000
7362.198561,304.293000,0.491000
7367.813502,304.345000,-2.524000
7373.426525,304.397000,-0.292500
7379.145517,304.450000,5.759000
7384.754669,304.502000,-3.065500
7390.361906,304.554000,-3.145500
7395.967228,304.606000,-5.535500
7401.570637,304.658000,-2.978500
7407.279836,304.711000,-6.448500
7412.879384,304.763000,-2.949500
7418.477021,304.815000,3.794000
7424.072749,304.867000,0.035500
7429.666569,304.919000,-1.678500
7435.258480,304.971000,-1.730000
7440.848486,305.023000,-1.763000
7446.436585,305.075000,1.725500
7452.022780,305.127000,1.458000
7457.607071,305.179000,0.946500
7463.296795,305.232000,2.501500
7468.877245,305.284000,-2.943500
7474.455794,305.336000,-7.792500
7480.032444,305.388000,-3.080000
7485.607195,305.440000,0.272500
7491.180048,305.492000,0.994500
7496.751004,305.544000,-2.735000
7502.212985,305.595000,1.563000
7507.780187,305.647000,1.115000
7513.345495,305.699000,0.878000
7518.908909,305.751000,-1.298000
7524.470432,305.803000,0.446000
7530.030064,305.855000,5.218000
7535.587805,305.907000,2.078000
7541.143658,305.959000,1.308000
7546.697622,306.011000,4.147500
7552.249699,306.063000,-0.062500
7557.693173,306.114000,-0.278500
7563.241514,306.166000,-0.750500
7568.787971,306.218000,0.639500
7574.332545,306.270000,-0.295000
7579.875237,306.322000,-0.464000
7585.416047,306.374000,-2.858500
7590.848476,306.425000,-1.510000
7596.385562,306.477000,1.700500
7601.920769,306.529000,-2.797000
7607.454098,306.581000,-5.018000
7612.879195,306.632000,-3.324500
7618.408808,306.684000,0.181000
7623.936546,306.736000,-2.780500
7629.462411,306.788000,2.102500
7634.880189,306.839000,0.395000
7640.402345,306.891000,-0.626500
7645.922629,306.943000,0.811000
7651.334938,306.994000,0.971500
7656.851519,307.046000,-2.004000
7662.260197,307.097000,-2.656000
7667.773079,307.149000,-0.445000
7673.284094,307.201000,4.890000
7678.687317,307.252000,8.610500
7684.194638,307.304000,0.139000
7689.700096,307.356000,-2.807000
7695.097870,307.407000,0.846000
7700.599639,307.459000,0.447500
7705.993798,307.510000,-1.507000
7711.491883,307.562000,-0.729500
7716.882430,307.613000,4.680500
7722.376833,307.665000,0.701500
7727.763772,307.716000,-0.176000
7733.254498,307.768000,0.048000
7738.637831,307.819000,-0.771000
7744.124884,307.871000,-2.890000
7749.504617,307.922000,-5.052000
7754.988000,307.974000,0.708500
7760.364134,308.025000,-0.631000
7765.738489,308.076000,-0.298500
7771.216392,308.128000,-4.728500
7776.587155,308.179000,-4.017000
7782.061397,308.231000,-47.750500
7787.428571,308.282000,-47.606000
7792.793970,308.333000,-5.024500
7798.262745,308.385000,1.169000
7803.624561,308.436000,-4.284500
7808.984603,308.487000,3.954500
7814.447920,308.539000,2.276500
7819.804385,308.590000,0.008500
7825.159080,308.641000,-3.787000
7830.616947,308.693000,-2.387000
7835.968069,308.744000,-0.257500
7841.317424,308.795000,0.346500
7846.665012,308.846000,5.153000
7852.115636,308.898000,2.897500
7857.459659,308.949000,1.425000
7862.801917,309.000000,-2.094500
7868.142413,309.051000,0.160500
7873.481146,309.102000,0.320000
7878.922746,309.154000,1.223000
7884.257923,309.205000,-0.552500
7889.591340,309.256000,-0.669500
7894.922998,309.307000,0.015500
7900.252898,309.358000,-3.251000
7905.581041,309.409000,-4.665000
7910.907428,309.460000,2.086500
7916.336447,309.512000,0.372000
7921.659290,309.563000,-0.676500
7926.980379,309.614000,-1.622000
7932.299715,309.665000,-2.448000
7937.617300,309.716000,-1.340000
7942.933134,309.767000,2.101000
7948.247217,309.818000,-0.574000
7953.559551,309.869000,-2.060000
7958.870137,309.920000,1.396000
7964.178976,309.971000,-1.466000
7969.486068,310.022000,1.556000
7974.791414,310.073000,1.450000
7980.095015,310.124000,0.134000
7985.396872,310.175000,-0.948000
7990.696985,310.226000,2.098000
7995.995357,310.277000,-0.261000
8001.291987,310.328000,0.312500
8006.586876,310.379000,-0.316500
8011.880026,310.430000,-1.652000
8017.067700,310.480000,0.062000
8022.357406,310.531000,-0.924500
8027.645376,310.582000,-6.514500
8032.931609,310.633000,-6.877500
8038.216106,310.684000,-0.961500
8043.498869,310.735000,0.238500
8048.779898,310.786000,-0.807500
8053.955695,310.836000,0.460500
8059.233293,310.887000,0.390500
8064.509160,310.938000,-2.022500
8069.783296,310.989000,-0.590000
8074.952339,311.039000,7.905000
8080.223051,311.090000,1.731500
8085.492035,311.141000,-0.015500
8090.759292,311.192000,-2.988500
8095.921594,311.242000,0.005500
8101.185433,311.293000,2.624000
8106.447548,311.344000,-1.613500
8111.604811,311.394000,2.199000
8116.863513,311.445000,-1.129000
8122.120493,311.496000,3.074500
8127.272724,311.546000,3.208500
8132.526297,311.597000,-0.646500
8137.778150,311.648000,0.137500
8142.925357,311.698000,-0.204500
8148.173807,311.749000,-0.214500
8153.420541,311.800000,-2.275000
8158.562731,311.850000,1.681000
8163.806066,311.901000,0.161000
8168.944927,311.951000,-3.162000
8174.184869,312.002000,1.148000
8179.320403,312.052000,2.496500
8184.556953,312.103000,1.372500
8189.689165,312.153000,1.163500
8194.922327,312.204000,-1.623500
8200.051219,312.254000,-2.586000
8205.280996,312.305000,-0.785000
8210.406572,312.355000,-1.500500
8215.632968,312.406000,-0.695500
8220.755230,312.456000,0.003500
8225.978248,312.507000,-4.636500
8231.097200,312.557000,-1.268000
8236.316843,312.608000,-0.125500
8241.432488,312.658000,0.782500
8246.546497,312.708000,1.520000
8251.761101,312.759000,-2.168000
8256.871808,312.809000,-2.393500
8261.980881,312.859000,-1.237500
8267.190453,312.910000,-1.697500
8272.296229,312.960000,-2.508500
8277.400373,313.010000,-2.377500
8282.604921,313.061000,0.362500
8287.705773,313.111000,0.570000
8292.804996,313.161000,-2.258500
8298.004526,313.212000,0.473000
8303.100462,313.262000,2.848000
8308.194770,313.312000,-5.250000
8313.287453,313.362000,5.043500
8318.480316,313.413000,-1.964500
8323.569717,313.463000,-1.495500
8328.657496,313.513000,-0.616500
8333.743651,313.563000,-7.075500
8338.828185,313.613000,-6.167500
8344.012739,313.664000,-0.004000
8349.094000,313.714000,-1.115500
8354.173640,313.764000,-0.588500
8359.251662,313.814000,-0.520000
8364.328066,313.864000,-1.571500
8369.402853,313.914000,-1.077000
8374.476024,313.964000,-0.336500
8379.547579,314.014000,0.524000
8384.718901,314.065000,0.644500
8389.787195,314.115000,3.685000
8394.853876,314.165000,-1.153500
8399.918944,314.215000,-1.611000
8404.982400,314.265000,0.254500
8410.044246,314.315000,0.607000
8415.104481,314.365000,0.906500
8420.163107,314.415000,-2.045500
8425.220124,314.465000,-1.237000
8430.275533,314.515000,2.197500
8435.329336,314.565000,4.587500
8440.381532,314.615000,-3.106500
8445.432122,314.665000,-3.166500
8450.481107,314.715000,-0.373000
8455.528489,314.765000,-2.106500
8460.473367,314.814000,-2.157500
8465.517575,314.864000,-0.203000
8470.560181,314.914000,-2.407500
8475.601186,314.964000,9.326500
8480.640590,315.014000,0.680500
8485.678395,315.064000,-0.922000
8490.714602,315.114000,-3.875000
8495.749210,315.164000,0.728000
8500.681577,315.213000,-0.272500
8505.713024,315.263000,3.357500
8510.742875,315.313000,-2.083500
8515.771131,315.363000,-0.718500
8520.797793,315.413000,0.297000
8525.722375,315.462000,0.190000
8530.745883,315.512000,1.501000
8535.767799,315.562000,-1.080500
8540.788124,315.612000,-0.817500
8545.706499,315.661000,-0.119500
8550.723675,315.711000,0.278500
8555.739262,315.761000,3.966000
8560.652997,315.810000,-1.127500
8565.665441,315.860000,-1.443500
8570.676298,315.910000,0.542500
8575.585399,315.959000,-2.706000
8580.593116,316.009000,-2.001500
8585.599249,316.059000,-1.998500
8590.503723,316.108000,-1.359000
8595.506721,316.158000,0.022000
8600.508137,316.208000,0.004500
8605.407991,316.257000,1.078000
8610.406276,316.307000,1.233000
8615.303063,316.356000,-1.119500
8620.298221,316.406000,4.213000
8625.191944,316.455000,0.838000
8630.183977,316.505000,13.710000
8635.074640,316.554000,3.616000
8640.063551,316.604000,1.746500
8644.951156,316.653000,-0.090000
8649.936949,316.703000,-2.049500
8654.821499,316.752000,0.809500
8659.804175,316.802000,1.556500
8664.685673,316.851000,-2.682000
8669.665237,316.901000,-1.410500
8674.543685,316.950000,2.665000
8679.520139,317.000000,-1.291000
8684.395541,317.049000,1.001000
8689.269436,317.098000,-0.401000
8694.241247,317.148000,-0.998500
8699.112100,317.197000,0.196000
8703.981448,317.246000,1.029000
8708.948621,317.296000,-5.729000
8713.814931,317.345000,-0.265000
8718.779005,317.395000,-1.895500
8723.642281,317.444000,7.283000
8728.504055,317.493000,3.154500
8733.364329,317.542000,0.460000
8738.322247,317.592000,23.010500
8743.179491,317.641000,16.799000
8748.035237,317.690000,2.855500
8752.889486,317.739000,-1.783500
8757.841258,317.789000,0.649000
8762.692483,317.838000,0.866000
8767.542212,317.887000,-2.436000
8772.390446,317.936000,2.006500
8777.336084,317.986000,0.298000
8782.181300,318.035000,-6.540000
8787.025024,318.084000,-3.573500
8791.867255,318.133000,-2.773000
8796.707995,318.182000,2.496000
8801.547244,318.231000,-0.756000
8806.385003,318.280000,-1.473500
8811.319957,318.330000,-1.864500
8816.154708,318.379000,1.419500
8820.987971,318.428000,-1.974500
8825.819746,318.477000,-1.223500
8830.650035,318.526000,1.283000
8835.478838,318.575000,-0.716000
8840.306156,318.624000,-2.458000
8845.131990,318.673000,1.187500
8849.956339,318.722000,-0.567000
8854.779206,318.771000,0.407500
8859.600590,318.820000,0.893500
8864.420492,318.869000,1.331500
8869.238913,318.918000,-0.637000
8874.055854,318.967000,0.879500
8878.871314,319.016000,-3.047000
8883.685296,319.065000,-1.038500
8888.497800,319.114000,1.788000
8893.308826,319.163000,2.567000
8898.118374,319.212000,0.874500
8902.926447,319.261000,1.959500
8907.634964,319.309000,2.715500
8912.440116,319.358000,-2.520000
8917.243794,319.407000,0.801000
8922.045998,319.456000,1.994500
8926.846729,319.505000,5.167500
8931.645988,319.554000,-0.805500
8936.443775,319.603000,2.486500
8941.142222,319.651000,0.099000
8945.937098,319.700000,-0.670500
8950.730504,319.749000,-2.218000
8955.522441,319.798000,-0.031500
8960.215161,319.846000,-4.600000
8965.004192,319.895000,-3.118500
8969.791757,319.944000,-0.626500
8974.577855,319.993000,-0.121000
8979.264858,320.041000,-2.202000
8984.048055,320.090000,-5.517500
8988.829789,320.139000,0.754000
8993.512517,320.187000,5.286500
8998.291355,320.236000,9.502000
9003.068730,320.285000,4.013000
9007.747190,320.333000,-2.186000
9012.521672,320.382000,0.120500
9017.294694,320.431000,-2.239500
9021.968893,320.479000,-1.581500
9026.739026,320.528000,1.738500
9031.410396,320.576000,0.759500
9036.177644,320.625000,1.254000
9040.943434,320.674000,2.064000
9045.610552,320.722000,-0.872500
9050.373460,320.771000,-2.150500
9055.037756,320.819000,-0.201500
9059.797784,320.868000,-4.447000
9064.459261,320.916000,-1.893000
9069.216413,320.965000,1.260000
9073.875072,321.013000,-6.667500
9078.629350,321.062000,-4.565500
9083.285194,321.110000,0.853500
9088.036601,321.159000,1.607000
9092.689634,321.207000,0.796000
9097.438171,321.256000,-1.533000
9102.088394,321.304000,4.471500
9106.737229,321.352000,33.194000
9111.481482,321.401000,3.233000
9116.127511,321.449000,-1.836500
9120.868902,321.498000,0.005500
9125.512128,321.546000,0.603000
9130.153968,321.594000,0.741000
9134.891085,321.643000,-1.306500
9139.530126,321.691000,0.865500
9144.167783,321.739000,12.589000
9148.900630,321.788000,6.295000
9153.535492,321.836000,2.295500
9158.168971,321.884000,0.477000
9162.801069,321.932000,0.515500
9167.528244,321.981000,-1.470000
9172.157551,322.029000,1.996000
9176.785479,322.077000,-1.169500
9181.412027,322.125000,-3.057000
9186.133540,322.174000,-0.382000
9190.757302,322.222000,-1.503000
9195.379688,322.270000,-2.134500
9200.000697,322.318000,4.457000
9204.620330,322.366000,10.086000
9209.334786,322.415000,15.650000
9213.951640,322.463000,3.902500
9218.567119,322.511000,-1.575500
9223.181225,322.559000,-0.301500
9227.793957,322.607000,2.340500
9232.405318,322.655000,0.094500
9237.015306,322.703000,-2.065500
9241.623923,322.751000,-1.255500
9246.231170,322.799000,-4.973500
9250.932988,322.848000,-2.613000
9255.537466,322.896000,-2.372000
9260.140576,322.944000,2.693000
9264.742318,322.992000,2.814000
9269.342693,323.040000,-4.837000
9273.941700,323.088000,-0.623000
9278.539341,323.136000,-2.058500
9283.135616,323.184000,0.746500
9287.730527,323.232000,1.146000
9292.324072,323.280000,2.042500
9296.916254,323.328000,-3.273000
9301.411445,323.375000,-6.756000
9306.000929,323.423000,4.498000
9310.589052,323.471000,-2.808500
9315.175812,323.519000,-3.303000
9319.761212,323.567000,-2.694000
9324.345252,323.615000,0.018500
9328.927932,323.663000,-2.631000
9333.509253,323.711000,-2.697000
9338.089216,323.759000,-0.988500
9342.572447,323.806000,0.992500
9347.149722,323.854000,-1.875000
9351.725642,323.902000,-4.523000
9356.300205,323.950000,-2.096500
9360.873412,323.998000,-1.192000
9365.350032,324.045000,0.816500
9369.920559,324.093000,-1.258500
9374.489732,324.141000,0.821000
9379.057552,324.189000,0.943000
9383.528899,324.236000,-3.227500
9388.094043,324.284000,2.636500
9392.657836,324.332000,-3.307000
9397.125241,324.379000,-1.194500
9401.686361,324.427000,-2.778500
9406.246132,324.475000,0.510500
9410.804554,324.523000,-3.417500
9415.266702,324.570000,-1.341500
9419.822456,324.618000,-0.764500
9424.281993,324.665000,-0.459000
9428.835082,324.713000,-2.049500
9433.386824,324.761000,-2.790500
9437.842435,324.808000,-2.361000
9442.391516,324.856000,-9.429500
9446.844521,324.903000,0.618500
9451.390942,324.951000,0.057500
9455.936020,324.999000,-0.882000
9460.385108,325.046000,-4.104500
9464.927530,325.094000,1.790500
9469.374018,325.141000,0.182000
9473.913786,325.189000,-0.582500
9478.357677,325.236000,-0.696000
9482.894794,325.284000,9.718500
9487.336090,325.331000,0.062500
9491.870557,325.379000,-0.433000
9496.309260,325.426000,-2.557000
9500.746681,325.473000,-1.487500
9505.277193,325.521000,1.467500
9509.712024,325.568000,0.606500
9514.239893,325.616000,-5.137000
9518.672137,325.663000,-0.736000
9523.103102,325.710000,-0.384500
9527.627024,325.758000,1.076000
9532.055405,325.805000,-0.410500
9536.576689,325.853000,-2.840500
9541.002489,325.900000,3.230500
9545.427013,325.947000,5.693500
9549.850260,325.994000,-1.203500
9554.366303,326.042000,-8.352000
9558.786974,326.089000,-5.580000
9563.206371,326.136000,-0.205500
9567.718482,326.184000,-1.285500
9572.135305,326.231000,2.497000
9576.550855,326.278000,0.211000
9580.965134,326.325000,-0.053000
9585.472021,326.373000,-0.643000
9589.883730,326.420000,1.816000
9594.294169,326.467000,-0.622000
9598.703338,326.514000,-9.493000
9603.111238,326.561000,-14.943500
9607.611614,326.609000,-11.394000
9612.016950,326.656000,-9.036500
9616.421019,326.703000,-11.483000
9620.823821,326.750000,-3.127000
9625.225356,326.797000,1.188000
9629.625626,326.844000,-3.953000
9634.024630,326.891000,-0.645000
9638.422369,326.938000,-0.277000
9642.818845,326.985000,1.138000
9647.214056,327.032000,-1.081000
9651.701479,327.080000,-1.204500
9656.094138,327.127000,-2.520000
9660.485535,327.174000,-0.964000
9664.875670,327.221000,-0.410000
9669.264544,327.268000,-1.830500
9673.652158,327.315000,6.630500
9678.038512,327.362000,1.479000
9682.423607,327.409000,-1.380500
9686.807443,327.456000,-1.239500
9691.190021,327.503000,-0.199500
9695.478134,327.549000,-0.851500
9699.858224,327.596000,0.018500
9704.237057,327.643000,3.909000
9708.614633,327.690000,4.634500
9712.990955,327.737000,-0.167500
9717.366021,327.784000,-1.171000
9721.739833,327.831000,0.413500
9726.112390,327.878000,-4.027000
9730.483695,327.925000,-1.310000
9734.760780,327.971000,-3.639000
9739.129606,328.018000,-1.116000
9743.497180,328.065000,-3.044000
9747.863503,328.112000,13.896500
9752.228575,328.159000,-9.234000
9756.499562,328.205000,0.140500
9760.862161,328.252000,-1.480000
9765.223511,328.299000,0.069000
9769.583612,328.346000,1.185000
9773.849737,328.392000,1.255500
9778.207369,328.439000,-0.687500
9782.563754,328.486000,-2.036500
9786.918893,328.533000,-3.061500
9791.180163,328.579000,-1.734500
9795.532837,328.626000,-1.371500
9799.884266,328.673000,3.574500
9804.141906,328.719000,1.075000
9808.490874,328.766000,-1.984500
9812.838598,328.813000,-1.385500
9817.092614,328.859000,-0.075500
9821.437879,328.906000,-0.546500
9825.689490,328.952000,3.555000
9830.032299,328.999000,42.538000
9834.373868,329.046000,5.013500
9838.621862,329.092000,-1.069500
9842.960977,329.139000,2.383500
9847.206571,329.185000,-0.272500
9851.543235,329.232000,-1.031000
9855.786431,329.278000,-1.539500
9860.120646,329.325000,-0.752500
9864.361446,329.371000,-1.332500
9868.693214,329.418000,1.164000
9872.931619,329.464000,3.581000
9877.260942,329.511000,-0.301000
9881.496956,329.557000,2.951500
9885.823836,329.604000,5.145000
9890.057460,329.650000,-1.055000
9894.289903,329.696000,0.490000
9898.613135,329.743000,-2.146000
9902.843191,329.789000,-1.698500
9907.163985,329.836000,-14.873000
9911.391656,329.882000,-1.674000
9915.618148,329.928000,-4.294500
9919.935303,329.975000,1.489000
9924.159413,330.021000,1.394500
9928.382346,330.067000,-1.602000
9932.695866,330.114000,1.132500
9936.916419,330.160000,2.964000
9941.135797,330.206000,2.453500
9945.445687,330.253000,-0.910500
9949.662689,330.299000,0.357000
9953.878516,330.345000,-0.808500
9958.093170,330.391000,0.046000
9962.398234,330.438000,-0.026500
9966.610516,330.484000,1.224500
9970.821625,330.530000,-3.000000
9975.031562,330.576000,-0.516000
9979.240328,330.622000,-2.467000
9983.539380,330.669000,-1.011500
9987.745778,330.715000,0.295500
9991.951007,330.761000,0.678500
9996.155067,330.807000,-0.034000
10000.357957,330.853000,0.956500
10004.559679,330.899000,1.143500
10008.760233,330.945000,-3.288000
10013.050897,330.992000,-1.495500
10017.249091,331.038000,-0.311000
10021.446118,331.084000,1.354000
10025.641979,331.130000,-0.828500
10029.836675,331.176000,-1.443500
10034.030205,331.222000,-2.361500
10038.222571,331.268000,-1.085500
10042.413773,331.314000,0.550000
10046.603811,331.360000,-2.434000
10050.792686,331.406000,-1.375000
10054.980398,331.452000,-0.098000
10059.166948,331.498000,2.094000
10063.352336,331.544000,-1.109500
10067.536563,331.590000,-2.040000
10071.719629,331.636000,0.155500
10075.901535,331.682000,0.446500
10080.082281,331.728000,-1.613500
10084.261868,331.774000,-0.358000
10088.440296,331.820000,-0.686000
10092.526768,331.865000,1.303000
10096.702905,331.911000,-0.204500
10100.877884,331.957000,-0.957000
10105.051707,332.003000,1.076500
10109.224373,332.049000,-2.175000
10113.395884,332.095000,-1.138000
10117.475591,332.140000,3.052000
10121.644816,332.186000,2.618500
10125.812886,332.232000,-2.102000
10129.979802,332.278000,1.598500
10134.145565,332.324000,0.979500
10138.219652,332.369000,1.419500
10142.383134,332.415000,-23.394500
10146.545464,332.461000,-12.707500
10150.706643,332.507000,-5.584500
10154.776247,332.552000,8.056500
10158.935148,332.598000,1.988000
10163.092900,332.644000,-0.467500
10167.159152,332.689000,2.909000
10171.314630,332.735000,0.252500
10175.468958,332.781000,-0.544000
10179.531864,332.826000,-0.004000
10183.683921,332.872000,0.347500
10187.834831,332.918000,-3.083000
10191.894393,332.963000,0.794500
10196.043035,333.009000,3.428000
10200.190530,333.055000,-0.002000
10204.246754,333.100000,0.529500
10208.391984,333.146000,-3.089000
10212.445992,333.191000,-3.012000
10216.588958,333.237000,-0.222500
10220.640753,333.282000,-0.892500
10224.781457,333.328000,-0.838000
10228.831039,333.373000,-1.444500
10232.969483,333.419000,-0.449000
10237.016856,333.464000,-1.460000
10241.153042,333.510000,-0.371500
10245.198206,333.555000,0.036500
10249.332135,333.601000,-0.772500
10253.375094,333.646000,-1.373500
10257.506768,333.692000,-0.870000
10261.547522,333.737000,-0.719500
10265.587186,333.782000,-2.283500
10269.715494,333.828000,0.741000
10273.752956,333.873000,0.223500
10277.879015,333.919000,-0.768500
10281.914277,333.964000,-2.382000
10285.948452,334.009000,-3.342500
10290.071151,334.055000,1.170500
10294.103128,334.100000,-0.301000
10298.134020,334.145000,0.132000
10302.253364,334.191000,1.015000
10306.282060,334.236000,-4.767500
10310.309672,334.281000,-1.288500
10314.425666,334.327000,-1.547000
10318.451085,334.372000,0.446000
10322.475422,334.417000,-1.124000
10326.498675,334.462000,1.680000
10330.610215,334.508000,0.477500
10334.631280,334.553000,-1.655000
10338.651263,334.598000,-1.534000
10342.670165,334.643000,-1.491500
10346.687987,334.688000,-2.933000
10350.704728,334.733000,-0.850000
10354.809614,334.779000,0.082500
10358.824172,334.824000,-0.379000
10362.837651,334.869000,-2.698500
10366.850051,334.914000,-0.575000
10370.861373,334.959000,2.047000
10374.871618,335.004000,2.922500
10378.880786,335.049000,9.581000
10382.888876,335.094000,5.093000
10386.984923,335.140000,-0.453500
10390.990838,335.185000,0.547000
10394.995677,335.230000,-1.317000
10398.999440,335.275000,-0.177500
10403.002130,335.320000,0.864000
10407.003745,335.365000,1.995000
10411.004286,335.410000,1.402000
10415.003755,335.455000,-1.538500
10419.002150,335.500000,0.291500
10422.999473,335.545000,-0.418500
10426.995723,335.590000,-0.876500
10430.990902,335.635000,-2.410000
10434.985010,335.680000,1.602000
10438.889325,335.724000,6.170500
10442.881316,335.769000,1.757000
10446.872237,335.814000,0.742500
10450.862088,335.859000,0.980000
10454.850871,335.904000,0.665500
10458.838585,335.949000,2.050000
10462.825230,335.994000,-2.351000
10466.810808,336.039000,2.932500
10470.706786,336.083000,-2.664500
10474.690253,336.128000,-3.128500
10478.672654,336.173000,-0.481500
10482.653989,336.218000,-1.892000
10486.634259,336.263000,0.116500
10490.525048,336.307000,-3.071500
10494.503211,336.352000,-0.628000
10498.480310,336.397000,-0.742500
10502.456345,336.442000,-0.013000
10506.342995,336.486000,-0.535500
10510.316927,336.531000,-0.273000
10514.289797,336.576000,3.875000
10518.261604,336.621000,0.021500
10522.144122,336.665000,-1.548500
10526.113830,336.710000,0.737500
10530.082477,336.755000,3.443500
10533.961906,336.799000,0.550000
10537.928455,336.844000,-0.931500
10541.893946,336.889000,-0.744000
10545.770289,336.933000,-0.839500
10549.733685,336.978000,-3.376500
10553.607982,337.022000,0.243000
10557.569284,337.067000,0.048500
10561.529529,337.112000,1.485500
10565.400747,337.156000,0.719000
10569.358902,337.201000,-1.554500
10573.228076,337.245000,2.464500
10577.184142,337.290000,7.467500
10581.051275,337.334000,23.555000
10585.005254,337.379000,0.805500
10588.870347,337.423000,1.348000
10592.822240,337.468000,2.733000
10596.685295,337.512000,3.989000
10600.635105,337.557000,3.322000
10604.496123,337.601000,1.603000
10608.443850,337.646000,-1.373500
10612.302834,337.690000,5.876000
10616.160811,337.734000,1.486000
10620.105430,337.779000,6.431000
10623.961375,337.823000,8.650500
10627.903916,337.868000,6.079500
10631.757830,337.912000,6.311000
10635.610740,337.956000,9.770000
10639.550179,338.001000,10.628000
10643.401061,338.045000,12.119500
10647.250940,338.089000,11.852500
10651.187281,338.134000,16.021000
10655.035134,338.178000,13.771500
10658.881986,338.222000,13.318500
10662.815231,338.267000,18.855500
10666.660059,338.311000,21.244500
10670.503887,338.355000,22.400500
10674.346716,338.399000,24.487500
10678.275848,338.444000,22.829500
10682.116656,338.488000,20.397500
10685.956465,338.532000,21.285500
10689.795276,338.576000,20.136000
10693.633090,338.620000,34.973000
10697.557096,338.665000,19.616500
10701.392893,338.709000,18.335500
10705.227693,338.753000,18.195000
10709.061498,338.797000,14.785500
10712.894307,338.841000,17.390500
10716.726120,338.885000,18.713500
10720.556939,338.929000,17.196500
10724.386763,338.973000,18.284000
10728.302601,339.018000,17.531500
10732.130414,339.062000,17.390500
10735.957235,339.106000,19.196500
10739.783062,339.150000,18.606500
10743.607897,339.194000,15.376500
10747.431740,339.238000,15.744500
10751.254591,339.282000,18.545500
10755.076450,339.326000,17.928500
10758.897319,339.370000,20.095500
10762.717197,339.414000,17.311000
10766.536084,339.458000,15.783500
10770.353982,339.502000,17.871000
10774.170890,339.546000,17.639500
10777.986809,339.590000,17.138000
10781.801740,339.634000,20.704000
10785.615682,339.678000,16.962000
10789.341989,339.721000,15.378500
10793.153978,339.765000,19.029000
10796.964980,339.809000,14.453000
10800.774995,339.853000,17.328000
10804.584024,339.897000,17.116000
10808.392066,339.941000,20.245500
10812.199123,339.985000,19.172000
10816.005195,340.029000,14.280000
10819.723813,340.072000,15.898000
10823.527938,340.116000,20.013000
10827.331078,340.160000,18.593500
10831.133235,340.204000,17.703000
10834.848029,340.247000,16.716000
10838.648242,340.291000,14.922000
10842.447472,340.335000,18.006000
10846.245720,340.379000,11.233500
10849.956695,340.422000,18.676000
10853.753002,340.466000,15.121500
10857.548328,340.510000,17.403000
10861.342673,340.554000,17.588000
10865.049836,340.597000,17.398000
10868.842243,340.641000,15.306000
10872.633670,340.685000,19.431000
10876.337983,340.728000,18.049500
10880.127474,340.772000,19.730000
10883.829896,340.815000,17.737500
10887.617453,340.859000,17.143000
10891.404033,340.903000,14.156000
10895.103609,340.946000,14.515500
10898.888257,340.990000,20.321000
10902.585946,341.033000,19.508000
10906.368663,341.077000,14.783000
10910.150404,341.121000,19.078000
10913.845254,341.164000,22.200000
10917.625066,341.208000,18.904500
10921.318033,341.251000,18.699500
10925.095918,341.295000,15.637500
10928.787002,341.338000,16.771000
10932.562962,341.382000,18.042500
10936.252165,341.425000,12.989000
10939.940439,341.468000,17.319500
10943.713524,341.512000,16.585500
10947.399919,341.555000,18.149500
10951.171083,341.599000,16.191500
10954.855601,341.642000,14.049000
10958.624845,341.686000,19.492500
10962.307486,341.729000,5.882000
10965.989201,341.772000,-5.044500
10969.755578,341.816000,2.568500
10973.435419,341.859000,14.799000
10977.114334,341.902000,18.342500
10980.877848,341.946000,15.484000
10984.554892,341.989000,20.016000
10988.231011,342.032000,16.905000
10991.991665,342.076000,17.151000
10995.665914,342.119000,26.343500
10999.339240,342.162000,36.096500
11003.011643,342.205000,23.052500
11006.768496,342.249000,17.030000
11010.439032,342.292000,18.399000
11014.108646,342.335000,16.710500
11017.777338,342.378000,16.406000
11021.530396,342.422000,14.691500
11025.197224,342.465000,17.214500
11028.863132,342.508000,13.742500
11032.528119,342.551000,15.637500
11036.192187,342.594000,29.802500
11039.855335,342.637000,16.456500
11043.602720,342.681000,14.241500
11047.264009,342.724000,12.665500
11050.924378,342.767000,16.633500
11054.583829,342.810000,16.622000
11058.242363,342.853000,16.318000
11061.899979,342.896000,15.213500
11065.556677,342.939000,14.930500
11069.212459,342.982000,19.635000
11072.867324,343.025000,15.799500
11076.521273,343.068000,19.103500
11080.174306,343.111000,15.574000
11083.826423,343.154000,15.035500
11087.477626,343.197000,17.050000
11091.127913,343.240000,15.194500
11094.777286,343.283000,14.482000
11098.425745,343.326000,7.257500
11102.073291,343.369000,16.496000
11105.719922,343.412000,14.776000
11109.365641,343.455000,15.430000
11113.010447,343.498000,17.427000
11116.654340,343.541000,18.668500
11120.297322,343.584000,17.647000
11123.939391,343.627000,17.484500
11127.580549,343.670000,18.491500
11131.220797,343.713000,16.895500
11134.775508,343.755000,16.995000
11138.413955,343.798000,14.626000
11142.051492,343.841000,18.626000
11145.688120,343.884000,17.158500
11149.323838,343.927000,17.066500
11152.958647,343.970000,18.219500
11156.508049,344.012000,17.743000
11160.141062,344.055000,16.535000
11163.773167,344.098000,16.451000
11167.404365,344.141000,19.411500
11170.950240,344.183000,18.115000
11174.579645,344.226000,16.940000
11178.208143,344.269000,18.628500
11181.751382,344.311000,23.846500
11185.378088,344.354000,18.029000
11189.003889,344.397000,14.377000
11192.628785,344.440000,15.280000
11196.168507,344.482000,14.900500
11199.791614,344.525000,17.715000
11203.413817,344.568000,16.840000
11206.950910,344.610000,18.212000
11210.571327,344.653000,16.676000
11214.106675,344.695000,16.187000
11217.725306,344.738000,19.405500
11221.343035,344.781000,17.045500
11224.875759,344.823000,16.930500
11228.491704,344.866000,14.290000
11232.022687,344.908000,16.492000
11235.636851,344.951000,14.270000
11239.166094,344.993000,16.408500
11242.778477,345.036000,17.081000
11246.305982,345.078000,16.994500
11249.916585,345.121000,15.248500
11253.442353,345.163000,17.291500
11257.051178,345.206000,14.309500
11260.575210,345.248000,16.156500
11264.182259,345.291000,14.626500
11267.704555,345.333000,15.101000
11271.309829,345.376000,20.016000
11274.830392,345.418000,17.329500
11278.350100,345.460000,17.379500
11281.952723,345.503000,15.880500
11285.470699,345.545000,13.226000
11288.987820,345.587000,16.713500
11292.587796,345.630000,17.863000
11296.103187,345.672000,19.960500
11299.701393,345.715000,19.849000
11303.215056,345.757000,4.034500
11306.727865,345.799000,10.450500
11310.239821,345.841000,15.680500
11313.834512,345.884000,16.809000
11317.344742,345.926000,14.406000
11320.854120,345.968000,14.452500
11324.446172,346.011000,17.307500
11327.953826,346.053000,19.502500
11331.460629,346.095000,14.313000
11334.966581,346.137000,15.267000
11338.471682,346.179000,18.098000
11342.059357,346.222000,16.503500
11345.562737,346.264000,17.433500
11349.065268,346.306000,16.879000
11352.566949,346.348000,16.732000
11356.067781,346.390000,16.130000
11359.567764,346.432000,16.312500
11363.150201,346.475000,16.326000
11366.648467,346.517000,17.761500
11370.145885,346.559000,12.495500
11373.642456,346.601000,15.460000
11377.138179,346.643000,8.593500
11380.633055,346.685000,14.440500
11384.127085,346.727000,16.629000
11387.620268,346.769000,17.406500
11391.112605,346.811000,17.200500
11394.604096,346.853000,16.640500
11398.094742,346.895000,14.984500
11401.584543,346.937000,16.110500
11405.073499,346.979000,27.972000
11408.561610,347.021000,19.158500
11412.048877,347.063000,17.576500
11415.535301,347.105000,19.872500
11419.020880,347.147000,13.278000
11422.505617,347.189000,18.626500
11425.989510,347.231000,16.707500
11429.472560,347.273000,18.637500
11432.954769,347.315000,14.058000
11436.436135,347.357000,13.852000
11439.916659,347.399000,16.778000
11443.313502,347.440000,17.194500
11446.792364,347.482000,16.056500
11450.270384,347.524000,15.921000
11453.747565,347.566000,18.214500
11457.223905,347.608000,23.471500
11460.699405,347.650000,29.901500
11464.091345,347.691000,26.656500
11467.565186,347.733000,18.217000
11471.038188,347.775000,22.279500
11474.510351,347.817000,17.783000
11477.981676,347.859000,19.292000
11481.369541,347.900000,19.186500
11484.839210,347.942000,17.716000
11488.308041,347.984000,15.714500
11491.693473,348.025000,14.309500
11495.160650,348.067000,13.316500
11498.626991,348.109000,17.379500
11502.092494,348.151000,14.660500
11505.474680,348.192000,17.669000
11508.938532,348.234000,15.927000
11512.401549,348.276000,14.808000
11515.781307,348.317000,14.370500
11519.242673,348.359000,17.277000
11522.620821,348.400000,16.031500
11526.080539,348.442000,19.439000
11529.539422,348.484000,17.193000
11532.915148,348.525000,9.474000
11536.372384,348.567000,7.348000
11539.746502,348.608000,24.079500
11543.202092,348.650000,29.116000
11546.574604,348.691000,20.462000
11550.028550,348.733000,21.238500
11553.399456,348.774000,18.228000
11556.851758,348.816000,20.464000
11560.221061,348.857000,13.534000
11563.671720,348.899000,15.991500
11567.039420,348.940000,18.495500
11570.488439,348.982000,15.886500
11573.854537,349.023000,17.409000
11577.301915,349.065000,17.274000
11580.666413,349.106000,18.508000
11584.030120,349.147000,22.965500
11587.475051,349.189000,16.262500
11590.837159,349.230000,17.086000
11594.280452,349.272000,19.103500
11597.640963,349.313000,17.197000
11601.000686,349.354000,13.328500
11604.441535,349.396000,10.084500
11607.799661,349.437000,12.258500
11611.157000,349.478000,15.221000
11614.595408,349.520000,11.094000
11617.951152,349.561000,13.721000
11621.306109,349.602000,14.388500
11624.660280,349.643000,16.353000
11628.095443,349.685000,15.786000
11631.448022,349.726000,14.249000
11634.799814,349.767000,11.967000
11638.150821,349.808000,14.173000
11641.582745,349.850000,14.121500
11644.932162,349.891000,15.600000
11648.280794,349.932000,18.177500
11651.628641,349.973000,15.899500
11654.975704,350.014000,16.410500
11658.403590,350.056000,13.600000
11661.749066,350.097000,17.248000
11665.093759,350.138000,14.973500
11668.437668,350.179000,15.227000
11671.780795,350.220000,13.561000
11675.123139,350.261000,14.682000
11678.464700,350.302000,15.998500
11681.805480,350.343000,20.070000
11685.145477,350.384000,17.889000
11688.484693,350.425000,14.476000
11691.904543,350.467000,15.781000
11695.242178,350.508000,14.048500
11698.579032,350.549000,-5.171500
11701.915105,350.590000,9.634000
11705.250398,350.631000,15.424000
11708.584912,350.672000,15.728500
11711.918645,350.713000,14.351500
11715.251600,350.754000,13.792000
11718.502512,350.794000,16.329000
11721.833927,350.835000,17.659000
11725.164564,350.876000,13.885500
11728.494422,350.917000,18.456500
11731.823503,350.958000,13.625000
11735.151806,350.999000,11.139000
11738.479331,351.040000,17.220000
11741.806079,351.081000,18.285000
11745.132050,351.122000,17.327000
11748.457245,351.163000,14.524500
11751.700589,351.203000,14.511500
11755.024250,351.244000,14.389500
11758.347135,351.285000,14.434500
11761.669245,351.326000,16.197500
11764.990579,351.367000,14.152000
11768.230159,351.407000,15.525000
11771.549962,351.448000,17.730500
11774.868991,351.489000,14.630500
11778.187246,351.530000,16.015000
11781.423822,351.570000,18.438000
11784.740548,351.611000,22.496000
11788.056500,351.652000,16.203000
11791.371680,351.693000,8.261500
11794.605256,351.733000,11.995500
11797.918909,351.774000,-10.991500
11801.231790,351.815000,13.835500
11804.463124,351.855000,18.701000
11807.774479,351.896000,14.928500
11811.085063,351.937000,14.074000
11814.314158,351.977000,17.333500
11817.623218,352.018000,16.458000
11820.850827,352.058000,15.842500
11824.158365,352.099000,13.918000
11827.465133,352.140000,13.941500
11830.690506,352.180000,15.665500
11833.995753,352.221000,14.210000
11837.219643,352.261000,15.994000
11840.523370,352.302000,19.187000
11843.745778,352.342000,17.491000
11847.047986,352.383000,15.874000
11850.268913,352.423000,15.051500
11853.569603,352.464000,13.333500
11856.789050,352.504000,16.055000
11860.088224,352.545000,11.728500
11863.306191,352.585000,24.386500
11866.603850,352.626000,14.037000
11869.820339,352.666000,14.595000
11873.116483,352.707000,17.485500
11876.331495,352.747000,13.239500
11879.545777,352.787000,13.369500
11882.839661,352.828000,14.146000
11886.052468,352.868000,14.906000
11889.264547,352.908000,14.680500
11892.556173,352.949000,14.960000
11895.766777,352.989000,14.115000
11899.056892,353.030000,16.261000
11902.266024,353.070000,13.698500
11905.474429,353.110000,14.715000
11908.682107,353.150000,12.206000
11911.969223,353.191000,9.460500
11915.175430,353.231000,13.956000
11918.380911,353.271000,17.708000
11921.665775,353.312000,17.217000
11924.869787,353.352000,16.505500
11928.073073,353.392000,15.008500
11931.275634,353.432000,14.859500
11934.477470,353.472000,19.897500
11937.758600,353.513000,13.607500
11940.958969,353.553000,12.812000
11944.158614,353.593000,13.741500
11947.357536,353.633000,16.690500
11950.555733,353.673000,12.166500
11953.753208,353.713000,10.998500
11957.029868,353.754000,10.563000
11960.225879,353.794000,14.670500
11963.421166,353.834000,12.876500
11966.615732,353.874000,14.059500
11969.809575,353.914000,14.039500
11973.002696,353.954000,10.872000
11976.195096,353.994000,3.477500
11979.386774,354.034000,7.330500
11982.577731,354.074000,12.217000
11985.767968,354.114000,14.697500
11988.957483,354.154000,12.075000
11992.146279,354.194000,16.255000
11995.334354,354.234000,22.419000
11998.521709,354.274000,19.690500
12001.708345,354.314000,19.880000
12004.894261,354.354000,10.948000
12008.079458,354.394000,11.541500
12011.263936,354.434000,19.131000
12014.447695,354.474000,15.935000
12017.630736,354.514000,13.766500
12020.813059,354.554000,13.251000
12023.994663,354.594000,13.374500
12027.175550,354.634000,12.251500
12030.276224,354.673000,9.921500
12033.455694,354.713000,12.429500
12036.634448,354.753000,11.443000
12039.812484,354.793000,8.120000
12042.989804,354.833000,5.028500
12046.166408,354.873000,9.740000
12049.262907,354.912000,11.047000
12052.438097,354.952000,11.120000
12055.612571,354.992000,10.437000
12058.786330,355.032000,6.065500
12061.880056,355.071000,5.433500
12065.052403,355.111000,7.017500
12068.224035,355.151000,5.915000
12071.394953,355.191000,5.767500
12074.485910,355.230000,3.177500
12077.655418,355.270000,6.238000
12080.824212,355.310000,3.642000
12083.913100,355.349000,5.406500
12087.080485,355.389000,3.086000
12090.247158,355.429000,-0.498000
12093.333977,355.468000,1.724500
12096.499242,355.508000,3.534500
12099.663795,355.548000,0.027000
12102.748549,355.587000,0.409500
12105.911696,355.627000,-0.048000
12108.995079,355.666000,0.529500
12112.156822,355.706000,0.194500
12115.317853,355.746000,-0.581000
12118.399174,355.785000,0.459500
12121.558801,355.825000,0.950500
12124.638754,355.864000,0.025500
12127.796979,355.904000,0.014000
12130.875565,355.943000,-0.720000
12134.032389,355.983000,0.017000
12137.109608,356.022000,0.574000
12140.265031,356.062000,-0.939500
12143.340885,356.101000,-0.515000
12146.494908,356.141000,-0.244500
12149.569398,356.180000,0.405000
12152.643215,356.219000,-0.322500
12155.795149,356.259000,-1.875000
12158.867603,356.298000,0.400000
12162.018139,356.338000,0.136500
12165.089231,356.377000,-0.597000
12168.159651,356.416000,-0.494000
12171.308101,356.456000,-0.294000
12174.377160,356.495000,-0.616500
12177.445548,356.534000,-0.443500
12180.591915,356.574000,-0.753000
12183.658943,356.613000,0.348000
12186.725300,356.652000,1.079000
12189.869585,356.692000,0.289500
12192.934585,356.731000,-0.612500
12195.998914,356.770000,-0.442500
12199.062573,356.809000,1.045000
12202.204093,356.849000,-0.430500
12205.266396,356.888000,-0.766000
12208.328030,356.927000,0.145500
12211.388995,356.966000,-0.708500
12214.527751,357.006000,0.650500
12217.587361,357.045000,-0.459000
12220.646304,357.084000,-0.142000
12223.704578,357.123000,0.114500
12226.762184,357.162000,-0.828500
12229.819122,357.201000,-0.595000
12232.953750,357.241000,0.919000
12236.009337,357.280000,-0.594500
12239.064257,357.319000,-0.267000
12242.118510,357.358000,0.285000
12245.172096,357.397000,-0.154500
12248.225016,357.436000,-1.230000
