raman_shift_cm-1,wavelength_nm,intensity
-311.444523,246.690000,0.000000
-300.766377,246.755000,0.000000
-290.093855,246.820000,0.000000
-279.262891,246.886000,0.000000
-268.601691,246.951000,0.439890
-257.946101,247.016000,-0.451370
-247.296118,247.081000,3.372020
-236.651737,247.146000,-1.774870
-226.012953,247.211000,1.993700
-215.216219,247.277000,1.223170
-204.588703,247.342000,-0.555670
-193.966771,247.407000,-0.662440
-183.350419,247.472000,0.329000
-172.739643,247.537000,-1.925450
-162.134437,247.602000,-1.330800
-151.534799,247.667000,-3.300690
-140.940722,247.732000,2.513710
-130.352203,247.797000,0.424270
-119.769238,247.862000,-0.428350
-109.191822,247.927000,-3.352970
-98.619951,247.992000,-5.529110
-88.053621,248.057000,-5.053170
-77.655258,248.121000,-8.014610
-67.099910,248.186000,-9.849590
-56.550089,248.251000,2.729080
-46.005792,248.316000,10.773510
-35.467013,248.381000,-4.360130
-24.933749,248.446000,2.176660
-14.405995,248.511000,-1.943570
-4.045586,248.575000,-1.322840
6.471245,248.640000,-8.479980
16.982580,248.705000,-4.560390
27.488421,248.770000,2.987260
37.827271,248.834000,1.175440
48.322224,248.899000,-2.689260
58.811696,248.964000,-8.806260
69.134442,249.028000,-0.008030
79.613052,249.093000,3.139440
90.086194,249.158000,-4.161640
100.392873,249.222000,-0.340400
110.855177,249.287000,-0.963770
121.312027,249.352000,-0.798630
131.602677,249.416000,-11.652940
142.048715,249.481000,-0.868190
152.328727,249.545000,-0.801480
162.763968,249.610000,3.839300
173.033359,249.674000,-0.825200
183.457821,249.739000,-6.779770
193.716607,249.803000,0.441330
204.130307,249.868000,-6.180040
214.378504,249.932000,0.091640
224.781458,249.997000,-8.423030
235.019083,250.061000,63.842460
245.411309,250.126000,68.888570
255.638378,250.190000,-20.175940
265.860216,250.254000,-31.997100
276.236420,250.319000,-23.060060
286.447727,250.383000,47.892570
296.813243,250.448000,51.371950
307.014035,250.512000,-44.905460
317.209616,250.576000,-33.692410
327.399990,250.640000,-5.041620
337.744263,250.705000,8.655550
347.924154,250.769000,2.750980
358.098850,250.833000,23.278050
368.268355,250.897000,52.090140
378.591450,250.962000,31.032400
388.750505,251.026000,-30.109020
398.904381,251.090000,-0.288760
409.053082,251.154000,3.696400
419.196612,251.218000,10.266740
429.334975,251.282000,16.285750
439.626466,251.347000,-1.254160
449.754426,251.411000,-13.852310
459.877231,251.475000,40.516670
469.994885,251.539000,-8.110820
480.107392,251.603000,1.096050
490.214756,251.667000,-1.374110
500.316980,251.731000,-45.392020
510.414069,251.795000,-64.528110
520.506026,251.859000,-29.660820
530.592855,251.923000,-18.301780
540.674561,251.987000,1.029660
550.751147,252.051000,-24.646650
560.822617,252.115000,-3.751840
570.888975,252.179000,94.687600
580.950225,252.243000,-27.825500
590.849282,252.306000,-15.400800
600.900407,252.370000,-7.696630
610.946435,252.434000,8.192090
620.987371,252.498000,24.494160
631.023218,252.562000,42.566030
641.053980,252.626000,68.915110
650.923048,252.689000,114.746130
660.943731,252.753000,15.905910
670.959341,252.817000,14.227650
680.969880,252.881000,25.252090
690.819058,252.944000,-2.737780
700.819549,253.008000,-1.434100
710.814983,253.072000,11.964550
720.805362,253.136000,-28.771230
730.634708,253.199000,24.248530
740.615069,253.263000,-30.045220
750.434561,253.326000,-20.238380
760.404919,253.390000,4.545110
770.370241,253.454000,29.864590
780.174941,253.517000,-8.512680
790.130283,253.581000,0.794590
799.925166,253.644000,-21.653280
809.870542,253.708000,23.865660
819.655623,253.771000,-77.087010
829.591048,253.835000,-15.540920
839.366341,253.898000,13.347360
849.291831,253.962000,-35.084890
859.057350,254.025000,-2.651920
868.972920,254.089000,-33.124860
878.728681,254.152000,-16.263410
888.634344,254.216000,9.063700
898.380361,254.279000,-53.185380
908.121550,254.342000,-38.570790
918.012421,254.406000,41.138890
927.743888,254.469000,32.261840
937.470538,254.532000,47.648620
947.346650,254.596000,29.150450
957.063600,254.659000,114.137110
966.775743,254.722000,6.720350
976.637128,254.786000,-46.553520
986.339593,254.849000,1.779770
996.037261,254.912000,-32.683580
1005.730138,254.975000,5.425990
1015.571966,255.039000,-9.873730
1025.255192,255.102000,-10.232880
1034.933637,255.165000,11.869930
1044.607304,255.228000,25.920170
1054.276196,255.291000,25.666620
1063.940318,255.354000,119.975020
1073.599672,255.417000,122.634410
1083.407471,255.481000,36.473310
1093.057225,255.544000,5.222910
1102.702223,255.607000,-87.390700
1112.342467,255.670000,-28.678650
1121.977961,255.733000,-66.413080
1131.608710,255.796000,-70.769290
1141.234715,255.859000,-149.532580
1150.855981,255.922000,-1.049190
1160.472512,255.985000,-65.760050
1170.084310,256.048000,114.748800
1179.691379,256.111000,-35.028510
1189.293724,256.174000,78.864830
1198.739040,256.236000,-30.840530
1208.332019,256.299000,-31.575820
1217.920283,256.362000,44.600780
1227.503835,256.425000,-5.811880
1237.082680,256.488000,-68.546020
1246.656820,256.551000,9.401900
1256.226260,256.614000,6.522730
1265.639217,256.676000,6.051430
1275.199339,256.739000,-20.146060
1284.754770,256.802000,93.654550
1294.305515,256.865000,69.026900
1303.700087,256.927000,19.675400
1313.241541,256.990000,56.372900
1322.778319,257.053000,-18.898720
1332.310423,257.116000,54.436420
1341.686664,257.178000,37.140160
1351.209505,257.241000,6.549550
1360.727683,257.304000,-98.787840
1370.090229,257.366000,-38.264660
1379.599165,257.429000,-33.988940
1388.952622,257.491000,-37.493900
1398.452329,257.554000,34.404930
1407.796710,257.616000,44.780560
1417.287202,257.679000,43.891610
1426.773053,257.742000,-7.134840
1436.103810,257.804000,15.916470
1445.580466,257.867000,29.441400
1454.902179,257.929000,37.592490
1464.369654,257.992000,22.055030
1473.682337,258.054000,40.407670
1482.990547,258.116000,-18.947420
1492.444310,258.179000,-6.558480
1501.743510,258.241000,46.722020
1511.188124,258.304000,-48.735560
1520.478327,258.366000,-11.234630
1529.764072,258.428000,-0.897970
1539.195025,258.491000,20.331130
1548.471792,258.553000,-27.691500
1557.744112,258.615000,-4.880020
1567.161432,258.678000,-13.508850
1576.424794,258.740000,4.084960
1585.683718,258.802000,-49.407290
1594.938206,258.864000,-48.699470
1604.337420,258.927000,-35.278510
1613.582976,258.989000,-30.114970
1622.824106,259.051000,-32.104530
1632.060814,259.113000,-21.227840
1641.293103,259.175000,1.259250
1650.669776,259.238000,-128.944470
1659.893165,259.300000,-10.256400
1669.112144,259.362000,-30.779830
1678.326716,259.424000,2.006640
1687.536886,259.486000,-40.298580
1696.742655,259.548000,-47.226810
1705.944027,259.610000,-1.930110
1715.141005,259.672000,14.069760
1724.333592,259.734000,31.657860
1733.521792,259.796000,33.308320
1742.705607,259.858000,28.033200
1751.885041,259.920000,14.830330
1761.060096,259.982000,37.401060
1770.230777,260.044000,-40.368910
1779.397086,260.106000,91.083460
1788.559026,260.168000,81.085120
1797.716600,260.230000,55.794130
1806.869812,260.292000,44.784110
1816.018664,260.354000,-19.662510
1825.163160,260.416000,63.582120
1834.155916,260.477000,23.389350
1843.291778,260.539000,3.263760
1852.423294,260.601000,-21.845330
1861.550466,260.663000,-31.216340
1870.673297,260.725000,-14.034060
1879.644752,260.786000,19.803620
1888.758980,260.848000,47.003120
1897.868877,260.910000,-48.431410
1906.974445,260.972000,47.515510
1915.928928,261.033000,11.934900
1925.025918,261.095000,20.695320
1934.118588,261.157000,22.419690
1943.060391,261.218000,-10.264840
1952.144502,261.280000,29.099560
1961.224302,261.342000,11.753640
1970.153451,261.403000,45.823040
1979.224710,261.465000,39.667530
1988.145460,261.526000,53.072020
1997.208190,261.588000,-52.870110
2006.120554,261.649000,-35.394890
2015.174766,261.711000,-37.940020
2024.078756,261.772000,-96.994290
2033.124461,261.834000,-66.972650
2042.020089,261.895000,-60.881440
2051.057301,261.957000,-30.587630
2059.944578,262.018000,-92.037300
2068.973308,262.080000,29.638460
2077.852245,262.141000,-51.778790
2086.872506,262.203000,-14.009300
2095.743116,262.264000,43.970830
2104.609601,262.325000,60.728300
2113.617214,262.387000,46.693390
2122.475388,262.448000,31.770080
2131.329447,262.509000,26.663200
2140.324438,262.571000,70.034930
2149.170203,262.632000,12.004630
2158.011861,262.693000,47.541690
2166.994257,262.755000,21.985280
2175.827640,262.816000,21.111340
2184.656923,262.877000,-39.763990
2193.482109,262.938000,-11.001850
2202.303202,262.999000,-33.914450
2211.264711,263.061000,-0.309300
2220.077557,263.122000,-5.791640
2228.886318,263.183000,5.854090
2237.690997,263.244000,12.256510
2246.491597,263.305000,-45.641370
2255.288119,263.366000,-45.198010
2264.080568,263.427000,26.713350
2272.868945,263.488000,-8.273090
2281.653255,263.549000,-51.915880
2290.577403,263.611000,11.621440
2299.353518,263.672000,-12.382960
2308.125573,263.733000,-62.504440
2316.893571,263.794000,-66.364800
2325.657515,263.855000,-37.852060
2334.273836,263.915000,-17.987690
2343.029746,263.976000,-58.520530
2351.781611,264.037000,10.788250
2360.529433,264.098000,26.204940
2369.273215,264.159000,20.662300
2378.012959,264.220000,-16.438510
2386.748669,264.281000,35.604070
2395.480347,264.342000,-34.409460
2404.207997,264.403000,-25.575570
2412.788642,264.463000,-30.717770
2421.508308,264.524000,4.461690
2430.223953,264.585000,27.833170
2438.935580,264.646000,-35.607350
2447.643192,264.707000,2.812700
2456.204142,264.767000,29.711840
2464.903798,264.828000,-54.437170
2473.599447,264.889000,-27.153370
2482.148639,264.949000,-9.209940
2490.836348,265.010000,0.106680
2499.520059,265.071000,-13.313530
2508.057516,265.131000,30.681980
2516.733303,265.192000,32.158360
2525.405101,265.253000,111.375890
2533.930847,265.313000,52.717150
2542.594737,265.374000,115.922690
2551.112712,265.434000,90.837980
2559.768705,265.495000,145.251220
2568.278918,265.555000,110.594170
2576.927027,265.616000,46.029560
2585.571164,265.677000,1.203020
2594.069722,265.737000,93.099930
2602.564444,265.797000,129.156420
2611.196813,265.858000,17.114440
2619.683805,265.918000,-58.862240
2628.308321,265.979000,3.050740
2636.787594,266.039000,-14.377140
2645.404268,266.100000,0.305680
2653.875831,266.160000,-8.550050
2662.343577,266.220000,-12.908310
2670.948539,266.281000,4.968980
2679.408591,266.341000,-16.982010
2687.864833,266.401000,31.138840
2696.458108,266.462000,-27.880650
2704.906672,266.522000,-17.798050
2713.351433,266.582000,-18.771390
2721.792393,266.642000,-41.507500
2730.370143,266.703000,-59.788800
2738.803447,266.763000,26.343930
2747.232958,266.823000,14.089400
2755.658679,266.883000,-41.092430
2764.220946,266.944000,6.089820
2772.639032,267.004000,-46.941580
2781.053334,267.064000,-15.405280
2789.463857,267.124000,6.935240
2797.870602,267.184000,27.887200
2806.273573,267.244000,160.638470
2814.672771,267.304000,56.932320
2823.068200,267.364000,13.537630
2831.459861,267.424000,36.852550
2839.847757,267.484000,-2.558940
2848.231891,267.544000,-4.801400
2856.612266,267.604000,-41.694470
2864.988884,267.664000,-23.857810
2873.361747,267.724000,-55.301290
2881.730857,267.784000,-56.494680
2890.096219,267.844000,38.944680
2898.457833,267.904000,44.258550
2906.815703,267.964000,10.468720
2915.169831,268.024000,-67.293190
2923.520219,268.084000,39.659950
2931.866870,268.144000,32.667780
2940.209787,268.204000,-4.061780
2948.410016,268.263000,-36.975360
2956.745534,268.323000,-20.267610
2965.077324,268.383000,12.077630
2973.405390,268.443000,-50.462360
2981.729735,268.503000,-25.955720
2989.911713,268.562000,-23.242520
2998.228682,268.622000,62.130640
3006.541937,268.682000,-5.433850
3014.851480,268.742000,-43.145200
3023.018913,268.801000,21.153490
3031.321101,268.861000,-23.227410
3039.619584,268.921000,-50.691040
3047.776149,268.980000,-19.074160
3056.067292,269.040000,-82.413260
3064.216644,269.099000,-53.365720
3072.500457,269.159000,-47.151250
3080.780577,269.219000,-0.316530
3088.919097,269.278000,-4.392350
3097.191901,269.338000,21.935240
3105.323232,269.397000,76.465760
3113.588730,269.457000,3.787780
3121.712881,269.516000,-8.931900
3129.971082,269.576000,-11.859120
3138.088063,269.635000,-50.843460
3146.338978,269.695000,24.704480
3154.448798,269.754000,-40.943160
3162.692435,269.814000,18.291790
3170.795104,269.873000,72.037700
3178.894231,269.932000,69.222130
3187.127001,269.992000,71.285500
3195.218991,270.051000,34.286420
3203.307445,270.110000,6.966450
3211.529370,270.170000,22.440740
3219.610701,270.229000,-9.800670
3227.688505,270.288000,-60.007220
3235.899605,270.348000,-28.368900
3243.970299,270.407000,-17.059240
3252.037473,270.466000,-79.199070
3260.101128,270.525000,-22.821040
3268.297848,270.585000,7.249860
3276.354413,270.644000,27.400730
3284.407466,270.703000,-15.073400
3292.457009,270.762000,-18.242970
3300.503044,270.821000,7.818080
3308.545575,270.880000,0.089480
3316.720828,270.940000,-22.171650
3324.756296,270.999000,-10.491690
3332.788267,271.058000,-27.553980
3340.816741,271.117000,-40.164260
3348.841722,271.176000,-29.263510
3356.863212,271.235000,14.987060
3364.881213,271.294000,-22.315150
3372.895727,271.353000,7.084510
3380.906756,271.412000,32.945830
3388.914304,271.471000,6.304460
3396.918371,271.530000,33.264870
3404.918961,271.589000,35.604030
3412.916076,271.648000,84.510140
3420.909718,271.707000,11.293040
3428.899888,271.766000,-1.760740
3436.886591,271.825000,-7.233050
3444.734546,271.883000,-5.947170
3452.714377,271.942000,-1.648740
3460.690746,272.001000,34.159010
3468.663655,272.060000,13.922320
3476.633107,272.119000,10.918890
3484.599104,272.178000,-2.808720
3492.426718,272.236000,-13.418510
3500.385870,272.295000,27.639990
3508.341573,272.354000,-44.664820
3516.293830,272.413000,-40.367070
3524.107947,272.471000,-27.362790
3532.053377,272.530000,-51.895000
3539.995368,272.589000,-22.804530
3547.799398,272.647000,6.238150
3555.734574,272.706000,-34.056060
3563.666318,272.765000,35.516730
3571.460282,272.823000,-43.358390
3579.385225,272.882000,-5.043750
3587.306741,272.941000,15.667860
3595.090658,272.999000,14.244260
3603.005387,273.058000,-5.118760
3610.782635,273.116000,11.368530
3618.690585,273.175000,10.108180
3626.461173,273.233000,-32.099510
3634.362353,273.292000,-61.214770
3642.126290,273.350000,-5.032770
3650.020708,273.409000,-42.481490
3657.778002,273.467000,-3.577450
3665.665667,273.526000,3.466930
3673.416327,273.584000,13.414900
3681.163701,273.642000,-27.354710
3689.041282,273.701000,-13.240210
3696.782035,273.759000,-14.090080
3704.652885,273.818000,-44.153800
3712.387025,273.876000,-68.596720
3720.117889,273.934000,10.186590
3727.845481,273.992000,-105.961930
3735.702951,274.051000,-18.703470
3743.423947,274.109000,-34.684250
3751.141676,274.167000,35.087070
3758.989119,274.226000,-48.270390
3766.700265,274.284000,-38.825330
3774.408150,274.342000,-28.632470
3782.112776,274.400000,-26.298090
3789.814146,274.458000,-40.677880
3797.644960,274.517000,-52.162440
3805.339767,274.575000,-40.248070
3813.031324,274.633000,-89.975900
3820.719634,274.691000,-45.017520
3828.404697,274.749000,13.468260
3836.086516,274.807000,-26.868520
3843.765093,274.865000,-4.581040
3851.440431,274.923000,15.345510
3859.112530,274.981000,-18.800900
3866.781394,275.039000,-5.127960
3874.447024,275.097000,-99.324730
3882.109423,275.155000,5.040810
3889.768591,275.213000,-27.414200
3897.424533,275.271000,-24.199940
3905.077248,275.329000,-2.051240
3912.726740,275.387000,-3.754200
3920.373011,275.445000,-16.535750
3928.016062,275.503000,-10.091850
3935.655896,275.561000,-8.619630
3943.292514,275.619000,-2.964110
3950.925919,275.677000,-3.879020
3958.424585,275.734000,-24.565710
3966.051625,275.792000,12.953750
3973.675457,275.850000,-31.786950
3981.296084,275.908000,-77.905540
3988.913508,275.966000,7.231470
3996.396478,276.023000,-22.900580
4004.007557,276.081000,-110.462920
4011.615438,276.139000,-12.082800
4019.220124,276.197000,37.884750
4026.690584,276.254000,-3.568560
4034.288940,276.312000,-1.237160
4041.884108,276.370000,-39.428160
4049.345219,276.427000,17.504260
4056.934068,276.485000,14.183330
4064.519735,276.543000,-0.554260
4071.971515,276.600000,-34.355280
4079.550876,276.658000,-29.625590
4086.996462,276.715000,40.799630
4094.569525,276.773000,-84.385850
4102.008927,276.830000,-98.771190
4109.575700,276.888000,-27.667000
4117.008923,276.945000,-33.496460
4124.569414,277.003000,-35.505790
4131.996467,277.060000,37.456070
4139.550684,277.118000,34.155690
4146.971575,277.175000,86.370820
4154.519525,277.233000,-0.480010
4161.934262,277.290000,293.128780
4169.475953,277.348000,13.516740
4228.011654,277.799000,14.744250
4235.396210,277.856000,-11.348100
4242.907211,277.914000,46.824110
4250.415077,277.972000,25.493410
4257.790445,278.029000,-23.155720
4265.292102,278.087000,21.297420
4272.790631,278.145000,35.883830
4280.156828,278.202000,11.240850
4287.649159,278.260000,78.007960
4295.138368,278.318000,93.631210
4302.495411,278.375000,54.965330
4309.978434,278.433000,41.987350
4317.329402,278.490000,6.562580
4324.806246,278.548000,18.228500
4332.151147,278.605000,67.254120
4339.621821,278.663000,12.126390
4346.960661,278.720000,32.965370
4354.425172,278.778000,1.120010
4361.757959,278.835000,-37.653150
4369.216314,278.893000,-93.896970
4376.543056,278.950000,-51.710570
4383.995264,279.008000,-53.100300
4391.315968,279.065000,-62.086860
4398.762036,279.123000,-113.442040
4406.076709,279.180000,-64.659850
4413.516644,279.238000,22.955180
4420.825295,279.295000,-43.067360
4428.130962,279.352000,-6.931920
4435.561740,279.410000,-13.874990
4442.861395,279.467000,22.085400
4450.158074,279.524000,3.108330
4457.579711,279.582000,2.522640
4464.870389,279.639000,37.776790
4472.158095,279.696000,10.563560
4479.570607,279.754000,-5.514250
4486.852324,279.811000,-39.090620
4494.131074,279.868000,10.091570
4501.534479,279.926000,0.518840
4508.807251,279.983000,-34.094170
4516.077062,280.040000,-1.404640
4523.343914,280.097000,-8.405000
4530.735220,280.155000,15.635640
4537.996108,280.212000,-13.310580
4545.254043,280.269000,-5.227590
4552.509026,280.326000,14.095150
4559.888262,280.384000,77.955910
4567.137295,280.441000,45.798980
4574.383383,280.498000,29.401230
4581.626526,280.555000,-2.210590
4588.866727,280.612000,-28.635170
4596.103987,280.669000,9.405290
4603.338308,280.726000,11.142630
4610.696532,280.784000,15.256550
4617.924929,280.841000,32.653860
4625.150392,280.898000,5.026760
4632.372923,280.955000,-7.810140
4639.592525,281.012000,31.846370
4646.809198,281.069000,6.380540
4654.022945,281.126000,34.724030
4661.233767,281.183000,5.826430
4668.441666,281.240000,37.843980
4675.646644,281.297000,-3.736110
4682.848703,281.354000,20.105150
4690.047844,281.411000,8.735600
4697.244070,281.468000,23.310650
4704.437381,281.525000,-47.729810
4711.627780,281.582000,51.230600
4718.815269,281.639000,15.410730
4725.999849,281.696000,90.885430
4733.181522,281.753000,-4.368700
4740.360290,281.810000,1.973430
4747.536154,281.867000,13.496890
4754.583300,281.923000,28.476200
4761.753414,281.980000,67.384320
4768.920629,282.037000,8.130850
4776.084949,282.094000,26.208090
4783.246373,282.151000,-7.384270
4790.404904,282.208000,20.995430
4797.435032,282.264000,-23.251710
4804.587834,282.321000,-48.606760
4811.737748,282.378000,-7.681180
4818.884776,282.435000,-14.308560
4826.028920,282.492000,18.765090
4833.044920,282.548000,-30.952640
4840.183352,282.605000,-9.398780
4847.318904,282.662000,-32.354990
4854.451579,282.719000,-9.229790
4861.456319,282.775000,-17.156380
4868.583295,282.832000,44.030890
4875.707399,282.889000,50.505680
4882.703723,282.945000,20.413620
4889.822139,283.002000,-57.992050
4896.937687,283.059000,20.130200
4903.925611,283.115000,2.835190
4911.035481,283.172000,-53.597720
4918.142490,283.229000,-9.454070
4925.122029,283.285000,-34.692250
4932.223369,283.342000,-19.277440
4939.197342,283.398000,-144.039110
4946.293021,283.455000,8.985170
4953.385847,283.512000,-91.934570
4960.351460,283.568000,-37.192690
4967.438635,283.625000,-47.083690
4974.398699,283.681000,-49.704580
4981.480229,283.738000,-52.506490
4988.434752,283.794000,-2.579960
4995.510644,283.851000,50.059220
5002.459631,283.907000,-29.269280
5009.529893,283.964000,-121.327340
5016.473351,284.020000,-75.431200
5023.537988,284.077000,-59.541790
5030.475924,284.133000,-45.049460
5037.534943,284.190000,-51.026970
5044.467363,284.246000,-84.288840
5051.397052,284.302000,-38.739410
5058.447683,284.359000,-31.555820
5065.371866,284.415000,25.991040
5072.416896,284.472000,79.020230
5079.335580,284.528000,-13.041190
5086.251541,284.584000,-6.564750
5093.288207,284.641000,62.873540
5100.198678,284.697000,33.014050
5107.106432,284.753000,18.683880
5114.134748,284.810000,34.447850
5121.037022,284.866000,7.358260
5127.936582,284.922000,49.626140
5134.833431,284.978000,-17.507500
5141.850655,285.035000,-0.325310
5148.742037,285.091000,-36.929320
5155.630712,285.147000,-32.670060
5162.516682,285.203000,22.953680
5169.522840,285.260000,51.984480
5176.403356,285.316000,32.873350
5183.281172,285.372000,93.683450
5190.156289,285.428000,66.351720
5197.028709,285.484000,40.835430
5204.021082,285.541000,-12.127220
5210.888064,285.597000,-14.923240
5217.752353,285.653000,-33.342890
5224.613952,285.709000,-28.206840
5231.472862,285.765000,-21.022920
5238.329083,285.821000,-53.322500
5245.182619,285.877000,33.140330
5252.033470,285.933000,74.597050
5258.881638,285.989000,27.211270
5265.727125,286.045000,16.157020
5272.569932,286.101000,81.033590
5279.532182,286.158000,107.198760
5286.369586,286.214000,18.102950
5293.204315,286.270000,79.236860
5300.036371,286.326000,83.742550
5306.865755,286.382000,139.705540
5313.692468,286.438000,39.744980
5320.516513,286.494000,21.073140
5327.216104,286.549000,-8.990790
5334.034863,286.605000,12.171320
5340.850958,286.661000,42.340420
5347.664391,286.717000,-37.367070
5354.475163,286.773000,57.587380
5361.283275,286.829000,42.124760
5368.088729,286.885000,1.188460
5374.891528,286.941000,21.043800
5381.691671,286.997000,-40.556770
5388.489161,287.053000,48.111270
5395.162686,287.108000,0.421010
5401.954922,287.164000,-15.062870
5408.744509,287.220000,5.865950
5415.531448,287.276000,10.832550
5422.315743,287.332000,-11.157640
5428.976316,287.387000,-24.702180
5435.755371,287.443000,55.789330
5442.531785,287.499000,63.977570
5449.305560,287.555000,6.317310
5456.076697,287.611000,-6.080800
5462.724355,287.666000,58.823370
5469.490268,287.722000,91.609010
5476.253548,287.778000,83.153880
5482.893494,287.833000,57.681090
5489.651559,287.889000,36.941220
5496.406995,287.945000,58.759520
5503.039242,288.000000,43.436600
5509.789473,288.056000,41.387340
5516.537079,288.112000,-2.971320
5523.161640,288.167000,-58.755450
5529.904050,288.223000,-112.058050
5536.643840,288.279000,-106.316620
5543.260729,288.334000,-67.748560
5549.995332,288.390000,11.060410
5556.607128,288.445000,-65.693960
5563.336549,288.501000,-19.861940
5569.943259,288.556000,-17.538250
5576.667504,288.612000,22.775560
5583.269134,288.667000,-37.721960
5589.988209,288.723000,47.947890
5596.584764,288.778000,-68.111920
5603.298676,288.834000,-94.602190
5609.890162,288.889000,-49.222140
5616.598916,288.945000,-88.026710
5623.185340,289.000000,-15.296870
5629.888941,289.056000,11.073280
5636.470308,289.111000,31.595890
5643.168763,289.167000,-11.120740
5649.745079,289.222000,8.628940
5656.438394,289.278000,31.236540
5663.009664,289.333000,-34.668220
5669.578437,289.388000,43.318190
5676.264076,289.444000,10.216310
5682.827812,289.499000,-27.048090
5689.389054,289.554000,-16.658450
5696.067030,289.610000,-15.854070
5702.623244,289.665000,-62.867710
5709.176969,289.720000,27.058650
5715.847296,289.776000,1.544360
5722.396001,289.831000,-34.654240
5728.942221,289.886000,-13.084710
5735.485958,289.941000,40.562180
5742.146122,289.997000,12.684530
5748.684850,290.052000,16.229920
5755.221100,290.107000,43.478440
5761.754871,290.162000,53.730490
5768.404894,290.218000,28.722590
5774.933669,290.273000,9.179850
5781.459971,290.328000,59.550680
5787.983800,290.383000,24.599900
5794.505158,290.438000,32.183400
5801.142550,290.494000,1.633270
5807.658926,290.549000,80.496030
5814.172835,290.604000,62.018260
5820.684279,290.659000,15.353460
5827.193260,290.714000,40.646020
5833.699778,290.769000,-8.982060
5840.203835,290.824000,6.540160
5846.705432,290.879000,11.705410
5853.204572,290.934000,-34.470230
5859.701254,290.989000,25.696270
5866.195481,291.044000,48.842610
5872.687254,291.099000,27.625070
5879.176574,291.154000,-8.374660
5885.663444,291.209000,41.655040
5892.147863,291.264000,13.875180
5898.629834,291.319000,25.014630
5905.109357,291.374000,23.915840
5911.586435,291.429000,-17.516120
5918.061069,291.484000,20.351830
5924.533260,291.539000,-2.064600
5931.003009,291.594000,-47.628390
5937.470318,291.649000,-100.474930
5943.935188,291.704000,-59.431290
5950.397621,291.759000,-18.908530
5956.857618,291.814000,-70.048460
5963.315180,291.869000,28.148830
5969.770309,291.924000,-33.529170
5976.105706,291.978000,-8.396900
5982.556017,292.033000,18.696720
5989.003898,292.088000,-89.138530
5995.449352,292.143000,16.334720
6001.892379,292.198000,-11.007190
6008.215901,292.252000,-24.538890
6014.654123,292.307000,-65.327070
6021.089923,292.362000,-45.520740
6027.523303,292.417000,33.723460
6033.954262,292.472000,30.807790
6040.265942,292.526000,-4.800370
6046.692111,292.581000,54.772050
6053.115864,292.636000,-7.786880
6059.420472,292.690000,23.317570
6065.839442,292.745000,-35.143400
6072.256000,292.800000,-39.373030
6078.553548,292.854000,28.250200
6084.965331,292.909000,10.398920
6091.374707,292.964000,-4.740040
6097.665207,293.018000,-38.903510
6104.069816,293.073000,-14.461520
6110.472021,293.128000,-56.946320
6116.755485,293.182000,-43.561310
6123.152931,293.237000,-67.576080
6129.431725,293.291000,-9.563040
6135.824417,293.346000,-35.945030
6142.098547,293.400000,-5.426410
6148.486490,293.455000,25.432200
6154.872040,293.510000,-41.038460
6161.139160,293.564000,-31.113220
6167.519969,293.619000,-8.978650
6173.782438,293.673000,7.704710
6180.158512,293.728000,5.885010
6186.416334,293.782000,83.876190
6192.787678,293.837000,-27.202500
6199.040859,293.891000,17.945780
6205.291742,293.945000,-28.253950
6211.656022,294.000000,-41.328090
6217.902272,294.054000,-15.068590
6224.261835,294.109000,-48.098510
6230.503456,294.163000,-10.457950
6236.742786,294.217000,-68.652290
6243.095305,294.272000,43.209990
6249.330014,294.326000,-41.056420
6255.677829,294.381000,63.509330
6261.907923,294.435000,-45.820510
6268.135731,294.489000,-22.696010
6274.476522,294.544000,-11.121170
6280.699722,294.598000,-6.117860
6286.920642,294.652000,-1.378220
6293.139281,294.706000,61.248140
6299.470739,294.761000,38.998750
6305.684781,294.815000,15.463590
6311.896546,294.869000,-27.340460
6318.106037,294.923000,-31.965370
6324.428182,294.978000,15.670910
6330.633085,295.032000,-31.874150
6336.835717,295.086000,39.917480
6343.036080,295.140000,-54.862560
6349.234174,295.194000,58.066190
6355.544717,295.249000,0.775170
6361.738236,295.303000,74.264290
6367.929490,295.357000,32.443250
6374.118480,295.411000,8.325580
6380.305209,295.465000,45.664570
6386.489676,295.519000,33.146470
6392.671884,295.573000,51.792120
6398.851833,295.627000,-48.810250
6405.143905,295.682000,-13.833990
6411.319300,295.736000,27.336600
6417.492439,295.790000,16.531210
6423.663325,295.844000,-2.126310
6429.831958,295.898000,-4.898650
6435.998340,295.952000,-49.572460
6442.162473,296.006000,-82.775710
6448.324357,296.060000,-88.608450
6454.483993,296.114000,-11.900710
6460.641384,296.168000,-14.361070
6466.796529,296.222000,-36.431050
6472.949431,296.276000,-115.770990
6479.100090,296.330000,-21.040930
6485.248508,296.384000,-33.995520
6491.280888,296.437000,-26.459260
6497.424869,296.491000,-21.672930
6503.566612,296.545000,-25.505650
6509.706118,296.599000,-91.983350
6515.843390,296.653000,49.168230
6521.978427,296.707000,17.703110
6528.111232,296.761000,40.945070
6534.241805,296.815000,24.298700
6540.256681,296.868000,20.412340
6546.382836,296.922000,-44.093670
6552.506763,296.976000,22.891020
6558.628464,297.030000,-10.142550
6564.747939,297.084000,-55.128900
6570.751928,297.137000,-3.536490
6576.866997,297.191000,-7.511410
6582.979845,297.245000,25.246630
6589.090471,297.299000,-25.451760
6595.085780,297.352000,-37.039600
6601.192010,297.406000,5.676460
6607.296023,297.460000,-0.926940
6613.397821,297.514000,-11.828810
6619.384468,297.567000,-41.125850
6625.481879,297.621000,-6.311220
6631.577077,297.675000,-60.681620
6637.557251,297.728000,30.928630
6643.648069,297.782000,15.111140
6649.623947,297.835000,-38.091270
6655.710390,297.889000,11.529930
6661.794627,297.943000,-37.949870
6667.764048,297.996000,-62.551380
6673.843917,298.050000,40.272800
6679.809053,298.103000,-0.597310
6685.884559,298.157000,0.540600
6691.957864,298.211000,56.735910
6697.916562,298.264000,-16.118550
6703.985510,298.318000,-33.782150
6709.939935,298.371000,-106.679740
6716.004532,298.425000,-7.779950
6721.954688,298.478000,-88.350630
6728.014938,298.532000,-63.354040
6733.960830,298.585000,-59.960900
6739.904611,298.638000,-84.206150
6745.958369,298.692000,-36.853470
6751.897893,298.745000,3.660160
6757.947317,298.799000,50.077960
6763.882588,298.852000,-7.548820
6769.927680,298.906000,-8.968410
6775.858703,298.959000,-20.387910
6781.787624,299.012000,-27.105860
6787.826249,299.066000,-25.535820
6793.750928,299.119000,20.426130
6799.673508,299.172000,26.632070
6805.705677,299.226000,43.637120
6811.624022,299.279000,23.124830
6817.540272,299.332000,6.892240
6823.565994,299.386000,23.457130
6829.478016,299.439000,-14.165830
6835.387945,299.492000,5.981860
6841.407231,299.546000,-32.320320
6847.312940,299.599000,31.313310
6853.216559,299.652000,-26.999100
6859.118090,299.705000,-18.765710
6865.017534,299.758000,3.153270
6871.026143,299.812000,43.876970
6876.921378,299.865000,-12.844860
6882.814529,299.918000,8.159490
6888.705597,299.971000,28.045130
6894.594584,300.024000,-5.994950
6900.592545,300.078000,9.850450
6906.477333,300.131000,-31.887550
6912.360044,300.184000,-64.690180
6918.240677,300.237000,20.493040
6924.119235,300.290000,9.996260
6929.995718,300.343000,28.268770
6935.870127,300.396000,14.585710
6941.742464,300.449000,54.384030
6947.612730,300.502000,45.258770
6953.480925,300.555000,6.730210
6959.347051,300.608000,29.098360
6965.211108,300.661000,-145.884130
6971.073099,300.714000,12.710640
6976.933024,300.767000,31.790210
6982.790884,300.820000,-42.413580
6988.646680,300.873000,45.776690
6994.500413,300.926000,80.490440
7000.352085,300.979000,64.895090
7006.201696,301.032000,-46.806270
7012.049248,301.085000,-11.508030
7017.894742,301.138000,-9.527210
7023.738178,301.191000,30.502620
7029.579559,301.244000,-21.310500
7035.418884,301.297000,-24.389570
7041.256155,301.350000,-42.811050
7047.091373,301.403000,38.239180
7052.924539,301.456000,13.161950
7058.645653,301.508000,-16.696160
7064.474758,301.561000,6.322860
7070.301814,301.614000,-11.966230
7076.126822,301.667000,-47.185900
7081.949784,301.720000,-20.740880
7087.660892,301.772000,-18.763980
7093.479803,301.825000,16.367220
7099.296670,301.878000,6.262130
7105.111496,301.931000,-19.947070
7110.814624,301.983000,-2.068180
7116.625408,302.036000,-18.281330
7122.434152,302.089000,-14.787120
7128.240858,302.142000,-6.333700
7133.936024,302.194000,20.104140
7139.738696,302.247000,14.376740
7145.539334,302.300000,12.967760
7151.228549,302.352000,61.076720
7157.025159,302.405000,-3.076030
7162.819737,302.458000,24.599800
7168.503010,302.510000,-3.123550
7174.293567,302.563000,-6.078730
7180.082095,302.616000,0.101690
7185.759436,302.668000,-1.454830
7191.543949,302.721000,28.361280
7197.217352,302.773000,15.388730
7202.997854,302.826000,6.271150
7208.667324,302.878000,1.752360
7214.443819,302.931000,-66.350780
7220.109360,302.983000,1.834350
7225.881853,303.036000,-19.331040
7231.543468,303.088000,-27.625070
7237.311962,303.141000,55.041250
7242.969657,303.193000,-20.421950
7248.734156,303.246000,7.202650
7254.387934,303.298000,19.707610
7260.148443,303.351000,114.741690
7265.798308,303.403000,0.392350
7271.554831,303.456000,37.089300
7277.200787,303.508000,8.107950
7282.953328,303.561000,-51.700100
7288.595379,303.613000,-10.047500
7294.235498,303.665000,-4.694950
7299.982093,303.718000,-1.999220
7305.618313,303.770000,-34.309990
7311.252604,303.822000,-55.579430
7316.993262,303.875000,46.147390
7322.623660,303.927000,52.430960
7328.252131,303.979000,12.370770
7333.986862,304.032000,8.977940
7339.611446,304.084000,19.683480
7345.234108,304.136000,-6.108940
7350.962920,304.189000,15.216650
7356.581700,304.241000,32.359540
7362.198561,304.293000,86.756970
7367.813502,304.345000,27.230190
7373.426525,304.397000,11.895130
7379.145517,304.450000,-44.838330
7384.754669,304.502000,-61.458080
7390.361906,304.554000,7.572740
7395.967228,304.606000,25.713420
7401.570637,304.658000,3.235250
7407.279836,304.711000,28.935520
7412.879384,304.763000,-5.944220
7418.477021,304.815000,22.033260
7424.072749,304.867000,49.604850
7429.666569,304.919000,-19.802480
7435.258480,304.971000,-15.589100
7440.848486,305.023000,2.660300
7446.436585,305.075000,3.243850
7452.022780,305.127000,-12.285290
7457.607071,305.179000,-24.403910
7463.296795,305.232000,38.241670
7468.877245,305.284000,-8.108210
7474.455794,305.336000,-46.584270
7480.032444,305.388000,76.838410
7485.607195,305.440000,9.231250
7491.180048,305.492000,-37.799050
7496.751004,305.544000,-14.654470
7502.212985,305.595000,10.997330
7507.780187,305.647000,-6.375550
7513.345495,305.699000,7.722070
7518.908909,305.751000,34.387500
7524.470432,305.803000,-27.174590
7530.030064,305.855000,-9.779330
7535.587805,305.907000,-24.057550
7541.143658,305.959000,22.782690
7546.697622,306.011000,9.504830
7552.249699,306.063000,11.673530
7557.693173,306.114000,-6.503360
7563.241514,306.166000,-1.174400
7568.787971,306.218000,-6.539260
7574.332545,306.270000,33.497100
7579.875237,306.322000,38.209410
7585.416047,306.374000,4.955680
7590.848476,306.425000,72.305930
7596.385562,306.477000,-14.847080
7601.920769,306.529000,-164.674580
7607.454098,306.581000,26.272580
7612.879195,306.632000,15.703650
7618.408808,306.684000,-2.256220
7623.936546,306.736000,-26.677300
7629.462411,306.788000,12.711500
7634.880189,306.839000,-6.900440
7640.402345,306.891000,78.220500
7645.922629,306.943000,-31.333170
7651.334938,306.994000,-58.648740
7656.851519,307.046000,55.546160
7662.260197,307.097000,-27.113300
7667.773079,307.149000,-4.838410
7673.284094,307.201000,-14.567650
7678.687317,307.252000,6.694060
7684.194638,307.304000,-49.837270
7689.700096,307.356000,-33.017160
7695.097870,307.407000,14.112940
7700.599639,307.459000,14.471030
7705.993798,307.510000,62.532790
7711.491883,307.562000,23.740600
7716.882430,307.613000,-16.764260
7722.376833,307.665000,-19.206860
7727.763772,307.716000,18.083710
7733.254498,307.768000,-28.270380
7738.637831,307.819000,71.094520
7744.124884,307.871000,44.131900
7749.504617,307.922000,5.624380
7754.988000,307.974000,61.532790
7760.364134,308.025000,18.885780
7765.738489,308.076000,-18.587980
7771.216392,308.128000,-2.410080
7776.587155,308.179000,65.862400
7782.061397,308.231000,24.807100
7787.428571,308.282000,49.803960
7792.793970,308.333000,-18.215970
7798.262745,308.385000,1.461280
7803.624561,308.436000,23.511910
7808.984603,308.487000,-33.853570
7814.447920,308.539000,-21.447350
7819.804385,308.590000,67.425830
7825.159080,308.641000,39.089610
7830.616947,308.693000,29.311350
7835.968069,308.744000,5.884680
7841.317424,308.795000,-14.505110
7846.665012,308.846000,20.341290
7852.115636,308.898000,34.036150
7857.459659,308.949000,-50.069530
7862.801917,309.000000,-23.783830
7868.142413,309.051000,-0.713010
7873.481146,309.102000,21.221400
7878.922746,309.154000,-25.833240
7884.257923,309.205000,5.139500
7889.591340,309.256000,-33.537990
7894.922998,309.307000,-2.505880
7900.252898,309.358000,7.833740
7905.581041,309.409000,-51.876890
7910.907428,309.460000,-1.399460
7916.336447,309.512000,-32.692430
7921.659290,309.563000,-1.028390
7926.980379,309.614000,-58.881790
7932.299715,309.665000,-21.714520
7937.617300,309.716000,1.375930
7942.933134,309.767000,50.236510
7948.247217,309.818000,1.268900
7953.559551,309.869000,28.261570
7958.870137,309.920000,-15.443910
7964.178976,309.971000,36.629430
7969.486068,310.022000,35.397900
7974.791414,310.073000,41.847290
7980.095015,310.124000,1.721930
7985.396872,310.175000,8.567640
7990.696985,310.226000,13.667690
7995.995357,310.277000,-19.222710
8001.291987,310.328000,39.560900
8006.586876,310.379000,-35.935320
8011.880026,310.430000,-26.658890
8017.067700,310.480000,-50.132130
8022.357406,310.531000,32.240990
8027.645376,310.582000,18.666860
8032.931609,310.633000,-54.136850
8038.216106,310.684000,28.548660
8043.498869,310.735000,-6.072490
8048.779898,310.786000,35.894760
8053.955695,310.836000,31.548950
8059.233293,310.887000,38.329570
8064.509160,310.938000,-18.970790
8069.783296,310.989000,6.132510
8074.952339,311.039000,-11.169250
8080.223051,311.090000,-56.292530
8085.492035,311.141000,-19.780330
8090.759292,311.192000,24.455240
8095.921594,311.242000,-18.169220
8101.185433,311.293000,35.103260
8106.447548,311.344000,33.365590
8111.604811,311.394000,38.446540
8116.863513,311.445000,25.274880
8122.120493,311.496000,138.690030
8127.272724,311.546000,13.810590
8132.526297,311.597000,-22.109680
8137.778150,311.648000,-45.006410
8142.925357,311.698000,-7.035370
8148.173807,311.749000,-79.419840
8153.420541,311.800000,-86.443030
8158.562731,311.850000,-18.003210
8163.806066,311.901000,-60.564160
8168.944927,311.951000,-15.952300
8174.184869,312.002000,13.959450
8179.320403,312.052000,17.389440
8184.556953,312.103000,-23.821410
8189.689165,312.153000,-15.847430
8194.922327,312.204000,-63.776980
8200.051219,312.254000,-23.041450
8205.280996,312.305000,-25.484570
8210.406572,312.355000,-111.173880
8215.632968,312.406000,-133.188010
8220.755230,312.456000,-40.222390
8225.978248,312.507000,-31.869450
8231.097200,312.557000,39.417670
8236.316843,312.608000,-2.286840
8241.432488,312.658000,55.923760
8246.546497,312.708000,34.435060
8251.761101,312.759000,10.915620
8256.871808,312.809000,0.953730
8261.980881,312.859000,32.441120
8267.190453,312.910000,17.738090
8272.296229,312.960000,-27.438910
8277.400373,313.010000,-25.055150
8282.604921,313.061000,-37.831310
8287.705773,313.111000,-2.494270
8292.804996,313.161000,5.737680
8298.004526,313.212000,-19.297560
8303.100462,313.262000,37.570270
8308.194770,313.312000,24.475010
8313.287453,313.362000,20.757170
8318.480316,313.413000,34.423160
8323.569717,313.463000,-62.161110
8328.657496,313.513000,-5.168050
8333.743651,313.563000,-56.007060
8338.828185,313.613000,-19.421370
8344.012739,313.664000,-3.854250
8349.094000,313.714000,72.634900
8354.173640,313.764000,13.490190
8359.251662,313.814000,2.077980
8364.328066,313.864000,-1.027960
8369.402853,313.914000,-2.169150
8374.476024,313.964000,0.339080
8379.547579,314.014000,5.167620
8384.718901,314.065000,24.781180
8389.787195,314.115000,8.195710
8394.853876,314.165000,10.085200
8399.918944,314.215000,4.867640
8404.982400,314.265000,38.731740
8410.044246,314.315000,13.084740
8415.104481,314.365000,-96.807060
8420.163107,314.415000,13.952120
8425.220124,314.465000,-13.673390
8430.275533,314.515000,-28.913060
8435.329336,314.565000,-24.270030
8440.381532,314.615000,54.067770
8445.432122,314.665000,22.566450
8450.481107,314.715000,0.928380
8455.528489,314.765000,-29.025840
8460.473367,314.814000,-50.580560
8465.517575,314.864000,50.430000
8470.560181,314.914000,-9.721770
8475.601186,314.964000,0.584530
8480.640590,315.014000,-31.189300
8485.678395,315.064000,-28.760250
8490.714602,315.114000,-9.815760
8495.749210,315.164000,16.761750
8500.681577,315.213000,-15.267490
8505.713024,315.263000,-46.107730
8510.742875,315.313000,-10.170270
8515.771131,315.363000,30.664500
8520.797793,315.413000,61.283170
8525.722375,315.462000,-42.827610
8530.745883,315.512000,-76.649230
8535.767799,315.562000,-4.206540
8540.788124,315.612000,-4.306370
8545.706499,315.661000,-4.153380
8550.723675,315.711000,9.652540
8555.739262,315.761000,-9.894650
8560.652997,315.810000,8.844270
8565.665441,315.860000,-3.040720
8570.676298,315.910000,34.662790
8575.585399,315.959000,20.718530
8580.593116,316.009000,31.909790
8585.599249,316.059000,-68.325310
8590.503723,316.108000,-65.720000
8595.506721,316.158000,-3.355750
8600.508137,316.208000,-22.856320
8605.407991,316.257000,-11.498880
8610.406276,316.307000,-61.633030
8615.303063,316.356000,-16.265930
8620.298221,316.406000,51.377840
8625.191944,316.455000,3.952310
8630.183977,316.505000,22.085900
8635.074640,316.554000,4.276360
8640.063551,316.604000,34.152830
8644.951156,316.653000,8.046640
8649.936949,316.703000,310.467810
8654.821499,316.752000,339.839590
8659.804175,316.802000,301.817090
8664.685673,316.851000,191.828420
8669.665237,316.901000,51.492040
8674.543685,316.950000,73.266380
8679.520139,317.000000,105.533720
8684.395541,317.049000,62.664380
8689.269436,317.098000,95.329480
8694.241247,317.148000,92.673420
8699.112100,317.197000,52.429530
8703.981448,317.246000,57.491280
8708.948621,317.296000,27.717370
8713.814931,317.345000,6.458270
8718.779005,317.395000,27.502890
8723.642281,317.444000,0.741480
8728.504055,317.493000,-66.750250
8733.364329,317.542000,2.770110
8738.322247,317.592000,-14.555690
8743.179491,317.641000,5.760170
8748.035237,317.690000,95.296050
8752.889486,317.739000,32.062950
8757.841258,317.789000,30.753110
8762.692483,317.838000,3.599410
8767.542212,317.887000,5.368260
8772.390446,317.936000,24.668050
8777.336084,317.986000,-14.214490
8782.181300,318.035000,-43.142170
8787.025024,318.084000,30.328840
8791.867255,318.133000,-68.522130
8796.707995,318.182000,-76.156710
8801.547244,318.231000,35.076420
8806.385003,318.280000,-9.093310
8811.319957,318.330000,-81.326610
8816.154708,318.379000,-9.361360
8820.987971,318.428000,-53.793090
8825.819746,318.477000,30.186500
8830.650035,318.526000,89.943450
8835.478838,318.575000,47.120070
8840.306156,318.624000,62.360450
8845.131990,318.673000,-52.484030
8849.956339,318.722000,-0.471770
8854.779206,318.771000,7.627640
8859.600590,318.820000,-23.836800
8864.420492,318.869000,-12.436780
8869.238913,318.918000,28.051620
8874.055854,318.967000,47.897750
8878.871314,319.016000,-11.955700
8883.685296,319.065000,-57.297380
8888.497800,319.114000,-73.038080
8893.308826,319.163000,-36.853380
8898.118374,319.212000,-27.354410
8902.926447,319.261000,-39.581990
8907.634964,319.309000,10.323610
8912.440116,319.358000,-7.433910
8917.243794,319.407000,6.039680
8922.045998,319.456000,77.466170
8926.846729,319.505000,-5.052730
8931.645988,319.554000,37.585370
8936.443775,319.603000,64.472470
8941.142222,319.651000,17.269950
8945.937098,319.700000,3.627650
8950.730504,319.749000,13.069110
8955.522441,319.798000,30.067760
8960.215161,319.846000,-21.024670
8965.004192,319.895000,45.451020
8969.791757,319.944000,-32.684780
8974.577855,319.993000,-59.365370
8979.264858,320.041000,29.074490
8984.048055,320.090000,-18.616080
8988.829789,320.139000,59.040000
8993.512517,320.187000,28.479300
8998.291355,320.236000,18.810040
9003.068730,320.285000,56.680320
9007.747190,320.333000,-47.479220
9012.521672,320.382000,-24.209590
9017.294694,320.431000,-29.967030
9021.968893,320.479000,57.142050
9026.739026,320.528000,23.761270
9031.410396,320.576000,-8.474820
9036.177644,320.625000,-5.432440
9040.943434,320.674000,28.686950
9045.610552,320.722000,28.897160
9050.373460,320.771000,19.841600
9055.037756,320.819000,58.111290
9059.797784,320.868000,1.536270
9064.459261,320.916000,-34.674770
9069.216413,320.965000,55.018040
9073.875072,321.013000,-34.812300
9078.629350,321.062000,49.853710
9083.285194,321.110000,9.338150
9088.036601,321.159000,49.920720
9092.689634,321.207000,43.698610
9097.438171,321.256000,31.589780
9102.088394,321.304000,69.659100
9106.737229,321.352000,24.844810
9111.481482,321.401000,1.828540
9116.127511,321.449000,51.805400
9120.868902,321.498000,-12.132620
9125.512128,321.546000,39.504780
9130.153968,321.594000,106.315310
9134.891085,321.643000,14.179080
9139.530126,321.691000,-18.693110
9144.167783,321.739000,7.590530
9148.900630,321.788000,-11.079070
9153.535492,321.836000,23.809550
9158.168971,321.884000,32.047490
9162.801069,321.932000,-60.042610
9167.528244,321.981000,71.949140
9172.157551,322.029000,7.221190
9176.785479,322.077000,27.447740
9181.412027,322.125000,-50.414160
9186.133540,322.174000,-112.692730
9190.757302,322.222000,4.370080
9195.379688,322.270000,-1.043510
9200.000697,322.318000,50.635390
9204.620330,322.366000,50.173290
9209.334786,322.415000,29.333180
9213.951640,322.463000,49.086070
9218.567119,322.511000,-55.001900
9223.181225,322.559000,4.202000
9227.793957,322.607000,18.908730
9232.405318,322.655000,10.811260
9237.015306,322.703000,9.439980
9241.623923,322.751000,61.574110
9246.231170,322.799000,23.653720
9250.932988,322.848000,41.896280
9255.537466,322.896000,35.196740
9260.140576,322.944000,37.785920
9264.742318,322.992000,51.262160
9269.342693,323.040000,-9.157090
9273.941700,323.088000,-48.033930
9278.539341,323.136000,-15.695640
9283.135616,323.184000,-19.108330
9287.730527,323.232000,38.945600
9292.324072,323.280000,15.238330
9296.916254,323.328000,33.332360
9301.411445,323.375000,68.415820
9306.000929,323.423000,-8.727690
9310.589052,323.471000,75.269350
9315.175812,323.519000,145.899840
9319.761212,323.567000,7.178560
9324.345252,323.615000,-37.063700
9328.927932,323.663000,69.473890
9333.509253,323.711000,-30.446620
9338.089216,323.759000,-4.146160
9342.572447,323.806000,25.044990
9347.149722,323.854000,29.919020
9351.725642,323.902000,7.287770
9356.300205,323.950000,94.990210
9360.873412,323.998000,-45.808240
9365.350032,324.045000,-21.533940
9369.920559,324.093000,67.657810
9374.489732,324.141000,-20.035730
9379.057552,324.189000,-24.716360
9383.528899,324.236000,3.879400
9388.094043,324.284000,62.626260
9392.657836,324.332000,-8.140010
9397.125241,324.379000,-38.134790
9401.686361,324.427000,-14.700820
9406.246132,324.475000,-66.975490
9410.804554,324.523000,-42.360520
9415.266702,324.570000,-57.580370
9419.822456,324.618000,-10.159720
9424.281993,324.665000,6.977050
9428.835082,324.713000,-4.342990
9433.386824,324.761000,63.522230
9437.842435,324.808000,62.318970
9442.391516,324.856000,89.872240
9446.844521,324.903000,6.073030
9451.390942,324.951000,-1.833060
9455.936020,324.999000,33.942160
9460.385108,325.046000,44.497600
9464.927530,325.094000,3.308940
9469.374018,325.141000,-48.342770
9473.913786,325.189000,-35.894070
9478.357677,325.236000,-39.210760
9482.894794,325.284000,-13.432920
9487.336090,325.331000,5.670910
9491.870557,325.379000,-7.427580
9496.309260,325.426000,6.394360
9500.746681,325.473000,2.559430
9505.277193,325.521000,-12.202840
9509.712024,325.568000,-15.695610
9514.239893,325.616000,-79.382400
9518.672137,325.663000,-32.592910
9523.103102,325.710000,-98.323140
9527.627024,325.758000,-10.766200
9532.055405,325.805000,-67.291260
9536.576689,325.853000,-16.345980
9541.002489,325.900000,-70.933180
9545.427013,325.947000,-32.204270
9549.850260,325.994000,-51.945160
9554.366303,326.042000,-66.881440
9558.786974,326.089000,-42.307000
9563.206371,326.136000,-27.359700
9567.718482,326.184000,-84.468940
9572.135305,326.231000,-30.082990
9576.550855,326.278000,-46.768630
9580.965134,326.325000,-6.005530
9585.472021,326.373000,-66.793890
9589.883730,326.420000,-9.484360
9594.294169,326.467000,-10.235310
9598.703338,326.514000,28.523020
9603.111238,326.561000,8.638420
9607.611614,326.609000,21.184460
9612.016950,326.656000,47.995160
9616.421019,326.703000,39.352700
9620.823821,326.750000,-0.797580
9625.225356,326.797000,34.529980
9629.625626,326.844000,1.294870
9634.024630,326.891000,75.002580
9638.422369,326.938000,36.819870
9642.818845,326.985000,173.507390
9647.214056,327.032000,178.933740
9651.701479,327.080000,159.154210
9656.094138,327.127000,91.254250
9660.485535,327.174000,-6.136150
9664.875670,327.221000,61.246320
9669.264544,327.268000,118.291160
9673.652158,327.315000,85.476440
9678.038512,327.362000,166.191910
9682.423607,327.409000,100.293260
9686.807443,327.456000,134.942550
9691.190021,327.503000,17.829750
9695.478134,327.549000,4.546870
9699.858224,327.596000,31.856520
9704.237057,327.643000,-38.870860
9708.614633,327.690000,18.187390
9712.990955,327.737000,73.122220
9717.366021,327.784000,-32.139930
9721.739833,327.831000,-31.365720
9726.112390,327.878000,-12.180750
9730.483695,327.925000,-30.850230
9734.760780,327.971000,23.616780
9739.129606,328.018000,-58.182230
9743.497180,328.065000,54.239350
9747.863503,328.112000,38.720580
9752.228575,328.159000,28.925160
9756.499562,328.205000,45.245090
9760.862161,328.252000,58.441150
9765.223511,328.299000,59.324450
9769.583612,328.346000,-13.552130
9773.849737,328.392000,13.042760
9778.207369,328.439000,53.573470
9782.563754,328.486000,81.276000
9786.918893,328.533000,-28.911120
9791.180163,328.579000,27.956170
9795.532837,328.626000,31.263410
9799.884266,328.673000,101.561320
9804.141906,328.719000,78.821430
9808.490874,328.766000,77.266710
9812.838598,328.813000,78.455720
9817.092614,328.859000,-21.490320
9821.437879,328.906000,51.781910
9825.689490,328.952000,12.167540
9830.032299,328.999000,-7.858480
9834.373868,329.046000,10.140840
9838.621862,329.092000,20.984960
9842.960977,329.139000,-17.731880
9847.206571,329.185000,-13.578480
9851.543235,329.232000,-46.075620
9855.786431,329.278000,17.082920
9860.120646,329.325000,20.565490
9864.361446,329.371000,28.211580
9868.693214,329.418000,122.320270
9872.931619,329.464000,55.503950
9877.260942,329.511000,17.554840
9881.496956,329.557000,58.486620
9885.823836,329.604000,22.116060
9890.057460,329.650000,-2.031890
9894.289903,329.696000,18.535060
9898.613135,329.743000,-3.573270
9902.843191,329.789000,37.409990
9907.163985,329.836000,-25.763690
9911.391656,329.882000,12.448400
9915.618148,329.928000,-2.279940
9919.935303,329.975000,-37.103780
9924.159413,330.021000,-16.030170
9928.382346,330.067000,-0.919060
9932.695866,330.114000,-9.684870
9936.916419,330.160000,-60.296000
9941.135797,330.206000,13.752260
9945.445687,330.253000,-24.444850
9949.662689,330.299000,-8.081840
9953.878516,330.345000,3.679970
9958.093170,330.391000,9.507340
9962.398234,330.438000,-35.302990
9966.610516,330.484000,-8.890020
9970.821625,330.530000,-87.826930
9975.031562,330.576000,45.347800
9979.240328,330.622000,-94.040520
9983.539380,330.669000,-44.569710
9987.745778,330.715000,-25.422300
9991.951007,330.761000,-97.747840
9996.155067,330.807000,-96.894190
10000.357957,330.853000,-1.189610
10004.559679,330.899000,16.634310
10008.760233,330.945000,-56.062850
10013.050897,330.992000,-39.233920
10017.249091,331.038000,-28.919700
10021.446118,331.084000,16.619240
10025.641979,331.130000,38.861460
10029.836675,331.176000,-5.192720
10034.030205,331.222000,-11.696020
10038.222571,331.268000,-3.834050
10042.413773,331.314000,18.147520
10046.603811,331.360000,23.750670
10050.792686,331.406000,-10.594380
10054.980398,331.452000,-23.046490
10059.166948,331.498000,-51.335400
10063.352336,331.544000,-2.395640
10067.536563,331.590000,-17.260010
10071.719629,331.636000,-16.793300
10075.901535,331.682000,37.567710
10080.082281,331.728000,4.603350
10084.261868,331.774000,9.472380
10088.440296,331.820000,42.851240
10092.526768,331.865000,141.433440
10096.702905,331.911000,-12.020880
10100.877884,331.957000,3.067230
10105.051707,332.003000,-33.777790
10109.224373,332.049000,-36.008410
10113.395884,332.095000,24.249510
10117.475591,332.140000,-8.626560
10121.644816,332.186000,-11.499960
10125.812886,332.232000,-34.340000
10129.979802,332.278000,48.261360
10134.145565,332.324000,3.395380
10138.219652,332.369000,65.411790
10142.383134,332.415000,75.084040
10146.545464,332.461000,-2.366540
10150.706643,332.507000,16.229810
10154.776247,332.552000,69.376910
10158.935148,332.598000,6.545670
10163.092900,332.644000,-22.673380
10167.159152,332.689000,59.846670
10171.314630,332.735000,-1.546710
10175.468958,332.781000,-2.707160
10179.531864,332.826000,3.028470
10183.683921,332.872000,-20.135740
10187.834831,332.918000,-58.227990
10191.894393,332.963000,1.954540
10196.043035,333.009000,-43.057340
10200.190530,333.055000,-28.973900
10204.246754,333.100000,-62.922550
10208.391984,333.146000,-69.687760
10212.445992,333.191000,-22.263700
10216.588958,333.237000,-35.735050
10220.640753,333.282000,-11.600740
10224.781457,333.328000,-31.708410
10228.831039,333.373000,-3.633710
10232.969483,333.419000,-21.696380
10237.016856,333.464000,-2.932170
10241.153042,333.510000,-50.993540
10245.198206,333.555000,-20.015260
10249.332135,333.601000,-42.804970
10253.375094,333.646000,-64.020630
10257.506768,333.692000,-26.222890
10261.547522,333.737000,-117.067780
10265.587186,333.782000,50.975590
10269.715494,333.828000,-2.991020
10273.752956,333.873000,-33.165440
10277.879015,333.919000,-8.915560
10281.914277,333.964000,-37.377560
10285.948452,334.009000,-12.925700
10290.071151,334.055000,44.359620
10294.103128,334.100000,-11.223180
10298.134020,334.145000,1.391420
10302.253364,334.191000,51.633050
10306.282060,334.236000,34.906770
10310.309672,334.281000,0.195700
10314.425666,334.327000,3.227970
10318.451085,334.372000,21.572660
10322.475422,334.417000,39.683430
10326.498675,334.462000,62.199200
10330.610215,334.508000,124.511890
10334.631280,334.553000,43.143920
10338.651263,334.598000,59.611960
10342.670165,334.643000,55.685640
10346.687987,334.688000,46.353450
10350.704728,334.733000,56.666090
10354.809614,334.779000,-14.624460
10358.824172,334.824000,77.850700
10362.837651,334.869000,13.859920
10366.850051,334.914000,62.186930
10370.861373,334.959000,41.625380
10374.871618,335.004000,61.885170
10378.880786,335.049000,30.325950
10382.888876,335.094000,-10.801020
10386.984923,335.140000,-106.649640
10390.990838,335.185000,75.031250
10394.995677,335.230000,1.098970
10398.999440,335.275000,58.332460
10403.002130,335.320000,-14.499780
10407.003745,335.365000,30.424370
10411.004286,335.410000,79.669800
10415.003755,335.455000,-76.016240
10419.002150,335.500000,-73.233750
10422.999473,335.545000,-60.228090
10426.995723,335.590000,-98.766440
10430.990902,335.635000,-97.848350
10434.985010,335.680000,-46.831050
10438.889325,335.724000,44.749620
10442.881316,335.769000,-54.079130
10446.872237,335.814000,-1.925560
10450.862088,335.859000,6.362790
10454.850871,335.904000,-16.729010
10458.838585,335.949000,-47.249940
10462.825230,335.994000,-8.443060
10466.810808,336.039000,39.589210
10470.706786,336.083000,-10.565620
10474.690253,336.128000,36.176500
10478.672654,336.173000,33.290720
10482.653989,336.218000,32.610440
10486.634259,336.263000,83.504480
10490.525048,336.307000,39.056810
10494.503211,336.352000,50.246370
10498.480310,336.397000,23.666090
10502.456345,336.442000,-15.146690
10506.342995,336.486000,66.116940
10510.316927,336.531000,22.935040
10514.289797,336.576000,10.115280
10518.261604,336.621000,10.599320
10522.144122,336.665000,59.378430
10526.113830,336.710000,52.329290
10530.082477,336.755000,39.178240
10533.961906,336.799000,68.226590
10537.928455,336.844000,40.844750
10541.893946,336.889000,40.486280
10545.770289,336.933000,69.901300
10549.733685,336.978000,64.074800
10553.607982,337.022000,41.666550
10557.569284,337.067000,48.330180
10561.529529,337.112000,63.134980
10565.400747,337.156000,31.148750
10569.358902,337.201000,21.642210
10573.228076,337.245000,-6.499340
10577.184142,337.290000,29.946200
10581.051275,337.334000,76.623210
10585.005254,337.379000,95.029220
10588.870347,337.423000,60.355460
10592.822240,337.468000,66.201760
10596.685295,337.512000,104.397690
10600.635105,337.557000,122.157320
10604.496123,337.601000,131.539990
10608.443850,337.646000,191.434420
10612.302834,337.690000,242.767750
10616.160811,337.734000,302.181790
10620.105430,337.779000,372.861570
10623.961375,337.823000,484.557380
10627.903916,337.868000,522.253440
10631.757830,337.912000,616.544250
10635.610740,337.956000,725.414210
10639.550179,338.001000,851.711680
10643.401061,338.045000,925.621630
10647.250940,338.089000,1002.469100
10651.187281,338.134000,1095.712270
10655.035134,338.178000,1234.461220
10658.881986,338.222000,1210.906280
10662.815231,338.267000,1319.550010
10666.660059,338.311000,1262.707260
10670.503887,338.355000,1257.874210
10674.346716,338.399000,1286.970430
10678.275848,338.444000,1342.571380
10682.116656,338.488000,1332.963100
10685.956465,338.532000,1258.097400
10689.795276,338.576000,1298.396320
10693.633090,338.620000,1347.857270
10697.557096,338.665000,1248.851120
10701.392893,338.709000,1236.662290
10705.227693,338.753000,1192.311700
10709.061498,338.797000,1315.849730
10712.894307,338.841000,1303.085660
10716.726120,338.885000,1291.799770
10720.556939,338.929000,1248.128890
10724.386763,338.973000,1310.672620
10728.302601,339.018000,1315.872460
10732.130414,339.062000,1372.388050
10735.957235,339.106000,1729.173510
10739.783062,339.150000,1498.447620
10743.607897,339.194000,1336.946910
10747.431740,339.238000,1399.394070
10751.254591,339.282000,1313.841550
10755.076450,339.326000,1428.236290
10758.897319,339.370000,1469.786160
10762.717197,339.414000,1502.770980
10766.536084,339.458000,1477.431290
10770.353982,339.502000,1514.307220
10774.170890,339.546000,1508.128280
10777.986809,339.590000,1425.719390
10781.801740,339.634000,1410.879110
10785.615682,339.678000,1486.229450
10789.341989,339.721000,1423.255350
10793.153978,339.765000,1465.520410
10796.964980,339.809000,1531.423700
10800.774995,339.853000,1442.743500
10804.584024,339.897000,1407.336780
10808.392066,339.941000,1323.886090
10812.199123,339.985000,1404.556130
10816.005195,340.029000,1382.799300
10819.723813,340.072000,1408.351020
10823.527938,340.116000,1323.729660
10827.331078,340.160000,1385.701310
10831.133235,340.204000,1390.997210
10834.848029,340.247000,1371.810740
10838.648242,340.291000,1417.676590
10842.447472,340.335000,1421.831770
10846.245720,340.379000,1437.120370
10849.956695,340.422000,1468.442280
10853.753002,340.466000,1477.301060
10857.548328,340.510000,1412.925210
10861.342673,340.554000,1439.100890
10865.049836,340.597000,1444.825410
10868.842243,340.641000,1447.740690
10872.633670,340.685000,1426.285450
10876.337983,340.728000,1374.542440
10880.127474,340.772000,1420.251830
10883.829896,340.815000,1456.420100
10887.617453,340.859000,1449.755440
10891.404033,340.903000,1373.049770
10895.103609,340.946000,1459.235750
10898.888257,340.990000,1400.753420
10902.585946,341.033000,1401.570710
10906.368663,341.077000,1434.066660
10910.150404,341.121000,1355.742000
10913.845254,341.164000,1454.308080
10917.625066,341.208000,1417.698300
10921.318033,341.251000,1435.435140
10925.095918,341.295000,1353.899640
10928.787002,341.338000,1386.760620
10932.562962,341.382000,1415.825740
10936.252165,341.425000,1461.179580
10939.940439,341.468000,1479.280680
10943.713524,341.512000,1400.780840
10947.399919,341.555000,1444.796400
10951.171083,341.599000,1417.952660
10954.855601,341.642000,1371.890370
10958.624845,341.686000,1337.189490
10962.307486,341.729000,1485.562730
10965.989201,341.772000,1402.360470
10969.755578,341.816000,1404.548890
10973.435419,341.859000,1416.007300
10977.114334,341.902000,1444.556750
10980.877848,341.946000,1375.719690
10984.554892,341.989000,1405.538170
10988.231011,342.032000,1408.964520
10991.991665,342.076000,1393.868550
10995.665914,342.119000,1397.797620
10999.339240,342.162000,1404.398300
11003.011643,342.205000,1445.377410
11006.768496,342.249000,1440.972660
11010.439032,342.292000,1413.039730
11014.108646,342.335000,1377.088820
11017.777338,342.378000,1429.273840
11021.530396,342.422000,1359.783390
11025.197224,342.465000,1405.117430
11028.863132,342.508000,1435.808140
11032.528119,342.551000,1364.020190
11036.192187,342.594000,1373.387320
11039.855335,342.637000,1367.677910
11043.602720,342.681000,1351.846560
11047.264009,342.724000,1323.752640
11050.924378,342.767000,1384.601670
11054.583829,342.810000,1387.837220
11058.242363,342.853000,1322.622760
11061.899979,342.896000,1315.915990
11065.556677,342.939000,1307.918710
11069.212459,342.982000,1333.564320
11072.867324,343.025000,1356.082360
11076.521273,343.068000,1426.907100
11080.174306,343.111000,1408.235980
11083.826423,343.154000,1462.138030
11087.477626,343.197000,1475.525710
11091.127913,343.240000,1429.452090
11094.777286,343.283000,1506.535090
11098.425745,343.326000,1447.563070
11102.073291,343.369000,1377.118190
11105.719922,343.412000,1430.293590
11109.365641,343.455000,1382.441570
11113.010447,343.498000,1399.969370
11116.654340,343.541000,1426.148680
11120.297322,343.584000,1428.880790
11123.939391,343.627000,1418.155270
11127.580549,343.670000,1360.942660
11131.220797,343.713000,1393.454660
11134.775508,343.755000,1388.960620
11138.413955,343.798000,1430.614040
11142.051492,343.841000,1383.588900
11145.688120,343.884000,1400.401170
11149.323838,343.927000,1414.943560
11152.958647,343.970000,1361.685830
11156.508049,344.012000,1488.368820
11160.141062,344.055000,1382.195410
11163.773167,344.098000,1450.207380
11167.404365,344.141000,1370.569820
11170.950240,344.183000,1434.062770
11174.579645,344.226000,1424.056260
11178.208143,344.269000,1441.423110
11181.751382,344.311000,1431.571760
11185.378088,344.354000,1402.985920
11189.003889,344.397000,1487.559790
11192.628785,344.440000,1474.759850
11196.168507,344.482000,1401.749450
11199.791614,344.525000,1371.975420
11203.413817,344.568000,1392.246510
11206.950910,344.610000,1423.234100
11210.571327,344.653000,1427.070400
11214.106675,344.695000,1481.649720
11217.725306,344.738000,1425.692530
11221.343035,344.781000,1482.819300
11224.875759,344.823000,1533.395140
11228.491704,344.866000,1379.366100
11232.022687,344.908000,1375.045860
11235.636851,344.951000,1373.391500
11239.166094,344.993000,1374.265530
11242.778477,345.036000,1388.136360
11246.305982,345.078000,1432.355560
11249.916585,345.121000,1322.032880
11253.442353,345.163000,1326.390040
11257.051178,345.206000,1390.039880
11260.575210,345.248000,1389.194060
11264.182259,345.291000,1459.600810
11267.704555,345.333000,1403.917450
11271.309829,345.376000,1353.221930
11274.830392,345.418000,1344.116540
11278.350100,345.460000,1365.231190
11281.952723,345.503000,1360.737380
11285.470699,345.545000,1354.483890
11288.987820,345.587000,1291.175570
11292.587796,345.630000,1364.901700
11296.103187,345.672000,1318.471420
11299.701393,345.715000,1309.768160
11303.215056,345.757000,1233.819900
11306.727865,345.799000,1202.623100
11310.239821,345.841000,1265.367430
11313.834512,345.884000,1364.215620
11317.344742,345.926000,1391.035920
11320.854120,345.968000,1347.721530
11324.446172,346.011000,1363.501310
11327.953826,346.053000,1367.686240
11331.460629,346.095000,1377.950020
11334.966581,346.137000,1298.501460
11338.471682,346.179000,1361.141150
11342.059357,346.222000,1312.159520
11345.562737,346.264000,1336.117650
11349.065268,346.306000,1298.246330
11352.566949,346.348000,1341.043700
11356.067781,346.390000,1303.167990
11359.567764,346.432000,1293.996190
11363.150201,346.475000,1329.905650
11366.648467,346.517000,1366.544290
11370.145885,346.559000,1311.051850
11373.642456,346.601000,1291.272870
11377.138179,346.643000,1355.260250
11380.633055,346.685000,1264.987920
11384.127085,346.727000,1299.218610
11387.620268,346.769000,1335.896790
11391.112605,346.811000,1364.946070
11394.604096,346.853000,1312.895640
11398.094742,346.895000,1270.743080
11401.584543,346.937000,1375.873340
11405.073499,346.979000,1251.052260
11408.561610,347.021000,1222.070630
11412.048877,347.063000,1266.547700
11415.535301,347.105000,1262.648460
11419.020880,347.147000,1294.729830
11422.505617,347.189000,1319.364680
11425.989510,347.231000,1290.566420
11429.472560,347.273000,1356.795220
11432.954769,347.315000,1262.562060
11436.436135,347.357000,1377.234220
11439.916659,347.399000,1299.604950
11443.313502,347.440000,1361.553460
11446.792364,347.482000,1324.982790
11450.270384,347.524000,1305.224820
11453.747565,347.566000,1368.012590
11457.223905,347.608000,1370.718920
11460.699405,347.650000,1381.712840
11464.091345,347.691000,1279.043850
11467.565186,347.733000,1292.889100
11471.038188,347.775000,1274.198420
11474.510351,347.817000,1313.998590
11477.981676,347.859000,1328.648790
11481.369541,347.900000,1339.408460
11484.839210,347.942000,1322.028190
11488.308041,347.984000,1362.436300
11491.693473,348.025000,1322.087530
11495.160650,348.067000,1344.964730
11498.626991,348.109000,1378.298270
11502.092494,348.151000,1364.723750
11505.474680,348.192000,1365.557310
11508.938532,348.234000,1354.884670
11512.401549,348.276000,1330.479210
11515.781307,348.317000,1396.243180
11519.242673,348.359000,1368.720940
11522.620821,348.400000,1336.725200
11526.080539,348.442000,1316.204490
11529.539422,348.484000,1290.182530
11532.915148,348.525000,1337.403430
11536.372384,348.567000,1342.855570
11539.746502,348.608000,1285.949360
11543.202092,348.650000,1313.100520
11546.574604,348.691000,1306.059420
11550.028550,348.733000,1353.981990
11553.399456,348.774000,1347.903640
11556.851758,348.816000,1331.694050
11560.221061,348.857000,1262.892120
11563.671720,348.899000,1263.480090
11567.039420,348.940000,1252.585820
11570.488439,348.982000,1362.816110
11573.854537,349.023000,1315.422300
11577.301915,349.065000,1307.466350
11580.666413,349.106000,1275.882680
11584.030120,349.147000,1295.093680
11587.475051,349.189000,1199.639380
11590.837159,349.230000,1264.568260
11594.280452,349.272000,1264.901840
11597.640963,349.313000,1237.677370
11601.000686,349.354000,1286.900750
11604.441535,349.396000,1211.408430
11607.799661,349.437000,1280.274690
11611.157000,349.478000,1148.518960
11614.595408,349.520000,1193.906130
11617.951152,349.561000,1216.361520
11621.306109,349.602000,1215.183610
11624.660280,349.643000,1240.178790
11628.095443,349.685000,1173.044680
11631.448022,349.726000,1149.957070
11634.799814,349.767000,1229.043560
11638.150821,349.808000,1135.455750
11641.582745,349.850000,1204.487920
11644.932162,349.891000,1255.947200
11648.280794,349.932000,1178.250400
11651.628641,349.973000,1196.905020
11654.975704,350.014000,1227.434670
11658.403590,350.056000,1230.535740
11661.749066,350.097000,1242.385390
11665.093759,350.138000,1297.132140
11668.437668,350.179000,1222.853610
11671.780795,350.220000,1211.949850
11675.123139,350.261000,1258.493740
11678.464700,350.302000,1235.955970
11681.805480,350.343000,1250.846190
11685.145477,350.384000,1198.881390
11688.484693,350.425000,1260.720200
11691.904543,350.467000,1209.852100
11695.242178,350.508000,1211.263850
11698.579032,350.549000,1182.120450
11701.915105,350.590000,1186.825470
11705.250398,350.631000,1270.909360
11708.584912,350.672000,1250.140850
11711.918645,350.713000,1183.850240
11715.251600,350.754000,1171.622880
11718.502512,350.794000,1229.818620
11721.833927,350.835000,1222.077710
11725.164564,350.876000,1214.302030
11728.494422,350.917000,1253.595510
11731.823503,350.958000,1189.316630
11735.151806,350.999000,1226.505930
11738.479331,351.040000,1272.934550
11741.806079,351.081000,1212.546360
11745.132050,351.122000,1261.222760
11748.457245,351.163000,1305.028100
11751.700589,351.203000,1252.225600
11755.024250,351.244000,1297.303280
11758.347135,351.285000,1132.625340
11761.669245,351.326000,1182.320500
11764.990579,351.367000,1168.571220
11768.230159,351.407000,1167.459410
11771.549962,351.448000,1229.465860
11774.868991,351.489000,1231.065010
11778.187246,351.530000,1120.037070
11781.423822,351.570000,1179.321890
11784.740548,351.611000,1207.769620
11788.056500,351.652000,1158.629280
11791.371680,351.693000,1211.141930
11794.605256,351.733000,1111.402640
11797.918909,351.774000,1157.996590
11801.231790,351.815000,1234.257950
11804.463124,351.855000,1187.339840
11807.774479,351.896000,1150.776230
11811.085063,351.937000,1193.271650
11814.314158,351.977000,1236.534590
11817.623218,352.018000,1164.979630
11820.850827,352.058000,1243.792570
11824.158365,352.099000,1198.766920
11827.465133,352.140000,1154.380790
11830.690506,352.180000,1262.143750
11833.995753,352.221000,1124.084960
11837.219643,352.261000,1166.805460
11840.523370,352.302000,1209.566410
11843.745778,352.342000,1106.835670
11847.047986,352.383000,1162.199260
11850.268913,352.423000,1148.962950
11853.569603,352.464000,1182.893910
11856.789050,352.504000,1188.850510
11860.088224,352.545000,1284.631750
11863.306191,352.585000,1161.469990
11866.603850,352.626000,1186.930080
11869.820339,352.666000,1248.198720
11873.116483,352.707000,1192.717930
11876.331495,352.747000,1165.263630
11879.545777,352.787000,1131.949970
11882.839661,352.828000,1044.726570
11886.052468,352.868000,1140.682450
11889.264547,352.908000,1117.971770
11892.556173,352.949000,1122.378070
11895.766777,352.989000,1076.247490
11899.056892,353.030000,1092.827100
11902.266024,353.070000,1067.049440
11905.474429,353.110000,1070.729490
11908.682107,353.150000,1085.449470
11911.969223,353.191000,1159.081740
11915.175430,353.231000,1185.277990
11918.380911,353.271000,1196.630650
11921.665775,353.312000,1176.886180
11924.869787,353.352000,1213.703590
11928.073073,353.392000,1217.231030
11931.275634,353.432000,1145.903060
11934.477470,353.472000,1168.365970
11937.758600,353.513000,1105.486770
11940.958969,353.553000,1154.865400
11944.158614,353.593000,1119.899710
11947.357536,353.633000,1142.158210
11950.555733,353.673000,1097.205820
11953.753208,353.713000,1119.929820
11957.029868,353.754000,1032.673370
11960.225879,353.794000,1113.722010
11963.421166,353.834000,1137.144240
11966.615732,353.874000,1058.708130
11969.809575,353.914000,1097.194590
11973.002696,353.954000,1092.277780
11976.195096,353.994000,1086.944210
11979.386774,354.034000,1175.063300
11982.577731,354.074000,1234.971420
11985.767968,354.114000,1166.006840
11988.957483,354.154000,1078.925780
11992.146279,354.194000,1001.701950
11995.334354,354.234000,1015.963510
11998.521709,354.274000,1036.718010
12001.708345,354.314000,1014.314780
12004.894261,354.354000,1017.057100
12008.079458,354.394000,1015.847460
12011.263936,354.434000,1089.073130
12014.447695,354.474000,1075.982620
12017.630736,354.514000,947.315940
12020.813059,354.554000,907.196380
12023.994663,354.594000,970.585810
12027.175550,354.634000,991.392280
12030.276224,354.673000,991.094160
12033.455694,354.713000,968.218070
12036.634448,354.753000,948.306340
12039.812484,354.793000,908.733250
12042.989804,354.833000,916.732740
12046.166408,354.873000,830.484660
12049.262907,354.912000,849.879680
12052.438097,354.952000,885.187680
12055.612571,354.992000,802.217760
12058.786330,355.032000,765.769770
12061.880056,355.071000,663.649900
12065.052403,355.111000,548.440580
12068.224035,355.151000,485.259950
12071.394953,355.191000,444.745440
12074.485910,355.230000,369.706150
12077.655418,355.270000,333.224600
12080.824212,355.310000,348.478040
12083.913100,355.349000,286.898310
12087.080485,355.389000,213.246220
12090.247158,355.429000,214.308250
12093.333977,355.468000,172.807550
12096.499242,355.508000,202.840150
12099.663795,355.548000,-24.585900
12102.748549,355.587000,-3.048720
12105.911696,355.627000,2.151630
12108.995079,355.666000,9.598990
12112.156822,355.706000,1.512800
12115.317853,355.746000,4.810920
12118.399174,355.785000,7.852240
12121.558801,355.825000,0.542240
12124.638754,355.864000,8.022220
12127.796979,355.904000,2.381920
12130.875565,355.943000,-2.471650
12134.032389,355.983000,2.106590
12137.109608,356.022000,-3.109840
12140.265031,356.062000,7.261560
12143.340885,356.101000,-1.095030
12146.494908,356.141000,-4.851880
12149.569398,356.180000,1.511800
12152.643215,356.219000,-6.557980
12155.795149,356.259000,0.296990
12158.867603,356.298000,-1.291860
12162.018139,356.338000,-0.399870
12165.089231,356.377000,2.508220
12168.159651,356.416000,8.206800
12171.308101,356.456000,4.330240
12174.377160,356.495000,-1.764190
12177.445548,356.534000,5.537970
12180.591915,356.574000,-5.840580
12183.658943,356.613000,-4.229640
12186.725300,356.652000,-5.537070
12189.869585,356.692000,9.992790
12192.934585,356.731000,4.311420
12195.998914,356.770000,9.928780
12199.062573,356.809000,-9.245620
12202.204093,356.849000,10.277970
12205.266396,356.888000,3.848270
12208.328030,356.927000,0.434560
12211.388995,356.966000,9.132440
12214.527751,357.006000,2.728570
12217.587361,357.045000,2.378500
12220.646304,357.084000,-3.582540
12223.704578,357.123000,3.095140
12226.762184,357.162000,-6.085400
12229.819122,357.201000,3.277950
12232.953750,357.241000,9.419950
12236.009337,357.280000,-0.529100
12239.064257,357.319000,-5.506860
12242.118510,357.358000,-3.318980
12245.172096,357.397000,3.852100
12248.225016,357.436000,-2.558210
