Raman shift,Intensity
755.67159,900.72809
757.73905,902.14424
759.80651,904.97653
761.87398,907.10076
763.94144,909.22498
766.0089,911.3492
768.07636,913.47342
770.14383,915.59764
772.21129,917.01378
774.27875,917.72186
776.34621,920.55415
778.41368,923.38645
780.48114,924.80259
782.5486,928.34296
784.61606,930.46718
786.68353,934.00755
788.75099,934.00755
790.81845,933.29948
792.88591,930.46718
794.95338,928.34296
797.02084,925.51067
799.0883,922.67837
801.15576,919.84608
803.22323,917.01378
805.29069,913.47342
807.35815,909.93305
809.42561,907.10076
811.49308,902.85231
813.56054,900.72809
815.628,898.60387
817.69546,896.47965
819.76293,897.18773
819.76293,887.98277
819.76293,887.2747
819.76293,886.56662
819.76293,885.85855
821.83039,900.02002
821.83039,888.69084
823.89785,890.81506
823.89785,894.35543
823.89785,903.56039
823.89785,889.39892
823.89785,890.10699
825.96531,904.26846
825.96531,897.8958
825.96531,895.77158
825.96531,906.39268
825.96531,918.42993
825.96531,919.138
825.96531,892.23121
825.96531,892.93929
825.96531,893.64736
825.96531,891.52314
825.96531,895.06351
825.96531,900.72809
825.96531,896.47965
825.96531,897.18773
828.03278,902.14424
828.03278,898.60387
828.03278,899.31195
828.03278,900.02002
828.03278,910.64112
828.03278,901.43617
828.03278,902.85231
828.03278,903.56039
828.03278,904.97653
828.03278,905.68461
828.03278,906.39268
828.03278,910.64112
828.03278,907.80883
828.03278,919.84608
828.03278,908.5169
828.03278,909.22498
828.03278,917.72186
830.10024,907.10076
830.10024,909.93305
830.10024,912.76534
830.10024,919.84608
830.10024,912.05727
830.10024,917.01378
830.10024,913.47342
830.10024,911.3492
830.10024,914.18149
832.1677,917.01378
832.1677,919.84608
832.1677,915.59764
832.1677,916.30571
832.1677,914.18149
832.1677,914.88956
834.23516,921.26223
834.23516,919.84608
836.30262,920.55415
836.30262,919.84608
836.30262,924.09452
838.37009,925.51067
838.37009,921.26223
838.37009,921.9703
840.43755,922.67837
840.43755,927.63489
840.43755,921.9703
840.43755,931.88333
840.43755,932.5914
842.50501,933.29948
842.50501,934.00755
842.50501,931.17525
842.50501,929.75911
842.50501,934.71562
842.50501,929.05103
842.50501,922.67837
842.50501,923.38645
842.50501,924.09452
842.50501,925.51067
842.50501,924.80259
844.57247,931.17525
844.57247,926.21874
844.57247,926.92681
844.57247,927.63489
844.57247,935.4237
844.57247,929.05103
844.57247,930.46718
844.57247,934.71562
846.63994,928.34296
846.63994,936.13177
846.63994,932.5914
848.7074,937.54792
848.7074,936.83984
848.7074,938.96406
848.7074,934.00755
850.77486,935.4237
850.77486,938.25599
852.84232,936.13177
854.90979,936.13177
856.97725,935.4237
859.04471,935.4237
861.11217,935.4237
863.17964,936.13177
869.38202,941.08828
869.38202,940.38021
871.44949,936.83984
871.44949,937.54792
871.44949,939.67214
873.51695,936.83984
873.51695,938.96406
873.51695,938.25599
875.58441,936.83984
877.65187,936.13177
879.71934,934.00755
879.71934,935.4237
879.71934,934.71562
881.7868,921.9703
881.7868,934.00755
883.85426,931.17525
883.85426,917.01378
883.85426,932.5914
883.85426,933.29948
883.85426,931.88333
883.85426,914.18149
883.85426,921.26223
883.85426,916.30571
883.85426,922.67837
883.85426,917.72186
883.85426,918.42993
883.85426,914.88956
883.85426,919.138
885.92172,912.76534
885.92172,923.38645
885.92172,930.46718
885.92172,929.05103
885.92172,915.59764
885.92172,919.84608
885.92172,920.55415
885.92172,913.47342
885.92172,924.80259
887.98919,912.05727
887.98919,927.63489
887.98919,925.51067
887.98919,924.09452
887.98919,929.75911
887.98919,919.138
887.98919,928.34296
890.05665,926.92681
890.05665,912.05727
890.05665,926.21874
890.05665,917.01378
892.12411,912.05727
892.12411,914.18149
892.12411,918.42993
894.19157,911.3492
894.19157,912.05727
896.25904,912.05727
896.25904,909.93305
898.3265,912.05727
898.3265,911.3492
898.3265,909.93305
898.3265,909.22498
898.3265,910.64112
898.3265,908.5169
900.39396,906.39268
900.39396,909.22498
902.46142,904.97653
902.46142,906.39268
902.46142,907.10076
902.46142,907.80883
902.46142,908.5169
902.46142,904.26846
902.46142,905.68461
902.46142,904.97653
904.52889,900.02002
904.52889,903.56039
904.52889,901.43617
904.52889,904.26846
906.59635,902.85231
906.59635,900.72809
906.59635,899.31195
906.59635,902.14424
906.59635,902.85231
908.66381,901.43617
908.66381,898.60387
910.73127,897.18773
910.73127,897.8958
910.73127,901.43617
912.79874,902.14424
914.8662,903.56039
916.93366,904.26846
919.00112,904.97653
921.06859,904.26846
923.13605,902.14424
925.20351,900.72809
927.27097,899.31195
929.33844,897.18773
931.4059,896.47965
933.47336,897.18773
935.54082,899.31195
937.60829,901.43617
939.67575,904.26846
941.74321,907.10076
943.81067,917.72186
943.81067,909.93305
945.87814,912.76534
945.87814,918.42993
947.9456,915.59764
947.9456,920.55415
950.01306,922.67837
950.01306,919.138
952.08052,924.09452
952.08052,921.9703
954.14799,925.51067
954.14799,924.80259
956.21545,926.92681
956.21545,926.92681
958.28291,929.05103
958.28291,929.05103
960.35037,931.17525
960.35037,931.17525
962.41784,932.5914
962.41784,932.5914
964.4853,934.00755
964.4853,934.00755
966.55276,934.00755
966.55276,934.00755
968.62022,933.29948
968.62022,933.29948
970.68769,932.5914
970.68769,932.5914
972.75515,931.88333
972.75515,931.88333
974.82261,931.17525
974.82261,931.17525
976.89007,929.75911
976.89007,929.75911
978.95754,928.34296
978.95754,928.34296
981.025,926.21874
981.025,926.21874
983.09246,924.09452
985.15992,923.38645
987.22739,922.67837
989.29485,921.26223
991.36231,919.84608
993.42977,918.42993
995.49724,917.72186
997.5647,918.42993
999.63216,920.55415
1001.69962,921.9703
1003.76709,924.09452
1005.83455,925.51067
1007.90201,926.92681
1009.96947,929.75911
1012.03694,932.5914
1014.1044,936.13177
1016.17186,938.25599
1018.23932,939.67214
1020.30679,939.67214
1022.37425,937.54792
1024.44171,934.00755
1026.50917,932.5914
1028.57663,930.46718
1030.6441,927.63489
1032.71156,927.63489
1034.77902,929.05103
1036.84648,931.17525
1038.91395,934.00755
1040.98141,936.83984
1043.04887,938.96406
1045.11633,942.50443
1047.1838,945.33672
1049.25126,946.0448
1051.31872,946.75287
1053.38618,946.75287
1055.45365,946.75287
1057.52111,944.62865
1059.58857,941.08828
1061.65603,937.54792
1063.7235,934.71562
1065.79096,931.88333
1067.85842,930.46718
1069.92588,927.63489
1071.99335,924.80259
1074.06081,925.51067
1076.12827,926.92681
1078.19573,924.80259
1078.19573,906.39268
1078.19573,927.63489
1080.2632,926.92681
1080.2632,906.39268
1080.2632,930.46718
1082.33066,933.29948
1082.33066,906.39268
1082.33066,929.75911
1084.39812,934.71562
1084.39812,906.39268
1084.39812,931.17525
1086.46558,931.88333
1086.46558,906.39268
1086.46558,934.71562
1088.53305,929.75911
1088.53305,906.39268
1088.53305,932.5914
1090.60051,928.34296
1090.60051,906.39268
1090.60051,930.46718
1092.66797,926.92681
1092.66797,928.34296
1092.66797,906.39268
1094.73543,906.39268
1094.73543,925.51067
1094.73543,924.80259
1096.8029,924.80259
1096.8029,922.67837
1096.8029,905.68461
1098.87036,923.38645
1098.87036,919.84608
1098.87036,902.85231
1100.93782,917.01378
1100.93782,902.14424
1100.93782,921.9703
1103.00528,912.76534
1103.00528,919.84608
1105.07275,918.42993
1105.07275,909.93305
1107.14021,907.80883
1109.20767,906.39268
1111.27513,904.97653
1113.3426,900.72809
1113.3426,902.85231
1115.41006,900.72809
1115.41006,899.31195
1117.47752,900.72809
1117.47752,899.31195
1119.54498,899.31195
1119.54498,900.72809
1121.61245,898.60387
1121.61245,900.72809
1123.67991,897.8958
1123.67991,900.72809
1125.74737,897.18773
1125.74737,900.02002
1127.81483,896.47965
1127.81483,900.02002
1129.8823,895.77158
1131.94976,895.06351
1134.01722,894.35543
1136.08468,894.35543
1138.15215,895.77158
1140.21961,897.18773
1140.21961,900.72809
1142.28707,902.14424
1142.28707,898.60387
1144.35453,900.72809
1144.35453,903.56039
1146.422,904.97653
1146.422,902.14424
1148.48946,904.26846
1148.48946,906.39268
1150.55692,907.10076
1150.55692,907.10076
1152.62438,909.93305
1152.62438,909.93305
1152.62438,917.01378
1154.69185,918.42993
1154.69185,912.76534
1154.69185,912.76534
1156.75931,914.18149
1156.75931,914.18149
1156.75931,919.138
1158.82677,915.59764
1158.82677,919.138
1158.82677,915.59764
1160.89423,917.01378
1160.89423,919.138
1160.89423,917.01378
1162.9617,917.01378
1162.9617,919.138
1162.9617,917.01378
1165.02916,916.30571
1165.02916,919.138
1165.02916,916.30571
1167.09662,915.59764
1167.09662,915.59764
1169.16408,914.18149
1169.16408,914.18149
1171.23155,913.47342
1171.23155,913.47342
1173.29901,912.05727
1173.29901,912.05727
1175.36647,912.05727
1175.36647,912.05727
1177.43393,912.05727
1177.43393,912.05727
1179.5014,912.76534
1179.5014,912.76534
1181.56886,913.47342
1181.56886,913.47342
1183.63632,914.18149
1185.70378,915.59764
1187.77125,917.01378
1189.83871,919.138
1191.90617,920.55415
1193.97363,922.67837
1196.0411,924.80259
1198.10856,926.21874
1200.17602,927.63489
1202.24348,929.05103
1204.31095,930.46718
1206.37841,931.17525
1208.44587,931.17525
1210.51333,930.46718
1212.5808,929.75911
1214.64826,928.34296
1216.71572,926.92681
1218.78318,925.51067
1220.85064,922.67837
1222.91811,921.26223
1224.98557,919.138
1227.05303,917.72186
1229.12049,917.01378
1231.18796,912.05727
1231.18796,917.72186
1231.18796,911.3492
1231.18796,913.47342
1231.18796,912.76534
1233.25542,919.138
1233.25542,914.18149
1233.25542,919.84608
1235.32288,921.9703
1235.32288,918.42993
1235.32288,917.72186
1235.32288,917.01378
1235.32288,916.30571
1235.32288,915.59764
1235.32288,914.88956
1235.32288,919.84608
1237.39034,923.38645
1237.39034,930.46718
1237.39034,920.55415
1237.39034,929.75911
1237.39034,929.05103
1239.45781,930.46718
1239.45781,931.17525
1239.45781,924.80259
1239.45781,921.26223
1239.45781,928.34296
1241.52527,921.9703
1241.52527,922.67837
1241.52527,923.38645
1241.52527,924.09452
1241.52527,925.51067
1241.52527,926.92681
1241.52527,927.63489
1241.52527,931.17525
1241.52527,931.88333
1241.52527,932.5914
1243.59273,926.92681
1243.59273,932.5914
1243.59273,924.80259
1243.59273,929.05103
1243.59273,926.21874
1245.66019,932.5914
1245.66019,931.88333
1247.72766,933.29948
1247.72766,933.29948
1247.72766,932.5914
1249.79512,932.5914
1249.79512,938.96406
1249.79512,938.25599
1249.79512,936.83984
1249.79512,937.54792
1249.79512,936.13177
1249.79512,936.13177
1249.79512,936.13177
1251.86258,943.92058
1251.86258,944.62865
1251.86258,935.4237
1251.86258,932.5914
1251.86258,939.67214
1251.86258,940.38021
1251.86258,938.25599
1251.86258,943.2125
1251.86258,938.25599
1253.93004,946.0448
1253.93004,934.71562
1253.93004,940.38021
1253.93004,932.5914
1253.93004,933.29948
1253.93004,940.38021
1253.93004,945.33672
1253.93004,941.08828
1253.93004,942.50443
1255.99751,948.87709
1255.99751,934.00755
1255.99751,941.79636
1255.99751,946.75287
1255.99751,941.79636
1255.99751,941.79636
1255.99751,947.46095
1255.99751,949.58517
1255.99751,950.29324
1255.99751,948.16902
1258.06497,951.00131
1258.06497,951.70939
1258.06497,943.92058
1258.06497,943.92058
1260.13243,951.70939
1260.13243,946.75287
1260.13243,946.75287
1262.19989,948.87709
1262.19989,951.70939
1262.19989,948.87709
1264.26736,951.70939
1264.26736,951.00131
1264.26736,955.24975
1264.26736,954.54168
1264.26736,953.83361
1264.26736,953.12553
1264.26736,952.41746
1264.26736,951.00131
1266.33482,953.12553
1266.33482,955.24975
1266.33482,953.12553
1268.40228,953.83361
1268.40228,955.24975
1268.40228,953.83361
1268.40228,955.95783
1270.46974,955.95783
1270.46974,955.24975
1270.46974,955.24975
1272.53721,955.24975
1272.53721,955.24975
1272.53721,955.24975
1274.60467,955.95783
1274.60467,955.24975
1274.60467,955.95783
1276.67213,954.54168
1276.67213,955.95783
1276.67213,954.54168
1278.73959,952.41746
1278.73959,952.41746
1278.73959,955.95783
1280.80706,955.24975
1280.80706,954.54168
1280.80706,953.83361
1280.80706,951.00131
1280.80706,952.41746
1280.80706,951.00131
1280.80706,951.00131
1280.80706,953.12553
1282.87452,952.41746
1282.87452,949.58517
1282.87452,948.87709
1282.87452,951.70939
1282.87452,945.33672
1282.87452,944.62865
1282.87452,943.92058
1282.87452,943.2125
1282.87452,950.29324
1282.87452,948.87709
1282.87452,948.16902
1282.87452,948.87709
1284.94198,947.46095
1284.94198,947.46095
1284.94198,940.38021
1284.94198,947.46095
1284.94198,946.0448
1284.94198,942.50443
1287.00944,941.79636
1287.00944,939.67214
1287.00944,945.33672
1287.00944,945.33672
1287.00944,941.08828
1287.00944,946.75287
1289.07691,938.96406
1289.07691,936.83984
1289.07691,937.54792
1289.07691,943.92058
1289.07691,938.25599
1289.07691,943.92058
1291.14437,943.2125
1291.14437,943.2125
1293.21183,944.62865
1293.21183,944.62865
1295.27929,946.0448
1295.27929,946.0448
1297.34676,948.16902
1297.34676,948.16902
1299.41422,949.58517
1299.41422,949.58517
1301.48168,951.70939
1301.48168,951.70939
1303.54914,953.12553
1303.54914,953.12553
1305.61661,953.83361
1305.61661,953.83361
1307.68407,953.83361
1307.68407,953.83361
1309.75153,952.41746
1309.75153,952.41746
1311.81899,951.70939
1311.81899,951.70939
1313.88646,950.29324
1313.88646,950.29324
1315.95392,948.16902
1315.95392,948.16902
1318.02138,946.0448
1318.02138,946.0448
1320.08884,943.92058
1320.08884,943.92058
1322.15631,941.79636
1322.15631,941.79636
1324.22377,939.67214
1324.22377,939.67214
1326.29123,936.83984
1326.29123,936.83984
1328.35869,935.4237
1328.35869,935.4237
1330.42616,933.29948
1330.42616,933.29948
1332.49362,931.17525
1332.49362,931.17525
1334.56108,929.05103
1336.62854,927.63489
1338.69601,926.92681
1340.76347,926.92681
1342.83093,928.34296
1344.89839,929.05103
1346.96586,931.88333
1349.03332,934.71562
1351.10078,937.54792
1353.16824,938.96406
1355.23571,941.08828
1357.30317,942.50443
1359.37063,941.79636
1359.37063,933.29948
1361.43809,939.67214
1363.50556,936.83984
1365.57302,934.00755
1367.64048,931.17525
1369.70794,927.63489
1371.77541,924.09452
1373.84287,920.55415
1375.91033,919.138
1377.97779,919.138
1380.04526,921.9703
1382.11272,924.09452
1384.18018,926.21874
1386.24764,928.34296
1388.31511,931.88333
1390.38257,935.4237
1392.45003,938.25599
1394.51749,940.38021
1396.58496,941.08828
1398.65242,939.67214
1400.71988,937.54792
1402.78734,935.4237
1404.85481,932.5914
1406.92227,929.05103
1408.98973,925.51067
1411.05719,923.38645
1413.12465,919.84608
1415.19212,917.72186
1417.25958,916.30571
1419.32704,915.59764
1421.3945,916.30571
1423.46197,917.01378
1425.52943,918.42993
1427.59689,919.138
1429.66435,920.55415
1431.73182,921.9703
1433.79928,923.38645
1435.86674,924.80259
1437.9342,926.21874
1440.00167,927.63489
1442.06913,929.05103
1444.13659,930.46718
1446.20405,931.17525
1448.27152,931.17525
1450.33898,929.75911
1452.40644,928.34296
1454.4739,925.51067
1456.54137,922.67837
1458.60883,920.55415
1460.67629,917.72186
1462.74375,914.18149
1464.81122,910.64112
1466.87868,907.80883
1468.94614,904.26846
1471.0136,901.43617
1473.08107,900.72809
1475.14853,902.14424
1477.21599,908.5169
1479.28345,914.88956
1481.35092,919.138
1483.41838,924.09452
1485.48584,929.75911
1487.5533,938.25599
1489.62077,943.92058
1491.68823,951.00131
1493.75569,952.41746
1495.82315,953.83361
1497.89062,953.83361
1499.95808,953.12553
1502.02554,950.29324
1504.093,946.0448
1506.16047,942.50443
1508.22793,939.67214
1510.29539,936.83984
1512.36285,934.71562
1514.43032,936.13177
1516.49778,921.26223
1516.49778,920.55415
1516.49778,923.38645
1516.49778,922.67837
1516.49778,921.9703
1516.49778,942.50443
1516.49778,924.09452
1518.56524,958.79012
1518.56524,959.4982
1518.56524,960.20627
1518.56524,924.80259
1518.56524,945.33672
1518.56524,957.37397
1518.56524,958.08205
1518.56524,956.6659
1520.6327,984.98884
1520.6327,985.69692
1520.6327,981.44847
1520.6327,946.0448
1520.6327,982.15655
1520.6327,982.86462
1520.6327,983.57269
1520.6327,929.05103
1520.6327,925.51067
1520.6327,986.40499
1520.6327,984.28077
1520.6327,928.34296
1520.6327,926.21874
1520.6327,926.92681
1520.6327,927.63489
1520.6327,931.17525
1520.6327,960.91434
1520.6327,971.53544
1520.6327,970.82737
1520.6327,970.1193
1520.6327,969.41122
1520.6327,961.62242
1520.6327,930.46718
1520.6327,963.03856
1520.6327,962.33049
1520.6327,929.75911
1520.6327,955.95783
1522.70017,942.50443
1522.70017,943.2125
1522.70017,931.88333
1522.70017,940.38021
1522.70017,932.5914
1522.70017,933.29948
1522.70017,939.67214
1522.70017,955.24975
1522.70017,953.83361
1522.70017,934.00755
1522.70017,934.71562
1522.70017,935.4237
1522.70017,936.13177
1522.70017,951.00131
1522.70017,950.29324
1522.70017,949.58517
1522.70017,948.87709
1522.70017,948.16902
1522.70017,947.46095
1522.70017,946.75287
1522.70017,941.08828
1522.70017,972.24352
1522.70017,944.62865
1522.70017,943.92058
1522.70017,963.74664
1522.70017,938.25599
1522.70017,951.00131
1522.70017,987.82114
1522.70017,987.11306
1522.70017,936.83984
1522.70017,937.54792
1522.70017,968.70315
1522.70017,941.79636
1522.70017,980.7404
1522.70017,938.96406
1524.76763,952.41746
1524.76763,964.45471
1524.76763,972.95159
1524.76763,951.70939
1524.76763,954.54168
1524.76763,953.12553
1524.76763,946.0448
1524.76763,957.37397
1524.76763,989.23728
1524.76763,988.52921
1524.76763,974.36774
1524.76763,973.65967
1524.76763,980.03233
1524.76763,945.33672
1524.76763,967.99508
1526.83509,963.74664
1526.83509,976.49196
1526.83509,967.287
1526.83509,966.57893
1526.83509,965.87086
1526.83509,965.16278
1526.83509,975.07581
1526.83509,979.32425
1526.83509,978.61618
1526.83509,977.90811
1526.83509,977.20003
1526.83509,989.94536
1526.83509,975.78389
1526.83509,992.77765
1526.83509,997.73416
1526.83509,994.90187
1526.83509,993.48572
1526.83509,994.1938
1526.83509,997.02609
1526.83509,996.31802
1528.90255,995.60994
1528.90255,999.85839
1528.90255,992.06958
1528.90255,998.44224
1528.90255,999.15031
1528.90255,990.65343
1528.90255,1000.56646
1530.97002,991.3615
1530.97002,1001.27453
1533.03748,1001.98261
1535.10494,1001.98261
1537.1724,1001.98261
1539.23987,1001.27453
1541.30733,1000.56646
1543.37479,1000.56646
1545.44225,1001.27453
1547.50972,1001.98261
1549.57718,1002.69068
1551.64464,1001.98261
1551.64464,1001.27453
1551.64464,1000.56646
1551.64464,999.85839
1551.64464,999.15031
1551.64464,998.44224
1551.64464,997.73416
1551.64464,997.02609
1553.7121,997.02609
1553.7121,996.31802
1553.7121,995.60994
1555.77957,997.02609
1555.77957,994.90187
1555.77957,994.1938
1555.77957,993.48572
1555.77957,992.77765
1557.84703,992.06958
1557.84703,991.3615
1559.91449,990.65343
1559.91449,989.94536
1559.91449,989.23728
1559.91449,988.52921
1559.91449,987.82114
1559.91449,987.11306
1561.98195,986.40499
1561.98195,985.69692
1561.98195,984.98884
1564.04942,984.28077
1564.04942,969.41122
1566.11688,965.87086
1566.11688,983.57269
1566.11688,982.86462
1566.11688,982.15655
1566.11688,981.44847
1566.11688,980.7404
1566.11688,980.03233
1568.18434,979.32425
1568.18434,963.03856
1568.18434,977.90811
1568.18434,974.36774
1568.18434,973.65967
1570.2518,976.49196
1570.2518,977.20003
1570.2518,975.07581
1570.2518,975.78389
1570.2518,972.95159
1570.2518,978.61618
1570.2518,960.20627
1570.2518,970.82737
1570.2518,952.41746
1570.2518,967.99508
1570.2518,957.37397
1570.2518,964.45471
1570.2518,953.12553
1572.31927,970.1193
1572.31927,965.87086
1572.31927,965.16278
1572.31927,969.41122
1572.31927,963.74664
1572.31927,956.6659
1572.31927,968.70315
1572.31927,958.08205
1572.31927,960.91434
1572.31927,960.20627
1572.31927,959.4982
1572.31927,958.79012
1572.31927,971.53544
1572.31927,972.24352
1572.31927,951.00131
1572.31927,951.70939
1572.31927,955.24975
1572.31927,954.54168
1572.31927,953.83361
1572.31927,958.79012
1572.31927,967.287
1574.38673,955.95783
1574.38673,963.03856
1574.38673,950.29324
1574.38673,962.33049
1574.38673,961.62242
1574.38673,966.57893
1574.38673,956.6659
1574.38673,946.75287
1574.38673,946.0448
1574.38673,945.33672
1574.38673,943.2125
1574.38673,943.92058
1576.45419,944.62865
1576.45419,942.50443
1576.45419,941.79636
1576.45419,941.08828
1576.45419,940.38021
1576.45419,953.12553
1576.45419,947.46095
1576.45419,948.16902
1576.45419,949.58517
1578.52165,948.87709
1578.52165,939.67214
1578.52165,938.25599
1578.52165,948.16902
1580.58912,938.96406
1580.58912,937.54792
1580.58912,944.62865
1582.65658,936.83984
1582.65658,936.13177
1582.65658,943.92058
1582.65658,935.4237
1584.72404,946.0448
1584.72404,943.92058
1584.72404,944.62865
1584.72404,941.08828
1584.72404,940.38021
1584.72404,939.67214
1584.72404,938.96406
1584.72404,937.54792
1584.72404,936.83984
1584.72404,936.13177
1584.72404,935.4237
1584.72404,949.58517
1584.72404,948.87709
1584.72404,945.33672
1586.7915,948.16902
1586.7915,947.46095
1586.7915,946.75287
1586.7915,950.29324
1586.7915,946.75287
1586.7915,938.25599
1586.7915,943.92058
1586.7915,941.79636
1588.85897,942.50443
1588.85897,955.95783
1588.85897,948.16902
1588.85897,951.70939
1588.85897,943.2125
1588.85897,955.24975
1588.85897,954.54168
1588.85897,953.83361
1588.85897,952.41746
1588.85897,953.12553
1588.85897,951.00131
1590.92643,949.58517
1590.92643,957.37397
1590.92643,956.6659
1592.99389,952.41746
1592.99389,958.08205
1592.99389,957.37397
1595.06135,955.24975
1595.06135,958.79012
1597.12882,958.79012
1597.12882,955.24975
1599.19628,953.83361
1599.19628,953.83361
1599.19628,955.24975
1599.19628,958.08205
1601.26374,955.95783
1601.26374,954.54168
1601.26374,948.87709
1601.26374,958.08205
1601.26374,953.12553
1601.26374,957.37397
1603.3312,952.41746
1603.3312,957.37397
1603.3312,956.6659
1603.3312,943.92058
1603.3312,945.33672
1603.3312,944.62865
1603.3312,943.92058
1603.3312,942.50443
1603.3312,941.79636
1605.39867,951.70939
1605.39867,943.2125
1605.39867,934.71562
1605.39867,933.29948
1605.39867,940.38021
1605.39867,946.0448
1605.39867,934.00755
1605.39867,929.05103
1605.39867,932.5914
1605.39867,941.08828
1607.46613,936.83984
1607.46613,950.29324
1607.46613,951.00131
1607.46613,928.34296
1607.46613,940.38021
1607.46613,929.75911
1607.46613,930.46718
1607.46613,926.92681
1607.46613,931.88333
1607.46613,946.75287
1607.46613,935.4237
1609.53359,948.87709
1609.53359,931.88333
1609.53359,931.17525
1609.53359,936.13177
1609.53359,936.83984
1609.53359,949.58517
1609.53359,927.63489
1609.53359,938.96406
1609.53359,939.67214
1609.53359,947.46095
1609.53359,948.16902
1609.53359,926.21874
1611.60105,938.25599
1611.60105,937.54792
1611.60105,925.51067
1611.60105,925.51067
1613.66851,919.84608
1613.66851,924.80259
1615.73598,923.38645
1615.73598,922.67837
1615.73598,921.9703
1615.73598,921.26223
1615.73598,924.09452
1615.73598,914.88956
1617.80344,920.55415
1617.80344,918.42993
1617.80344,917.72186
1617.80344,917.01378
1617.80344,916.30571
1617.80344,915.59764
1617.80344,914.88956
1617.80344,914.18149
1617.80344,919.138
1617.80344,919.84608
1617.80344,909.93305
1619.8709,907.80883
1621.93836,907.10076
1624.00583,909.22498
1626.07329,911.3492
1628.14075,914.88956
1630.20821,918.42993
1632.27568,922.67837
1634.34314,926.92681
1636.4106,929.75911
1638.47806,931.88333
1640.54553,934.00755
1642.61299,936.13177
1698.43448,963.74664
1698.43448,963.03856
1698.43448,962.33049
1700.50194,961.62242
1702.5694,960.91434
1702.5694,960.20627
1702.5694,959.4982
1704.63686,958.79012
1706.70433,941.79636
1706.70433,958.08205
1706.70433,941.08828
1706.70433,940.38021
1706.70433,939.67214
1708.77179,942.50443
1708.77179,937.54792
1708.77179,938.25599
1708.77179,938.96406
1708.77179,936.13177
1708.77179,935.4237
1708.77179,934.71562
1708.77179,957.37397
1708.77179,956.6659
1710.83925,931.88333
1710.83925,955.95783
1710.83925,954.54168
1710.83925,953.83361
1710.83925,951.00131
1710.83925,944.62865
1710.83925,943.92058
1710.83925,943.2125
1710.83925,936.83984
1710.83925,955.24975
1710.83925,934.00755
1712.90671,950.29324
1712.90671,951.70939
1712.90671,949.58517
1712.90671,953.12553
1712.90671,933.29948
1712.90671,932.5914
1712.90671,952.41746
1712.90671,931.17525
1712.90671,930.46718
1712.90671,929.75911
1712.90671,945.33672
1714.97418,947.46095
1714.97418,948.87709
1714.97418,948.16902
1714.97418,946.75287
1714.97418,946.0448
1714.97418,929.05103
1717.04164,929.05103
1719.1091,929.05103
1721.17656,929.05103
1723.24403,929.05103
1723.24403,929.05103
1725.31149,927.63489
1725.31149,929.05103
1725.31149,924.80259
1725.31149,924.09452
1727.37895,925.51067
1727.37895,929.05103
1727.37895,923.38645
1727.37895,926.21874
1729.44641,924.80259
1729.44641,919.84608
1729.44641,920.55415
1729.44641,922.67837
1729.44641,926.21874
1729.44641,926.92681
1729.44641,927.63489
1729.44641,928.34296
1729.44641,929.05103
1731.51388,923.38645
1731.51388,918.42993
1731.51388,919.138
1731.51388,921.26223
1731.51388,921.9703
1733.58134,922.67837
1733.58134,918.42993
1733.58134,917.72186
1735.6488,917.72186
1735.6488,917.01378
1735.6488,920.55415
1737.71626,916.30571
1737.71626,917.01378
1737.71626,919.84608
1739.78373,915.59764
1739.78373,917.72186
1741.85119,917.72186
1741.85119,915.59764
1743.91865,915.59764
1743.91865,919.138
1745.98611,915.59764
1745.98611,919.84608
1748.05358,922.67837
1748.05358,914.88956
1750.12104,914.88956
1750.12104,924.80259
1752.1885,928.34296
1754.25596,932.5914
1756.32343,938.25599
1758.39089,943.2125
1760.45835,946.0448
1762.52581,948.87709
1764.59328,951.70939
1766.66074,955.24975
1768.7282,955.95783
1770.79566,955.24975
1772.86313,952.41746
1774.93059,949.58517
1776.99805,946.75287
1779.06551,943.92058
1781.13298,941.79636
1783.20044,939.67214
1785.2679,938.25599
1787.33536,936.13177
1789.40283,935.4237
1791.47029,936.13177
1793.53775,937.54792
1795.60521,938.96406
1797.67268,940.38021
1799.74014,941.08828
1801.8076,942.50443
1803.87506,943.2125
1805.94252,942.50443
1808.00999,940.38021
1810.07745,938.25599
1812.14491,936.13177
1812.14491,941.08828
1812.14491,941.79636
1812.14491,942.50443
1812.14491,940.38021
1814.21237,933.29948
1814.21237,943.2125
1814.21237,940.38021
1814.21237,939.67214
1814.21237,938.96406
1814.21237,938.25599
1814.21237,937.54792
1814.21237,927.63489
1814.21237,926.92681
1816.27984,936.83984
1816.27984,937.54792
1816.27984,936.13177
1816.27984,935.4237
1816.27984,934.71562
1816.27984,934.00755
1816.27984,933.29948
1816.27984,932.5914
1816.27984,931.88333
1816.27984,926.21874
1816.27984,928.34296
1816.27984,930.46718
1816.27984,925.51067
1818.3473,924.09452
1818.3473,931.17525
1818.3473,929.05103
1818.3473,924.80259
1818.3473,929.05103
1820.41476,930.46718
1820.41476,927.63489
1820.41476,923.38645
1820.41476,929.75911
1822.48222,921.9703
1822.48222,921.26223
1822.48222,922.67837
1822.48222,926.92681
1824.54969,928.34296
1826.61715,929.75911
1828.68461,931.17525
1830.75207,932.5914
1832.81954,934.71562
1834.887,935.4237
1836.95446,935.4237
1839.02192,934.00755
1841.08939,931.88333
1843.15685,930.46718
1845.22431,928.34296
1847.29177,926.92681
1849.35924,924.09452
1851.4267,922.67837
1853.49416,919.84608
1855.56162,917.72186
1857.62909,917.01378
1859.69655,917.01378
1859.69655,914.18149
1859.69655,912.76534
1859.69655,913.47342
1861.76401,919.138
1861.76401,914.88956
1863.83147,918.42993
1863.83147,921.26223
1863.83147,915.59764
1865.89894,922.67837
1865.89894,919.138
1865.89894,917.72186
1865.89894,916.30571
1865.89894,917.01378
1867.9664,919.84608
1867.9664,925.51067
1870.03386,921.26223
1870.03386,924.09452
1870.03386,921.9703
1870.03386,920.55415
1870.03386,927.63489
1870.03386,923.38645
1870.03386,922.67837
1872.10132,927.63489
1872.10132,928.34296
1872.10132,925.51067
1872.10132,924.80259
1872.10132,926.21874
1872.10132,930.46718
1874.16879,926.92681
1874.16879,929.05103
1874.16879,933.29948
1876.23625,931.17525
1876.23625,930.46718
1876.23625,929.75911
1876.23625,931.88333
1876.23625,932.5914
1876.23625,935.4237
1876.23625,935.4237
1878.30371,936.83984
1878.30371,939.67214
1878.30371,940.38021
1878.30371,938.25599
1878.30371,937.54792
1878.30371,936.83984
1878.30371,936.13177
1878.30371,935.4237
1878.30371,934.71562
1878.30371,934.00755
1878.30371,933.29948
1878.30371,936.83984
1878.30371,938.96406
1880.37117,937.54792
1880.37117,940.38021
1880.37117,937.54792
1882.43864,939.67214
1882.43864,939.67214
1882.43864,940.38021
1884.5061,939.67214
1884.5061,939.67214
1884.5061,939.67214
1886.57356,936.83984
1886.57356,940.38021
1886.57356,936.83984
1888.64102,940.38021
1888.64102,934.71562
1888.64102,934.71562
1888.64102,939.67214
1890.70849,939.67214
1890.70849,932.5914
1890.70849,938.25599
1890.70849,937.54792
1890.70849,936.83984
1890.70849,932.5914
1892.77595,938.96406
1892.77595,934.71562
1892.77595,934.00755
1892.77595,935.4237
1892.77595,930.46718
1892.77595,936.13177
1892.77595,930.46718
1894.84341,934.00755
1894.84341,929.75911
1894.84341,933.29948
1894.84341,929.75911
1896.91087,926.21874
1896.91087,933.29948
1896.91087,932.5914
1896.91087,931.88333
1896.91087,926.21874
1898.97834,931.17525
1898.97834,926.21874
1898.97834,926.21874
1901.0458,926.92681
1901.0458,926.92681
1901.0458,931.17525
1903.11326,928.34296
1903.11326,928.34296
1903.11326,931.88333
1905.18072,931.88333
1905.18072,929.75911
1905.18072,932.5914
1905.18072,929.75911
1907.24819,933.29948
1907.24819,936.83984
1907.24819,931.88333
1907.24819,935.4237
1907.24819,931.88333
1907.24819,932.5914
1907.24819,934.00755
1907.24819,936.13177
1907.24819,934.71562
1909.31565,933.29948
1909.31565,933.29948
1911.38311,933.29948
1911.38311,933.29948
1913.45057,932.5914
1913.45057,932.5914
1915.51804,931.88333
1915.51804,931.88333
1917.5855,930.46718
1917.5855,930.46718
1919.65296,929.75911
1919.65296,929.75911
1921.72042,928.34296
1921.72042,928.34296
1923.78789,926.92681
1923.78789,926.92681
1925.85535,924.80259
1925.85535,924.80259
1927.92281,923.38645
1927.92281,923.38645
1929.99027,921.26223
1929.99027,921.26223
1932.05774,920.55415
1932.05774,920.55415
1934.1252,920.55415
1934.1252,920.55415
1936.19266,923.38645
1936.19266,923.38645
1938.26012,925.51067
1938.26012,925.51067
1940.32759,926.92681
1940.32759,926.92681
1942.39505,928.34296
1942.39505,928.34296
1944.46251,931.88333
1944.46251,931.88333
1946.52997,932.5914
1946.52997,932.5914
1948.59744,932.5914
1948.59744,932.5914
1950.6649,930.46718
1950.6649,930.46718
1952.73236,926.21874
1952.73236,926.21874
1954.79982,923.38645
1954.79982,923.38645
1956.86729,920.55415
1956.86729,920.55415
1958.93475,917.72186
1958.93475,917.72186
1961.00221,914.88956
1961.00221,914.88956
1963.06967,912.76534
1963.06967,912.76534
1965.13714,912.76534
1965.13714,912.76534
1967.2046,914.18149
1967.2046,914.18149
1969.27206,916.30571
1969.27206,916.30571
1971.33952,919.138
1973.40699,922.67837
1975.47445,924.80259
1977.54191,927.63489
1979.60937,929.75911
1981.67684,930.46718
1983.7443,929.75911
1985.81176,926.92681
1987.87922,926.21874
1989.94669,924.09452
1992.01415,921.9703
1994.08161,919.138
1996.14907,917.01378
1998.21653,917.01378
2000.284,917.01378
2002.35146,917.72186
2004.41892,919.138
2006.48638,921.26223
2008.55385,923.38645
2010.62131,926.21874
2012.68877,929.05103
2014.75623,931.17525
2016.8237,932.5914
2018.89116,934.71562
2020.95862,936.13177
2023.02608,936.13177
2025.09355,934.71562
2027.16101,933.29948
2029.22847,931.88333
2031.29593,930.46718
2033.3634,928.34296
2035.43086,926.92681
2037.49832,925.51067
2039.56578,924.09452
2041.63325,922.67837
2043.70071,921.26223
2045.76817,921.26223
2047.83563,921.9703
2049.9031,924.09452
2051.97056,926.21874
2054.03802,928.34296
2056.10548,931.17525
2058.17295,934.71562
2060.24041,938.25599
2062.30787,939.67214
2064.37533,941.08828
2066.4428,941.08828
2068.51026,938.25599
2070.57772,936.13177
2072.64518,935.4237
2074.71265,932.5914
2076.78011,929.75911
2078.84757,927.63489
2080.91503,928.34296
2082.9825,929.75911
2085.04996,930.46718
2087.11742,931.17525
2089.18488,933.29948
2091.25235,934.00755
2093.31981,934.71562
2095.38727,935.4237
2097.45473,934.71562
2099.5222,934.00755
2101.58966,934.00755
2103.65712,933.29948
2105.72458,934.00755
2107.79205,934.71562
2109.85951,936.83984
2111.92697,937.54792
2113.99443,939.67214
2116.0619,941.79636
2118.12936,942.50443
2120.19682,943.92058
2122.26428,948.87709
2122.26428,944.62865
2122.26428,948.16902
2122.26428,949.58517
2124.33175,942.50443
2124.33175,947.46095
2126.39921,945.33672
2126.39921,940.38021
2126.39921,946.75287
2126.39921,946.0448
2128.46667,941.08828
2128.46667,937.54792
2128.46667,944.62865
2130.53413,943.2125
2130.53413,942.50443
2130.53413,941.79636
2130.53413,927.63489
2130.53413,924.80259
2130.53413,933.29948
2130.53413,940.38021
2130.53413,943.92058
2130.53413,926.92681
2130.53413,926.21874
2130.53413,925.51067
2132.6016,917.72186
2132.6016,924.09452
2132.6016,923.38645
2132.6016,922.67837
2132.6016,918.42993
2132.6016,928.34296
2132.6016,917.01378
2132.6016,929.05103
2132.6016,938.25599
2132.6016,938.96406
2132.6016,939.67214
2132.6016,928.34296
2134.66906,916.30571
2134.66906,929.75911
2134.66906,923.38645
2134.66906,936.13177
2134.66906,935.4237
2134.66906,921.9703
2134.66906,936.83984
2134.66906,919.84608
2134.66906,912.05727
2134.66906,912.76534
2134.66906,913.47342
2134.66906,914.18149
2134.66906,914.88956
2134.66906,915.59764
2134.66906,919.138
2134.66906,937.54792
2136.73652,930.46718
2136.73652,921.26223
2136.73652,934.71562
2136.73652,920.55415
2136.73652,921.26223
2136.73652,911.3492
2138.80398,931.17525
2138.80398,931.88333
2138.80398,919.138
2138.80398,909.93305
2138.80398,909.22498
2138.80398,908.5169
2138.80398,919.138
2138.80398,934.00755
2138.80398,910.64112
2138.80398,932.5914
2138.80398,933.29948
2140.87145,915.59764
2140.87145,907.10076
2140.87145,907.80883
2140.87145,915.59764
2140.87145,906.39268
2142.93891,912.05727
2142.93891,912.05727
2145.00637,912.76534
2145.00637,912.76534
2147.07383,913.47342
2147.07383,913.47342
2149.1413,914.18149
2149.1413,914.18149
2151.20876,915.59764
2151.20876,915.59764
2153.27622,915.59764
2153.27622,915.59764
2155.34368,915.59764
2155.34368,915.59764
2157.41115,914.88956
2157.41115,914.88956
2159.47861,914.88956
2159.47861,914.88956
2161.54607,914.88956
2161.54607,914.88956
2163.61353,914.88956
2163.61353,914.88956
2165.681,914.88956
2165.681,914.88956
2167.74846,914.88956
2167.74846,914.88956
2169.81592,913.47342
2169.81592,913.47342
2171.88338,912.76534
2171.88338,912.76534
2173.95085,912.05727
2173.95085,912.05727
2176.01831,912.05727
2176.01831,912.05727
2178.08577,912.76534
2178.08577,912.76534
2180.15323,914.18149
2180.15323,914.18149
2182.2207,917.01378
2182.2207,917.01378
2184.28816,920.55415
2184.28816,920.55415
2186.35562,924.09452
2186.35562,924.09452
2188.42308,927.63489
2188.42308,927.63489
2190.49054,932.5914
2190.49054,932.5914
2192.55801,934.71562
2192.55801,934.71562
2194.62547,937.54792
2194.62547,937.54792
2194.62547,937.54792
2196.69293,939.67214
2196.69293,939.67214
2196.69293,939.67214
2198.76039,941.79636
2198.76039,941.79636
2198.76039,941.79636
2200.82786,943.92058
2200.82786,943.92058
2200.82786,943.92058
2202.89532,943.2125
2202.89532,943.2125
2202.89532,943.2125
2204.96278,942.50443
2204.96278,942.50443
2204.96278,942.50443
2207.03024,941.08828
2207.03024,941.08828
2207.03024,941.08828
2209.09771,940.38021
2209.09771,940.38021
2209.09771,940.38021
2211.16517,937.54792
2211.16517,937.54792
2211.16517,937.54792
2213.23263,935.4237
2213.23263,935.4237
2213.23263,935.4237
2215.30009,932.5914
2215.30009,932.5914
2217.36756,929.75911
2217.36756,929.75911
2219.43502,927.63489
2219.43502,927.63489
2221.50248,926.21874
2221.50248,926.21874
2223.56994,924.80259
2223.56994,924.80259
2225.63741,926.21874
2225.63741,926.21874
2227.70487,928.34296
2227.70487,928.34296
2229.77233,929.75911
2229.77233,929.75911
2231.83979,932.5914
2231.83979,932.5914
2233.90726,940.38021
2233.90726,934.71562
2233.90726,941.08828
2233.90726,939.67214
2233.90726,934.71562
2235.97472,935.4237
2235.97472,935.4237
2235.97472,938.96406
2238.04218,936.13177
2238.04218,933.29948
2238.04218,935.4237
2238.04218,937.54792
2238.04218,938.25599
2238.04218,934.00755
2238.04218,934.71562
2238.04218,936.83984
2238.04218,935.4237
2238.04218,935.4237
2240.10964,932.5914
2240.10964,934.00755
2240.10964,934.00755
2242.17711,933.29948
2242.17711,933.29948
2242.17711,932.5914
2244.24457,931.88333
2244.24457,931.88333
2244.24457,931.88333
2246.31203,931.17525
2246.31203,930.46718
2246.31203,930.46718
2248.37949,921.9703
2248.37949,926.21874
2248.37949,921.26223
2248.37949,929.05103
2248.37949,929.75911
2248.37949,930.46718
2248.37949,926.21874
2248.37949,920.55415
2248.37949,919.84608
2250.44696,922.67837
2250.44696,922.67837
2250.44696,929.05103
2250.44696,922.67837
2250.44696,919.138
2250.44696,923.38645
2250.44696,917.01378
2250.44696,916.30571
2250.44696,918.42993
2250.44696,924.09452
2250.44696,917.72186
2252.51442,924.80259
2252.51442,915.59764
2252.51442,918.42993
2252.51442,929.05103
2252.51442,918.42993
2254.58188,914.18149
2254.58188,927.63489
2254.58188,928.34296
2254.58188,914.88956
2254.58188,925.51067
2254.58188,914.18149
2256.64934,900.02002
2256.64934,926.21874
2256.64934,900.72809
2256.64934,914.18149
2256.64934,904.97653
2256.64934,913.47342
2256.64934,899.31195
2256.64934,912.05727
2256.64934,911.3492
2256.64934,901.43617
2256.64934,902.14424
2256.64934,902.85231
2256.64934,913.47342
2256.64934,903.56039
2256.64934,904.26846
2256.64934,926.92681
2256.64934,905.68461
2258.71681,909.93305
2258.71681,910.64112
2258.71681,898.60387
2258.71681,906.39268
2258.71681,907.10076
2258.71681,912.76534
2258.71681,896.47965
2258.71681,909.93305
2258.71681,913.47342
2260.78427,907.10076
2260.78427,897.18773
2260.78427,897.8958
2260.78427,907.80883
2260.78427,908.5169
2260.78427,909.22498
2260.78427,909.93305
2260.78427,907.10076
2262.85173,903.56039
2262.85173,903.56039
2264.91919,900.02002
2264.91919,900.02002
2266.98666,900.02002
2266.98666,900.02002
2269.05412,900.72809
2269.05412,900.72809
2271.12158,902.14424
2271.12158,902.14424
2273.18904,903.56039
2273.18904,903.56039
2275.25651,904.97653
2275.25651,904.97653
2277.32397,905.68461
2277.32397,905.68461
2279.39143,906.39268
2279.39143,906.39268
2281.45889,907.80883
2281.45889,907.80883
2283.52636,907.80883
2283.52636,907.80883
2285.59382,907.80883
2285.59382,907.80883
2287.66128,909.22498
2287.66128,909.22498
2289.72874,910.64112
2289.72874,910.64112
2289.72874,904.97653
2289.72874,905.68461
2289.72874,906.39268
2291.79621,907.10076
2291.79621,904.97653
2291.79621,912.05727
2291.79621,912.05727
2293.86367,907.80883
2293.86367,916.30571
2293.86367,909.22498
2293.86367,912.05727
2293.86367,911.3492
2293.86367,908.5169
2293.86367,916.30571
2295.93113,910.64112
2295.93113,921.26223
2295.93113,921.26223
2295.93113,909.93305
2295.93113,912.76534
2297.99859,922.67837
2297.99859,913.47342
2297.99859,925.51067
2297.99859,921.26223
2297.99859,925.51067
2297.99859,921.9703
2297.99859,916.30571
2297.99859,914.18149
2297.99859,914.88956
2300.06606,935.4237
2300.06606,915.59764
2300.06606,917.01378
2300.06606,929.75911
2300.06606,931.17525
2300.06606,929.75911
2300.06606,920.55415
2300.06606,930.46718
2300.06606,929.75911
2300.06606,917.72186
2300.06606,932.5914
2300.06606,923.38645
2302.13352,924.09452
2302.13352,918.42993
2302.13352,924.80259
2302.13352,926.21874
2302.13352,929.05103
2302.13352,919.138
2302.13352,919.84608
2302.13352,936.13177
2302.13352,931.88333
2302.13352,925.51067
2302.13352,933.29948
2302.13352,934.00755
2302.13352,934.71562
2302.13352,938.25599
2302.13352,936.13177
2302.13352,936.83984
2302.13352,936.13177
2304.20098,937.54792
2304.20098,938.96406
2304.20098,945.33672
2304.20098,941.08828
2304.20098,941.79636
2304.20098,943.2125
2304.20098,958.08205
2304.20098,958.79012
2304.20098,959.4982
2304.20098,960.20627
2304.20098,928.34296
2304.20098,927.63489
2304.20098,926.92681
2304.20098,961.62242
2304.20098,945.33672
2304.20098,960.91434
2304.20098,939.67214
2306.26844,970.1193
2306.26844,943.92058
2306.26844,970.82737
2306.26844,971.53544
2306.26844,972.95159
2306.26844,962.33049
2306.26844,944.62865
2306.26844,973.65967
2306.26844,946.75287
2306.26844,975.07581
2306.26844,948.16902
2306.26844,957.37397
2306.26844,942.50443
2306.26844,972.24352
2306.26844,952.41746
2306.26844,940.38021
2306.26844,947.46095
2306.26844,945.33672
2306.26844,946.0448
2306.26844,952.41746
2308.33591,948.87709
2308.33591,975.78389
2308.33591,963.03856
2308.33591,965.16278
2308.33591,969.41122
2308.33591,956.6659
2308.33591,976.49196
2308.33591,981.44847
2308.33591,982.15655
2308.33591,982.86462
2308.33591,974.36774
2308.33591,955.24975
2308.33591,955.24975
2308.33591,951.00131
2308.33591,951.70939
2308.33591,950.29324
2310.40337,968.70315
2310.40337,993.48572
2310.40337,977.20003
2310.40337,952.41746
2310.40337,949.58517
2310.40337,965.87086
2310.40337,964.45471
2310.40337,963.74664
2310.40337,955.95783
2310.40337,983.57269
2310.40337,980.7404
2310.40337,955.24975
2310.40337,954.54168
2310.40337,953.83361
2310.40337,992.77765
2310.40337,958.08205
2310.40337,994.90187
2310.40337,994.1938
2310.40337,953.12553
2310.40337,958.08205
2312.47083,987.11306
2312.47083,992.06958
2312.47083,967.99508
2312.47083,967.287
2312.47083,961.62242
2312.47083,977.90811
2312.47083,966.57893
2312.47083,961.62242
2312.47083,995.60994
2312.47083,984.28077
2312.47083,980.03233
2314.53829,968.70315
2314.53829,987.82114
2314.53829,978.61618
2314.53829,991.3615
2314.53829,996.31802
2314.53829,979.32425
2314.53829,968.70315
2314.53829,986.40499
2314.53829,984.98884
2314.53829,985.69692
2316.60576,1009.06334
2316.60576,997.73416
2316.60576,997.02609
2316.60576,989.94536
2316.60576,988.52921
2316.60576,989.23728
2316.60576,998.44224
2316.60576,974.36774
2316.60576,1011.18756
2316.60576,990.65343
2316.60576,1009.77141
2316.60576,1004.10683
2316.60576,1011.89563
2316.60576,1003.39875
2316.60576,1002.69068
2316.60576,974.36774
2318.67322,1008.35527
2318.67322,999.85839
2318.67322,999.15031
2318.67322,1012.60371
2318.67322,1010.47949
2318.67322,1004.8149
2318.67322,1005.52297
2318.67322,1000.56646
2318.67322,1007.64719
2318.67322,1006.93912
2318.67322,1001.27453
2318.67322,1001.98261
2320.74068,1021.10059
2320.74068,1015.436
2320.74068,1006.23105
2320.74068,1018.97637
2320.74068,1018.2683
2320.74068,1017.56022
2320.74068,1019.68444
2320.74068,1020.39252
2320.74068,1013.31178
2322.80814,1014.72793
2322.80814,1014.01986
2322.80814,1021.80866
2322.80814,1016.14408
2322.80814,1016.85215
2324.87561,1022.51674
2326.94307,1030.30555
2326.94307,1023.22481
2326.94307,1029.59747
2329.01053,1028.8894
2329.01053,1023.93288
2329.01053,1031.01362
2331.07799,1033.13784
2331.07799,1028.18133
2331.07799,1027.47325
2331.07799,1026.76518
2331.07799,1026.05711
2331.07799,1025.34903
2331.07799,1024.64096
2331.07799,1032.42977
2331.07799,1031.72169
2333.14546,1035.97013
2333.14546,1033.84591
2333.14546,1034.55399
2333.14546,1035.26206
2335.21292,1033.84591
2335.21292,1035.97013
2335.21292,1034.55399
2335.21292,1035.26206
2337.28038,1024.64096
2337.28038,1023.93288
2337.28038,1026.05711
2337.28038,1033.13784
2337.28038,1026.76518
2339.34784,1031.72169
2339.34784,1027.47325
2339.34784,1011.89563
2339.34784,1025.34903
2339.34784,1032.42977
2339.34784,1011.18756
2339.34784,1031.01362
2339.34784,1023.22481
2339.34784,1010.47949
2339.34784,1009.77141
2339.34784,1012.60371
2339.34784,1009.06334
2341.41531,1013.31178
2341.41531,1008.35527
2341.41531,1028.8894
2341.41531,1028.18133
2341.41531,1022.51674
2341.41531,1030.30555
2343.48277,1021.80866
2343.48277,1007.64719
2343.48277,1018.2683
2343.48277,1029.59747
2343.48277,1001.98261
2343.48277,1014.01986
2343.48277,1015.436
2343.48277,1014.72793
2343.48277,1004.8149
2343.48277,1004.10683
2343.48277,1017.56022
2343.48277,1005.52297
2343.48277,1003.39875
2343.48277,1021.10059
2345.55023,1006.93912
2345.55023,1002.69068
2345.55023,1006.23105
2345.55023,1016.85215
2345.55023,1001.27453
2345.55023,1019.68444
2345.55023,1018.97637
2345.55023,998.44224
2345.55023,997.73416
2345.55023,997.02609
2345.55023,1020.39252
2345.55023,1016.14408
2347.61769,999.85839
2347.61769,988.52921
2347.61769,1000.56646
2347.61769,996.31802
2347.61769,985.69692
2347.61769,984.98884
2347.61769,999.15031
2347.61769,989.94536
2347.61769,989.23728
2347.61769,987.82114
2349.68516,972.95159
2349.68516,987.11306
2349.68516,986.40499
2349.68516,977.90811
2349.68516,972.95159
2349.68516,984.28077
2349.68516,982.15655
2349.68516,990.65343
2349.68516,980.7404
2349.68516,980.03233
2349.68516,978.61618
2349.68516,981.44847
2349.68516,995.60994
2351.75262,968.70315
2351.75262,991.3615
2351.75262,992.06958
2351.75262,968.70315
2351.75262,977.20003
2351.75262,994.1938
2351.75262,994.90187
2351.75262,983.57269
2351.75262,979.32425
2351.75262,982.86462
2351.75262,975.07581
2353.82008,967.99508
2353.82008,976.49196
2353.82008,964.45471
2353.82008,992.77765
2353.82008,993.48572
2353.82008,974.36774
2353.82008,967.287
2353.82008,964.45471
2353.82008,975.78389
2353.82008,966.57893
2355.88754,973.65967
2355.88754,965.87086
2355.88754,960.91434
2355.88754,960.91434
2355.88754,954.54168
2355.88754,955.24975
2355.88754,958.79012
2355.88754,968.70315
2355.88754,957.37397
2355.88754,958.08205
2355.88754,959.4982
2357.95501,955.95783
2357.95501,956.6659
2357.95501,970.82737
2357.95501,971.53544
2357.95501,972.24352
2357.95501,958.08205
2357.95501,965.16278
2357.95501,970.1193
2357.95501,972.95159
2357.95501,950.29324
2357.95501,951.00131
2357.95501,951.70939
2357.95501,953.83361
2357.95501,960.20627
2357.95501,969.41122
2357.95501,958.08205
2360.02247,955.24975
2360.02247,963.74664
2360.02247,949.58517
2360.02247,964.45471
2360.02247,960.91434
2360.02247,953.12553
2360.02247,952.41746
2360.02247,961.62242
2360.02247,955.24975
2362.08993,948.87709
2362.08993,948.87709
2362.08993,948.87709
2362.08993,945.33672
2362.08993,963.03856
2362.08993,962.33049
2364.15739,943.2125
2364.15739,941.79636
2364.15739,941.79636
2364.15739,946.0448
2364.15739,946.75287
2364.15739,948.16902
2364.15739,944.62865
2364.15739,938.96406
2364.15739,939.67214
2364.15739,940.38021
2364.15739,942.50443
2364.15739,947.46095
2364.15739,941.79636
2366.22486,941.08828
2366.22486,934.00755
2366.22486,943.92058
2366.22486,938.25599
2366.22486,937.54792
2366.22486,931.88333
2366.22486,936.83984
2366.22486,936.83984
2366.22486,932.5914
2366.22486,936.13177
2366.22486,936.83984
2366.22486,934.71562
2366.22486,933.29948
2368.29232,935.4237
2368.29232,931.88333
2368.29232,931.88333
2368.29232,924.09452
2368.29232,931.17525
2368.29232,929.05103
2370.35978,924.80259
2370.35978,928.34296
2370.35978,917.01378
2370.35978,929.75911
2370.35978,930.46718
2370.35978,919.138
2370.35978,919.84608
2370.35978,923.38645
2370.35978,927.63489
2370.35978,918.42993
2370.35978,916.30571
2370.35978,927.63489
2370.35978,917.72186
2372.42724,922.67837
2372.42724,926.21874
2372.42724,920.55415
2372.42724,921.9703
2372.42724,923.38645
2372.42724,926.92681
2372.42724,915.59764
2372.42724,927.63489
2372.42724,923.38645
2372.42724,921.26223
2372.42724,925.51067
2374.49471,912.05727
2374.49471,919.84608
2374.49471,914.88956
2374.49471,919.84608
2374.49471,912.76534
2374.49471,910.64112
2374.49471,914.18149
2374.49471,911.3492
2374.49471,913.47342
2376.56217,907.80883
2376.56217,907.10076
2376.56217,914.18149
2376.56217,909.93305
2376.56217,909.22498
2376.56217,905.68461
2376.56217,914.18149
2376.56217,908.5169
2376.56217,904.97653
2378.62963,909.93305
2378.62963,909.93305
2378.62963,906.39268
2378.62963,903.56039
2378.62963,901.43617
2378.62963,900.02002
2378.62963,904.26846
2378.62963,902.14424
2378.62963,902.85231
2378.62963,899.31195
2380.69709,906.39268
2380.69709,896.47965
2380.69709,906.39268
2380.69709,897.18773
2380.69709,897.8958
2380.69709,900.72809
2380.69709,898.60387
2382.76455,891.52314
2382.76455,893.64736
2382.76455,892.23121
2382.76455,892.93929
2382.76455,895.77158
2382.76455,902.14424
2382.76455,903.56039
2384.83202,895.06351
2384.83202,889.39892
2384.83202,894.35543
2384.83202,890.81506
2384.83202,902.14424
2384.83202,900.02002
2386.89948,899.31195
2386.89948,888.69084
2386.89948,890.10699
2386.89948,901.43617
2388.96694,904.97653
2388.96694,902.85231
2388.96694,887.98277
2388.96694,887.2747
2388.96694,886.56662
2391.0344,909.93305
2391.0344,907.80883
2393.10187,913.47342
2393.10187,911.3492
2395.16933,917.72186
2395.16933,917.72186
2397.23679,925.51067
2397.23679,925.51067
2399.30425,933.29948
2399.30425,933.29948
2401.37172,941.08828
2401.37172,941.08828
2403.43918,947.46095
2403.43918,947.46095
2405.50664,951.00131
2405.50664,951.00131
2407.5741,954.54168
2407.5741,954.54168
2409.64157,959.4982
2409.64157,959.4982
2411.70903,962.33049
2411.70903,962.33049
2413.77649,963.03856
2413.77649,963.03856
2415.84395,960.20627
2415.84395,960.20627
2417.91142,956.6659
2417.91142,956.6659
2419.97888,954.54168
2419.97888,954.54168
2422.04634,952.41746
2422.04634,952.41746
2424.1138,950.29324
2424.1138,950.29324
2426.18127,946.75287
2426.18127,946.75287
2428.24873,943.92058
2428.24873,943.92058
2430.31619,942.50443
2430.31619,942.50443
2432.38365,940.38021
2432.38365,940.38021
2434.45112,938.25599
2434.45112,938.25599
2436.51858,936.13177
2436.51858,936.13177
2438.58604,934.00755
2438.58604,934.00755
2440.6535,931.88333
2440.6535,931.88333
2442.72097,929.05103
2442.72097,929.05103
2444.78843,926.21874
2444.78843,926.21874
2446.85589,922.67837
2446.85589,922.67837
2448.92335,921.26223
2448.92335,921.26223
2450.99082,922.67837
2450.99082,922.67837
2453.05828,924.80259
2453.05828,924.80259
2455.12574,927.63489
2455.12574,927.63489
2457.1932,928.34296
2457.1932,928.34296
2459.26067,930.46718
2459.26067,930.46718
2461.32813,933.29948
2461.32813,933.29948
2463.39559,935.4237
2463.39559,935.4237
2465.46305,937.54792
2465.46305,937.54792
2467.53052,940.38021
2467.53052,940.38021
2469.59798,941.79636
2469.59798,941.79636
2471.66544,942.50443
2471.66544,942.50443
2473.7329,943.92058
2473.7329,943.92058
2475.80037,946.0448
2475.80037,946.0448
2477.86783,948.87709
2477.86783,948.87709
2479.93529,951.00131
2479.93529,951.00131
2482.00275,953.83361
2482.00275,953.83361
2484.07022,955.95783
2484.07022,955.95783
2486.13768,957.37397
2486.13768,957.37397
2488.20514,959.4982
2488.20514,959.4982
2490.2726,959.4982
2490.2726,959.4982
2492.34007,957.37397
2492.34007,957.37397
2494.40753,953.12553
2494.40753,953.12553
2496.47499,948.16902
2496.47499,950.29324
2496.47499,950.29324
2498.54245,946.0448
2498.54245,947.46095
2498.54245,946.0448
2498.54245,948.87709
2498.54245,950.29324
2500.60992,949.58517
2500.60992,946.75287
2500.60992,946.0448
2500.60992,951.00131
2500.60992,934.00755
2500.60992,929.75911
2500.60992,954.54168
2500.60992,953.83361
2500.60992,943.2125
2500.60992,955.24975
2500.60992,942.50443
2500.60992,942.50443
2500.60992,934.71562
2502.67738,935.4237
2502.67738,930.46718
2502.67738,952.41746
2502.67738,927.63489
2502.67738,939.67214
2502.67738,929.05103
2502.67738,955.95783
2502.67738,953.12553
2502.67738,936.83984
2502.67738,936.13177
2502.67738,937.54792
2502.67738,938.96406
2502.67738,939.67214
2502.67738,940.38021
2502.67738,928.34296
2502.67738,941.08828
2502.67738,942.50443
2502.67738,945.33672
2502.67738,943.92058
2502.67738,951.70939
2502.67738,944.62865
2502.67738,939.67214
2502.67738,932.5914
2502.67738,933.29948
2502.67738,956.6659
2502.67738,931.88333
2502.67738,931.17525
2504.74484,938.25599
2504.74484,941.79636
2504.74484,926.92681
2504.74484,926.21874
2504.74484,936.13177
2504.74484,936.13177
2506.8123,932.5914
2506.8123,921.9703
2506.8123,932.5914
2506.8123,925.51067
2508.87977,927.63489
2508.87977,924.80259
2508.87977,922.67837
2508.87977,923.38645
2508.87977,921.26223
2508.87977,927.63489
2508.87977,924.09452
2510.94723,920.55415
2510.94723,924.80259
2510.94723,924.80259
2513.01469,919.84608
2513.01469,923.38645
2513.01469,923.38645
2515.08215,917.72186
2515.08215,924.09452
2515.08215,918.42993
2515.08215,919.138
2515.08215,924.09452
2517.14962,926.21874
2517.14962,926.21874
2519.21708,928.34296
2519.21708,928.34296
2521.28454,929.75911
2521.28454,929.75911
2523.352,931.88333
2523.352,931.88333
2525.41947,934.00755
2525.41947,934.00755
2527.48693,936.13177
2527.48693,936.13177
2529.55439,937.54792
2529.55439,937.54792
2531.62185,938.96406
2531.62185,938.96406
2533.68932,938.96406
2533.68932,938.96406
2535.75678,940.38021
2535.75678,940.38021
2537.82424,940.38021
2537.82424,940.38021
2539.8917,941.08828
2539.8917,941.08828
2541.95917,939.67214
2541.95917,939.67214
2544.02663,938.25599
2544.02663,938.25599
2546.09409,936.83984
2546.09409,936.83984
2548.16155,935.4237
2548.16155,935.4237
2550.22902,934.00755
2550.22902,934.00755
2552.29648,931.17525
2552.29648,931.17525
2554.36394,929.75911
2554.36394,929.75911
2556.4314,927.63489
2556.4314,927.63489
2558.49887,927.63489
2558.49887,927.63489
2560.56633,927.63489
2560.56633,926.21874
2560.56633,924.09452
2560.56633,925.51067
2560.56633,924.80259
2560.56633,926.92681
2560.56633,927.63489
2562.63379,928.34296
2562.63379,926.92681
2562.63379,928.34296
2564.70125,926.92681
2564.70125,929.75911
2564.70125,929.75911
2566.76872,927.63489
2566.76872,926.92681
2566.76872,930.46718
2566.76872,928.34296
2566.76872,930.46718
2568.83618,929.75911
2568.83618,929.05103
2568.83618,931.17525
2568.83618,931.17525
2568.83618,928.34296
2570.90364,931.17525
2570.90364,929.75911
2570.90364,931.17525
2572.9711,931.17525
2572.9711,931.17525
2572.9711,929.05103
2575.03857,930.46718
2575.03857,928.34296
2575.03857,930.46718
2577.10603,929.75911
2577.10603,927.63489
2577.10603,929.75911
2579.17349,929.05103
2579.17349,929.05103
2579.17349,927.63489
2581.24095,929.05103
2581.24095,928.34296
2581.24095,929.05103
2583.30841,929.05103
2583.30841,929.05103
2583.30841,928.34296
2585.37588,929.05103
2585.37588,929.05103
2585.37588,927.63489
2587.44334,929.75911
2587.44334,927.63489
2587.44334,929.75911
2589.5108,930.46718
2589.5108,928.34296
2589.5108,930.46718
2591.57826,931.88333
2591.57826,932.5914
2591.57826,933.29948
2591.57826,931.17525
2591.57826,931.88333
2591.57826,930.46718
2591.57826,931.88333
2591.57826,929.75911
2591.57826,928.34296
2591.57826,929.05103
2593.64573,933.29948
2593.64573,933.29948
2593.64573,933.29948
2595.71319,934.71562
2595.71319,934.71562
2595.71319,933.29948
2597.78065,933.29948
2597.78065,936.13177
2597.78065,936.13177
2599.84811,933.29948
2599.84811,937.54792
2599.84811,941.79636
2599.84811,936.13177
2599.84811,935.4237
2599.84811,934.71562
2599.84811,937.54792
2599.84811,937.54792
2601.91558,938.25599
2601.91558,934.00755
2601.91558,936.83984
2601.91558,943.92058
2601.91558,938.25599
2601.91558,943.2125
2601.91558,938.25599
2601.91558,942.50443
2601.91558,941.08828
2601.91558,941.79636
2603.98304,940.38021
2603.98304,940.38021
2603.98304,937.54792
2603.98304,943.92058
2603.98304,944.62865
2603.98304,940.38021
2603.98304,940.38021
2603.98304,938.25599
2606.0505,944.62865
2606.0505,939.67214
2606.0505,941.79636
2606.0505,938.96406
2606.0505,941.79636
2606.0505,941.79636
2608.11796,944.62865
2608.11796,943.2125
2608.11796,945.33672
2608.11796,943.2125
2608.11796,943.2125
2610.18543,945.33672
2610.18543,945.33672
2610.18543,945.33672
2610.18543,945.33672
2612.25289,946.0448
2612.25289,946.0448
2612.25289,946.0448
2612.25289,945.33672
2614.32035,948.16902
2614.32035,945.33672
2614.32035,948.16902
2614.32035,948.16902
2616.38781,949.58517
2616.38781,949.58517
2616.38781,946.0448
2616.38781,945.33672
2616.38781,949.58517
2618.45528,949.58517
2618.45528,948.87709
2618.45528,948.16902
2618.45528,950.29324
2618.45528,947.46095
2618.45528,950.29324
2618.45528,950.29324
2618.45528,951.00131
2618.45528,950.29324
2618.45528,953.12553
2618.45528,952.41746
2618.45528,946.75287
2618.45528,951.70939
2620.52274,951.00131
2620.52274,951.00131
2620.52274,953.12553
2620.52274,953.83361
2620.52274,951.00131
2622.5902,954.54168
2622.5902,953.83361
2622.5902,952.41746
2622.5902,952.41746
2622.5902,952.41746
2624.65766,953.83361
2624.65766,953.83361
2624.65766,953.83361
2624.65766,955.24975
2626.72513,953.83361
2626.72513,953.83361
2626.72513,953.83361
2626.72513,955.24975
2628.79259,955.24975
2628.79259,952.41746
2628.79259,952.41746
2628.79259,952.41746
2630.86005,950.29324
2630.86005,950.29324
2630.86005,950.29324
2630.86005,955.24975
2632.92751,948.16902
2632.92751,948.16902
2632.92751,955.95783
2632.92751,948.16902
2634.99498,946.75287
2634.99498,946.75287
2634.99498,946.75287
2637.06244,943.92058
2637.06244,943.92058
2637.06244,943.92058
2639.1299,940.38021
2639.1299,940.38021
2639.1299,940.38021
2641.19736,936.13177
2641.19736,936.13177
2641.19736,936.13177
2643.26483,931.88333
2643.26483,931.88333
2643.26483,931.88333
2645.33229,929.05103
2645.33229,929.05103
2645.33229,929.05103
2647.39975,924.80259
2647.39975,924.80259
2647.39975,924.80259
2649.46721,921.26223
2649.46721,921.26223
2649.46721,921.26223
2651.53468,918.42993
2651.53468,918.42993
2651.53468,918.42993
2653.60214,914.88956
2653.60214,914.88956
2653.60214,914.88956
2655.6696,912.76534
2655.6696,912.76534
2655.6696,912.76534
2657.73706,905.68461
2657.73706,910.64112
2657.73706,910.64112
2657.73706,910.64112
2657.73706,904.97653
2659.80453,906.39268
2659.80453,909.93305
2659.80453,909.93305
2659.80453,909.93305
2661.87199,910.64112
2661.87199,910.64112
2661.87199,907.10076
2661.87199,910.64112
2663.93945,912.76534
2663.93945,907.80883
2663.93945,908.5169
2663.93945,912.76534
2663.93945,912.76534
2666.00691,914.88956
2666.00691,910.64112
2666.00691,914.88956
2666.00691,911.3492
2666.00691,914.88956
2666.00691,909.22498
2666.00691,909.93305
2668.07438,912.05727
2668.07438,917.01378
2668.07438,917.01378
2668.07438,917.01378
2670.14184,919.84608
2670.14184,917.72186
2670.14184,919.84608
2670.14184,913.47342
2670.14184,919.84608
2670.14184,912.76534
2670.14184,919.138
2670.14184,918.42993
2672.2093,914.18149
2672.2093,915.59764
2672.2093,917.01378
2672.2093,921.9703
2672.2093,921.9703
2672.2093,914.88956
2672.2093,919.84608
2672.2093,921.9703
2672.2093,929.75911
2674.27676,924.09452
2674.27676,916.30571
2674.27676,920.55415
2674.27676,924.09452
2674.27676,930.46718
2674.27676,929.75911
2674.27676,929.05103
2674.27676,924.09452
2676.34423,926.21874
2676.34423,926.21874
2676.34423,921.9703
2676.34423,926.21874
2676.34423,921.26223
2676.34423,924.09452
2676.34423,928.34296
2676.34423,930.46718
2678.41169,930.46718
2678.41169,925.51067
2678.41169,923.38645
2678.41169,922.67837
2678.41169,924.80259
2678.41169,927.63489
2678.41169,928.34296
2678.41169,928.34296
2678.41169,926.21874
2678.41169,928.34296
2680.47915,931.17525
2680.47915,931.17525
2680.47915,933.29948
2680.47915,931.17525
2680.47915,931.88333
2680.47915,926.92681
2680.47915,930.46718
2680.47915,934.00755
2680.47915,932.5914
2680.47915,931.17525
2682.54661,932.5914
2682.54661,934.71562
2682.54661,932.5914
2682.54661,932.5914
2682.54661,934.00755
2684.61408,933.29948
2684.61408,933.29948
2684.61408,933.29948
2684.61408,934.71562
2686.68154,934.00755
2686.68154,934.00755
2686.68154,934.00755
2686.68154,934.71562
2688.749,934.71562
2688.749,934.71562
2688.749,934.71562
2688.749,935.4237
2690.81646,936.13177
2690.81646,936.13177
2690.81646,936.13177
2690.81646,935.4237
2692.88393,937.54792
2692.88393,937.54792
2692.88393,935.4237
2692.88393,937.54792
2694.95139,938.96406
2694.95139,941.79636
2694.95139,942.50443
2694.95139,943.2125
2694.95139,938.96406
2694.95139,938.96406
2694.95139,935.4237
2694.95139,941.08828
2697.01885,937.54792
2697.01885,938.25599
2697.01885,940.38021
2697.01885,940.38021
2697.01885,936.83984
2697.01885,940.38021
2697.01885,944.62865
2697.01885,943.92058
2697.01885,936.13177
2699.08631,938.96406
2699.08631,941.08828
2699.08631,939.67214
2699.08631,945.33672
2699.08631,941.08828
2701.15378,946.0448
2701.15378,942.50443
2701.15378,942.50443
2703.22124,943.2125
2703.22124,947.46095
2703.22124,948.16902
2703.22124,943.2125
2703.22124,946.75287
2705.2887,941.08828
2705.2887,941.08828
2707.35616,940.38021
2707.35616,940.38021
2709.42363,938.96406
2709.42363,938.96406
2711.49109,937.54792
2711.49109,937.54792
2713.55855,936.13177
2713.55855,936.13177
2715.62601,934.00755
2715.62601,934.00755
2717.69348,933.29948
2717.69348,933.29948
2719.76094,931.88333
2719.76094,931.88333
2721.8284,930.46718
2721.8284,930.46718
2723.89586,929.75911
2723.89586,929.75911
2725.96333,928.34296
2725.96333,928.34296
2728.03079,927.63489
2728.03079,927.63489
2730.09825,926.21874
2730.09825,926.21874
2732.16571,925.51067
2732.16571,925.51067
2734.23318,924.80259
2734.23318,924.80259
2736.30064,924.09452
2736.30064,924.09452
2738.3681,923.38645
2738.3681,923.38645
2740.43556,921.9703
2740.43556,921.9703
2742.50303,921.26223
2742.50303,921.26223
2744.57049,920.55415
2744.57049,920.55415
2746.63795,920.55415
2746.63795,920.55415
2748.70541,921.9703
2748.70541,921.9703
2750.77288,923.38645
2750.77288,923.38645
2752.84034,924.09452
2752.84034,924.09452
2754.9078,926.21874
2754.9078,926.21874
2756.97526,925.51067
2756.97526,925.51067
2759.04273,922.67837
2759.04273,922.67837
2761.11019,920.55415
2761.11019,920.55415
2763.17765,916.30571
2763.17765,916.30571
2765.24511,912.76534
2765.24511,912.76534
2767.31258,908.5169
2767.31258,908.5169
2769.38004,905.68461
2769.38004,905.68461
2771.4475,902.85231
2771.4475,902.85231
2773.51496,900.72809
2773.51496,900.72809
2775.58242,898.60387
2775.58242,898.60387
2777.64989,896.47965
2777.64989,896.47965
2779.71735,897.18773
2781.78481,898.60387
2783.85227,901.43617
2785.91974,903.56039
2787.9872,906.39268
2790.05466,910.64112
2792.12212,914.18149
2794.18959,918.42993
2796.25705,921.26223
2798.32451,923.38645
2800.39197,925.51067
2802.45944,927.63489
2804.5269,929.75911
2806.59436,930.46718
2808.66182,931.88333
2810.72929,932.5914
2812.79675,932.5914
2814.86421,933.29948
2816.93167,932.5914
2818.99914,931.17525
2821.0666,929.75911
2823.13406,929.05103
2825.20152,927.63489
2827.26899,924.80259
2829.33645,923.38645
2831.40391,920.55415
2833.47137,917.72186
2835.53884,915.59764
2837.6063,912.76534
2839.67376,911.3492
2841.74122,909.93305
2843.80869,908.5169
2845.87615,908.5169
2847.94361,909.22498
2850.01107,910.64112
2852.07854,912.76534
2854.146,914.88956
2856.21346,917.01378
2858.28092,918.42993
2860.34839,919.138
2862.41585,918.42993
2864.48331,917.01378
2866.55077,914.88956
2868.61824,912.76534
2870.6857,909.22498
2872.75316,907.10076
2874.82062,904.97653
2876.88809,902.85231
2878.95555,901.43617
2881.02301,900.02002
2883.09047,899.31195
2885.15794,900.02002
2887.2254,901.43617
2889.29286,902.14424
2891.36032,902.85231
2893.42779,902.85231
2895.49525,900.72809
2897.56271,897.8958
2899.63017,895.06351
2901.69764,894.35543
2903.7651,891.52314
2905.83256,882.31818
2905.83256,881.61011
2905.83256,880.90204
2905.83256,888.69084
2907.90002,887.2747
2907.90002,883.02626
2909.96749,883.73433
2909.96749,887.98277
2909.96749,884.4424
2912.03495,886.56662
2912.03495,890.81506
2912.03495,887.98277
2912.03495,887.2747
2912.03495,885.15048
2912.03495,885.85855
2912.03495,888.69084
2914.10241,892.93929
2914.10241,889.39892
2916.16987,891.52314
2916.16987,895.77158
2916.16987,890.10699
2918.23734,899.31195
2918.23734,890.81506
2918.23734,892.93929
2918.23734,892.23121
2920.3048,895.06351
2920.3048,903.56039
2920.3048,894.35543
2920.3048,893.64736
2920.3048,904.97653
2920.3048,905.68461
2920.3048,907.80883
2920.3048,906.39268
2922.37226,907.80883
2922.37226,907.10076
2922.37226,897.18773
2922.37226,908.5169
2922.37226,909.93305
2922.37226,904.26846
2922.37226,895.77158
2922.37226,896.47965
2922.37226,897.8958
2924.43972,912.76534
2924.43972,899.31195
2924.43972,900.02002
2924.43972,909.22498
2924.43972,910.64112
2924.43972,903.56039
2924.43972,901.43617
2924.43972,898.60387
2924.43972,900.72809
2926.50719,917.01378
2926.50719,911.3492
2926.50719,912.76534
2926.50719,915.59764
2926.50719,916.30571
2926.50719,929.75911
2926.50719,916.30571
2926.50719,929.05103
2926.50719,902.85231
2926.50719,928.34296
2926.50719,902.14424
2928.57465,912.05727
2928.57465,913.47342
2928.57465,914.18149
2928.57465,914.88956
2928.57465,917.72186
2928.57465,918.42993
2928.57465,921.9703
2928.57465,930.46718
2928.57465,919.138
2928.57465,919.138
2928.57465,919.84608
2928.57465,921.26223
2928.57465,927.63489
2930.64211,931.17525
2930.64211,924.09452
2930.64211,924.80259
2930.64211,926.92681
2930.64211,922.67837
2930.64211,920.55415
2930.64211,921.9703
2932.70957,923.38645
2932.70957,931.17525
2932.70957,926.21874
2932.70957,925.51067
2932.70957,926.21874
2934.77704,929.75911
2934.77704,934.00755
2934.77704,934.71562
2934.77704,931.17525
2934.77704,931.88333
2934.77704,932.5914
2934.77704,933.29948
2934.77704,935.4237
2936.8445,936.13177
2936.8445,934.00755
2936.8445,938.96406
2938.91196,938.25599
2938.91196,936.83984
2938.91196,940.38021
2938.91196,939.67214
2938.91196,936.13177
2940.97942,937.54792
2940.97942,941.79636
2940.97942,941.08828
2940.97942,937.54792
2943.04689,942.50443
2943.04689,943.2125
2943.04689,939.67214
2945.11435,940.38021
2945.11435,943.92058
2947.18181,940.38021
2947.18181,944.62865
2949.24927,945.33672
2949.24927,937.54792
2949.24927,946.0448
2951.31674,934.71562
2953.3842,932.5914
2955.45166,929.05103
2957.51912,924.09452
2959.58659,919.84608
2961.65405,915.59764
2963.72151,912.76534
2965.78897,911.3492
2967.85643,909.22498
2969.9239,909.22498
2971.99136,910.64112
2974.05882,913.47342
2976.12628,914.88956
2978.19375,917.01378
2980.26121,918.42993
2982.32867,919.84608
2984.39613,919.84608
2986.4636,918.42993
2988.53106,917.01378
2990.59852,915.59764
2992.66598,913.47342
2994.73345,912.05727
2996.80091,910.64112
2998.86837,910.64112
3000.93583,912.76534
3003.0033,914.88956
3005.07076,915.59764
3007.13822,917.72186
3009.20568,919.84608
3011.27315,921.9703
3013.34061,924.09452
3015.40807,925.51067
3017.47553,926.21874
3019.543,925.51067
3021.61046,924.80259
3023.67792,924.80259
3025.74538,926.21874
3027.81285,927.63489
3029.88031,929.75911
3031.94777,932.5914
3034.01523,936.83984
3036.0827,940.38021
3038.15016,945.33672
3040.21762,947.46095
3042.28508,949.58517
3044.35255,952.41746
3046.42001,954.54168
3048.48747,953.12553
3050.55493,951.00131
3052.6224,948.87709
3054.68986,946.0448
3056.75732,943.92058
3058.82478,942.50443
3060.89225,940.38021
3060.89225,942.50443
3060.89225,944.62865
3060.89225,945.33672
3060.89225,943.92058
3060.89225,943.2125
3062.95971,941.79636
3062.95971,942.50443
3062.95971,938.96406
3062.95971,946.0448
3065.02717,938.25599
3065.02717,937.54792
3065.02717,938.96406
3065.02717,941.79636
3065.02717,941.08828
3065.02717,938.96406
3065.02717,939.67214
3065.02717,940.38021
3067.09463,935.4237
3067.09463,936.13177
3067.09463,936.83984
3067.09463,938.96406
3069.1621,935.4237
3069.1621,938.25599
3069.1621,934.71562
3071.22956,933.29948
3071.22956,932.5914
3071.22956,931.88333
3071.22956,931.17525
3071.22956,936.83984
3071.22956,934.71562
3071.22956,934.00755
3073.29702,930.46718
3073.29702,935.4237
3073.29702,931.17525
3075.36448,934.00755
3075.36448,929.75911
3077.43195,933.29948
3077.43195,929.05103
3079.49941,931.88333
3079.49941,929.05103
3081.56687,930.46718
3081.56687,929.05103
3083.63433,929.75911
3083.63433,928.34296
3085.7018,928.34296
3085.7018,927.63489
3085.7018,929.75911
3085.7018,929.05103
3087.76926,927.63489
3087.76926,929.05103
3089.83672,928.34296
3089.83672,927.63489
3091.90418,926.92681
3091.90418,927.63489
3091.90418,926.21874
3093.97165,927.63489
3093.97165,926.21874
3096.03911,926.92681
3096.03911,926.21874
3098.10657,927.63489
3098.10657,925.51067
3100.17403,927.63489
3100.17403,926.21874
3102.2415,927.63489
3102.2415,926.92681
3104.30896,926.92681
3104.30896,926.92681
3106.37642,925.51067
3106.37642,926.92681
3108.44388,924.80259
3108.44388,926.92681
3110.51135,924.09452
3110.51135,926.92681
3112.57881,927.63489
3112.57881,924.80259
3114.64627,926.92681
3114.64627,932.5914
3114.64627,934.00755
3114.64627,933.29948
3114.64627,929.75911
3114.64627,931.17525
3114.64627,930.46718
3114.64627,928.34296
3114.64627,929.05103
3114.64627,931.88333
3116.71373,934.71562
3116.71373,929.05103
3118.7812,935.4237
3118.7812,939.67214
3118.7812,940.38021
3118.7812,941.08828
3118.7812,936.83984
3118.7812,931.88333
3118.7812,941.79636
3120.84866,937.54792
3120.84866,938.96406
3120.84866,935.4237
3120.84866,936.13177
3120.84866,942.50443
3120.84866,943.2125
3122.91612,943.92058
3122.91612,938.25599
3122.91612,939.67214
3122.91612,947.46095
3122.91612,946.75287
3122.91612,948.16902
3124.98358,946.0448
3124.98358,949.58517
3124.98358,948.87709
3124.98358,942.50443
3124.98358,944.62865
3127.05105,945.33672
3127.05105,944.62865
3127.05105,950.29324
3129.11851,951.00131
3129.11851,947.46095
3131.18597,953.12553
3131.18597,952.41746
3131.18597,951.70939
3131.18597,948.16902
3133.25343,947.46095
3135.3209,946.0448
3137.38836,943.92058
3139.45582,941.08828
3141.52328,938.96406
3143.59075,937.54792
3145.65821,936.13177
3147.72567,934.71562
3149.79313,933.29948
3151.8606,932.5914
3153.92806,933.29948
3155.99552,934.00755
3158.06298,934.71562
3160.13044,936.13177
3162.19791,937.54792
3164.26537,939.67214
3166.33283,941.79636
3168.40029,943.92058
3170.46776,945.33672
3172.53522,948.16902
3174.60268,950.29324
3176.67014,952.41746
3178.73761,953.83361
3180.80507,953.83361
3182.87253,953.12553
3184.93999,951.00131
3187.00746,949.58517
3189.07492,946.75287
3191.14238,943.92058
3193.20984,941.08828
3195.27731,939.67214
3197.34477,938.25599
3199.41223,936.83984
3201.47969,936.13177
3203.54716,936.13177
3205.61462,937.54792
3207.68208,938.96406
3209.74954,940.38021
3211.81701,941.08828
3213.88447,942.50443
3215.95193,943.92058
3218.01939,945.33672
3220.08686,946.0448
3222.15432,948.87709
3222.15432,945.33672
3224.22178,949.58517
3224.22178,948.16902
3224.22178,943.2125
3226.28924,941.08828
3226.28924,932.5914
3226.28924,947.46095
3226.28924,944.62865
3226.28924,945.33672
3228.35671,946.0448
3228.35671,946.75287
3228.35671,943.92058
3228.35671,933.29948
3228.35671,938.25599
3228.35671,931.88333
3228.35671,931.17525
3228.35671,930.46718
3228.35671,929.05103
3228.35671,928.34296
3230.42417,937.54792
3230.42417,935.4237
3230.42417,934.71562
3230.42417,936.13177
3230.42417,943.2125
3230.42417,936.83984
3230.42417,927.63489
3230.42417,926.92681
3230.42417,929.75911
3230.42417,934.00755
3232.49163,924.80259
3232.49163,926.21874
3232.49163,923.38645
3232.49163,942.50443
3232.49163,925.51067
3232.49163,938.25599
3232.49163,936.13177
3232.49163,924.09452
3232.49163,931.88333
3234.55909,939.67214
3234.55909,941.08828
3234.55909,938.96406
3234.55909,920.55415
3234.55909,918.42993
3234.55909,940.38021
3234.55909,919.84608
3234.55909,921.9703
3234.55909,928.34296
3234.55909,921.26223
3234.55909,922.67837
3234.55909,919.138
3234.55909,941.79636
3236.62656,917.72186
3236.62656,917.01378
3236.62656,916.30571
3236.62656,915.59764
3236.62656,924.80259
3238.69402,922.67837
3238.69402,914.88956
3240.76148,920.55415
3240.76148,914.88956
3242.82894,917.72186
3242.82894,914.88956
3244.89641,915.59764
3244.89641,914.88956
3244.89641,914.18149
3244.89641,913.47342
3244.89641,912.76534
3246.96387,912.76534
3246.96387,912.05727
3246.96387,914.88956
3249.03133,911.3492
3249.03133,910.64112
3249.03133,914.88956
3251.09879,917.01378
3253.16626,918.42993
3255.23372,919.84608
3257.30118,921.9703
3259.36864,924.80259
3261.43611,926.92681
3263.50357,928.34296
3265.57103,929.75911
3267.63849,930.46718
3269.70596,931.88333
3271.77342,931.88333
3273.84088,932.5914
3275.90834,933.29948
3277.97581,934.00755
3280.04327,935.4237
3282.11073,936.13177
3284.17819,937.54792
3286.24566,939.67214
3288.31312,941.79636
3290.38058,945.33672
3292.44804,948.87709
3294.51551,951.70939
3296.58297,953.83361
3298.65043,955.24975
3300.71789,958.08205
3302.78536,960.20627
3304.85282,960.20627
3306.92028,959.4982
3308.98774,958.79012
3311.05521,958.08205
3313.12267,957.37397
3315.19013,956.6659
3317.25759,955.24975
3319.32506,953.83361
3321.39252,952.41746
3323.45998,951.00131
3325.52744,948.16902
3327.59491,946.0448
3329.66237,943.92058
3331.72983,942.50443
3333.79729,941.79636
3335.86476,940.38021
3337.93222,941.08828
3339.99968,943.2125
3342.06714,946.0448
3344.13461,948.87709
3346.20207,951.00131
3348.26953,951.70939
3350.33699,954.54168
3352.40445,958.08205
3354.47192,958.08205
3356.53938,956.6659
3358.60684,952.41746
3360.6743,948.87709
3362.74177,945.33672
3364.80923,942.50443
3366.87669,937.54792
3368.94415,932.5914
3371.01162,927.63489
3373.07908,924.09452
3375.14654,921.26223
3377.214,919.84608
3379.28147,919.84608
3381.34893,920.55415
3383.41639,921.9703
3385.48385,923.38645
3387.55132,924.80259
3389.61878,926.21874
3391.68624,926.21874
3393.7537,926.21874
3395.82117,925.51067
3397.88863,926.21874
3399.95609,926.92681
3402.02355,928.34296
3404.09102,930.46718
3406.15848,933.29948
3408.22594,936.83984
3410.2934,941.08828
3412.36087,945.33672
3414.42833,948.16902
3416.49579,951.00131
3418.56325,953.83361
3420.63072,955.95783
3422.69818,958.79012
3424.76564,958.79012
3426.8331,956.6659
3428.90057,953.83361
3430.96803,949.58517
3433.03549,944.62865
3435.10295,938.96406
3437.17042,932.5914
3439.23788,928.34296
3441.30534,924.80259
3443.3728,921.26223
3445.44027,917.72186
3447.50773,913.47342
3449.57519,912.76534
3451.64265,913.47342
3453.71012,914.88956
3455.77758,916.30571
3457.84504,917.01378
3459.9125,918.42993
3461.97997,918.42993
3464.04743,917.72186
3466.11489,917.01378
3468.18235,916.30571
3470.24982,915.59764
3472.31728,914.88956
3474.38474,916.30571
3476.4522,917.72186
3478.51967,919.138
3480.58713,921.9703
3482.65459,924.80259
3484.72205,928.34296
3486.78952,931.88333
3488.85698,935.4237
3490.92444,937.54792
3492.9919,938.25599
3495.05937,936.83984
3497.12683,934.00755
3499.19429,932.5914
3501.26175,929.75911
3503.32922,926.21874
3505.39668,921.9703
3507.46414,918.42993
3509.5316,917.72186
3511.59907,917.72186
3513.66653,917.72186
3515.73399,919.84608
3517.80145,921.9703
3519.86892,924.80259
3521.93638,926.92681
3524.00384,927.63489
3526.0713,929.75911
3528.13877,931.88333
3530.20623,934.00755
3532.27369,935.4237
3534.34115,936.13177
3536.40862,935.4237
3538.47608,935.4237
3540.54354,934.71562
3542.611,933.29948
3544.67846,931.17525
3546.74593,929.75911
3548.81339,929.05103
3550.88085,927.63489
3552.94831,926.21874
3555.01578,926.21874
3557.08324,927.63489
3575.6904,965.16278
3575.6904,966.57893
3575.6904,965.87086
3577.75786,964.45471
3579.82533,963.74664
3581.89279,963.03856
3581.89279,955.24975
3581.89279,961.62242
3581.89279,960.20627
3581.89279,960.91434
3581.89279,962.33049
3583.96025,955.95783
3583.96025,954.54168
3583.96025,959.4982
3586.02771,958.79012
3586.02771,958.08205
3586.02771,957.37397
3586.02771,956.6659
3586.02771,953.83361
3588.09518,953.12553
3588.09518,932.5914
3588.09518,933.29948
3588.09518,934.00755
3590.16264,950.29324
3590.16264,951.00131
3590.16264,948.87709
3590.16264,948.16902
3590.16264,947.46095
3590.16264,937.54792
3590.16264,952.41746
3590.16264,930.46718
3590.16264,940.38021
3590.16264,931.88333
3590.16264,934.71562
3590.16264,946.75287
3590.16264,941.79636
3590.16264,941.08828
3590.16264,938.96406
3590.16264,949.58517
3590.16264,938.25599
3592.2301,944.62865
3592.2301,951.70939
3592.2301,946.0448
3592.2301,936.13177
3592.2301,935.4237
3592.2301,936.83984
3592.2301,939.67214
3592.2301,942.50443
3592.2301,929.75911
3592.2301,929.05103
3592.2301,931.17525
3592.2301,945.33672
3594.29756,943.2125
3594.29756,943.92058
3594.29756,928.34296
3594.29756,926.92681
3594.29756,927.63489
3594.29756,926.21874
3594.29756,925.51067
3596.36503,924.80259
3596.36503,924.09452
3598.43249,924.09452
3598.43249,923.38645
3598.43249,922.67837
3600.49995,922.67837
3602.56741,922.67837
3604.63488,922.67837
3606.70234,921.9703
3606.70234,921.26223
3606.70234,920.55415
3608.7698,920.55415
3608.7698,919.84608
3610.83726,919.84608
3610.83726,919.138
3612.90473,919.138
3614.97219,919.138
3617.03965,913.47342
3617.03965,914.18149
3617.03965,919.138
3619.10711,912.76534
3619.10711,919.138
3619.10711,911.3492
3619.10711,912.05727
3619.10711,914.88956
3621.17458,917.72186
3621.17458,918.42993
3621.17458,915.59764
3621.17458,910.64112
3621.17458,917.01378
3621.17458,919.138
3623.24204,916.30571
3623.24204,910.64112
3623.24204,917.01378
3623.24204,909.93305
3625.3095,909.93305
3625.3095,909.22498
3625.3095,908.5169
3627.37696,907.80883
3629.44443,907.80883
3631.51189,907.80883
3633.57935,908.5169
3635.64681,909.22498
3637.71428,909.93305
3637.71428,910.64112
3639.78174,910.64112
3639.78174,911.3492
3641.8492,911.3492
3643.91666,911.3492
3645.98413,912.05727
3648.05159,912.76534
3648.05159,913.47342
3648.05159,914.18149
3650.11905,914.18149
3652.18651,914.88956
3654.25398,914.88956
3656.32144,914.18149
3658.3889,913.47342
3660.45636,914.88956
3660.45636,914.18149
3660.45636,915.59764
3662.52383,916.30571
3662.52383,915.59764
3662.52383,917.01378
3662.52383,918.42993
3662.52383,917.72186
3664.59129,919.84608
3664.59129,919.138
3666.65875,921.26223
3666.65875,920.55415
3666.65875,922.67837
3666.65875,921.9703
3668.72621,927.63489
3668.72621,923.38645
3668.72621,924.09452
3668.72621,924.80259
3668.72621,925.51067
3668.72621,926.21874
3668.72621,926.92681
3670.79368,929.05103
3670.79368,928.34296
3672.86114,930.46718
3672.86114,929.75911
3674.9286,930.46718
3674.9286,931.17525
3676.99606,931.88333
3676.99606,932.5914
3679.06353,932.5914
3679.06353,934.00755
3679.06353,933.29948
3681.13099,934.71562
3681.13099,933.29948
3683.19845,936.13177
3683.19845,935.4237
3703.87308,924.80259
3705.94054,925.51067
3708.008,926.92681
3710.07546,926.92681
3712.14293,926.21874
3714.21039,926.92681
3716.27785,927.63489
3718.34531,924.09452
3718.34531,924.80259
3718.34531,923.38645
3718.34531,929.75911
3720.41278,931.17525
3720.41278,936.13177
3720.41278,926.21874
3720.41278,925.51067
3722.48024,936.13177
3722.48024,938.25599
3722.48024,937.54792
3722.48024,931.17525
3722.48024,935.4237
3722.48024,936.83984
3722.48024,930.46718
3722.48024,931.88333
3722.48024,928.34296
3722.48024,929.75911
3722.48024,929.05103
3722.48024,926.92681
3722.48024,927.63489
3724.5477,932.5914
3724.5477,938.25599
3724.5477,931.88333
3724.5477,933.29948
3724.5477,934.71562
3724.5477,938.96406
3726.61516,935.4237
3726.61516,939.67214
3726.61516,934.00755
3726.61516,933.29948
3726.61516,938.96406
3728.68263,938.25599
3728.68263,939.67214
3728.68263,941.79636
3728.68263,940.38021
3730.75009,946.0448
3730.75009,940.38021
3730.75009,945.33672
3730.75009,941.08828
3730.75009,941.79636
3730.75009,942.50443
3730.75009,943.2125
3730.75009,943.92058
3732.81755,940.38021
3732.81755,944.62865
3732.81755,945.33672
3732.81755,946.75287
3732.81755,947.46095
3734.88501,948.16902
3734.88501,947.46095
3736.95248,948.87709
3736.95248,948.87709
3739.01994,949.58517
3739.01994,949.58517
3741.0874,958.08205
3741.0874,958.79012
3741.0874,959.4982
3741.0874,953.12553
3741.0874,952.41746
3741.0874,951.70939
3741.0874,951.00131
3741.0874,950.29324
3741.0874,957.37397
3741.0874,956.6659
3741.0874,955.95783
3741.0874,955.24975
3741.0874,952.41746
3741.0874,953.83361
3741.0874,954.54168
3743.15486,953.83361
3745.22232,953.12553
3747.28979,952.41746
3749.35725,950.29324
3751.42471,951.00131
3753.49217,951.00131
3755.55964,951.70939
3757.6271,951.00131
3759.69456,949.58517
3761.76202,948.87709
3763.82949,948.16902
3765.89695,947.46095
3767.96441,947.46095
3770.03187,948.16902
3772.09934,948.87709
3774.1668,949.58517
3776.23426,948.87709
3778.30172,948.16902
3780.36919,947.46095
3782.43665,946.0448
3784.50411,944.62865
3786.57157,943.92058
3788.63904,942.50443
3790.7065,942.50443
3792.77396,942.50443
3794.84142,943.92058
3796.90889,946.0448
3798.97635,948.16902
3801.04381,949.58517
3803.11127,951.00131
3805.17874,953.83361
3807.2462,957.37397
3809.31366,959.4982
3811.38112,960.91434
3813.44859,961.62242
3815.51605,959.4982
3817.58351,956.6659
3819.65097,954.54168
3821.71844,950.29324
3823.7859,945.33672
3825.85336,941.79636
3827.92082,938.96406
3829.98829,937.54792
3832.05575,934.71562
3834.12321,932.5914
3836.19067,932.5914
3838.25814,932.5914
3840.3256,933.29948
3842.39306,934.00755
3844.46052,934.71562
3846.52799,934.71562
3848.59545,934.71562
3850.66291,934.00755
3852.73037,934.00755
3854.79784,934.71562
3856.8653,936.13177
3858.93276,936.83984
3861.00022,938.25599
3863.06769,939.67214
3865.13515,941.79636
3867.20261,943.2125
3869.27007,943.92058
3871.33754,943.92058
3873.405,943.2125
3875.47246,942.50443
3877.53992,941.08828
3879.60739,938.96406
3881.67485,938.25599
3883.74231,936.83984
3885.80977,936.13177
3887.87724,935.4237
3889.9447,934.71562
3892.01216,934.71562
3894.07962,934.71562
3896.14709,935.4237
3898.21455,935.4237
3900.28201,935.4237
3902.34947,935.4237
3904.41694,934.71562
3906.4844,934.00755
3908.55186,933.29948
3910.61932,934.71562
3912.68679,936.13177
3914.75425,937.54792
3916.82171,938.25599
3918.88917,939.67214
3920.95664,941.79636
3923.0241,944.62865
3925.09156,945.33672
3927.15902,946.0448
3929.22649,946.0448
3931.29395,946.0448
3933.36141,945.33672
3935.42887,945.33672
3937.49633,944.62865
3939.5638,943.92058
3941.63126,943.92058
3943.69872,944.62865
3945.76618,945.33672
3947.83365,946.0448
3949.90111,946.75287
3951.96857,946.75287
3954.03603,945.33672
3956.1035,943.2125
3958.17096,941.08828
3960.23842,939.67214
3962.30588,936.83984
3964.37335,935.4237
3966.44081,934.00755
3968.50827,932.5914
3970.57573,931.88333
3972.6432,930.46718
3974.71066,929.75911
3976.77812,927.63489
3978.84558,926.92681
3980.91305,926.21874
3982.98051,924.80259
3985.04797,923.38645
3987.11543,921.26223
3989.1829,921.26223
3991.25036,920.55415
3993.31782,920.55415
3995.38528,921.26223
3997.45275,924.80259
3999.52021,927.63489
4001.58767,931.88333
4003.65513,932.5914
4005.7226,943.92058
