Raman Shift,Intensity 
400,1.182966694
401,1.18494624
402,1.199005012
403,1.195946789
404,1.215741595
405,1.214034969
406,1.204800014
407,1.180123622
408,1.204971023
409,1.22047563
410,1.211356166
411,1.197212156
412,1.196851361
413,1.209331645
414,1.193086144
415,1.181929442
416,1.191841065
417,1.202838929
418,1.192669475
419,1.224242301
420,1.172591399
421,1.189327224
422,1.182113532
423,1.207167496
424,1.199768765
425,1.188550942
426,1.204461986
427,1.196627415
428,1.20743708
429,1.223614125
430,1.211841228
431,1.203842017
432,1.197136041
433,1.184772422
434,1.221577666
435,1.19609816
436,1.214932159
437,1.171335685
438,1.195338106
439,1.205813567
440,1.209939358
441,1.206325538
442,1.188382863
443,1.172976046
444,1.20566124
445,1.186623648
446,1.237286088
447,1.209671891
448,1.202013692
449,1.195288865
450,1.196554877
451,1.211750793
452,1.19789482
453,1.18797521
454,1.191012698
455,1.195375334
456,1.190860094
457,1.199852614
458,1.197080396
459,1.185793636
460,1.212212096
461,1.204384275
462,1.18584066
463,1.191377774
464,1.212173954
465,1.217404521
466,1.195580749
467,1.209124156
468,1.19193656
469,1.20219323
470,1.17819758
471,1.208352271
472,1.21359374
473,1.222979943
474,1.242805572
475,1.230217289
476,1.254019565
477,1.268456215
478,1.257984904
479,1.275406709
480,1.249454255
481,1.294068236
482,1.268952918
483,1.324352275
484,1.318867561
485,1.333879818
486,1.351713719
487,1.372108276
488,1.382089794
489,1.371678709
490,1.384358323
491,1.408874791
492,1.40401171
493,1.409524961
494,1.387952104
495,1.396400397
496,1.404622755
497,1.37927256
498,1.385313053
499,1.384199554
500,1.382945787
501,1.341714451
502,1.344649343
503,1.31771093
504,1.325541243
505,1.307542797
506,1.29039661
507,1.298607697
508,1.288305521
509,1.26317091
510,1.262134733
511,1.271778781
512,1.243657045
513,1.236933916
514,1.232215135
515,1.216179898
516,1.224179591
517,1.210950544
518,1.198537133
519,1.230188102
520,1.188367155
521,1.208040916
522,1.217527502
523,1.193598225
524,1.166448512
525,1.217731093
526,1.195203676
527,1.179161586
528,1.2071867
529,1.179616152
530,1.226175025
531,1.193558241
532,1.209664052
533,1.188349456
534,1.190472263
535,1.185958973
536,1.151018177
537,1.215890663
538,1.225291859
539,1.209668294
540,1.216704178
541,1.230353918
542,1.19597956
543,1.216193969
544,1.178081761
545,1.202957292
546,1.215850289
547,1.189877674
548,1.181598727
549,1.197436585
550,1.197374129
551,1.207113842
552,1.185510562
553,1.193759556
554,1.191667805
555,1.199040704
556,1.206006357
557,1.18985913
558,1.191779111
559,1.181981927
560,1.191585744
561,1.188623462
562,1.206524251
563,1.182879152
564,1.192786356
565,1.211425177
566,1.212960491
567,1.213051991
568,1.194211883
569,1.209353637
570,1.200745556
571,1.192537807
572,1.187467305
573,1.187501725
574,1.198728964
575,1.160620877
576,1.176780461
577,1.223122259
578,1.193247175
579,1.230522949
580,1.193231505
581,1.233354635
582,1.200151301
583,1.187624261
584,1.181868527
585,1.20223379
586,1.195789125
587,1.180232022
588,1.208732064
589,1.202503971
590,1.225185004
591,1.18395196
592,1.172813673
593,1.212942222
594,1.206408074
595,1.181906985
596,1.216075346
597,1.19823313
598,1.206592677
599,1.211686875
600,1.194611352
601,1.200927167
602,1.206724606
603,1.189557479
604,1.195666149
605,1.173728831
606,1.185290587
607,1.22656577
608,1.181059445
609,1.212390327
610,1.191395329
611,1.198784037
612,1.179911137
613,1.190717284
614,1.196080752
615,1.176869966
616,1.199475552
617,1.194510329
618,1.182707758
619,1.211156025
620,1.208504991
621,1.214586751
622,1.232760204
623,1.179757613
624,1.198489849
625,1.171061572
626,1.213897293
627,1.201366057
628,1.188924626
629,1.199126104
630,1.188984813
631,1.21595808
632,1.17097559
633,1.199010984
634,1.176469841
635,1.175501218
636,1.193780237
637,1.219932279
638,1.209296472
639,1.206204006
640,1.210800352
641,1.193359165
642,1.227439516
643,1.199806274
644,1.192684572
645,1.168763348
646,1.205950264
647,1.227763163
648,1.201643278
649,1.190662735
650,1.190818387
651,1.200404517
652,1.162908198
653,1.217088322
654,1.210521224
655,1.211708939
656,1.214931886
657,1.210704159
658,1.195720348
659,1.199954504
660,1.20582422
661,1.190284506
662,1.207928299
663,1.186785494
664,1.22597108
665,1.202653936
666,1.206684764
667,1.210070447
668,1.205321824
669,1.216878088
670,1.20013852
671,1.189633846
672,1.195796953
673,1.179442042
674,1.198416569
675,1.186184424
676,1.168307301
677,1.168337692
678,1.195718895
679,1.203813128
680,1.229458069
681,1.184157283
682,1.166877185
683,1.20762006
684,1.200730893
685,1.206241376
686,1.223142232
687,1.230628858
688,1.195087761
689,1.199570467
690,1.209492472
691,1.201865506
692,1.219893031
693,1.242224335
694,1.206693943
695,1.196153383
696,1.198767652
697,1.182326305
698,1.164535129
699,1.20863646
700,1.213016831
701,1.191291275
702,1.219654122
703,1.215826711
704,1.203784558
705,1.193218424
706,1.180466195
707,1.201497371
708,1.210511335
709,1.207404762
710,1.196675781
711,1.187497349
712,1.19524805
713,1.185838068
714,1.208827665
715,1.199717017
716,1.202478329
717,1.206434192
718,1.178169036
719,1.220798866
720,1.23360235
721,1.217342492
722,1.200958042
723,1.203515511
724,1.220321661
725,1.198374905
726,1.213938981
727,1.192973348
728,1.213824399
729,1.179304942
730,1.183953195
731,1.192316229
732,1.176846018
733,1.199855309
734,1.216243161
735,1.205253943
736,1.235269466
737,1.211496884
738,1.199546872
739,1.206348204
740,1.185637684
741,1.206733141
742,1.193925913
743,1.192453318
744,1.19596723
745,1.19304585
746,1.18500761
747,1.199741082
748,1.21814821
749,1.171879711
750,1.217556414
751,1.195053792
752,1.210842646
753,1.204885898
754,1.200064304
755,1.184849861
756,1.1933211
757,1.203594968
758,1.206513884
759,1.205855832
760,1.191957085
761,1.205134943
762,1.210927088
763,1.194829693
764,1.201537892
765,1.199032572
766,1.206587705
767,1.19931049
768,1.189672741
769,1.210485436
770,1.198318503
771,1.213688726
772,1.209018801
773,1.216426128
774,1.190346297
775,1.198664669
776,1.203636815
777,1.219092011
778,1.199887393
779,1.189557355
780,1.208197036
781,1.20717339
782,1.18892838
783,1.193427166
784,1.206277287
785,1.200580852
786,1.184253143
787,1.215647453
788,1.233851251
789,1.182635796
790,1.206742828
791,1.214648492
792,1.179499062
793,1.205921435
794,1.195877221
795,1.17844541
796,1.187838783
797,1.200575687
798,1.18665692
799,1.212055908
800,1.210352663
801,1.199871625
802,1.210903305
803,1.174192804
804,1.19099393
805,1.170110653
806,1.187670661
807,1.186144862
808,1.203700068
809,1.219857032
810,1.204621996
811,1.179261417
812,1.209613526
813,1.239499752
814,1.214326955
815,1.177404623
816,1.226276866
817,1.180863689
818,1.2114393
819,1.184938965
820,1.179504543
821,1.193901408
822,1.223673268
823,1.213414416
824,1.211706549
825,1.186794918
826,1.214640019
827,1.198429165
828,1.188525732
829,1.243340139
830,1.19987374
831,1.198763889
832,1.231469515
833,1.206259688
834,1.198648033
835,1.176847513
836,1.223396877
837,1.207076872
838,1.212435408
839,1.193547618
840,1.201060824
841,1.198996725
842,1.244201625
843,1.211202225
844,1.193265368
845,1.200523917
846,1.19178761
847,1.204359033
848,1.186445536
849,1.194997664
850,1.211851027
851,1.187246815
852,1.193475589
853,1.202295825
854,1.176693657
855,1.21103294
856,1.213817886
857,1.18404765
858,1.192712959
859,1.214405387
860,1.191322544
861,1.178526296
862,1.174720773
863,1.198207171
864,1.182422252
865,1.216723057
866,1.19706431
867,1.173070664
868,1.209706803
869,1.189215661
870,1.224788876
871,1.178516229
872,1.184042834
873,1.205503101
874,1.201709159
875,1.192899
876,1.234515044
877,1.2042155
878,1.226578548
879,1.167580373
880,1.185897648
881,1.203890527
882,1.207039041
883,1.221916477
884,1.164511904
885,1.207780875
886,1.181764159
887,1.172974819
888,1.193096015
889,1.184046308
890,1.171861228
891,1.226177514
892,1.173870898
893,1.186377498
894,1.180486645
895,1.190624608
896,1.224297656
897,1.207515948
898,1.20027601
899,1.195755624
900,1.185418947
901,1.19286308
902,1.200740901
903,1.207052107
904,1.22382652
905,1.201627193
906,1.195096489
907,1.182109247
908,1.20385826
909,1.198306413
910,1.181647522
911,1.207741109
912,1.185015502
913,1.208507787
914,1.175857406
915,1.209780437
916,1.210215701
917,1.199613671
918,1.184823633
919,1.188067585
920,1.21805178
921,1.189745321
922,1.230638549
923,1.194149924
924,1.21565029
925,1.235647032
926,1.203927089
927,1.19326647
928,1.208309792
929,1.204204222
930,1.199686951
931,1.208762168
932,1.218436066
933,1.196756335
934,1.163448498
935,1.183528945
936,1.194117841
937,1.206718887
938,1.219209612
939,1.206893147
940,1.195405112
941,1.229579259
942,1.204227626
943,1.198074174
944,1.203383318
945,1.195060299
946,1.189497753
947,1.187145572
948,1.201574128
949,1.23186988
950,1.188170349
951,1.186110437
952,1.186769485
953,1.19877098
954,1.202280931
955,1.201711236
956,1.185458541
957,1.190108607
958,1.168448486
959,1.212100875
960,1.2293957
961,1.211882231
962,1.216641329
963,1.194563649
964,1.207841321
965,1.193409054
966,1.201800796
967,1.197745211
968,1.217466299
969,1.223372047
970,1.219427836
971,1.184221475
972,1.18549163
973,1.201128899
974,1.194009465
975,1.208480613
976,1.238949733
977,1.204595517
978,1.196376227
979,1.194547108
980,1.220114835
981,1.211812777
982,1.240300616
983,1.243893701
984,1.270315384
985,1.261485371
986,1.277218741
987,1.288551894
988,1.28905242
989,1.328073055
990,1.345142221
991,1.363016956
992,1.379376859
993,1.401628895
994,1.456555525
995,1.465785834
996,1.516757428
997,1.565493431
998,1.627262202
999,1.661065522
1000,1.692581063
1001,1.746120741
1002,1.791221867
1003,1.884897771
1004,1.894585272
1005,1.953262123
1006,1.989190314
1007,2.063244554
1008,2.094259264
1009,2.116607579
1010,2.152231835
1011,2.168633882
1012,2.204747593
1013,2.194763207
1014,2.18527071
1015,2.22030335
1016,2.221340766
1017,2.172573432
1018,2.137973029
1019,2.099620758
1020,2.077522828
1021,2.038410852
1022,1.996848619
1023,1.967998325
1024,1.903869123
1025,1.876199937
1026,1.784663321
1027,1.758691732
1028,1.720996549
1029,1.641386029
1030,1.607235409
1031,1.55258547
1032,1.53626729
1033,1.502725686
1034,1.456950679
1035,1.396371067
1036,1.380509518
1037,1.35059727
1038,1.348727469
1039,1.320801808
1040,1.287763386
1041,1.292025017
1042,1.248344544
1043,1.264158283
1044,1.227676324
1045,1.237255119
1046,1.236067775
1047,1.23098292
1048,1.185749336
1049,1.195897408
1050,1.227499087
1051,1.189144169
1052,1.217847448
1053,1.192167319
1054,1.192590464
1055,1.207598977
1056,1.205821252
1057,1.222800856
1058,1.201422814
1059,1.211645869
1060,1.211388827
1061,1.195222693
1062,1.18571736
1063,1.168955627
1064,1.157081748
1065,1.167252417
1066,1.183189318
1067,1.192722177
1068,1.204003874
1069,1.195930605
1070,1.213326508
1071,1.203784389
1072,1.198438044
1073,1.199975117
1074,1.209919338
1075,1.238638191
1076,1.192126325
1077,1.202246584
1078,1.183995478
1079,1.192584686
1080,1.213147549
1081,1.200082011
1082,1.189513672
1083,1.22043124
1084,1.236296591
1085,1.195232316
1086,1.201820479
1087,1.195664387
1088,1.206644959
1089,1.220984654
1090,1.20822097
1091,1.183147926
1092,1.220956194
1093,1.212500437
1094,1.250239501
1095,1.236568907
1096,1.228099677
1097,1.241186074
1098,1.245465002
1099,1.230284557
1100,1.256738221
1101,1.2922235
1102,1.296713638
1103,1.279510675
1104,1.288110252
1105,1.339776751
1106,1.357683894
1107,1.360372748
1108,1.358808548
1109,1.382062186
1110,1.411240945
1111,1.416002685
1112,1.467462495
1113,1.417690012
1114,1.453171036
1115,1.465450404
1116,1.512324631
1117,1.535453154
1118,1.516445352
1119,1.545486605
1120,1.54217265
1121,1.563291502
1122,1.574244107
1123,1.554004677
1124,1.581304701
1125,1.591578224
1126,1.606173379
1127,1.586835788
1128,1.592905485
1129,1.599754939
1130,1.599266252
1131,1.603615478
1132,1.60515056
1133,1.583377091
1134,1.56963651
1135,1.577438329
1136,1.540526953
1137,1.52884557
1138,1.528010008
1139,1.50450704
1140,1.497452051
1141,1.466468968
1142,1.459998674
1143,1.444971736
1144,1.413004828
1145,1.400593604
1146,1.409728403
1147,1.39094266
1148,1.346181339
1149,1.353481624
1150,1.319513405
1151,1.331702081
1152,1.312632908
1153,1.282163342
1154,1.296135759
1155,1.264586865
1156,1.280991051
1157,1.251811466
1158,1.24904075
1159,1.260972795
1160,1.255797833
1161,1.244318662
1162,1.238589106
1163,1.260325996
1164,1.23145312
1165,1.224042708
1166,1.262593352
1167,1.221944751
1168,1.197473946
1169,1.202786039
1170,1.191689521
1171,1.194654713
1172,1.210610448
1173,1.198007116
1174,1.176112662
1175,1.183801076
1176,1.18562924
1177,1.178465824
1178,1.189241674
1179,1.219665964
1180,1.158229926
1181,1.201867576
1182,1.198825174
1183,1.212621429
1184,1.20250789
1185,1.252181734
1186,1.200946288
1187,1.184264409
1188,1.23318126
1189,1.187347617
1190,1.19872264
1191,1.195091894
1192,1.203150641
1193,1.203183571
1194,1.198731539
1195,1.197416505
1196,1.230735941
1197,1.192015239
1198,1.177956417
1199,1.193361637
1200,1.190823911
1201,1.198701441
1202,1.182029694
1203,1.213465526
1204,1.204987373
1205,1.208774059
1206,1.190678829
1207,1.184036408
1208,1.205120294
1209,1.206545849
1210,1.188833213
1211,1.172631256
1212,1.213409578
1213,1.206474576
1214,1.212673633
1215,1.200968953
1216,1.162434615
1217,1.21813309
1218,1.216800399
1219,1.216201851
1220,1.185043688
1221,1.230588367
1222,1.210051868
1223,1.213233825
1224,1.205395009
1225,1.211585232
1226,1.193101291
1227,1.199762073
1228,1.211647503
1229,1.216192105
1230,1.196026707
1231,1.188738373
1232,1.197382627
1233,1.196729627
1234,1.209429697
1235,1.234812275
1236,1.180405788
1237,1.196356718
1238,1.214066154
1239,1.194081763
1240,1.180486078
1241,1.211105226
1242,1.191534149
1243,1.182947644
1244,1.198826779
1245,1.186349938
1246,1.20015997
1247,1.197195722
1248,1.213162059
1249,1.231408501
1250,1.187017156
1251,1.193663651
1252,1.184248139
1253,1.19767522
1254,1.185503411
1255,1.190789153
1256,1.186950031
1257,1.192645835
1258,1.198140527
1259,1.201607124
1260,1.18807979
1261,1.197984197
1262,1.213287305
1263,1.198367272
1264,1.189029856
1265,1.188247328
1266,1.200319937
1267,1.206346546
1268,1.202173679
1269,1.201918686
1270,1.175196553
1271,1.213069595
1272,1.222562148
1273,1.201233319
1274,1.181233671
1275,1.199299525
1276,1.218149767
1277,1.193643436
1278,1.201348405
1279,1.197816464
1280,1.194729264
1281,1.204472109
1282,1.18476261
1283,1.19522004
1284,1.177791388
1285,1.180463531
1286,1.189656436
1287,1.214131217
1288,1.187820074
1289,1.183705737
1290,1.206571485
1291,1.193029983
1292,1.201290609
1293,1.198373154
1294,1.1633719
1295,1.194569939
1296,1.170238514
1297,1.216075767
1298,1.21737879
1299,1.181950998
1300,1.20333392
1301,1.194176125
1302,1.18950296
1303,1.215099675
1304,1.186090954
1305,1.205566036
1306,1.199716481
1307,1.208755529
1308,1.205643381
1309,1.18652342
1310,1.217200957
1311,1.201849442
1312,1.204728393
1313,1.183910672
1314,1.181506807
1315,1.232327606
1316,1.208362348
1317,1.20679804
1318,1.190885767
1319,1.216446544
1320,1.191348022
1321,1.202372138
1322,1.198206053
1323,1.18813162
1324,1.203839636
1325,1.175303239
1326,1.211571126
1327,1.227393815
1328,1.214966103
1329,1.207419222
1330,1.192373422
1331,1.196291777
1332,1.212250153
1333,1.201980993
1334,1.182818312
1335,1.178474372
1336,1.205189122
1337,1.178115897
1338,1.196931057
1339,1.175588287
1340,1.19783329
1341,1.216130832
1342,1.200074969
1343,1.200631569
1344,1.213892061
1345,1.203468666
1346,1.192308575
1347,1.208815863
1348,1.198940713
1349,1.208618832
1350,1.204329538
1351,1.217497851
1352,1.165926336
1353,1.208881587
1354,1.210876801
1355,1.191437708
1356,1.204625843
1357,1.2093191
1358,1.214038334
1359,1.226779951
1360,1.229589766
1361,1.232132003
1362,1.204951587
1363,1.23426219
1364,1.199561837
1365,1.226477296
1366,1.184801671
1367,1.223527176
1368,1.203731401
1369,1.204687176
1370,1.207278111
1371,1.181488821
1372,1.201834101
1373,1.215338132
1374,1.195301169
1375,1.202319593
1376,1.191976678
1377,1.203448256
1378,1.193560144
1379,1.178387595
1380,1.191479101
1381,1.185989795
1382,1.209733588
1383,1.230329165
1384,1.197169051
1385,1.211564018
1386,1.160237024
1387,1.180709725
1388,1.216716616
1389,1.196356872
1390,1.182336917
1391,1.200555117
1392,1.192432969
1393,1.201022602
1394,1.183916384
1395,1.220822223
1396,1.227870211
1397,1.191510885
1398,1.211998817
1399,1.219239153
1400,1.217308635
1401,1.190196889
1402,1.201948392
1403,1.188169389
1404,1.214753369
1405,1.195562963
1406,1.208501559
1407,1.201033747
1408,1.191167918
1409,1.207716341
1410,1.198730406
1411,1.165596753
1412,1.205165874
1413,1.206101811
1414,1.185531746
1415,1.187630916
1416,1.194133265
1417,1.209007286
1418,1.181443874
1419,1.209477844
1420,1.164546656
1421,1.211651571
1422,1.178833246
1423,1.218110536
1424,1.187781039
1425,1.180529213
1426,1.211929457
1427,1.204378186
1428,1.210485716
1429,1.20656606
1430,1.207251915
1431,1.197579956
1432,1.226136355
1433,1.209722248
1434,1.191977079
1435,1.208545781
1436,1.213989583
1437,1.18473493
1438,1.193479576
1439,1.181714545
1440,1.221816746
1441,1.210506085
1442,1.212551184
1443,1.194981722
1444,1.18614168
1445,1.199387279
1446,1.224610418
1447,1.20410191
1448,1.213853627
1449,1.178982947
1450,1.210477181
1451,1.20026771
1452,1.194188128
1453,1.200681973
1454,1.181544455
1455,1.198042891
1456,1.214621733
1457,1.191874414
1458,1.221638837
1459,1.21007936
1460,1.196112758
1461,1.208652738
1462,1.186482176
1463,1.191468534
1464,1.186634642
1465,1.207083896
1466,1.176837765
1467,1.202970552
1468,1.200157183
1469,1.21085499
1470,1.235255443
1471,1.199416172
1472,1.197181019
1473,1.196037492
1474,1.214952678
1475,1.227025184
1476,1.191679104
1477,1.211390568
1478,1.209733983
1479,1.193395713
1480,1.185372377
1481,1.189680932
1482,1.213032814
1483,1.185262515
1484,1.182656922
1485,1.209753328
1486,1.187623815
1487,1.206445443
1488,1.195796017
1489,1.189046824
1490,1.163384136
1491,1.218288523
1492,1.176904945
1493,1.189533197
1494,1.190574832
1495,1.173461034
1496,1.215097964
1497,1.212392346
1498,1.206604894
1499,1.204193177
1500,1.20596656
1501,1.206713513
1502,1.195011372
1503,1.222852761
1504,1.20203658
1505,1.209124455
1506,1.206002062
1507,1.177921316
1508,1.207388556
1509,1.179748199
1510,1.197154846
1511,1.217652496
1512,1.189532611
1513,1.210587063
1514,1.210178206
1515,1.191816577
1516,1.204573925
1517,1.212016891
1518,1.174663896
1519,1.195246188
1520,1.202132432
1521,1.191529969
1522,1.218741096
1523,1.187154728
1524,1.191204215
1525,1.200105846
1526,1.214556266
1527,1.174084882
1528,1.189735593
1529,1.185491176
1530,1.188316837
1531,1.200064701
1532,1.211518902
1533,1.181360428
1534,1.213272755
1535,1.211348663
1536,1.189841642
1537,1.205294646
1538,1.201046076
1539,1.18186212
1540,1.200836649
1541,1.178108528
1542,1.200993336
1543,1.195593905
1544,1.20598193
1545,1.209762932
1546,1.195672946
1547,1.194267101
1548,1.196708625
1549,1.208717598
1550,1.189687675
1551,1.16958123
1552,1.204710187
1553,1.214788613
1554,1.219433725
1555,1.19077668
1556,1.214983812
1557,1.195285397
1558,1.214263255
1559,1.204234568
1560,1.199449649
1561,1.203063817
1562,1.191976164
1563,1.185209107
1564,1.191121445
1565,1.196590674
1566,1.202147076
1567,1.188843027
1568,1.197170136
1569,1.19219919
1570,1.192426003
1571,1.191393724
1572,1.1704063
1573,1.194402877
1574,1.193243677
1575,1.189201541
1576,1.183847001
1577,1.187365343
1578,1.172580042
1579,1.160485175
1580,1.20156122
1581,1.195915014
1582,1.198821191
1583,1.230695917
1584,1.197678123
1585,1.17083565
1586,1.188220673
1587,1.192328829
1588,1.183488389
1589,1.182917012
1590,1.184598985
1591,1.209682022
1592,1.205122726
1593,1.186399861
1594,1.215245818
1595,1.203485593
1596,1.183889076
1597,1.192067995
1598,1.20425021
1599,1.207827433
1600,1.23189886
1601,1.203852621
1602,1.199390126
1603,1.214825496
1604,1.185511043
1605,1.193738815
1606,1.214997719
1607,1.178001481
1608,1.209465955
1609,1.214651792
1610,1.170052922
1611,1.209502417
1612,1.229439892
1613,1.207685803
1614,1.172113428
1615,1.200052253
1616,1.211882503
1617,1.173262075
1618,1.194547781
1619,1.175934404
1620,1.186307656
1621,1.206073385
1622,1.208189835
1623,1.227941857
1624,1.194233474
1625,1.198789072
1626,1.197276513
1627,1.225455679
1628,1.213417406
1629,1.179315395
1630,1.218958078
1631,1.21287384
1632,1.202918899
1633,1.1984658
1634,1.187070665
1635,1.171317146
1636,1.214713551
1637,1.187511059
1638,1.183073229
1639,1.166791865
1640,1.222291745
1641,1.190333078
1642,1.188925496
1643,1.179526869
1644,1.208411613
1645,1.205739473
1646,1.205406421
1647,1.189306148
1648,1.192129889
1649,1.202084933
1650,1.184343662
1651,1.185391205
1652,1.177347205
1653,1.223529733
1654,1.230747115
1655,1.204689594
1656,1.173491162
1657,1.214443344
1658,1.200927448
1659,1.200067017
1660,1.193161064
1661,1.180736278
1662,1.219938168
1663,1.199691613
1664,1.201971594
1665,1.213912482
1666,1.206694442
1667,1.225748445
1668,1.202211237
1669,1.199192403
1670,1.213529336
1671,1.220545722
1672,1.221619087
1673,1.218336671
1674,1.184926578
1675,1.182629501
1676,1.191318982
1677,1.215316604
1678,1.204632007
1679,1.20501425
1680,1.19250238
1681,1.206572765
1682,1.190199948
1683,1.216261715
1684,1.228904838
1685,1.211756324
1686,1.208826365
1687,1.194771285
1688,1.208162095
1689,1.210034
1690,1.191943782
1691,1.183523312
1692,1.217064214
1693,1.193883868
1694,1.178655736
1695,1.187073356
1696,1.209972434
1697,1.209518719
1698,1.203292522
1699,1.208472227
1700,1.175593096
1701,1.199885453
1702,1.206019413
1703,1.189287578
1704,1.221222887
1705,1.180933585
1706,1.184208096
1707,1.189288111
1708,1.19097908
1709,1.197693576
1710,1.17831648
1711,1.210187603
1712,1.193455554
1713,1.21297364
1714,1.198199985
1715,1.195639946
1716,1.20334292
1717,1.20872251
1718,1.206030631
1719,1.200748142
1720,1.190432911
1721,1.194268274
1722,1.233561553
1723,1.201529214
1724,1.207764462
1725,1.203723359
1726,1.214815425
1727,1.203752232
1728,1.20428089
1729,1.207710788
1730,1.221360961
1731,1.188841341
1732,1.22542703
1733,1.236320691
1734,1.204108668
1735,1.204490022
1736,1.175701068
1737,1.213984944
1738,1.211140819
1739,1.219800159
1740,1.195304052
1741,1.203860014
1742,1.225500867
1743,1.211219096
1744,1.213740664
1745,1.194384526
1746,1.203693145
1747,1.194756181
1748,1.203601678
1749,1.183395828
1750,1.206777191
1751,1.175068025
1752,1.218189709
1753,1.210926864
1754,1.178250411
1755,1.216161707
1756,1.213301048
1757,1.207566739
1758,1.214041922
1759,1.193685234
1760,1.185045529
1761,1.187573678
1762,1.182620673
1763,1.214224976
1764,1.194261863
1765,1.200170009
1766,1.211265841
1767,1.188378182
1768,1.166258955
1769,1.163783716
1770,1.207172122
1771,1.224864467
1772,1.185237344
1773,1.214328564
1774,1.200563904
1775,1.197159355
1776,1.20656889
1777,1.180992949
1778,1.212314798
1779,1.206434648
1780,1.206751756
1781,1.207827804
1782,1.201412944
1783,1.189504072
1784,1.19897927
1785,1.195294431
1786,1.180354487
1787,1.18293311
1788,1.182430695
1789,1.183524508
1790,1.211855065
1791,1.187190872
1792,1.179970566
1793,1.21224616
1794,1.200003296
1795,1.191125952
1796,1.20556241
1797,1.19582589
1798,1.189334861
1799,1.198050154
1800,1.205502777
1801,1.192838113
1802,1.209462331
1803,1.220275166
1804,1.192346499
1805,1.213929797
1806,1.222127593
1807,1.191932719
1808,1.215642254
1809,1.188498253
1810,1.202582656
1811,1.196995217
1812,1.181643086
1813,1.212083866
1814,1.219645715
1815,1.202612336
1816,1.211678204
1817,1.202143005
1818,1.20171559
1819,1.174234556
1820,1.219673165
1821,1.215926844
1822,1.208195274
1823,1.196625523
1824,1.203994689
1825,1.182390825
1826,1.202995964
1827,1.205475099
1828,1.18061511
1829,1.203573436
1830,1.208714211
1831,1.186486587
1832,1.226085789
1833,1.202733412
1834,1.176548049
1835,1.199912011
1836,1.210655
1837,1.191394598
1838,1.184349034
1839,1.181386617
1840,1.179478439
1841,1.218161967
1842,1.189262508
1843,1.199474873
1844,1.183108653
1845,1.19998213
1846,1.202469537
1847,1.185854777
1848,1.212099102
1849,1.206921075
1850,1.235455236
1851,1.184165703
1852,1.183675309
1853,1.202502398
1854,1.213341525
1855,1.209250588
1856,1.21737043
1857,1.178033863
1858,1.191040321
1859,1.196850093
1860,1.187181869
1861,1.198647159
1862,1.192409448
1863,1.216884972
1864,1.199524196
1865,1.179240117
1866,1.213667013
1867,1.202696283
1868,1.193154075
1869,1.201487223
1870,1.19111541
1871,1.214695821
1872,1.207139831
1873,1.201536402
1874,1.192488562
1875,1.215560593
1876,1.222543893
1877,1.176143706
1878,1.214758179
1879,1.230673652
1880,1.158315956
1881,1.193035443
1882,1.203941295
1883,1.183643407
1884,1.189264911
1885,1.191354358
1886,1.214176249
1887,1.20750701
1888,1.174266481
1889,1.189838083
1890,1.187293479
1891,1.207462587
1892,1.201106084
1893,1.188853366
1894,1.187177931
1895,1.228071539
1896,1.215873276
1897,1.202118519
1898,1.217589724
1899,1.198617643
1900,1.223383048
1901,1.176708502
1902,1.213851625
1903,1.19951486
1904,1.192296064
1905,1.227101178
1906,1.184985785
1907,1.206368786
1908,1.199986593
1909,1.220246744
1910,1.195916427
1911,1.18943773
1912,1.216870125
1913,1.208682981
1914,1.222027956
1915,1.211685819
1916,1.18842961
1917,1.213349565
1918,1.219885804
1919,1.168971769
1920,1.198204178
1921,1.201046624
1922,1.179620399
1923,1.19554867
1924,1.18868875
1925,1.235191621
1926,1.190986155
1927,1.175898385
1928,1.20380465
1929,1.210888247
1930,1.184315646
1931,1.19893651
1932,1.210860219
1933,1.185786524
1934,1.213636675
1935,1.215684915
1936,1.214458371
1937,1.203605453
1938,1.210604295
1939,1.219976598
1940,1.204632201
1941,1.197118876
1942,1.208239102
1943,1.235151915
1944,1.192477374
1945,1.19266259
1946,1.182338963
1947,1.215247302
1948,1.211020905
1949,1.204818694
1950,1.222296579
1951,1.208303656
1952,1.198796313
1953,1.197284361
1954,1.21187528
1955,1.197702353
1956,1.187356918
1957,1.173571098
1958,1.199038045
1959,1.200764643
1960,1.196503544
1961,1.191968799
1962,1.221004252
1963,1.188991793
1964,1.193098112
1965,1.216398682
1966,1.198251547
1967,1.193725296
1968,1.199450217
1969,1.202206788
1970,1.178039945
1971,1.18642921
1972,1.208785125
1973,1.170085546
1974,1.203531388
1975,1.215468217
1976,1.199072102
1977,1.220359488
1978,1.207786164
1979,1.186154002
1980,1.203666159
1981,1.204743107
1982,1.191096633
1983,1.195430998
1984,1.194179106
1985,1.180865279
1986,1.202650755
1987,1.20344019
1988,1.200966902
1989,1.219393321
1990,1.225162493
1991,1.210158097
1992,1.190614328
1993,1.187996061
1994,1.186223449
1995,1.20752024
1996,1.204440269
1997,1.210763932
1998,1.196744699
1999,1.201783613
2000,1.18955576
2001,1.192744951
2002,1.198842926
2003,1.189990103
2004,1.184428971
2005,1.204127409
2006,1.21950448
2007,1.201010114
2008,1.191776651
2009,1.203699849
2010,1.20474748
2011,1.208489954
2012,1.173584422
2013,1.170549152
2014,1.201169025
2015,1.21056251
2016,1.22083148
2017,1.174030111
2018,1.181736064
2019,1.189741054
2020,1.199021522
2021,1.198638699
2022,1.196853128
2023,1.190607384
2024,1.21757582
2025,1.210199277
2026,1.181163744
2027,1.19058901
2028,1.191050903
2029,1.19381811
2030,1.182388449
2031,1.212705685
2032,1.190045901
2033,1.179465016
2034,1.192091652
2035,1.205765676
2036,1.212857974
2037,1.211761574
2038,1.201435841
2039,1.208952689
2040,1.180502535
2041,1.184284686
2042,1.206099052
2043,1.198573559
2044,1.205775554
2045,1.188512218
2046,1.236861823
2047,1.224679741
2048,1.209010115
2049,1.181301731
2050,1.203963318
2051,1.226893402
2052,1.194565027
2053,1.198335775
2054,1.210380906
2055,1.210606301
2056,1.185689293
2057,1.208899572
2058,1.209251012
2059,1.19722902
2060,1.202911523
2061,1.232958978
2062,1.213288761
2063,1.186089087
2064,1.174763861
2065,1.201023292
2066,1.175302862
2067,1.186167739
2068,1.210090379
2069,1.214524724
2070,1.200977234
2071,1.198732542
2072,1.186979184
2073,1.204760353
2074,1.194456883
2075,1.181972316
2076,1.195901279
2077,1.19316907
2078,1.194426162
2079,1.217263965
2080,1.203376127
2081,1.198559444
2082,1.20154887
2083,1.218185776
2084,1.206982669
2085,1.197906927
2086,1.216562719
2087,1.204237539
2088,1.218165728
2089,1.223332242
2090,1.181888198
2091,1.196986669
2092,1.192350014
2093,1.206466327
2094,1.205640633
2095,1.192538886
2096,1.224621379
2097,1.19629658
2098,1.205642706
2099,1.202620757
2100,1.19983385
2101,1.200031995
2102,1.195257099
2103,1.201571425
2104,1.229149436
2105,1.179184798
2106,1.223461353
2107,1.202915951
2108,1.212113606
2109,1.202061299
2110,1.230101969
2111,1.178061633
2112,1.197711665
2113,1.204992413
2114,1.227217994
2115,1.182895483
2116,1.181229647
2117,1.186905754
2118,1.185412519
2119,1.209313758
2120,1.206267821
2121,1.18339248
2122,1.184042596
2123,1.216993451
2124,1.18594509
2125,1.199092564
2126,1.204300796
2127,1.190214371
2128,1.19042848
2129,1.196265715
2130,1.204069948
2131,1.211592464
2132,1.215241567
2133,1.207319581
2134,1.20164608
2135,1.228873687
2136,1.232206244
2137,1.197840956
2138,1.189332556
2139,1.212298371
2140,1.2224599
2141,1.188571988
2142,1.178409096
2143,1.198373401
2144,1.195328848
2145,1.174310383
2146,1.211916344
2147,1.181325571
2148,1.202906453
2149,1.211936105
2150,1.208490984
2151,1.223677977
2152,1.167344336
2153,1.198529908
2154,1.175845992
2155,1.210019292
2156,1.197735183
2157,1.230294529
2158,1.232643424
2159,1.182833735
2160,1.203516498
2161,1.196036015
2162,1.210508724
2163,1.190930693
2164,1.184692704
2165,1.210363922
2166,1.192914898
2167,1.203052303
2168,1.196011891
2169,1.214811276
2170,1.201599461
2171,1.216199142
2172,1.203343941
2173,1.208195228
2174,1.181647276
2175,1.209475556
2176,1.189067702
2177,1.212388995
2178,1.182357041
2179,1.212099882
2180,1.216036229
2181,1.167439153
2182,1.208283573
2183,1.187761398
2184,1.187970656
2185,1.21402137
2186,1.212960246
2187,1.204568615
2188,1.21519419
2189,1.150194168
2190,1.19667134
2191,1.185207326
2192,1.207777615
2193,1.208787765
2194,1.210059012
2195,1.217197251
2196,1.198477839
2197,1.216976209
2198,1.206903712
2199,1.197641516
2200,1.193936259
2201,1.182152383
2202,1.188683202
2203,1.186497937
2204,1.202106551
2205,1.188669674
2206,1.184499678
2207,1.185269358
2208,1.177871969
2209,1.188530836
2210,1.236370044
2211,1.192219442
2212,1.187864666
2213,1.20544926
2214,1.187319253
2215,1.19160065
2216,1.209093593
2217,1.167211033
2218,1.219365467
2219,1.195032313
2220,1.209931851
2221,1.220493569
2222,1.20643663
2223,1.196817635
2224,1.211916755
2225,1.228406182
2226,1.207501385
2227,1.199248631
2228,1.199045672
2229,1.193151031
2230,1.200487983
2231,1.188753293
2232,1.202167112
2233,1.192839898
2234,1.170060769
2235,1.191007582
2236,1.210863631
2237,1.208580074
2238,1.205274646
2239,1.163686066
2240,1.204536878
2241,1.18708606
2242,1.194595516
2243,1.18110957
2244,1.147485331
2245,1.207378697
2246,1.172266166
2247,1.181472245
2248,1.165306797
2249,1.198276724
2250,1.183403001
2251,1.208195833
2252,1.211995413
2253,1.198607178
2254,1.223304267
2255,1.182201436
2256,1.171767914
2257,1.197116897
2258,1.20975695
2259,1.215640212
2260,1.216210341
2261,1.217057723
2262,1.188026283
2263,1.202929834
2264,1.205125621
2265,1.20367499
2266,1.206310544
2267,1.1989775
2268,1.198561981
2269,1.206313197
2270,1.219059589
2271,1.216020348
2272,1.211002727
2273,1.211040884
2274,1.198059265
2275,1.204336281
2276,1.200335666
2277,1.169897561
2278,1.196947731
2279,1.197204468
2280,1.209505571
2281,1.218963748
2282,1.191647787
2283,1.209126325
2284,1.188711988
2285,1.206626138
2286,1.201053404
2287,1.199407146
2288,1.220227122
2289,1.214689271
2290,1.193502973
2291,1.18867608
2292,1.184969574
2293,1.234583154
2294,1.192054555
2295,1.221753351
2296,1.176314054
2297,1.206271955
2298,1.208149061
2299,1.206039818
2300,1.187339298
2301,1.202025811
2302,1.209804337
2303,1.204647953
2304,1.202097256
2305,1.211697779
2306,1.183971656
2307,1.185105213
2308,1.195930715
2309,1.208528111
2310,1.188594526
2311,1.219600804
2312,1.190792912
2313,1.21870526
2314,1.182284734
2315,1.175452981
2316,1.188762135
2317,1.180494081
2318,1.19866325
2319,1.206980563
2320,1.193633442
2321,1.215904795
2322,1.20950469
2323,1.189053936
2324,1.187288235
2325,1.178264985
2326,1.209182241
2327,1.196655734
2328,1.221648813
2329,1.177300342
2330,1.197624337
2331,1.200109809
2332,1.202695817
2333,1.20177206
2334,1.173373298
2335,1.204063723
2336,1.189889687
2337,1.18797762
2338,1.199767033
2339,1.190701894
2340,1.192259383
2341,1.211459565
2342,1.185390009
2343,1.203052491
2344,1.208987904
2345,1.194383234
2346,1.173240836
2347,1.21475006
2348,1.220511683
2349,1.202694888
2350,1.19111133
2351,1.225752867
2352,1.185139692
2353,1.189713987
2354,1.202806172
2355,1.204270274
2356,1.207329955
2357,1.175006671
2358,1.195192018
2359,1.17370135
2360,1.214122764
2361,1.209437834
2362,1.166589563
2363,1.214662478
2364,1.208521012
2365,1.212292238
2366,1.184599996
2367,1.204930641
2368,1.205107647
2369,1.178909669
2370,1.205401345
2371,1.222652148
2372,1.186837575
2373,1.150832932
2374,1.186366782
2375,1.195169543
2376,1.208627439
2377,1.222568871
2378,1.193177083
2379,1.184607642
2380,1.193679042
2381,1.21993749
2382,1.197941547
2383,1.191084199
2384,1.188278579
2385,1.200720553
2386,1.179531231
2387,1.213919239
2388,1.201802439
2389,1.19590488
2390,1.208329161
2391,1.207318154
2392,1.184439421
2393,1.181369158
2394,1.178357822
2395,1.189110053
2396,1.187490658
2397,1.192855514
2398,1.20159648
2399,1.199977761
2400,1.202097922
2401,1.17818166
2402,1.196580563
2403,1.227417285
2404,1.194914641
2405,1.191409065
2406,1.187982598
2407,1.176096551
2408,1.210358621
2409,1.19801424
2410,1.208291969
2411,1.194261398
2412,1.186254635
2413,1.210616046
2414,1.207407921
2415,1.206396007
2416,1.212277179
2417,1.19276079
2418,1.19571066
2419,1.180375733
2420,1.202367523
2421,1.182282462
2422,1.213444995
2423,1.18750478
2424,1.206220734
2425,1.206624169
2426,1.218513131
2427,1.196939447
2428,1.170196128
2429,1.179987415
2430,1.235606364
2431,1.189500999
2432,1.231606542
2433,1.226516076
2434,1.202760024
2435,1.196398284
2436,1.207022797
2437,1.20933441
2438,1.172823863
2439,1.224848517
2440,1.158100289
2441,1.21946821
2442,1.213578803
2443,1.227082492
2444,1.187450248
2445,1.207671148
2446,1.234690808
2447,1.21582759
2448,1.205368415
2449,1.18879276
2450,1.19019535
2451,1.178859266
2452,1.160746742
2453,1.211832458
2454,1.184109424
2455,1.206032496
2456,1.203330179
2457,1.203353736
2458,1.203011838
2459,1.192010668
2460,1.191436938
2461,1.22824722
2462,1.19316037
2463,1.183141124
2464,1.206484685
2465,1.218802219
2466,1.202242164
2467,1.194778925
2468,1.218864078
2469,1.171139837
2470,1.201422801
2471,1.207477729
2472,1.183114295
2473,1.21032023
2474,1.199272634
2475,1.207922549
2476,1.204634399
2477,1.197826436
2478,1.19169022
2479,1.231045006
2480,1.201392591
2481,1.211412977
2482,1.180489302
2483,1.207561732
2484,1.202220306
2485,1.210533944
2486,1.193452704
2487,1.187772217
2488,1.21011773
2489,1.233445998
2490,1.20340085
2491,1.194862625
2492,1.198291414
2493,1.197837033
2494,1.188239584
2495,1.203937764
2496,1.205431024
2497,1.177872683
2498,1.190168797
2499,1.191581687
2500,1.214857661
2501,1.178838186
2502,1.21063214
2503,1.214382967
2504,1.170948291
2505,1.20313187
2506,1.204982783
2507,1.202681981
2508,1.191438664
2509,1.208714743
2510,1.196046868
2511,1.174301708
2512,1.170279507
2513,1.205493696
2514,1.200057026
2515,1.198621423
2516,1.192900579
2517,1.185912995
2518,1.175339293
2519,1.255764343
2520,1.217201714
2521,1.193949161
2522,1.207308182
2523,1.193313906
2524,1.183017662
2525,1.188585269
2526,1.209688942
2527,1.165517873
2528,1.186689364
2529,1.210893252
2530,1.167647927
2531,1.212193687
2532,1.222324311
2533,1.1909061
2534,1.184839159
2535,1.209703958
2536,1.177489055
2537,1.193630798
2538,1.201693012
2539,1.203269593
2540,1.202065599
2541,1.187887186
2542,1.203598182
2543,1.1880339
2544,1.213514692
2545,1.189135162
2546,1.205241766
2547,1.189889736
2548,1.193874496
2549,1.195241924
2550,1.204178783
2551,1.198539793
2552,1.203823573
2553,1.193688509
2554,1.196814918
2555,1.205644127
2556,1.173475253
2557,1.218210896
2558,1.235858857
2559,1.217423397
2560,1.21610563
2561,1.188147652
2562,1.195345031
2563,1.18770528
2564,1.213478718
2565,1.206598951
2566,1.199281792
2567,1.205220406
2568,1.205940239
2569,1.185622613
2570,1.211667665
2571,1.196715137
2572,1.209456584
2573,1.209413305
2574,1.208432777
2575,1.222049385
2576,1.211880266
2577,1.183249834
2578,1.185653029
2579,1.18675739
2580,1.199320874
2581,1.181495581
2582,1.216269341
2583,1.199213003
2584,1.191613122
2585,1.193938001
2586,1.208868791
2587,1.190803069
2588,1.213284269
2589,1.207685945
2590,1.184746632
2591,1.233847806
2592,1.214184967
2593,1.20711872
2594,1.197507177
2595,1.222842798
2596,1.213012402
2597,1.192362005
2598,1.188930214
2599,1.201033008
2600,1.196317465
2601,1.202876014
2602,1.20554098
2603,1.180760738
2604,1.177618523
2605,1.208986051
2606,1.214103118
2607,1.219617678
2608,1.21715174
2609,1.201391566
2610,1.199916045
2611,1.227090456
2612,1.202301586
2613,1.199640052
2614,1.196364339
2615,1.201856387
2616,1.198739363
2617,1.176602414
2618,1.215721864
2619,1.196153678
2620,1.224806319
2621,1.202529106
2622,1.184230547
2623,1.202540159
2624,1.207899317
2625,1.196714627
2626,1.181075816
2627,1.166061808
2628,1.22449025
2629,1.191736298
2630,1.210478847
2631,1.198617937
2632,1.230862905
2633,1.220862672
2634,1.214085111
2635,1.205284999
2636,1.197791001
2637,1.185807997
2638,1.196758873
2639,1.208838793
2640,1.202841428
2641,1.192300645
2642,1.170320421
2643,1.204321461
2644,1.211652583
2645,1.20287413
2646,1.230295265
2647,1.197446644
2648,1.210301715
2649,1.188045555
2650,1.197714576
2651,1.200304124
2652,1.180962444
2653,1.192049713
2654,1.200069027
2655,1.222191105
2656,1.224253391
2657,1.19320043
2658,1.174861414
2659,1.201367644
2660,1.184931756
2661,1.187680729
2662,1.208389371
2663,1.215359187
2664,1.200315039
2665,1.21061135
2666,1.196834366
2667,1.201841962
2668,1.182286938
2669,1.213270082
2670,1.192938113
2671,1.18517739
2672,1.223542393
2673,1.197024499
2674,1.217369316
2675,1.207875662
2676,1.154715583
2677,1.198277945
2678,1.174282473
2679,1.196080363
2680,1.206007034
2681,1.210273329
2682,1.213639017
2683,1.186586448
2684,1.215024109
2685,1.189490389
2686,1.208205535
2687,1.20089104
2688,1.212185944
2689,1.212115363
2690,1.189948293
2691,1.19399109
2692,1.204369678
2693,1.188139708
2694,1.176501696
2695,1.176088198
2696,1.191816227
2697,1.189207109
2698,1.208302445
2699,1.193107518
2700,1.215445832
2701,1.184170628
2702,1.188122619
2703,1.196120409
2704,1.19927347
2705,1.233367295
2706,1.218466243
2707,1.204245582
2708,1.2253565
2709,1.208773895
2710,1.192258067
2711,1.208926956
2712,1.209747818
2713,1.202660825
2714,1.181227375
2715,1.184652606
2716,1.21490889
2717,1.182566782
2718,1.207691795
2719,1.208141572
2720,1.211128837
2721,1.194456716
2722,1.192299998
2723,1.188711768
2724,1.216827753
2725,1.201577073
2726,1.204894124
2727,1.187367077
2728,1.198043646
2729,1.202305045
2730,1.21215017
2731,1.212660809
2732,1.206317207
2733,1.174620959
2734,1.196046057
2735,1.205242801
2736,1.21233034
2737,1.230495901
2738,1.19045852
2739,1.226835044
2740,1.221904114
2741,1.209451254
2742,1.160989352
2743,1.194131165
2744,1.188163377
2745,1.209705339
2746,1.221279002
2747,1.200180661
2748,1.201080049
2749,1.203725608
2750,1.182124591
2751,1.205228804
2752,1.209014534
2753,1.174235093
2754,1.186343709
2755,1.197415816
2756,1.218943166
2757,1.196122145
2758,1.209027078
2759,1.195699399
2760,1.166248186
2761,1.213782671
2762,1.198251198
2763,1.201351933
2764,1.209434603
2765,1.226356456
2766,1.227390631
2767,1.180230005
2768,1.184535694
2769,1.198491121
2770,1.23180577
2771,1.210636951
2772,1.196363184
2773,1.205478625
2774,1.206924762
2775,1.17414938
2776,1.210778721
2777,1.168312001
2778,1.240306105
2779,1.197351222
2780,1.209564207
2781,1.190571338
2782,1.206007406
2783,1.183672045
2784,1.189067609
2785,1.197607293
2786,1.213738436
2787,1.205634178
2788,1.213669028
2789,1.217663601
2790,1.205503328
2791,1.190135363
2792,1.205870654
2793,1.190261049
2794,1.217519343
2795,1.215724774
2796,1.198140342
2797,1.204075662
2798,1.197393939
2799,1.193637489
2800,1.19219287
2801,1.196605095
2802,1.194641906
2803,1.192773781
2804,1.202073049
2805,1.219457366
2806,1.205121477
2807,1.210920373
2808,1.222399292
2809,1.213483596
2810,1.230260896
2811,1.19374619
2812,1.185105622
2813,1.188377524
2814,1.223008034
2815,1.191439062
2816,1.200075106
2817,1.188353076
2818,1.17932155
2819,1.194329933
2820,1.198516215
2821,1.195774499
2822,1.202934037
2823,1.202466732
2824,1.228149784
2825,1.207105724
2826,1.192699945
2827,1.20178346
2828,1.185112828
2829,1.196815788
2830,1.22779627
2831,1.160564344
2832,1.208171247
2833,1.21090506
2834,1.172908581
2835,1.22286405
2836,1.234842591
2837,1.22539371
2838,1.181653771
2839,1.18578876
2840,1.203902073
2841,1.213944199
2842,1.216996905
2843,1.20598996
2844,1.20906064
2845,1.185692308
2846,1.219018275
2847,1.191411203
2848,1.193225733
2849,1.23048708
2850,1.203328863
2851,1.216642161
2852,1.197482884
2853,1.171385486
2854,1.219640765
2855,1.194036689
2856,1.211258161
2857,1.211583817
2858,1.186222282
2859,1.200393637
2860,1.217738168
2861,1.196574194
2862,1.205769927
2863,1.220311505
2864,1.188571403
2865,1.209796091
2866,1.178083541
2867,1.2005126
2868,1.192047656
2869,1.200979389
2870,1.206120292
2871,1.197425386
2872,1.178993215
2873,1.198397828
2874,1.193026148
2875,1.207411971
2876,1.193661657
2877,1.205669001
2878,1.203813707
2879,1.202813214
2880,1.187878567
2881,1.18639554
2882,1.234151747
2883,1.187058636
2884,1.171655537
2885,1.206519407
2886,1.184935489
2887,1.206179213
2888,1.201235992
2889,1.167418258
2890,1.217607631
2891,1.188194121
2892,1.194761546
2893,1.187840021
2894,1.220975467
2895,1.200421536
2896,1.178008567
2897,1.198030176
2898,1.20069379
2899,1.192037229
2900,1.18417675
2901,1.219240472
2902,1.22568544
2903,1.207436365
2904,1.206956551
2905,1.185945966
2906,1.208566125
2907,1.188044687
2908,1.210751999
2909,1.198466699
2910,1.226382504
2911,1.222975694
2912,1.215447019
2913,1.2021539
2914,1.195684128
2915,1.220447102
2916,1.181853218
2917,1.205564157
2918,1.193501403
2919,1.217175007
2920,1.202357895
2921,1.18066297
2922,1.198903211
2923,1.198479742
2924,1.203510824
2925,1.202542793
2926,1.211198341
2927,1.161903686
2928,1.1844028
2929,1.188233269
2930,1.196547975
2931,1.189288379
2932,1.239119888
2933,1.205828276
2934,1.201902108
2935,1.200248477
2936,1.20439863
2937,1.193563597
2938,1.212603056
2939,1.148841736
2940,1.165933326
2941,1.191509608
2942,1.210440752
2943,1.197079874
2944,1.176918909
2945,1.196477737
2946,1.203435447
2947,1.202329987
2948,1.188705217
2949,1.170102912
2950,1.198430246
2951,1.191775502
2952,1.202110822
2953,1.186958506
2954,1.18676416
2955,1.183999569
2956,1.218846873
2957,1.214340648
2958,1.183667184
2959,1.202666782
2960,1.20789263
2961,1.210674701
2962,1.200479352
2963,1.201199872
2964,1.212074928
2965,1.164822959
2966,1.201330945
2967,1.187854738
2968,1.21466621
2969,1.194651248
2970,1.206253344
2971,1.183105058
2972,1.204158963
2973,1.19012754
2974,1.200220794
2975,1.20444464
2976,1.185145339
2977,1.202254201
2978,1.206850876
2979,1.199922898
2980,1.192488776
2981,1.181634754
2982,1.22304034
2983,1.206982996
2984,1.199934695
2985,1.178991253
2986,1.180572682
2987,1.195468199
2988,1.198211848
2989,1.195760118
2990,1.196743865
2991,1.175277775
2992,1.195937508
2993,1.189177573
2994,1.181826451
2995,1.207364938
2996,1.197275052
2997,1.185607097
2998,1.207546385
2999,1.191291173
3000,1.212298489
3001,1.204020362
3002,1.193569362
3003,1.186073247
3004,1.192790258
3005,1.201817927
3006,1.19691951
3007,1.219277637
3008,1.203682463
3009,1.186255626
3010,1.193427393
3011,1.181457677
3012,1.197621393
3013,1.21291323
3014,1.217110243
3015,1.204626651
3016,1.195526215
3017,1.210226638
3018,1.201494807
3019,1.195628189
3020,1.204915452
3021,1.184502611
3022,1.180246935
3023,1.195481891
3024,1.187433487
3025,1.193794102
3026,1.210727672
3027,1.198498995
3028,1.194858772
3029,1.217184767
3030,1.21408723
3031,1.216953422
3032,1.197488836
3033,1.207609239
3034,1.218515383
3035,1.202765413
3036,1.182663001
3037,1.227754519
3038,1.211401247
3039,1.186819958
3040,1.21355439
3041,1.173556818
3042,1.190364592
3043,1.186995379
3044,1.209296313
3045,1.19567493
3046,1.179562737
3047,1.193553158
3048,1.21023956
3049,1.205212165
3050,1.193171573
3051,1.201709944
3052,1.186825816
3053,1.191740604
3054,1.21323689
3055,1.21262934
3056,1.204695812
3057,1.172302536
3058,1.200316302
3059,1.19176644
3060,1.206233206
3061,1.2225645
3062,1.194880247
3063,1.186409087
3064,1.200640642
3065,1.206382548
3066,1.177027168
3067,1.210569364
3068,1.194344415
3069,1.188152199
3070,1.202230048
3071,1.18288471
3072,1.184220529
3073,1.170130572
3074,1.199278962
3075,1.189492814
3076,1.211820325
3077,1.189247346
3078,1.178522013
3079,1.183533262
3080,1.213469524
3081,1.204912797
3082,1.169944185
3083,1.190020597
3084,1.192370834
3085,1.196032037
3086,1.209776573
3087,1.204850069
3088,1.206689079
3089,1.191141441
3090,1.190943959
3091,1.182830509
3092,1.178597415
3093,1.216171506
3094,1.182495338
3095,1.196586884
3096,1.215063085
3097,1.20142184
3098,1.221908656
3099,1.198227706
3100,1.215919235
3101,1.214454662
3102,1.18418003
3103,1.205572077
3104,1.187857398
3105,1.200709601
3106,1.184379723
3107,1.207885995
3108,1.216280649
3109,1.179477732
3110,1.19755432
3111,1.204504488
3112,1.227574232
3113,1.21610538
3114,1.206830451
3115,1.205993722
3116,1.210168143
3117,1.215056256
3118,1.196780625
3119,1.227495988
3120,1.178993119
3121,1.205963786
3122,1.226466139
3123,1.214094404
3124,1.201554782
3125,1.221014354
3126,1.209958948
3127,1.196167117
3128,1.200209305
3129,1.201963203
3130,1.190137316
3131,1.169490089
3132,1.207352196
3133,1.208446543
3134,1.201858896
3135,1.203487442
3136,1.177751473
3137,1.223418274
3138,1.186544658
3139,1.175922447
3140,1.185006552
3141,1.189866002
3142,1.225900554
3143,1.229053629
3144,1.216884416
3145,1.211725374
3146,1.207202351
3147,1.206410908
3148,1.191980186
3149,1.210996314
3150,1.193993174
3151,1.21615845
3152,1.177829126
3153,1.210197543
3154,1.215187568
3155,1.198820461
3156,1.22265095
3157,1.198373836
3158,1.202136548
3159,1.20290912
3160,1.172428098
3161,1.182034071
3162,1.202480872
3163,1.20287614
3164,1.215970528
3165,1.198989083
3166,1.192913861
3167,1.202180401
3168,1.223796479
3169,1.218899023
3170,1.199440074
3171,1.203324979
3172,1.186741676
3173,1.202093402
3174,1.206821236
3175,1.203258167
3176,1.221247896
3177,1.204452931
3178,1.198648437
3179,1.188924339
3180,1.21695587
3181,1.19664731
3182,1.195005966
3183,1.215355001
3184,1.205893472
3185,1.203058305
3186,1.221214383
3187,1.217334647
3188,1.195389963
3189,1.196302701
3190,1.183915407
3191,1.206251267
3192,1.212765103
3193,1.211233289
3194,1.193178215
3195,1.209134936
3196,1.228128021
3197,1.217058662
3198,1.184356906
3199,1.203618622
3200,1.190097575
3201,1.196017432
3202,1.19079497
3203,1.194952677
3204,1.18046583
3205,1.197797973
3206,1.184381832
3207,1.223937125
3208,1.197521794
3209,1.188986239
3210,1.194492244
3211,1.194080809
3212,1.19923786
3213,1.207110526
3214,1.21068191
3215,1.186563014
3216,1.211385289
3217,1.20868139
3218,1.213259591
3219,1.205634983
3220,1.186954171
3221,1.184007206
3222,1.202977341
3223,1.186664954
3224,1.182749673
3225,1.215206919
3226,1.17302363
3227,1.193364955
3228,1.199823186
3229,1.192171307
3230,1.21184144
3231,1.166484544
3232,1.193833032
3233,1.190216466
3234,1.213028512
3235,1.197879587
3236,1.197255207
3237,1.211545954
3238,1.171194314
3239,1.209155
3240,1.213644259
3241,1.216682895
3242,1.198892801
3243,1.224104902
3244,1.234730476
3245,1.208215673
3246,1.16210197
3247,1.189102003
3248,1.214575083
3249,1.209464358
3250,1.206072891
3251,1.201899062
3252,1.216652798
3253,1.224465778
3254,1.212048479
3255,1.218879212
3256,1.209488027
3257,1.193219983
3258,1.207139175
3259,1.206803438
3260,1.194281361
3261,1.192378888
3262,1.19715905
3263,1.191313474
3264,1.213578965
3265,1.185710898
3266,1.204634678
3267,1.193245811
3268,1.201776744
3269,1.229388213
3270,1.222418353
3271,1.243325478
3272,1.219164511
3273,1.212294706
3274,1.192603005
3275,1.201853974
3276,1.22099063
3277,1.190461944
3278,1.214520121
3279,1.201936882
3280,1.206114094
3281,1.204896339
3282,1.202560569
3283,1.177650717
3284,1.184137451
3285,1.182511841
3286,1.209161456
3287,1.229023021
3288,1.203452327
3289,1.205949565
3290,1.228021444
3291,1.19492431
3292,1.209753807
3293,1.207011957
3294,1.193130755
3295,1.19553297
3296,1.215763028
3297,1.211739428
3298,1.208836722
3299,1.194712199
3300,1.211831745
3301,1.208195459
3302,1.214343919
3303,1.189006323
3304,1.21490417
3305,1.171973396
3306,1.217353709
3307,1.219488613
3308,1.216678324
3309,1.195018468
3310,1.209348495
3311,1.212550903
3312,1.188861359
3313,1.198779496
3314,1.221059523
3315,1.203858535
3316,1.190408053
3317,1.214353453
3318,1.205314953
3319,1.185652322
3320,1.182412092
3321,1.201863176
3322,1.218228303
3323,1.188409471
3324,1.176690585
3325,1.177805781
3326,1.182664115
3327,1.212211332
3328,1.226132491
3329,1.174704503
3330,1.206945298
3331,1.188467977
3332,1.223637754
3333,1.217382639
3334,1.194616631
3335,1.19092551
3336,1.22794816
3337,1.191656224
3338,1.178834187
3339,1.195363365
3340,1.191372703
3341,1.22026563
3342,1.183501835
3343,1.200951373
3344,1.211203865
3345,1.224587806
3346,1.202745817
3347,1.220424078
3348,1.206199606
3349,1.23197313
3350,1.211796674
3351,1.202963989
3352,1.197531276
3353,1.232879575
3354,1.229811791
3355,1.189925567
3356,1.226524623
3357,1.195230455
3358,1.242557392
3359,1.213074533
3360,1.218680395
3361,1.258951204
3362,1.235420766
3363,1.23213401
3364,1.243646783
3365,1.254603162
3366,1.251180152
3367,1.24625792
3368,1.278626672
3369,1.294053385
3370,1.30341715
3371,1.290179949
3372,1.283971073
3373,1.307245431
3374,1.329600173
3375,1.318163723
3376,1.348974093
3377,1.372873383
3378,1.380295521
3379,1.371840226
3380,1.398720552
3381,1.385154427
3382,1.427585067
3383,1.410230603
3384,1.454090486
3385,1.469833422
3386,1.484602817
3387,1.465559254
3388,1.530596584
3389,1.510921117
3390,1.517053455
3391,1.557170729
3392,1.532459095
3393,1.583857962
3394,1.592530638
3395,1.607252892
3396,1.612363145
3397,1.62733547
3398,1.656576921
3399,1.653277739
3400,1.639088289
3401,1.676127385
3402,1.692223898
3403,1.688737059
3404,1.687214076
3405,1.68969958
3406,1.686096608
3407,1.698462517
3408,1.699015142
3409,1.672543322
3410,1.701373404
3411,1.685738447
3412,1.705748941
3413,1.669589604
3414,1.639886582
3415,1.672051529
3416,1.682750767
3417,1.662200491
3418,1.64817723
3419,1.621812814
3420,1.618301885
3421,1.629160299
3422,1.579630263
3423,1.597603914
3424,1.555040317
3425,1.560134929
3426,1.520214974
3427,1.505489999
3428,1.509238877
3429,1.498595527
3430,1.478083751
3431,1.454526386
3432,1.445195859
3433,1.423024372
3434,1.420115169
3435,1.426307961
3436,1.382213949
3437,1.398300955
3438,1.378302655
3439,1.37025017
3440,1.359795974
3441,1.354501891
3442,1.320607116
3443,1.327869228
3444,1.302302261
3445,1.303880036
3446,1.305079456
3447,1.277877839
3448,1.311018195
3449,1.288963174
3450,1.284606091
3451,1.295264985
3452,1.292689279
3453,1.27084526
3454,1.290642508
3455,1.292339707
3456,1.281476726
3457,1.303207344
3458,1.302469404
3459,1.334279418
3460,1.321124253
3461,1.301064354
3462,1.327329258
3463,1.347691047
3464,1.356563782
3465,1.365218697
3466,1.362050783
3467,1.386787095
3468,1.418246857
3469,1.38895293
3470,1.418152112
3471,1.453793378
3472,1.455319733
3473,1.467030521
3474,1.485136243
3475,1.473114962
3476,1.50548154
3477,1.492597719
3478,1.564142628
3479,1.56273508
3480,1.563782921
3481,1.542882513
3482,1.581665495
3483,1.585672763
3484,1.605106359
3485,1.62797602
3486,1.643615979
3487,1.662801687
3488,1.661147807
3489,1.66852078
3490,1.707086867
3491,1.660384512
3492,1.702979724
3493,1.691034843
3494,1.709190868
3495,1.727406213
3496,1.700289421
3497,1.718268624
3498,1.696484921
3499,1.710823258
3500,1.713555868
3501,1.657647786
3502,1.688425205
3503,1.690925715
3504,1.660794106
3505,1.638504111
3506,1.64504629
3507,1.646082102
3508,1.614495201
3509,1.61750403
3510,1.59206364
3511,1.581348287
3512,1.55200013
3513,1.55495351
3514,1.566884359
3515,1.52260303
3516,1.51722621
3517,1.473093049
3518,1.471930177
3519,1.472830918
3520,1.440633436
3521,1.41795776
3522,1.395644968
3523,1.367162412
3524,1.377325558
3525,1.378727252
3526,1.356675786
3527,1.347874277
3528,1.347573218
3529,1.3451662
3530,1.307431013
3531,1.306139257
3532,1.288324413
3533,1.283412055
3534,1.28071718
3535,1.266138682
3536,1.265001991
3537,1.296000142
3538,1.245282018
3539,1.288686242
3540,1.240087211
3541,1.246966007
3542,1.207350442
3543,1.214357457
3544,1.221804477
3545,1.235896313
3546,1.230815977
3547,1.217567621
3548,1.211961833
3549,1.232060282
3550,1.213501209
3551,1.224535424
3552,1.265420048
3553,1.191644519
3554,1.184415972
3555,1.199317766
3556,1.165923678
3557,1.205120248
3558,1.217221212
3559,1.218098901
3560,1.203957521
3561,1.190104188
3562,1.215812985
3563,1.216967407
3564,1.191114384
3565,1.211548541
3566,1.191864114
3567,1.17397539
3568,1.202751944
3569,1.211985693
3570,1.204854395
3571,1.194933189
3572,1.231519263
3573,1.209613372
3574,1.181993322
3575,1.209933297
3576,1.146341646
3577,1.213591646
3578,1.228044548
3579,1.198360233
3580,1.180709629
3581,1.189216574
3582,1.175466111
3583,1.1787134
3584,1.182135518
3585,1.191301919
3586,1.207295606
3587,1.214565973
3588,1.219614757
3589,1.194950345
3590,1.183104078
3591,1.197262649
3592,1.184438662
3593,1.177766637
3594,1.192355394
3595,1.195637997
3596,1.189787762
3597,1.196493765
3598,1.182749718
3599,1.206261412
3600,1.203939866
3601,1.1946285
3602,1.194495705
3603,1.19041978
3604,1.196953866
3605,1.156391819
3606,1.206239396
3607,1.190559773
3608,1.210772241
3609,1.208577698
3610,1.191346104
3611,1.18884845
3612,1.213104402
3613,1.190622772
3614,1.204411599
3615,1.201330345
3616,1.186955072
3617,1.157179521
3618,1.210616327
3619,1.160687747
3620,1.201581015
3621,1.178583437
3622,1.21442651
3623,1.186942457
3624,1.202930067
3625,1.193956404
3626,1.189892641
3627,1.200803714
3628,1.193612743
3629,1.173929525
3630,1.184048706
3631,1.207114566
3632,1.208121223
3633,1.201385108
3634,1.210091639
3635,1.199959459
3636,1.20240846
3637,1.206637075
3638,1.207369458
3639,1.206146501
3640,1.185050258
3641,1.201830379
3642,1.200183598
3643,1.195107094
3644,1.210049447
3645,1.199797775
3646,1.1884909
3647,1.193390503
3648,1.225156527
3649,1.197674542
3650,1.210417988
3651,1.214677635
3652,1.208056037
3653,1.18498144
3654,1.214831142
3655,1.198450455
3656,1.202489891
3657,1.189205317
3658,1.20279227
3659,1.188578596
3660,1.202720987
3661,1.196486845
3662,1.18198686
3663,1.192436044
3664,1.202126578
3665,1.200695625
3666,1.196353909
3667,1.165724037
3668,1.178319386
3669,1.206399841
3670,1.194978854
3671,1.212049172
3672,1.210356191
3673,1.175249804
3674,1.210151033
3675,1.178348818
3676,1.210590992
3677,1.177646385
3678,1.170127639
3679,1.248404173
3680,1.202636256
3681,1.216936552
3682,1.196632965
3683,1.213857361
3684,1.197826531
3685,1.205250278
3686,1.205019696
3687,1.208418933
3688,1.166919406
3689,1.177208719
3690,1.191952821
3691,1.223165397
3692,1.216708776
3693,1.182880326
3694,1.172642283
3695,1.195917595
3696,1.202896538
3697,1.172578933
3698,1.199058395
3699,1.208551362
3700,1.194664332
3701,1.199139982
3702,1.192989677
3703,1.205863891
3704,1.211914764
3705,1.202331328
3706,1.187037501
3707,1.204324084
3708,1.205259369
3709,1.217801906
3710,1.16410117
3711,1.190433269
3712,1.180897979
3713,1.204275455
3714,1.246331032
3715,1.194917042
3716,1.169309203
3717,1.207402522
3718,1.201226796
3719,1.200004855
3720,1.221015874
3721,1.228590975
3722,1.222059354
3723,1.193034172
3724,1.212804228
3725,1.222746644
3726,1.188448993
3727,1.214683672
3728,1.230277928
3729,1.182098902
3730,1.197798311
3731,1.192026868
3732,1.196804905
3733,1.2081783
3734,1.218540709
3735,1.190653279
3736,1.191535219
3737,1.177089236
3738,1.17666547
3739,1.193680796
3740,1.209080989
3741,1.208828031
3742,1.218067921
3743,1.199093054
3744,1.195245374
3745,1.194316878
3746,1.164250032
3747,1.216417187
3748,1.171216175
3749,1.224270813
3750,1.2044398
3751,1.233685377
3752,1.224874516
3753,1.184100521
3754,1.18964559
3755,1.215104101
3756,1.197989329
3757,1.20269661
3758,1.18660121
3759,1.210889583
3760,1.198278658
3761,1.188322678
3762,1.195239695
3763,1.201549327
3764,1.202144655
3765,1.187001287
3766,1.196543551
3767,1.186542627
3768,1.200843996
3769,1.205351094
3770,1.192635903
3771,1.218298964
3772,1.198525015
3773,1.218803637
3774,1.193602091
3775,1.196445337
3776,1.210217581
3777,1.191172943
3778,1.187860802
3779,1.186237709
3780,1.224299803
3781,1.20082343
3782,1.204874455
3783,1.208529842
3784,1.198337018
3785,1.192209785
3786,1.206484589
3787,1.209334381
3788,1.202717634
3789,1.183690669
3790,1.204300663
3791,1.182803147
3792,1.204974392
3793,1.193325294
3794,1.203748283
3795,1.195781973
3796,1.170917256
3797,1.182584373
3798,1.213613759
3799,1.202582472
3800,1.194705277
3801,1.200594396
3802,1.199531006
3803,1.185754353
3804,1.197155012
3805,1.22325348
3806,1.184158295
3807,1.201195815
3808,1.190294811
3809,1.19158633
3810,1.209384975
3811,1.216854616
3812,1.222587107
3813,1.198109558
3814,1.207228804
3815,1.195753444
3816,1.226006872
3817,1.194533264
3818,1.195872007
3819,1.199933854
3820,1.190233329
3821,1.210484272
3822,1.203152214
3823,1.188122273
3824,1.204897216
3825,1.208208567
3826,1.223183478
3827,1.190230029
3828,1.18851673
3829,1.189361978
3830,1.200076793
3831,1.22145476
3832,1.19632869
3833,1.219437174
3834,1.211511924
3835,1.197921326
3836,1.20550012
3837,1.21133203
3838,1.192277528
3839,1.180351402
3840,1.200455424
3841,1.199412734
3842,1.211042866
3843,1.200688281
3844,1.202648232
3845,1.21217884
3846,1.206934901
3847,1.203216192
3848,1.199663614
3849,1.152468197
3850,1.200554968
3851,1.201194374
3852,1.198589675
3853,1.187188946
3854,1.205904619
3855,1.183650661
3856,1.217972259
3857,1.213040848
3858,1.185614479
3859,1.23729886
3860,1.20487547
3861,1.165247891
3862,1.192700207
3863,1.187460734
3864,1.205657728
3865,1.178815982
3866,1.184676009
3867,1.211094118
3868,1.208339405
3869,1.19001977
3870,1.203840798
3871,1.207631641
3872,1.197150048
3873,1.210941354
3874,1.201256419
3875,1.196441997
3876,1.201738247
3877,1.214285794
3878,1.182116637
3879,1.200560945
3880,1.207679276
3881,1.20238152
3882,1.194915034
3883,1.188947988
3884,1.196765834
3885,1.211086195
3886,1.200344111
3887,1.2215253
3888,1.217637569
3889,1.215013635
3890,1.171082194
3891,1.209897692
3892,1.208503343
3893,1.213821914
3894,1.198360659
3895,1.204355321
3896,1.189204698
3897,1.195717363
3898,1.200571652
3899,1.200894939
3900,1.188773975
3901,1.17967153
3902,1.21312486
3903,1.220155628
3904,1.193413928
3905,1.210437591
3906,1.181597218
3907,1.219011622
3908,1.183165792
3909,1.191173113
3910,1.201530494
3911,1.205044491
3912,1.207685729
3913,1.195653536
3914,1.204266584
3915,1.191258128
3916,1.210186012
3917,1.194406248
3918,1.197164571
3919,1.195789563
3920,1.185705847
3921,1.203572761
3922,1.189999068
3923,1.230441258
3924,1.181454933
3925,1.186490215
3926,1.21137111
3927,1.245299003
3928,1.202401832
3929,1.200977562
3930,1.204170313
3931,1.205805018
3932,1.21053853
3933,1.184169678
3934,1.189533685
3935,1.213293734
3936,1.230959323
3937,1.215852829
3938,1.201532916
3939,1.183635174
3940,1.203917475
3941,1.186698979
3942,1.18925196
3943,1.208092229
3944,1.220633548
3945,1.217250788
3946,1.200849622
3947,1.185698866
3948,1.198708344
3949,1.183077943
3950,1.200274197
3951,1.202252669
3952,1.191550229
3953,1.192131466
3954,1.215827659
3955,1.173949227
3956,1.189833558
3957,1.180683545
3958,1.22406577
3959,1.176203329
3960,1.207297798
3961,1.198152665
3962,1.195621516
3963,1.199935865
3964,1.194525192
3965,1.185129585
3966,1.203192564
3967,1.19912775
3968,1.205720799
3969,1.241767503
3970,1.182657375
3971,1.212051655
3972,1.199243227
3973,1.198942733
3974,1.209367555
3975,1.217586187
3976,1.193917604
3977,1.219152666
3978,1.199286364
3979,1.192897588
3980,1.196111938
3981,1.182752983
3982,1.208997758
3983,1.201537703
3984,1.194087606
3985,1.203473297
3986,1.211423484
3987,1.185706123
3988,1.197521221
3989,1.174754656
3990,1.229874603
3991,1.197230122
3992,1.215072794
3993,1.219139701
3994,1.203313706
3995,1.200534395
3996,1.184891818
3997,1.17810021
3998,1.256588044
3999,1.226063783
4000,1.184042731
