Raman Shift,Intensity 
400,-3.19E-06
401,-0.003891125
402,0.014082519
403,0.011153919
404,0.002987616
405,0.006389283
406,0.004520352
407,0.008418279
408,-0.007551019
409,-0.005378372
410,0.016339075
411,-0.005079312
412,-0.013918039
413,0.010357189
414,0.012788149
415,-0.012862481
416,0.006438319
417,-0.008258428
418,0.001064543
419,0.006605122
420,-0.007551369
421,-0.005049281
422,0.008250109
423,0.007325691
424,0.009452601
425,0.004873728
426,0.000795964
427,-0.005468213
428,0.007430544
429,-0.014923838
430,0.021272414
431,0.000729979
432,0.015710933
433,0.008094523
434,-0.009757175
435,0.008905603
436,-0.023246551
437,0.003296046
438,-0.004130873
439,-0.000143321
440,-0.010768331
441,-0.002276821
442,-0.005046102
443,-0.014115286
444,0.021662307
445,0.001024731
446,0.01642227
447,0.008228471
448,-0.017027627
449,-0.001432028
450,-0.006331455
451,-0.002930214
452,0.010611383
453,-0.000759641
454,0.0051723
455,0.000945364
456,0.006745969
457,-0.012702836
458,0.011152477
459,-0.010534683
460,0.001789028
461,-0.012262381
462,0.002101528
463,-0.014857415
464,0.010994421
465,0.007300861
466,0.014691411
467,0.001697499
468,0.006291655
469,0.000324801
470,0.003979608
471,-0.001417992
472,0.010924518
473,0.003497412
474,0.00250265
475,0.01282891
476,0.008483388
477,0.002193428
478,-0.002101931
479,-0.018757405
480,0.012887605
481,0.017681848
482,-0.000428854
483,0.012676154
484,0.003058764
485,-0.003135265
486,-0.005231395
487,0.013286742
488,0.010662454
489,-0.003158706
490,0.001895878
491,0.001218752
492,-0.003587946
493,-0.012264649
494,-0.00928876
495,-0.00621863
496,-0.000677353
497,0.001160641
498,-0.00352509
499,0.000566947
500,-0.00661099
501,0.004510834
502,-0.010603526
503,0.001491999
504,0.024875158
505,-3.60E-05
506,0.00526003
507,0.018365008
508,0.006949306
509,-0.004243661
510,0.006311588
511,0.001753784
512,0.00597464
513,-0.009390192
514,-0.002816419
515,0.011543261
516,0.003915492
517,0.009421489
518,-0.000713364
519,-0.003847299
520,-0.00164508
521,-0.011289332
522,0.020689739
523,-0.021732365
524,-0.010738166
525,0.007416205
526,-0.010923592
527,-0.009025715
528,-0.00868864
529,0.005874296
530,0.00270424
531,-0.00682039
532,0.00777441
533,0.012341519
534,0.015250651
535,0.005587013
536,-0.001951479
537,0.004001469
538,0.015430913
539,0.013619308
540,-0.00464717
541,0.001900233
542,0.009210283
543,-0.000278152
544,0.009407659
545,-0.007754416
546,0.001966106
547,-0.009297149
548,-0.002244764
549,-0.016264881
550,0.005694423
551,-0.009489773
552,0.015316763
553,-0.015245434
554,-0.00300756
555,-0.003824699
556,-0.00327066
557,-0.022308501
558,-0.005272878
559,-0.012001986
560,-0.012304118
561,0.006414278
562,-0.004523941
563,-0.026686899
564,0.00011733
565,-0.02084134
566,0.000915771
567,-0.004171652
568,-0.000960027
569,0.000881678
570,0.011899228
571,-0.01694136
572,-0.007450809
573,-0.001467239
574,-0.004852847
575,0.024317309
576,-0.002045204
577,-0.010940407
578,0.011567308
579,-0.001397039
580,-0.00938554
581,0.00506854
582,-0.005993564
583,-0.011816744
584,-0.001725148
585,0.012978987
586,0.001482649
587,0.006234775
588,-0.006435526
589,-0.007373448
590,0.002115668
591,0.000475109
592,0.001899811
593,-0.01013844
594,0.008451222
595,0.007523607
596,0.005995251
597,-0.002098982
598,0.008948811
599,0.000637928
600,-9.38E-05
601,0.002032779
602,-0.008937503
603,0.004085275
604,-0.003660324
605,0.010418586
606,0.003911584
607,-0.017537871
608,0.00646013
609,0.017091269
610,0.011745571
611,-0.015561171
612,-0.002186263
613,-0.012484279
614,0.001144821
615,-0.007730631
616,0.002642959
617,-0.001837298
618,0.015722518
619,-0.00061352
620,0.002137252
621,0.006807444
622,-0.009116597
623,0.013121649
624,-0.012516651
625,-0.017415543
626,-0.016848007
627,-0.018787602
628,0.019199974
629,0.004962804
630,-0.000391364
631,0.006658163
632,0.009312386
633,-0.011793493
634,-0.008889255
635,0.000627238
636,0.007049777
637,-0.008566492
638,0.01159498
639,0.007751175
640,0.000319093
641,0.004770034
642,0.005522019
643,-0.004026261
644,0.019640059
645,0.016075124
646,0.016769502
647,0.01543066
648,-0.000740006
649,0.005003272
650,-0.016641663
651,0.001355983
652,0.025086862
653,-0.010851506
654,0.005101794
655,0.003828774
656,0.012390513
657,-0.010790228
658,0.011720636
659,-0.005403303
660,0.013989998
661,-0.001424154
662,0.025016742
663,-0.012804953
664,-0.013281005
665,0.021131763
666,-0.017071384
667,-0.005581622
668,-0.020213189
669,-0.009200829
670,-0.00383812
671,0.002242323
672,0.00738951
673,0.01523824
674,0.007650639
675,0.006867328
676,0.010970119
677,0.003554133
678,-0.004845931
679,-0.014795333
680,-0.011227046
681,-0.013192547
682,-0.003546483
683,0.008534013
684,0.00010116
685,0.00682429
686,0.016255286
687,-0.004581522
688,-0.012733823
689,-0.006290521
690,0.014595476
691,-0.007566939
692,-0.007537367
693,-0.011425751
694,-0.017211114
695,-0.015979719
696,-4.69E-05
697,-0.009864253
698,-0.000850384
699,-0.004170119
700,0.013987358
701,0.009486089
702,0.005887042
703,0.000841808
704,0.004992035
705,0.008878236
706,0.008933455
707,-0.012604359
708,0.012410898
709,-0.000212931
710,-0.000379885
711,-0.020677755
712,0.000454263
713,0.011650288
714,0.009842709
715,-0.007851128
716,0.017508807
717,0.004744563
718,0.001289974
719,-0.015478854
720,-0.005413279
721,0.025127399
722,-0.009496265
723,0.006313986
724,0.00183502
725,-0.015717228
726,-0.00839418
727,-0.011960794
728,0.003858687
729,-0.010366955
730,0.001724573
731,-0.001164663
732,-0.010037986
733,-0.004544172
734,0.001201546
735,-0.01427484
736,0.00157214
737,-0.004709665
738,0.011117541
739,0.005119181
740,-0.017664628
741,-4.09E-05
742,-0.010733613
743,-0.011367239
744,-0.004566348
745,-0.003202547
746,-0.010976803
747,0.021555973
748,0.003739915
749,-0.003383191
750,-0.01339177
751,-0.0135176
752,-0.010486228
753,0.003962712
754,0.009633524
755,0.008959311
756,0.009398692
757,0.000341489
758,-0.008101033
759,0.00324665
760,-0.00919354
761,0.015028177
762,0.008582521
763,-0.00633658
764,-0.013367639
765,0.011997544
766,0.02090841
767,-0.003967994
768,0.001448578
769,0.005720159
770,0.004050732
771,-0.011080432
772,-0.004564458
773,0.007208685
774,0.000921526
775,0.011243189
776,0.00430071
777,-0.018688506
778,-0.015906289
779,0.002573815
780,0.003090922
781,-0.001689795
782,0.000144187
783,0.00069196
784,0.005793356
785,-0.008121403
786,-0.000794926
787,0.031325034
788,-0.005722616
789,-0.00266272
790,0.008170992
791,-0.009391874
792,0.010201247
793,0.00557393
794,0.013311176
795,-0.004431579
796,-0.009455151
797,0.014674114
798,-0.006674364
799,0.014606954
800,0.020233164
801,0.010886692
802,0.004961204
803,0.002639338
804,0.005023976
805,-0.020261945
806,-0.0031741
807,0.002354997
808,-0.001580329
809,0.01371962
810,0.002819039
811,-0.009240573
812,0.003194651
813,0.00317195
814,0.018227268
815,0.006147498
816,-0.001709324
817,0.018283756
818,0.006512257
819,0.001391933
820,-0.002879139
821,0.006252995
822,0.007227491
823,-0.014733308
824,-0.007159091
825,0.002149293
826,-0.009351373
827,-0.001365308
828,-0.003101714
829,-0.001871307
830,-0.019007544
831,-0.008850037
832,-0.016888036
833,0.025740369
834,-0.001264968
835,0.002333942
836,-0.008892711
837,-0.00564699
838,0.001419985
839,0.003661508
840,-0.003494253
841,0.00073547
842,0.002207339
843,-0.012836727
844,0.011352112
845,-0.00163897
846,-0.012889659
847,0.002177364
848,-0.013515111
849,0.001358503
850,0.00072871
851,0.0212404
852,-0.003119554
853,0.006922632
854,0.00566086
855,0.012555274
856,0.012203327
857,0.005991212
858,0.002599787
859,0.011875452
860,-0.003610467
861,0.015594817
862,0.009160938
863,-0.009011309
864,-0.015975518
865,0.000812166
866,-0.001874278
867,-0.005544196
868,-0.004377359
869,-0.003011177
870,0.01085147
871,-0.012354705
872,0.001186583
873,0.002620882
874,-0.00067033
875,0.01265366
876,-0.008377843
877,0.005791567
878,0.023670162
879,0.01250768
880,-0.007522299
881,-0.00236924
882,-0.002515001
883,-0.013517784
884,0.00647324
885,-0.000216868
886,0.003744885
887,0.001663469
888,5.60E-05
889,-0.001386014
890,-0.005004597
891,-0.010173467
892,-0.009560876
893,0.00845521
894,-0.009092874
895,0.003269046
896,-0.002667577
897,0.012949957
898,0.007426289
899,-0.001044054
900,0.00794503
901,-0.007417834
902,-0.003456755
903,-0.008584001
904,0.009374935
905,0.002391166
906,-0.020307017
907,-0.007928343
908,-0.00860394
909,-0.006689425
910,-0.006036427
911,-0.014502925
912,0.020335751
913,0.004069046
914,0.00863863
915,-0.000554866
916,1.08E-05
917,0.006926538
918,-0.014486739
919,-0.00774695
920,-0.012082256
921,-0.000901097
922,0.018107167
923,0.009945261
924,0.016785856
925,-0.00236335
926,-0.002474299
927,0.000692714
928,-0.00321183
929,0.018104725
930,0.003243171
931,0.01981644
932,0.002465042
933,0.000799897
934,0.001548132
935,-0.006657415
936,-0.01144977
937,0.00193164
938,0.015625816
939,-0.005449791
940,-0.006951894
941,0.012399317
942,-0.011143743
943,-0.003833799
944,0.0163636
945,0.007842365
946,-0.021320096
947,0.020080591
948,0.012843887
949,-0.008770836
950,-0.004278228
951,-0.003619754
952,-0.004576187
953,0.020751118
954,-0.015488386
955,-0.015034175
956,0.006676178
957,0.009284752
958,0.014260734
959,-0.017841049
960,-0.002509708
961,-0.004983624
962,0.010638422
963,0.01036385
964,0.010761488
965,-0.001524386
966,0.019827604
967,0.008315476
968,0.01566573
969,0.000676341
970,0.001551883
971,0.016983954
972,0.007586292
973,0.005566897
974,-0.004521917
975,0.00326137
976,-0.008169757
977,-0.000365363
978,-0.021550009
979,0.003731206
980,0.0003543
981,0.005767735
982,0.00292328
983,0.005264233
984,0.009775196
985,-0.000652108
986,0.00451015
987,0.006946126
988,0.002522943
989,-0.015311149
990,0.025968535
991,0.003497056
992,0.00742979
993,-0.022588501
994,-0.008053106
995,0.008481721
996,-0.001570446
997,0.001018822
998,0.003293142
999,0.017561807
1000,0.002365042
1001,-0.003164461
1002,-0.008153476
1003,-0.001276073
1004,0.01076252
1005,-0.00042872
1006,0.017054173
1007,0.005395078
1008,-0.004503538
1009,-0.001546047
1010,0.006044333
1011,0.010217971
1012,0.018012038
1013,-0.008735999
1014,0.004164327
1015,0.003778067
1016,0.002792936
1017,-0.001306197
1018,-0.001569526
1019,0.004727457
1020,0.013598358
1021,-0.0069022
1022,-0.002789207
1023,0.00048147
1024,-0.007494364
1025,-0.010149396
1026,-0.009227803
1027,-0.010315283
1028,0.007441473
1029,0.011520192
1030,0.004492167
1031,0.011984636
1032,0.01109803
1033,0.003459671
1034,-0.007231861
1035,-0.006070223
1036,0.008312647
1037,-0.0090872
1038,0.000574871
1039,0.010063003
1040,-0.003147313
1041,-0.014785782
1042,0.004062789
1043,-0.004797385
1044,-0.003460054
1045,0.006315855
1046,0.003854479
1047,-0.003398986
1048,-0.018183854
1049,-0.000793707
1050,-0.008329102
1051,-0.008896488
1052,-0.011236116
1053,0.003495146
1054,0.011508563
1055,-0.015422477
1056,0.001225616
1057,-0.00343838
1058,-0.013392866
1059,0.000278676
1060,0.010709559
1061,0.005120555
1062,-0.007951567
1063,0.009729816
1064,-0.002369611
1065,0.001338017
1066,-0.002964922
1067,0.00161571
1068,-1.41E-05
1069,-0.014465337
1070,0.004383604
1071,0.003271552
1072,-0.017662875
1073,0.001184339
1074,0.001347786
1075,6.02E-05
1076,0.013292684
1077,-0.000979301
1078,0.012861065
1079,0.005172465
1080,-0.001128193
1081,0.008456263
1082,0.007271696
1083,0.000414864
1084,0.000656058
1085,0.001431733
1086,-0.005419338
1087,-0.010803705
1088,0.00884963
1089,-0.013497983
1090,0.003513471
1091,0.001691033
1092,0.018664684
1093,-0.017632837
1094,0.006332839
1095,0.000333773
1096,-0.002900506
1097,-0.013477619
1098,-0.013090838
1099,-0.0126922
1100,0.023874185
1101,0.016766868
1102,-0.003928506
1103,0.007183124
1104,0.004819329
1105,-0.006837623
1106,-0.004795026
1107,-0.005032112
1108,0.013848382
1109,0.003146627
1110,0.000340791
1111,0.002038741
1112,0.006240914
1113,-0.011958707
1114,-0.004729884
1115,-0.015247029
1116,-0.022876383
1117,0.016752972
1118,0.002151361
1119,-0.007367077
1120,-0.000850581
1121,0.000661033
1122,-0.013768643
1123,-0.003400519
1124,-0.001437439
1125,0.010043199
1126,-0.009663469
1127,0.005520179
1128,-0.020176374
1129,-0.00496942
1130,-0.015478179
1131,0.012039112
1132,-0.009332413
1133,0.025347133
1134,-0.001498211
1135,0.006860077
1136,0.012202197
1137,0.010211621
1138,-0.012311228
1139,0.011320969
1140,0.016058162
1141,0.013390101
1142,-0.000547386
1143,0.001123504
1144,-0.006408853
1145,0.004972366
1146,-0.024455105
1147,0.012640342
1148,0.007268428
1149,0.006941073
1150,-0.008693738
1151,0.008679538
1152,-0.003132293
1153,0.009900016
1154,-0.005356974
1155,-0.0115448
1156,-0.000950466
1157,0.004959625
1158,0.002774456
1159,-0.004914215
1160,0.003373695
1161,0.005057727
1162,-0.018289929
1163,-0.003498241
1164,0.00367894
1165,0.006683374
1166,0.003090049
1167,0.003490723
1168,0.008403651
1169,-0.005722194
1170,0.008964462
1171,0.010179121
1172,-0.011041246
1173,-0.006822078
1174,0.007965677
1175,-0.004995343
1176,5.34E-06
1177,0.016049536
1178,0.001238375
1179,-0.002488048
1180,-0.021675525
1181,0.01225513
1182,-0.007631563
1183,-0.026309362
1184,0.003138097
1185,0.000656634
1186,-0.013844825
1187,0.000976981
1188,-0.00911937
1189,0.004355553
1190,0.00501409
1191,-0.015875197
1192,0.019169636
1193,-0.015859641
1194,0.01644961
1195,-0.010035222
1196,-0.020358946
1197,0.011043891
1198,0.007685961
1199,-0.017824929
1200,0.012176941
1201,0.005369655
1202,0.006015507
1203,-0.003372715
1204,0.000574341
1205,0.00209467
1206,-0.007523805
1207,0.027047898
1208,0.001161996
1209,-0.020333541
1210,0.000131237
1211,-0.007657457
1212,-0.020256455
1213,-0.007614883
1214,0.010161416
1215,0.00301688
1216,0.004683628
1217,-0.005592215
1218,0.018104981
1219,-0.000246154
1220,0.004655474
1221,-0.000614789
1222,0.018834113
1223,-0.00571044
1224,0.014897743
1225,-0.009818662
1226,-0.01827985
1227,-0.010298158
1228,0.019317094
1229,0.005742517
1230,0.002064909
1231,0.012839487
1232,0.010824838
1233,0.006003704
1234,0.005406317
1235,-0.009051776
1236,-0.023914731
1237,-0.004383986
1238,-0.000570684
1239,-0.015038241
1240,0.002241235
1241,0.001914032
1242,-0.007025148
1243,-0.012606283
1244,-0.003565999
1245,0.003871204
1246,0.003647748
1247,0.008754153
1248,-0.007248401
1249,0.000683707
1250,-0.003352264
1251,-0.002238584
1252,0.004658571
1253,-0.009848969
1254,-0.000194406
1255,0.00150772
1256,-0.011994713
1257,-0.008801948
1258,-0.005167138
1259,0.008937135
1260,0.009395234
1261,0.00175695
1262,-0.012198111
1263,-0.014201921
1264,-0.003593572
1265,0.010366301
1266,-0.019222135
1267,-0.004611608
1268,0.006700587
1269,-0.009528454
1270,-0.012494466
1271,0.007030447
1272,0.003008466
1273,-0.004206989
1274,-0.000610027
1275,0.011631736
1276,-0.002427183
1277,-0.01682797
1278,0.006089271
1279,-0.003552685
1280,0.005397332
1281,0.004317008
1282,-0.000104114
1283,0.012077824
1284,-0.002770304
1285,-0.002192012
1286,0.001581599
1287,0.000224252
1288,0.000254373
1289,0.006112812
1290,-0.015082697
1291,-0.016997475
1292,0.009342229
1293,-0.013013806
1294,0.007819608
1295,-0.014248718
1296,-0.008999637
1297,-0.005824525
1298,0.003325147
1299,0.00123341
1300,-0.000779008
1301,0.010147208
1302,0.02386076
1303,-0.015371242
1304,-0.011901917
1305,-0.022688604
1306,-0.005500244
1307,0.004678918
1308,-0.006918734
1309,0.007743661
1310,0.013685256
1311,-0.001148125
1312,0.006299566
1313,0.013130914
1314,0.022763944
1315,-0.016514556
1316,0.023062162
1317,0.008796923
1318,0.002019339
1319,0.013821016
1320,0.026281109
1321,0.000901689
1322,0.001194178
1323,0.007452488
1324,-0.02168968
1325,-0.024419831
1326,0.001447821
1327,0.018596922
1328,0.01620962
1329,0.001432638
1330,-0.014438906
1331,-0.001820337
1332,0.004331677
1333,0.005756051
1334,0.015445728
1335,-0.006863597
1336,-0.010147033
1337,0.007021105
1338,0.014961005
1339,-0.005429623
1340,0.008196906
1341,0.005983594
1342,-0.004452629
1343,0.013283027
1344,0.003755205
1345,-0.020529197
1346,-0.007737072
1347,-0.011585903
1348,-0.014400523
1349,-0.009094228
1350,0.001831519
1351,0.005880388
1352,-0.011169308
1353,-0.020349048
1354,-0.017842223
1355,0.005289226
1356,0.001685375
1357,-0.008853765
1358,0.017458501
1359,-0.002913086
1360,0.022012427
1361,0.007558402
1362,-0.012546683
1363,0.015219779
1364,-0.000251199
1365,0.010208092
1366,-0.008367517
1367,-0.002283127
1368,-0.004847642
1369,0.020735645
1370,0.000634917
1371,0.000416392
1372,0.00478386
1373,-0.01663181
1374,0.001758172
1375,0.012229471
1376,-0.004405705
1377,0.00195396
1378,-0.003765189
1379,0.00466621
1380,-0.01726355
1381,0.005738037
1382,0.006154196
1383,-0.003189833
1384,0.000985321
1385,-0.001447529
1386,0.015448061
1387,0.003324721
1388,0.009728523
1389,-0.003221036
1390,-0.014436505
1391,-0.011633082
1392,0.000620572
1393,-0.005324609
1394,0.010135951
1395,0.001322343
1396,0.000940247
1397,0.005047874
1398,0.002042967
1399,-0.018211383
1400,0.004021618
1401,0.008322632
1402,0.017466755
1403,-0.007127197
1404,0.003309513
1405,0.018941608
1406,0.015918748
1407,0.011017938
1408,-0.006921868
1409,0.00376706
1410,0.033785836
1411,0.018382076
1412,0.008803531
1413,-0.000203655
1414,0.002317599
1415,-0.004311945
1416,0.005213075
1417,-0.006406253
1418,0.001313161
1419,0.006914856
1420,-0.00806117
1421,0.012612664
1422,0.013851958
1423,0.002216884
1424,-0.001692867
1425,-0.004898373
1426,-0.002657621
1427,-0.000599366
1428,0.021155116
1429,0.006324936
1430,-0.007926318
1431,0.00590781
1432,0.008029951
1433,0.001962807
1434,0.002132931
1435,0.003027179
1436,-0.01133909
1437,0.009762032
1438,0.007069181
1439,0.010550746
1440,0.000610353
1441,-0.00214298
1442,0.018599121
1443,0.013413267
1444,0.014359838
1445,0.002700082
1446,0.007623323
1447,0.010216563
1448,0.012155556
1449,0.011212179
1450,-0.005175325
1451,0.002900358
1452,0.003240805
1453,-0.009400699
1454,0.003446622
1455,-0.006930121
1456,-0.008549344
1457,0.009617728
1458,-0.011542209
1459,0.00083402
1460,0.019775056
1461,-0.007695703
1462,0.007336119
1463,0.005469691
1464,-0.01167205
1465,0.01368168
1466,0.009221161
1467,0.002677127
1468,0.000548387
1469,-0.011997674
1470,0.004797305
1471,-0.000683992
1472,0.01002741
1473,0.000554575
1474,0.014130083
1475,-0.012905473
1476,0.013718608
1477,0.01741365
1478,0.013995448
1479,0.000154378
1480,-0.00850596
1481,0.010882122
1482,0.009552241
1483,0.019406535
1484,0.006003337
1485,-0.013086526
1486,0.017449182
1487,0.003893146
1488,-0.00476872
1489,0.011691749
1490,0.001167698
1491,0.008362306
1492,0.013881046
1493,0.00700832
1494,0.000159638
1495,-0.004812419
1496,0.005690487
1497,0.016568415
1498,0.003174999
1499,0.009323072
1500,0.018471897
1501,0.020690633
1502,0.013277798
1503,0.013992124
1504,0.032822608
1505,0.022161302
1506,0.01727495
1507,0.008231847
1508,0.032713533
1509,0.023106122
1510,-0.005959388
1511,0.023437624
1512,0.018447719
1513,0.010714296
1514,0.016642322
1515,0.004920596
1516,0.028345547
1517,0.021079174
1518,0.025336179
1519,0.016685699
1520,0.02160185
1521,0.013467839
1522,0.008821763
1523,0.018939135
1524,0.035083362
1525,0.009377911
1526,0.03204318
1527,0.012862684
1528,0.03104068
1529,0.01178341
1530,0.0149841
1531,0.039540197
1532,0.005634272
1533,0.022285595
1534,0.024128412
1535,0.035630956
1536,0.024400713
1537,0.044091653
1538,0.016744581
1539,0.017395958
1540,0.022223916
1541,0.021069209
1542,0.026250882
1543,0.024745044
1544,0.017694283
1545,0.018571361
1546,0.007571832
1547,0.012146624
1548,0.022704308
1549,0.011215937
1550,0.022222252
1551,0.034636879
1552,0.043334183
1553,0.029406652
1554,0.044334128
1555,0.014119574
1556,0.024594147
1557,0.010909142
1558,0.046181897
1559,0.024938451
1560,0.031942869
1561,0.033632424
1562,0.048033216
1563,0.052097783
1564,0.020288033
1565,0.032723557
1566,0.025379949
1567,0.047090235
1568,0.027472387
1569,0.031481255
1570,0.037262857
1571,0.043742382
1572,0.042696353
1573,0.043063678
1574,0.029302502
1575,0.03764005
1576,0.022857796
1577,0.036887103
1578,0.034374623
1579,0.035419298
1580,0.059567247
1581,0.042901455
1582,0.037016817
1583,0.044390255
1584,0.030007938
1585,0.032152886
1586,0.03673413
1587,0.055331031
1588,0.045654214
1589,0.048268967
1590,0.01427689
1591,0.039322498
1592,0.051158058
1593,0.045346882
1594,0.046026858
1595,0.010207791
1596,0.038183221
1597,0.047028755
1598,0.048081813
1599,0.026789519
1600,0.037898288
1601,0.045755852
1602,0.052098544
1603,0.049700406
1604,0.053971124
1605,0.043658276
1606,0.037542547
1607,0.044953435
1608,0.053399434
1609,0.037755656
1610,0.045392124
1611,0.052205269
1612,0.046095025
1613,0.049648459
1614,0.053049774
1615,0.046238984
1616,0.069835209
1617,0.040185907
1618,0.02579072
1619,0.038560863
1620,0.040138778
1621,0.056923584
1622,0.043504913
1623,0.046652428
1624,0.049490843
1625,0.045497728
1626,0.05906692
1627,0.056418822
1628,0.054965983
1629,0.036031005
1630,0.046678998
1631,0.060153897
1632,0.070478927
1633,0.045505032
1634,0.077576109
1635,0.071481849
1636,0.059571482
1637,0.041414711
1638,0.051057067
1639,0.052393101
1640,0.039946432
1641,0.047799697
1642,0.052184463
1643,0.066795285
1644,0.056351859
1645,0.045315155
1646,0.039067591
1647,0.037019971
1648,0.057947635
1649,0.0452018
1650,0.038668509
1651,0.041298337
1652,0.051627075
1653,0.046400097
1654,0.050633477
1655,0.049068264
1656,0.043199545
1657,0.04778534
1658,0.069139622
1659,0.05198467
1660,0.057830753
1661,0.054466233
1662,0.047957533
1663,0.052183608
1664,0.035824353
1665,0.046090226
1666,0.039552291
1667,0.050738814
1668,0.048010529
1669,0.055482481
1670,0.053529688
1671,0.043706795
1672,0.049873921
1673,0.051498245
1674,0.038915009
1675,0.044611189
1676,0.051770756
1677,0.050327159
1678,0.041453069
1679,0.046175653
1680,0.049709954
1681,0.046933156
1682,0.046218893
1683,0.042451044
1684,0.042584877
1685,0.052535274
1686,0.041534554
1687,0.051971976
1688,0.032410307
1689,0.017254155
1690,0.045662449
1691,0.044763893
1692,0.036296082
1693,0.04419192
1694,0.031922258
1695,0.031935171
1696,0.029772065
1697,0.05253021
1698,0.045886866
1699,0.031091373
1700,0.029277669
1701,0.050056187
1702,0.041856837
1703,0.033412105
1704,0.038132799
1705,0.019159408
1706,0.039798137
1707,0.055729189
1708,0.030980488
1709,0.04736014
1710,0.032413035
1711,0.032271353
1712,0.013357546
1713,0.038217809
1714,0.017228444
1715,0.034265229
1716,0.01539171
1717,0.051039341
1718,0.026365329
1719,0.045332238
1720,0.036923047
1721,0.017343441
1722,0.017684878
1723,0.028345487
1724,0.02647165
1725,0.02431636
1726,0.029157798
1727,0.037316742
1728,0.038767438
1729,0.040532133
1730,0.038053527
1731,0.026738899
1732,0.035127807
1733,0.035451615
1734,0.030589807
1735,0.029492231
1736,0.012078733
1737,0.023410853
1738,0.018138785
1739,0.026663745
1740,0.010595118
1741,0.023888693
1742,0.027065595
1743,0.039563373
1744,0.026090591
1745,0.025973125
1746,0.033102641
1747,0.02193278
1748,0.014030495
1749,0.011216491
1750,0.011070446
1751,0.010833949
1752,0.017876751
1753,0.014396478
1754,0.020711306
1755,0.027602376
1756,0.006672113
1757,0.02233387
1758,0.039271613
1759,0.022126271
1760,0.034692073
1761,0.013516923
1762,0.011372823
1763,0.031539679
1764,8.98E-05
1765,0.01267393
1766,0.019485273
1767,0.020292063
1768,0.028743423
1769,0.018501028
1770,0.029526967
1771,0.013391312
1772,0.015695364
1773,0.000756312
1774,0.029947393
1775,0.014512414
1776,0.003859811
1777,0.010296988
1778,0.004315928
1779,0.012001696
1780,-0.003923866
1781,0.006389545
1782,-0.001233268
1783,0.006981347
1784,0.023820449
1785,0.025087657
1786,0.016291269
1787,0.003070281
1788,-0.007241401
1789,0.016609942
1790,0.009738509
1791,-0.009179748
1792,0.007349832
1793,0.010787656
1794,-0.003474006
1795,0.013855012
1796,0.011317922
1797,-0.007876758
1798,0.005673108
1799,0.010863234
1800,0.00603326
1801,-0.010084994
1802,-0.000799345
1803,0.007298241
1804,0.026957998
1805,-0.005412822
1806,0.006245145
1807,0.007876969
1808,0.025110699
1809,-0.001647628
1810,0.019331091
1811,0.010198681
1812,0.005882322
1813,0.012210544
1814,4.52E-05
1815,0.004189299
1816,-0.003602686
1817,0.001953539
1818,0.011289999
1819,-0.014967703
1820,-0.002051786
1821,0.012705978
1822,-0.020800181
1823,0.013651155
1824,0.014859893
1825,-0.001036952
1826,0.005987212
1827,0.009150342
1828,-0.005540405
1829,-0.004758209
1830,-0.006523511
1831,0.00552375
1832,0.008011753
1833,0.004198271
1834,0.007407967
1835,0.017063836
1836,0.021796436
1837,-0.006896034
1838,-0.001110963
1839,0.015435042
1840,-0.001343721
1841,0.011419466
1842,0.00975405
1843,-0.005425402
1844,-0.004045036
1845,-0.004519819
1846,-0.01630573
1847,0.019590551
1848,0.005615615
1849,-0.013612672
1850,-0.004474943
1851,0.010469597
1852,-0.007314411
1853,-0.009353712
1854,-0.012128359
1855,0.000253379
1856,-0.004474411
1857,0.007655093
1858,-0.001525159
1859,-0.005713931
1860,0.00823204
1861,0.025995172
1862,-0.001309987
1863,-0.017264585
1864,-0.007933321
1865,-0.027338125
1866,-0.010157042
1867,0.004110149
1868,-0.012436361
1869,-0.001507041
1870,-0.001514837
1871,-0.011166031
1872,0.004720708
1873,0.003439388
1874,0.00119022
1875,-0.004151185
1876,-0.002061127
1877,0.015126986
1878,-0.012134089
1879,-0.000347335
1880,-0.007206319
1881,-0.005165535
1882,0.002160702
1883,-0.011639283
1884,0.000826557
1885,0.002155284
1886,-0.00040698
1887,0.008865089
1888,0.000764956
1889,-0.014968976
1890,0.007175308
1891,-0.001963753
1892,-0.005761646
1893,-0.000153546
1894,0.004522864
1895,0.002734081
1896,0.007131729
1897,-0.004240647
1898,-0.004247969
1899,-0.006254575
1900,-0.00594326
1901,0.005223372
1902,0.003818842
1903,0.002164842
1904,-0.006952698
1905,-0.004770063
1906,-0.009629545
1907,0.004861381
1908,-0.000890204
1909,-0.011103652
1910,-0.002658423
1911,0.014170699
1912,0.012758592
1913,-0.002709433
1914,-0.012133607
1915,-0.001719968
1916,0.011224008
1917,0.010179343
1918,-0.008232754
1919,-0.005861363
1920,-0.005375641
1921,-0.002473989
1922,0.002928953
1923,-0.00844559
1924,0.011803337
1925,0.005825398
1926,0.000912663
1927,0.004288543
1928,-0.007645826
1929,0.009220546
1930,0.013668882
1931,-0.006906784
1932,0.002890066
1933,0.007607144
1934,0.007908977
1935,0.005727619
1936,-0.00019373
1937,-0.004530167
1938,-0.010155114
1939,-0.010180898
1940,-0.024139481
1941,-0.000697751
1942,0.010036713
1943,0.004248426
1944,0.005849342
1945,0.004802886
1946,-0.002721473
1947,0.001103492
1948,-0.001878168
1949,-0.000467049
1950,0.006966427
1951,-0.011634457
1952,0.005392123
1953,0.005441828
1954,-0.01014141
1955,-0.018861817
1956,-0.013626819
1957,0.001602074
1958,-0.009493373
1959,-0.002250956
1960,0.014275726
1961,0.014415743
1962,-0.022765781
1963,-0.011063181
1964,-0.002039361
1965,0.005350432
1966,-0.000427165
1967,0.012665763
1968,0.004641728
1969,0.003642025
1970,0.000663398
1971,0.016109173
1972,-0.007446903
1973,0.008710494
1974,-0.005168682
1975,-0.005111463
1976,-0.000350229
1977,0.007855407
1978,0.01184643
1979,-0.009128834
1980,-0.01217619
1981,-0.006318074
1982,-0.00491146
1983,0.015427349
1984,-0.00193088
1985,0.010957764
1986,-0.00839163
1987,-0.010750328
1988,-0.00716905
1989,9.01E-05
1990,0.00827761
1991,-0.003320492
1992,-0.009203946
1993,0.007348942
1994,0.015126219
1995,-0.002471634
1996,-0.008299711
1997,0.003991861
1998,-0.003879729
1999,0.004031777
2000,-0.007149999
2001,0.005188618
2002,0.000685276
2003,-0.004485056
2004,-0.004898244
2005,0.010229345
2006,0.015197027
2007,0.014593097
2008,-0.021814556
2009,0.017328382
2010,0.001605736
2011,0.002377948
2012,0.013452055
2013,0.002696537
2014,0.000884186
2015,0.012111151
2016,-0.005468471
2017,-0.001589096
2018,-0.017415146
2019,0.006057764
2020,0.005858335
2021,-0.005551257
2022,0.004015705
2023,-0.012725641
2024,0.006501578
2025,-0.020051299
2026,0.020436816
2027,-0.003427002
2028,-0.009602017
2029,0.003234725
2030,0.01688001
2031,-0.010971131
2032,0.006766262
2033,0.002312839
2034,0.019286534
2035,0.006978399
2036,0.008353347
2037,-0.016569107
2038,0.017022591
2039,-0.004280816
2040,-0.001735772
2041,-0.011872808
2042,-0.003877012
2043,0.019863623
2044,-0.000496768
2045,0.000407035
2046,-0.002669866
2047,-0.005069104
2048,-0.0206483
2049,0.007136207
2050,-0.012908039
2051,-0.002428526
2052,-0.007698514
2053,0.014641142
2054,0.021873561
2055,0.011149048
2056,0.005566283
2057,0.003230736
2058,-0.004819687
2059,0.007251678
2060,0.015449193
2061,0.016514674
2062,-0.006156144
2063,0.012968252
2064,-0.014859865
2065,-0.011503662
2066,0.006049433
2067,0.027714606
2068,0.00701853
2069,0.016090849
2070,0.018393263
2071,0.003063251
2072,0.01014892
2073,-0.0097947
2074,0.007058443
2075,-0.017685241
2076,0.014441656
2077,-0.009615294
2078,0.000561315
2079,0.017407987
2080,-0.005194046
2081,-0.00627164
2082,0.0132841
2083,-0.010709454
2084,-0.00402954
2085,-0.004047024
2086,0.011177872
2087,-0.005231677
2088,0.006468956
2089,0.018401043
2090,-0.002281632
2091,-0.004327504
2092,-0.008137845
2093,-0.012748705
2094,-0.001756124
2095,0.001302039
2096,-0.006382984
2097,0.002351338
2098,-0.000208054
2099,0.000361884
2100,-0.001313676
2101,-0.006350068
2102,-0.006101616
2103,-0.002200343
2104,-0.004676181
2105,-0.004270198
2106,0.00121813
2107,0.002313148
2108,0.00455821
2109,0.005224318
2110,0.007069586
2111,0.014053857
2112,-0.011064699
2113,-0.009150723
2114,0.028454709
2115,0.008224401
2116,-0.002111533
2117,-0.001386352
2118,0.002191666
2119,0.008450584
2120,-0.006747517
2121,0.019220358
2122,-0.00770505
2123,0.017174154
2124,-0.006308666
2125,-0.019399334
2126,-0.000527054
2127,0.027280538
2128,0.01157727
2129,0.005955992
2130,-0.011152421
2131,0.008212977
2132,-0.001864832
2133,0.01196853
2134,0.00923277
2135,-0.003848932
2136,-0.00833365
2137,-0.002535045
2138,0.007442557
2139,0.005014754
2140,0.004318314
2141,-0.002298274
2142,-0.002677956
2143,-0.011517416
2144,-0.005861627
2145,-0.002733952
2146,-0.001570629
2147,-0.015695572
2148,-0.006159934
2149,0.002397903
2150,-0.002601025
2151,-0.003502042
2152,0.007704714
2153,0.006502193
2154,-0.019505421
2155,0.004212884
2156,0.015949076
2157,0.013414261
2158,-0.003760929
2159,0.002145316
2160,-0.001882108
2161,-0.010112445
2162,-0.005171105
2163,-0.012686705
2164,0.009862385
2165,-0.016326421
2166,-0.006496354
2167,-0.007604034
2168,0.000453741
2169,0.00037037
2170,0.001643888
2171,0.009522741
2172,0.002019945
2173,0.00449348
2174,-0.003965026
2175,0.009013732
2176,0.009656907
2177,-0.013318936
2178,-0.009533797
2179,-0.012310738
2180,-0.016742563
2181,-0.007384035
2182,-0.016471727
2183,0.006804215
2184,0.008256608
2185,0.002819477
2186,0.009333267
2187,-0.011361172
2188,0.008836728
2189,-0.020388633
2190,0.003624422
2191,-0.002682857
2192,0.012809721
2193,-0.008637929
2194,0.010485042
2195,-0.00772406
2196,-2.01E-05
2197,-0.015394725
2198,0.005210619
2199,0.011000397
2200,-0.008340179
2201,-0.025138837
2202,-0.007242177
2203,0.000931236
2204,-0.00876826
2205,-0.00060238
2206,-0.000588112
2207,-0.011956058
2208,-0.018794856
2209,-0.002424111
2210,5.28E-05
2211,0.014130891
2212,0.019789356
2213,-0.000765496
2214,-0.015594879
2215,0.00737921
2216,0.007295649
2217,0.001442047
2218,0.003590939
2219,0.016979139
2220,0.006856755
2221,-0.012100135
2222,-0.002886176
2223,-0.002696958
2224,-0.000945762
2225,-0.002093111
2226,-0.01623504
2227,-0.011557288
2228,-0.016301791
2229,-0.015282616
2230,-0.005018413
2231,-0.001136346
2232,-0.005692032
2233,0.002544048
2234,0.007649783
2235,-0.001173554
2236,-0.005239712
2237,0.015326408
2238,-0.009190717
2239,0.000173377
2240,0.000820938
2241,-0.003783376
2242,0.001227951
2243,-0.002841201
2244,0.005787357
2245,-0.010419807
2246,-0.00079511
2247,0.013182784
2248,-0.004289909
2249,0.010699165
2250,0.004057837
2251,-0.004240377
2252,0.004411402
2253,-0.003656379
2254,-0.00519762
2255,-0.002077076
2256,0.001829128
2257,-0.01508343
2258,-0.004609303
2259,0.006443191
2260,-0.010497678
2261,-0.006729932
2262,0.006710899
2263,-0.006757708
2264,-0.00519121
2265,0.002571775
2266,0.00923307
2267,0.00291857
2268,4.53E-05
2269,-0.005566501
2270,-0.001538306
2271,0.008548626
2272,0.002270077
2273,0.024200787
2274,0.00315291
2275,-0.006634161
2276,0.005569664
2277,-0.007149508
2278,0.000224027
2279,0.002233982
2280,0.002650068
2281,-0.006279307
2282,-0.007310392
2283,0.002669735
2284,-0.006887596
2285,0.015560053
2286,0.000778915
2287,0.000337376
2288,-0.006848865
2289,-0.004637204
2290,-0.020842409
2291,0.001891873
2292,0.008918685
2293,-0.00279904
2294,-0.013864048
2295,-0.003893737
2296,-0.002931543
2297,0.018924898
2298,0.000822986
2299,-0.004784505
2300,-0.001022004
2301,0.010522226
2302,0.005178435
2303,-0.004721484
2304,0.012093941
2305,0.004701655
2306,0.005495756
2307,-0.020238856
2308,-0.014688274
2309,0.022847642
2310,-0.018415033
2311,0.005789862
2312,0.009144597
2313,0.016792746
2314,-0.010140785
2315,0.003639662
2316,0.013902307
2317,-0.001470917
2318,-0.000140393
2319,0.012323583
2320,0.010615612
2321,0.005722817
2322,-0.001660182
2323,0.005611913
2324,0.003742108
2325,0.010566049
2326,0.005120456
2327,-0.003599418
2328,0.008559143
2329,0.005105711
2330,-0.015846961
2331,-0.008728876
2332,-0.007320206
2333,-0.01232815
2334,0.003086827
2335,-0.00434101
2336,0.000597871
2337,-0.004256596
2338,-0.005357903
2339,0.002250031
2340,-0.00377531
2341,0.000943441
2342,-0.006427989
2343,-0.012445661
2344,0.002736782
2345,-0.000301797
2346,-0.011447377
2347,-0.017105049
2348,0.011023651
2349,0.025457429
2350,0.001324963
2351,0.002226386
2352,0.011588435
2353,-0.001226156
2354,-0.007697663
2355,0.006018524
2356,-0.001157074
2357,0.0077875
2358,-0.00438119
2359,-0.000367892
2360,0.008356859
2361,0.000908732
2362,-0.004504735
2363,-0.001157961
2364,0.00331809
2365,0.004688914
2366,0.011225294
2367,-0.005250545
2368,-0.003079748
2369,-0.011368961
2370,0.002662327
2371,0.001094185
2372,-0.006371158
2373,-0.004292218
2374,-0.02039282
2375,0.001182016
2376,0.000895447
2377,0.000317724
2378,0.001110725
2379,-0.004728474
2380,-0.011421422
2381,-0.010292627
2382,-0.015588139
2383,-0.019588586
2384,0.013151846
2385,-0.011205025
2386,-0.016029387
2387,-0.016504352
2388,0.00292288
2389,0.012084176
2390,-0.004489525
2391,-0.009138341
2392,0.002385764
2393,0.004615478
2394,-0.008920437
2395,0.007065874
2396,-0.003659722
2397,-0.007356503
2398,0.01611271
2399,-0.013924618
2400,0.006175344
2401,0.010547152
2402,0.00493552
2403,-0.004555948
2404,0.004527797
2405,0.007401959
2406,0.01224143
2407,0.006028794
2408,-0.004573253
2409,-0.007059577
2410,-0.014230702
2411,0.007702982
2412,-0.006844109
2413,0.015525425
2414,0.007688636
2415,-0.015457363
2416,-0.004855306
2417,-0.00261129
2418,0.01141222
2419,0.004850107
2420,-0.005154729
2421,0.014105945
2422,-0.004601779
2423,0.011741226
2424,-0.004188506
2425,-4.80E-05
2426,0.014108944
2427,0.005512205
2428,-0.003248863
2429,-0.004982488
2430,-0.007696872
2431,-0.012764264
2432,0.01255037
2433,-0.011229676
2434,-0.009666521
2435,0.008781895
2436,-0.007005024
2437,0.009698719
2438,-0.001333529
2439,-0.00604766
2440,-0.006435357
2441,-0.005703073
2442,0.010335655
2443,-0.003861653
2444,0.002658464
2445,-0.018923324
2446,-0.00162242
2447,0.011225611
2448,0.023109295
2449,-0.0025706
2450,0.01501753
2451,0.006546774
2452,0.002168891
2453,-0.003968667
2454,0.01290444
2455,0.003308935
2456,0.002161532
2457,0.000287676
2458,0.007672255
2459,0.002552278
2460,0.012695426
2461,-0.002972321
2462,-0.006541356
2463,-0.010800901
2464,-0.000907275
2465,-0.007573258
2466,0.00436898
2467,0.00587716
2468,-0.008694381
2469,0.001916587
2470,-0.002902098
2471,-0.004352369
2472,-0.000915125
2473,0.003011536
2474,0.004667909
2475,0.003461953
2476,-0.0125189
2477,0.019172467
2478,-0.010130118
2479,-0.010876646
2480,-0.006102455
2481,0.003185893
2482,0.010286371
2483,-0.01500895
2484,-0.00260663
2485,0.017696886
2486,-0.008909085
2487,0.002044157
2488,-0.005295878
2489,-0.011148641
2490,0.007794189
2491,-0.004556102
2492,0.007796542
2493,-0.005549225
2494,0.004085123
2495,0.011448479
2496,-0.007165357
2497,-0.010131037
2498,-0.005175983
2499,0.002050004
2500,0.007845082
2501,-0.006008869
2502,0.006179254
2503,0.018228009
2504,-0.00036565
2505,0.008054674
2506,-0.003862124
2507,0.007649559
2508,0.002942446
2509,-0.009438948
2510,-0.014657626
2511,-0.015580347
2512,-0.010791407
2513,-0.003842367
2514,-0.011147665
2515,-0.0202713
2516,-0.006287437
2517,-0.015700121
2518,-0.001039062
2519,-0.00729183
2520,0.001366026
2521,-0.009600985
2522,0.010214504
2523,0.005598226
2524,0.004395958
2525,-0.007394292
2526,0.008862913
2527,-0.003230051
2528,0.008370912
2529,-0.008140675
2530,-0.022630091
2531,0.010612921
2532,0.00287238
2533,-0.006313075
2534,-0.010615863
2535,-0.001684027
2536,-0.005876915
2537,0.009350781
2538,-0.001309795
2539,0.010782175
2540,0.005374177
2541,0.000632003
2542,-0.001276727
2543,-0.010745671
2544,0.012993128
2545,-0.001547723
2546,0.004616121
2547,0.004102118
2548,0.008440168
2549,0.006994563
2550,0.00590497
2551,0.011409673
2552,0.007959142
2553,-0.005696367
2554,0.023340318
2555,0.001524921
2556,-0.00824267
2557,-0.008552951
2558,0.002478374
2559,-0.009294572
2560,-0.007424199
2561,-0.00066414
2562,-0.006046121
2563,0.004908759
2564,-0.006068315
2565,-0.012031646
2566,-0.006513049
2567,0.001948077
2568,0.006443902
2569,0.00900883
2570,-0.014626577
2571,-0.007177958
2572,0.006198597
2573,0.003496565
2574,0.002723349
2575,-0.001272629
2576,-0.008387733
2577,-0.014041232
2578,0.00146097
2579,-0.009091671
2580,-0.00943953
2581,0.019955332
2582,0.030598884
2583,0.014890171
2584,0.003790471
2585,-0.015605751
2586,0.003765932
2587,0.010981407
2588,0.001457514
2589,-0.010378493
2590,0.011208802
2591,0.005373852
2592,-0.000955844
2593,0.007069877
2594,0.003116767
2595,-0.001279967
2596,-0.006165522
2597,0.003976722
2598,-0.009813888
2599,0.001312366
2600,0.003231429
2601,0.010245854
2602,0.021318018
2603,0.023100708
2604,0.015013298
2605,-0.001993562
2606,0.00497673
2607,0.000292186
2608,-0.009524641
2609,0.002507356
2610,-0.000486727
2611,-0.009259219
2612,-0.002719763
2613,0.010298069
2614,0.003342419
2615,-0.024603182
2616,0.001564469
2617,-0.008005576
2618,-0.004558598
2619,-0.004717402
2620,-0.009316576
2621,0.003614501
2622,-0.004504721
2623,0.018463429
2624,0.006167046
2625,-0.008921877
2626,-0.020893276
2627,-0.008718568
2628,0.016783393
2629,0.001946079
2630,-0.002263192
2631,0.001736841
2632,0.013322946
2633,0.01422062
2634,0.001620167
2635,-0.003909984
2636,-0.020646751
2637,-0.019517517
2638,-0.010991775
2639,-0.007984371
2640,0.007532185
2641,-0.015646574
2642,-0.013277697
2643,0.005402027
2644,0.009698067
2645,0.006752137
2646,0.006690388
2647,0.009363661
2648,-0.005255624
2649,-0.000159261
2650,0.010806969
2651,-0.007389403
2652,0.001892807
2653,0.000906427
2654,0.002117855
2655,0.01418443
2656,0.006572935
2657,-0.008370182
2658,-0.000962196
2659,-0.016039823
2660,-0.005289481
2661,-0.019761814
2662,-0.002713309
2663,0.004184065
2664,0.00220623
2665,0.003341453
2666,-0.006635696
2667,0.000188399
2668,0.006166579
2669,0.001517521
2670,-0.006694291
2671,-0.002644448
2672,0.007383745
2673,-0.000416438
2674,-0.016044582
2675,0.012914959
2676,0.004624479
2677,-0.016346641
2678,-0.003118993
2679,-0.01079931
2680,0.001480517
2681,-0.00846698
2682,-0.004071146
2683,-0.019601661
2684,-0.007911461
2685,0.017152793
2686,0.017762987
2687,-0.013531906
2688,0.002046912
2689,0.010419779
2690,-0.022098836
2691,-0.013319249
2692,0.012845028
2693,0.007833214
2694,-0.017188351
2695,-0.010566807
2696,-0.007109663
2697,0.017004453
2698,-0.016980649
2699,-0.006848745
2700,0.003191717
2701,0.00439903
2702,0.005926899
2703,0.010584244
2704,-0.009856969
2705,-0.009612511
2706,0.009936938
2707,-0.010656886
2708,-0.001048067
2709,0.003390483
2710,0.01656112
2711,0.012490468
2712,0.010355141
2713,0.010282431
2714,0.006657587
2715,-0.005680906
2716,-0.016925501
2717,-0.023246927
2718,0.014130679
2719,-0.011002395
2720,-0.002134627
2721,0.000775052
2722,0.013289843
2723,0.014105313
2724,0.000609298
2725,-0.004998658
2726,0.006210134
2727,0.010020031
2728,0.01114368
2729,0.005356081
2730,0.009192217
2731,0.004074277
2732,-0.001567162
2733,-0.012262811
2734,-0.003751693
2735,0.01060633
2736,-4.98E-05
2737,-0.027596292
2738,0.008891925
2739,-0.002140242
2740,0.006747736
2741,0.016529305
2742,-0.005130839
2743,0.022387779
2744,-0.005682185
2745,0.000288052
2746,0.013871739
2747,-0.001333683
2748,0.009683298
2749,-0.001754859
2750,0.004861587
2751,-0.000616459
2752,0.010371276
2753,-0.005035388
2754,-0.020589402
2755,0.003481175
2756,-0.012391576
2757,-0.005748478
2758,-7.20E-05
2759,0.01587576
2760,-0.004116601
2761,0.032369046
2762,-0.00787962
2763,-0.006994063
2764,0.001285857
2765,0.00167165
2766,-0.003270608
2767,0.003496304
2768,0.010241438
2769,-0.001997903
2770,-0.008992405
2771,0.010482496
2772,-0.00834374
2773,0.000551574
2774,0.003568485
2775,-0.010254094
2776,0.004312204
2777,-0.005508061
2778,0.007601981
2779,-0.000131846
2780,0.000146695
2781,-8.93E-05
2782,0.000374266
2783,-0.006341231
2784,0.006465922
2785,0.01167027
2786,0.002762563
2787,-0.004979415
2788,-0.012932225
2789,-0.001444241
2790,-0.005328178
2791,-0.016124714
2792,0.012682094
2793,-0.013380521
2794,-0.017463603
2795,0.004227682
2796,0.002637974
2797,0.000602495
2798,-0.01042756
2799,0.00999447
2800,-0.010485554
2801,0.007197691
2802,-0.004328226
2803,-0.013113511
2804,-0.01797744
2805,0.006437358
2806,-0.003801778
2807,-0.003254432
2808,-0.009774644
2809,-0.004599821
2810,0.012868331
2811,-0.005673812
2812,0.017175303
2813,-0.013701979
2814,0.000559359
2815,0.00749683
2816,-0.002450358
2817,0.004445068
2818,0.019550722
2819,0.013425693
2820,0.004791874
2821,-0.001829633
2822,0.007392843
2823,-0.004713066
2824,-0.005508193
2825,-0.016868645
2826,-0.010432998
2827,0.00422621
2828,-0.007317859
2829,-0.02017127
2830,-0.013721123
2831,0.013256717
2832,0.003015405
2833,0.001982138
2834,0.002971177
2835,0.012547924
2836,0.011262121
2837,0.011148302
2838,0.00709691
2839,-0.024791531
2840,0.000178422
2841,0.012936994
2842,0.000711818
2843,0.003394667
2844,0.005809067
2845,-0.001731236
2846,0.002897484
2847,0.009814345
2848,-0.007962461
2849,0.005796753
2850,0.00026665
2851,0.010654756
2852,0.012236022
2853,-0.005212157
2854,-0.009318139
2855,0.004508999
2856,-0.017644317
2857,-4.56E-05
2858,0.005030793
2859,-0.006783673
2860,0.014785378
2861,-0.004064896
2862,-0.00091656
2863,0.015383113
2864,-0.000468933
2865,-0.004554274
2866,0.000730531
2867,-0.00019243
2868,-0.004338504
2869,-0.01280594
2870,0.006419569
2871,-0.006581819
2872,0.011072368
2873,-0.014698911
2874,0.004789325
2875,0.023275481
2876,-0.003186532
2877,0.003917816
2878,0.006259215
2879,0.013789911
2880,0.009682974
2881,0.005377676
2882,-0.011520313
2883,-0.00676154
2884,0.009682976
2885,0.004270341
2886,0.005805643
2887,-0.002557328
2888,0.000675831
2889,0.01315067
2890,0.004659376
2891,0.011549852
2892,0.020798725
2893,-0.012075184
2894,-0.014058051
2895,-0.003970034
2896,-0.0118995
2897,0.004299069
2898,-0.018596561
2899,-0.013778514
2900,-0.002478303
2901,-0.002182241
2902,0.011383685
2903,-0.000692205
2904,0.011704258
2905,0.017387243
2906,-0.006965856
2907,0.003967263
2908,0.017337199
2909,0.002799805
2910,-0.007321776
2911,0.011174579
2912,0.000670416
2913,-0.00755726
2914,-0.000118942
2915,-0.00432777
2916,-0.002265741
2917,0.01245677
2918,-0.000792374
2919,0.006905146
2920,0.001087421
2921,-0.009609599
2922,0.001350899
2923,0.009404037
2924,0.000801504
2925,-0.018123739
2926,0.000947331
2927,0.009556367
2928,-0.003281218
2929,0.005313372
2930,-0.016464035
2931,-0.000274109
2932,-0.004005882
2933,-0.000180064
2934,0.025342484
2935,-0.005591956
2936,0.005353316
2937,-0.000390852
2938,0.008414506
2939,-0.004042448
2940,-0.010273109
2941,-0.001750591
2942,0.006557087
2943,0.004217718
2944,-0.009296997
2945,-0.011967858
2946,-0.008535981
2947,-0.000841809
2948,0.008266103
2949,0.002516232
2950,-0.003887795
2951,-0.015485718
2952,-0.009758738
2953,-0.010981201
2954,0.023945353
2955,0.001891852
2956,-0.005137992
2957,0.01152334
2958,0.001460791
2959,0.004972195
2960,-0.01600508
2961,-0.023017067
2962,0.005079605
2963,-0.019695854
2964,-0.012264492
2965,-0.000533527
2966,0.011174692
2967,0.002285131
2968,0.009790092
2969,0.000887466
2970,0.019937093
2971,0.00137704
2972,-0.01191018
2973,-0.002648297
2974,0.000152691
2975,0.002194598
2976,-0.006635951
2977,-0.004927703
2978,-0.016184297
2979,0.002679216
2980,0.000319455
2981,-0.005102306
2982,-0.009430553
2983,-0.001783003
2984,0.003732865
2985,-0.02003343
2986,-0.005329354
2987,-0.012482611
2988,0.005691624
2989,0.013530103
2990,-0.001941677
2991,0.01786679
2992,0.009714394
2993,0.004626057
2994,-0.009508931
2995,0.015566465
2996,-0.011932528
2997,-0.010375084
2998,0.001910783
2999,0.000869562
3000,-0.002805396
3001,-0.002898263
3002,0.000986607
3003,-0.009252223
3004,-0.000712218
3005,-0.006292623
3006,0.006645963
3007,-0.003474744
3008,0.010966689
3009,0.00823841
3010,-0.003528057
3011,0.010441385
3012,0.01652051
3013,-0.001939424
3014,-0.023977018
3015,0.002962407
3016,-0.008811088
3017,0.004730141
3018,-0.010574414
3019,0.005062768
3020,0.003552154
3021,0.010872234
3022,-0.005663103
3023,0.000490301
3024,0.007191069
3025,0.009235204
3026,-0.003082268
3027,0.003643703
3028,0.004164733
3029,-0.013666389
3030,-0.002994776
3031,-0.009305109
3032,0.009537746
3033,0.014503588
3034,-0.010329421
3035,0.001608613
3036,0.011807135
3037,-0.000321074
3038,0.012635822
3039,0.010794444
3040,-0.008745202
3041,-0.01530585
3042,-0.006831577
3043,0.005580826
3044,0.006410254
3045,0.019026113
3046,1.48E-05
3047,-0.024957366
3048,0.000235872
3049,0.00273814
3050,0.017722509
3051,-0.002898985
3052,0.008094063
3053,0.009160668
3054,-0.008815885
3055,0.001904553
3056,-0.001894908
3057,-0.013140476
3058,0.009936092
3059,0.008912152
3060,-0.003005089
3061,-0.002610478
3062,0.000600365
3063,-0.001380395
3064,0.000641684
3065,-0.00529755
3066,-0.006871339
3067,0.001331559
3068,0.00461435
3069,-0.011473954
3070,0.003433091
3071,-0.01618888
3072,-0.002790793
3073,-0.011945744
3074,-0.021342785
3075,0.008162752
3076,0.004399501
3077,0.001412426
3078,0.001749428
3079,0.003091711
3080,-0.001411677
3081,-0.002656115
3082,0.007139873
3083,-0.002447239
3084,-0.001208617
3085,-0.008671554
3086,0.002988551
3087,0.002749403
3088,-0.005026582
3089,0.003292153
3090,-0.001332514
3091,-0.004851089
3092,0.003835121
3093,-0.001098001
3094,0.009318281
3095,-0.016944137
3096,-0.002157335
3097,-0.004722552
3098,0.010454716
3099,-0.006495849
3100,0.020251503
3101,-0.004563042
3102,-0.000989432
3103,-0.005698125
3104,-0.011056063
3105,-0.012349823
3106,-0.014075624
3107,-0.005112303
3108,-0.001219409
3109,-0.005203756
3110,0.007070081
3111,0.000624052
3112,-0.009102234
3113,-0.006341906
3114,0.012651956
3115,0.01510819
3116,-0.003413116
3117,0.013184427
3118,0.012350025
3119,0.005492217
3120,0.003043411
3121,-0.006108699
3122,0.002738817
3123,0.004370402
3124,-0.0092536
3125,-0.000262454
3126,0.013929431
3127,0.002155813
3128,0.007448767
3129,0.003011608
3130,0.012243609
3131,-0.006651709
3132,0.01111296
3133,0.003048064
3134,0.002001461
3135,-0.004336828
3136,0.000337496
3137,-0.003778941
3138,-0.003426765
3139,0.007156042
3140,-0.004122956
3141,0.01053939
3142,-0.011776042
3143,-0.005886562
3144,-0.008115951
3145,-0.01941856
3146,-0.001134653
3147,0.001589607
3148,-0.010877566
3149,-0.010427303
3150,0.00087642
3151,0.001789924
3152,0.004322317
3153,-0.002039861
3154,-0.008296754
3155,0.005464624
3156,-0.008177886
3157,-0.001214563
3158,0.015589097
3159,-0.001890545
3160,-0.011414657
3161,0.000593464
3162,-0.004893204
3163,0.004703733
3164,0.001608931
3165,0.005660097
3166,-0.003055898
3167,-0.001535251
3168,0.009477804
3169,0.009506115
3170,-0.012598867
3171,-0.007042393
3172,0.006494247
3173,-0.010210811
3174,-0.009572913
3175,0.007092076
3176,-0.019267466
3177,-0.002296635
3178,-0.006659158
3179,0.000200989
3180,0.002520307
3181,-0.000931031
3182,0.009878154
3183,0.008931152
3184,-0.000930712
3185,0.000384468
3186,0.013598844
3187,-0.000530451
3188,-0.00097544
3189,-0.008922946
3190,0.008577201
3191,-0.005203667
3192,0.002071686
3193,0.005747355
3194,-0.005265122
3195,-0.010380578
3196,0.001996807
3197,0.01220387
3198,-0.00479551
3199,-0.014191285
3200,0.011983173
3201,-0.016567978
3202,-0.004699746
3203,0.004310927
3204,0.033122497
3205,0.001279458
3206,0.001911694
3207,-0.016698524
3208,-0.012163664
3209,0.010003407
3210,0.015517508
3211,-0.009400311
3212,0.013497898
3213,-0.015650958
3214,0.000467035
3215,-0.011885734
3216,0.001689304
3217,0.009288767
3218,0.024187819
3219,-0.006102116
3220,-0.013224018
3221,-0.009401795
3222,0.00449899
3223,0.013256497
3224,0.016363254
3225,-0.003869871
3226,-0.002603999
3227,0.007205139
3228,-0.007574005
3229,0.006074043
3230,-0.000640927
3231,-0.005559093
3232,0.018354631
3233,-0.001828041
3234,0.004293271
3235,-0.010911201
3236,-0.005651452
3237,0.011645672
3238,0.003314939
3239,-0.007422272
3240,0.008820273
3241,-0.003241086
3242,-0.009136552
3243,-0.001311397
3244,0.008247699
3245,0.011953364
3246,-0.002835098
3247,0.007004588
3248,-0.01325275
3249,-0.006951965
3250,-0.002091245
3251,0.000854426
3252,0.028601841
3253,-0.021319736
3254,0.008420065
3255,-0.008376867
3256,-0.005040283
3257,0.012337891
3258,-0.009407847
3259,-0.017031003
3260,-0.004197033
3261,-0.002504387
3262,0.005888903
3263,-0.001614394
3264,0.004285837
3265,-0.012017286
3266,-0.011292536
3267,-0.008402015
3268,0.003796923
3269,-0.008337853
3270,0.004889891
3271,-0.016610809
3272,0.008750432
3273,0.000102999
3274,-0.001925153
3275,-0.00421972
3276,-0.002178131
3277,-0.007549895
3278,0.013544917
3279,0.0018954
3280,-0.018550879
3281,0.020266895
3282,0.005707258
3283,0.000580097
3284,-0.003623308
3285,0.001403159
3286,0.006723637
3287,-0.000943568
3288,0.008106821
3289,-0.003299428
3290,0.00534844
3291,-0.005660959
3292,0.021420466
3293,0.017148942
3294,-0.001425458
3295,-0.004801647
3296,0.01354901
3297,0.003050343
3298,0.015182094
3299,0.016215408
3300,0.023086501
3301,0.008270669
3302,0.019648689
3303,0.003192126
3304,0.02020676
3305,0.01420581
3306,0.021170142
3307,0.019330519
3308,0.03733555
3309,0.020362202
3310,0.034117263
3311,0.030687793
3312,0.002532389
3313,0.014212511
3314,0.031316968
3315,0.026013111
3316,0.016895446
3317,0.026446073
3318,0.034639423
3319,0.03228549
3320,0.040935483
3321,0.021491699
3322,0.043032893
3323,0.039945085
3324,0.041540362
3325,0.030695389
3326,0.072901591
3327,0.040984297
3328,0.061260122
3329,0.059797795
3330,0.054476327
3331,0.045100982
3332,0.050383184
3333,0.054370396
3334,0.066029166
3335,0.063296537
3336,0.067098724
3337,0.092397663
3338,0.10438215
3339,0.099802371
3340,0.095601513
3341,0.106621756
3342,0.10210327
3343,0.12997175
3344,0.103098653
3345,0.136617428
3346,0.147268073
3347,0.123922952
3348,0.140600214
3349,0.146372593
3350,0.13142133
3351,0.146785827
3352,0.172084836
3353,0.164357304
3354,0.18070731
3355,0.180486979
3356,0.182197734
3357,0.189651751
3358,0.192385534
3359,0.211196837
3360,0.220151539
3361,0.207988779
3362,0.231849314
3363,0.235556237
3364,0.252591938
3365,0.257233988
3366,0.266350595
3367,0.270107517
3368,0.278242174
3369,0.274206614
3370,0.288502409
3371,0.32175731
3372,0.31517676
3373,0.336388809
3374,0.3393857
3375,0.338429013
3376,0.34749579
3377,0.376728103
3378,0.374545437
3379,0.385197145
3380,0.406209656
3381,0.395032011
3382,0.436537066
3383,0.410494933
3384,0.425770065
3385,0.457676882
3386,0.457076722
3387,0.472992788
3388,0.490490784
3389,0.510996921
3390,0.500390708
3391,0.525368208
3392,0.537774253
3393,0.554601402
3394,0.577576918
3395,0.567972414
3396,0.585992913
3397,0.587617082
3398,0.613918532
3399,0.609764404
3400,0.634402103
3401,0.652214696
3402,0.660049
3403,0.672095883
3404,0.677891484
3405,0.680309369
3406,0.697593919
3407,0.719806965
3408,0.725528234
3409,0.721413353
3410,0.731358654
3411,0.754708527
3412,0.758766543
3413,0.791331478
3414,0.789119006
3415,0.797860561
3416,0.800221401
3417,0.812098946
3418,0.848778032
3419,0.836829263
3420,0.874056047
3421,0.856446148
3422,0.875839747
3423,0.877980591
3424,0.88827081
3425,0.902437091
3426,0.908491531
3427,0.906751205
3428,0.924491344
3429,0.963270856
3430,0.92726949
3431,0.951112229
3432,0.952781358
3433,0.953331045
3434,0.975400249
3435,0.973122565
3436,0.97879391
3437,0.979798764
3438,0.989107014
3439,0.982815074
3440,0.991015139
3441,0.982240286
3442,0.992807416
3443,0.991610717
3444,1.010490145
3445,0.992728944
3446,0.992492578
3447,1.017832126
3448,0.987316328
3449,1.007583905
3450,1.0123764
3451,1.001282281
3452,1.007631482
3453,0.991700789
3454,0.994717261
3455,1.018054422
3456,0.989837021
3457,0.984398872
3458,0.9724597
3459,0.976039512
3460,0.970729041
3461,0.969185971
3462,0.957082398
3463,0.951926625
3464,0.949082562
3465,0.946207477
3466,0.940953195
3467,0.933287955
3468,0.927575719
3469,0.909064131
3470,0.927204356
3471,0.893741807
3472,0.874817129
3473,0.874849858
3474,0.865917034
3475,0.861376901
3476,0.850179762
3477,0.837880165
3478,0.820222211
3479,0.808940761
3480,0.812755425
3481,0.810806012
3482,0.789938311
3483,0.780064197
3484,0.772570168
3485,0.769257791
3486,0.752624629
3487,0.743889829
3488,0.713712022
3489,0.70934503
3490,0.695639526
3491,0.698343979
3492,0.675742094
3493,0.670158286
3494,0.642475317
3495,0.647266806
3496,0.638567135
3497,0.61455061
3498,0.593089287
3499,0.582605161
3500,0.607289291
3501,0.564991037
3502,0.551572541
3503,0.545080821
3504,0.53424814
3505,0.52442199
3506,0.513059206
3507,0.489651239
3508,0.486802075
3509,0.465351262
3510,0.455668649
3511,0.45747524
3512,0.442996638
3513,0.415808107
3514,0.421513694
3515,0.416279442
3516,0.395710619
3517,0.377363472
3518,0.357071553
3519,0.355477566
3520,0.339718811
3521,0.35483336
3522,0.345588199
3523,0.329170631
3524,0.298423017
3525,0.292248274
3526,0.305463797
3527,0.296393387
3528,0.277110645
3529,0.267235274
3530,0.246816216
3531,0.254498945
3532,0.247964003
3533,0.236432626
3534,0.215530882
3535,0.22603297
3536,0.224108575
3537,0.224449191
3538,0.207078132
3539,0.198181649
3540,0.189547745
3541,0.179457752
3542,0.194232918
3543,0.18168494
3544,0.145413743
3545,0.150012148
3546,0.135032572
3547,0.149525551
3548,0.131216331
3549,0.147942985
3550,0.133660925
3551,0.109742181
3552,0.11444779
3553,0.097365163
3554,0.125340435
3555,0.085982097
3556,0.10016666
3557,0.092973252
3558,0.08867267
3559,0.070413695
3560,0.081135441
3561,0.07741135
3562,0.086147119
3563,0.065641452
3564,0.082396733
3565,0.07700037
3566,0.051113684
3567,0.04987534
3568,0.038853659
3569,0.043023383
3570,0.051992209
3571,0.043710875
3572,0.023114595
3573,0.047747812
3574,0.047424275
3575,0.038840456
3576,0.038590225
3577,0.02303917
3578,0.036047161
3579,0.022436451
3580,0.039315233
3581,0.022332518
3582,0.024943845
3583,0.007520899
3584,0.033483089
3585,0.030358119
3586,0.024616922
3587,0.043562239
3588,0.020625424
3589,0.023780046
3590,0.020080645
3591,0.037477869
3592,0.006669939
3593,0.005572638
3594,0.001202811
3595,0.004097202
3596,0.014293242
3597,0.014563959
3598,-0.012690851
3599,-0.002122785
3600,0.009337451
3601,0.001707081
3602,0.000210997
3603,0.006721544
3604,-0.002076518
3605,0.004317633
3606,-0.007575926
3607,0.012837958
3608,-0.008117443
3609,0.004118379
3610,-0.004315769
3611,0.010260784
3612,0.00653114
3613,-0.007205436
3614,-0.004389402
3615,-0.005171392
3616,-0.002874015
3617,0.003556382
3618,-0.003370184
3619,0.000570927
3620,-0.006585865
3621,-0.007034329
3622,0.0035587
3623,-0.010098342
3624,0.003428184
3625,0.001646711
3626,0.006333731
3627,-0.013564556
3628,-0.030665247
3629,-0.008424691
3630,0.018334759
3631,-0.008102285
3632,0.016287614
3633,0.005401121
3634,-0.006597011
3635,-0.002376525
3636,0.010385456
3637,-0.005375716
3638,-0.007150514
3639,-0.014032053
3640,0.008117303
3641,-0.001977622
3642,0.013661093
3643,-0.002054619
3644,0.016902996
3645,0.007191833
3646,0.013595049
3647,0.0073635
3648,-0.00347039
3649,0.009081182
3650,-0.009342178
3651,0.006601891
3652,-0.00074881
3653,0.004994623
3654,0.004861643
3655,-0.007554455
3656,-0.009413998
3657,-0.002369071
3658,0.013446014
3659,-0.013278297
3660,0.007547193
3661,-0.019789717
3662,-0.003942552
3663,0.006275458
3664,-0.002662436
3665,0.008433726
3666,0.00925985
3667,-0.001839754
3668,-0.002970952
3669,-0.018275187
3670,0.00820805
3671,0.01958351
3672,-0.013248463
3673,-0.013266749
3674,0.006965248
3675,-0.007411885
3676,-0.005673104
3677,-0.005815153
3678,0.005510794
3679,-0.018459785
3680,-0.013357449
3681,0.007317506
3682,0.023249478
3683,0.020839406
3684,-0.001317039
3685,0.001316759
3686,0.004507334
3687,0.000101065
3688,0.001982546
3689,0.007616474
3690,0.005924198
3691,-0.008589751
3692,0.013323804
3693,0.001444675
3694,0.000586025
3695,-0.00049327
3696,6.87E-06
3697,-0.003886865
3698,-0.005172386
3699,0.006191444
3700,0.00754629
3701,-0.013269517
3702,-0.000637798
3703,-0.015382194
3704,-0.020648891
3705,-0.001900355
3706,-0.002438409
3707,0.006403322
3708,0.001026569
3709,-0.004257796
3710,-0.000813076
3711,-0.006095578
3712,0.008360211
3713,0.004334309
3714,0.014122546
3715,-0.011828996
3716,-9.75E-05
3717,-0.006650375
3718,0.012934132
3719,-0.014878803
3720,-0.004170249
3721,-0.002028626
3722,-0.00267068
3723,-0.000520207
3724,0.001021874
3725,-0.007502001
3726,0.002853766
3727,0.007692143
3728,0.012306336
3729,-0.006473926
3730,-0.004762447
3731,-7.43E-05
3732,0.006887873
3733,-0.00178789
3734,0.002810794
3735,-0.004767427
3736,-0.007316756
3737,0.000409994
3738,-0.004512172
3739,-0.005980904
3740,-3.27E-05
3741,-0.002012778
3742,-0.007671683
3743,0.009229785
3744,0.004965473
3745,0.013204885
3746,-0.011712003
3747,-0.012644772
3748,-0.001100665
3749,0.008095935
3750,0.013682022
3751,0.009033642
3752,0.005311636
3753,-0.003079342
3754,0.005089605
3755,-0.005565806
3756,-0.007465945
3757,0.002615711
3758,-0.008516769
3759,-0.000201026
3760,-0.024518067
3761,-0.017781187
3762,-0.028438884
3763,-0.021838066
3764,0.005369708
3765,0.015298379
3766,-0.005152704
3767,0.013658122
3768,6.67E-06
3769,-0.005927366
3770,0.009546827
3771,0.009290234
3772,0.004418859
3773,-0.010079577
3774,-0.008378032
3775,0.017767569
3776,-0.00758612
3777,-0.013532199
3778,0.006745286
3779,-0.011988899
3780,0.002630402
3781,-0.012729805
3782,-0.015037414
3783,-0.001549805
3784,0.006092445
3785,-0.015235692
3786,-0.020627834
3787,0.000637633
3788,0.008063509
3789,0.009089516
3790,-0.007282405
3791,0.014080692
3792,0.004926363
3793,-0.009993164
3794,-0.003225565
3795,-0.01617
3796,-0.010767078
3797,-0.001071962
3798,0.006965215
3799,0.004783666
3800,-0.001513916
3801,0.009836909
3802,-0.01329864
3803,-0.004754758
3804,-0.002939058
3805,0.009194543
3806,0.000468472
3807,0.006059177
3808,0.003453336
3809,-0.008914698
3810,0.014770728
3811,0.001150828
3812,0.004138238
3813,0.00230985
3814,0.004451007
3815,-0.010189124
3816,0.004684279
3817,-0.020442926
3818,-0.00399278
3819,0.013103564
3820,-0.007914859
3821,0.004440159
3822,-0.008608725
3823,0.014606141
3824,0.003486798
3825,0.005189317
3826,0.010647752
3827,0.020715038
3828,0.004333968
3829,0.005885638
3830,0.00966537
3831,-0.004518179
3832,0.000109398
3833,0.005279044
3834,0.005642627
3835,0.002153561
3836,-0.013971018
3837,0.007085039
3838,-0.007026851
3839,0.014297576
3840,-0.015431599
3841,0.001612455
3842,-0.004561735
3843,0.012152047
3844,-0.009311858
3845,-0.011335366
3846,-0.000765077
3847,0.007506406
3848,-0.016081903
3849,-0.000957244
3850,0.02123052
3851,0.01260599
3852,-0.005048678
3853,-0.006211297
3854,-0.009251325
3855,-0.003318493
3856,0.005187583
3857,-0.007033269
3858,-0.007782811
3859,-0.018457604
3860,-0.004576901
3861,0.001348854
3862,-0.011961963
3863,-0.0011404
3864,0.006514597
3865,-0.001583661
3866,-0.008812613
3867,-0.006552846
3868,-0.000303577
3869,-0.011037739
3870,-0.001385607
3871,0.003954093
3872,0.001826869
3873,-0.004550122
3874,-0.00361587
3875,0.016449335
3876,-0.002200144
3877,-0.008204472
3878,0.011485113
3879,-0.005387232
3880,-0.007782878
3881,-0.012257247
3882,0.014824542
3883,0.006450213
3884,0.007474149
3885,0.003363594
3886,-0.003333558
3887,0.005405801
3888,-0.031302837
3889,-0.014371411
3890,-0.002429373
3891,-0.004522909
3892,0.01450134
3893,0.021272545
3894,0.007712855
3895,0.001321564
3896,0.00605762
3897,0.006291631
3898,0.011475374
3899,-0.006409107
3900,0.017001575
3901,0.002428388
3902,0.005510817
3903,-0.024879308
3904,-0.014687664
3905,0.009316694
3906,0.006865786
3907,-0.027703123
3908,-0.0067806
3909,0.0083184
3910,-0.008298708
3911,0.00453987
3912,-0.007654278
3913,0.007277929
3914,-0.003693752
3915,0.003949912
3916,-0.013282011
3917,-0.003234754
3918,-0.007566043
3919,-0.009847754
3920,-0.008918086
3921,-0.005602426
3922,-0.011877684
3923,0.008756914
3924,0.006853452
3925,-0.017428106
3926,0.006740722
3927,0.000398808
3928,-0.003477485
3929,-0.005590684
3930,0.011848572
3931,-0.001719556
3932,0.007881639
3933,0.013319863
3934,0.015062558
3935,-0.004895316
3936,0.003075988
3937,-0.001434473
3938,9.35E-05
3939,-0.011703421
3940,0.000960737
3941,0.005948756
3942,0.000134993
3943,-0.032516653
3944,-0.01056345
3945,0.01678921
3946,0.003999315
3947,0.002408382
3948,0.011968347
3949,0.000640954
3950,-0.002640493
3951,-0.005311367
3952,-0.009489948
3953,0.01230885
3954,0.016552951
3955,0.010527516
3956,0.026690993
3957,-0.006882769
3958,0.00032506
3959,-0.00112625
3960,-0.004005931
3961,-0.010097277
3962,-0.011166573
3963,0.003408013
3964,-0.014769141
3965,0.01180098
3966,0.011706948
3967,0.024920575
3968,-0.021872565
3969,-0.005362463
3970,0.004581591
3971,-0.003625962
3972,-0.000981023
3973,0.00705167
3974,0.005175233
3975,0.003769716
3976,0.008623691
3977,-0.006331099
3978,0.010773436
3979,-0.001400741
3980,-0.002819333
3981,0.003111381
3982,0.01612491
3983,-0.003376939
3984,-0.013832064
3985,0.004264122
3986,-0.003768989
3987,0.003589812
3988,0.000219673
3989,0.015721173
3990,0.001799339
3991,0.001951866
3992,-0.006997323
3993,-0.000239744
3994,0.007510379
3995,-0.00747486
3996,-0.010492316
3997,0.026586933
3998,0.005160299
3999,-0.011624741
4000,0.010612208
