Raman Shift,Intensity 
400,-0.00361263
401,-0.031234351
402,-0.006865543
403,0.023921284
404,0.069000431
405,-0.011202475
406,-0.015696674
407,-0.071745272
408,0.09893594
409,0.061360795
410,-0.050374168
411,-0.026260181
412,-0.059409646
413,0.031143995
414,0.069568473
415,0.040919727
416,-0.012665942
417,-0.011545497
418,-0.044511914
419,0.001042002
420,0.010939684
421,-0.02162693
422,-0.032342755
423,-0.034879295
424,-0.012372267
425,-0.009776311
426,-0.022278097
427,-0.003469511
428,-0.010786425
429,-0.004553465
430,-0.042754747
431,0.030599067
432,-0.039049935
433,0.060951051
434,-0.015610791
435,0.046376828
436,-0.078146548
437,0.028972123
438,0.036532783
439,-0.045151551
440,-0.071521888
441,0.025462895
442,0.070866489
443,-0.018461762
444,0.015036014
445,0.008632116
446,0.059200392
447,-0.018266696
448,0.02625131
449,0.029686814
450,0.01223256
451,-0.029903615
452,-0.093027834
453,-0.077386625
454,-0.016728344
455,-0.009180995
456,-0.00288312
457,0.081967956
458,0.000123881
459,-0.029428593
460,0.046152279
461,-0.040053542
462,0.055619176
463,0.032987091
464,-0.123872443
465,-0.098214471
466,-0.004370786
467,-0.04603549
468,-0.002750758
469,0.021202997
470,0.012408494
471,0.065780695
472,-0.033222642
473,-0.015300948
474,0.001664843
475,-0.045719452
476,0.008191086
477,-0.05423246
478,-0.05809991
479,0.030061642
480,-0.028834246
481,-0.038174978
482,-0.026022075
483,-0.131870268
484,0.013451547
485,-0.059952528
486,-0.080035337
487,-0.044734249
488,0.024985314
489,0.002704817
490,0.006676348
491,-0.022382954
492,0.057041408
493,0.050589725
494,0.002061293
495,0.058351443
496,-0.085047529
497,0.013928097
498,0.00329279
499,0.024194412
500,-0.086059091
501,0.016951084
502,0.010105494
503,0.068542779
504,-0.027145427
505,-0.007127935
506,0.069523625
507,-0.006341196
508,-0.011104412
509,0.054244959
510,-0.024387958
511,0.01389885
512,-0.0517992
513,0.039926957
514,0.014378624
515,0.030443477
516,0.023945432
517,0.033938186
518,0.01382688
519,0.053224617
520,0.000976419
521,-0.017526497
522,0.059342608
523,-0.044186831
524,-0.035890404
525,-0.063737184
526,0.049386149
527,0.011278675
528,0.093213555
529,0.036960485
530,-0.088377172
531,0.035755532
532,0.003552723
533,-0.008940754
534,0.032786152
535,0.020298948
536,-0.048574048
537,-0.059922485
538,-0.024026059
539,0.009299482
540,0.007401454
541,-0.015162598
542,0.035603131
543,-0.062049478
544,0.017427096
545,0.016534548
546,0.003652239
547,0.001176337
548,0.035037127
549,-0.129828494
550,-0.04855937
551,0.037096473
552,-0.054645581
553,0.172282006
554,-0.030857457
555,-0.06276777
556,0.043994
557,-0.069562024
558,-0.047843396
559,-0.07438632
560,-0.046089848
561,-0.021599623
562,0.041243165
563,-0.023042982
564,0.035970483
565,0.023419384
566,-0.032980335
567,-0.023341491
568,-0.050764965
569,0.01957692
570,0.012653491
571,0.039079486
572,-0.05485828
573,-0.019157524
574,-0.032104255
575,-0.044006026
576,0.015403683
577,0.044419873
578,0.005504267
579,0.0328339
580,0.061482122
581,0.05166015
582,0.035059681
583,-0.015715006
584,0.027575294
585,0.115485874
586,-0.033256247
587,-0.100050113
588,0.046083332
589,-0.018888571
590,0.028361428
591,0.002803611
592,0.017039563
593,0.062574552
594,0.014322622
595,0.029801425
596,-0.007630998
597,0.00552944
598,-0.05419229
599,-0.024040622
600,-0.029307235
601,-0.01899345
602,-0.068774001
603,-0.137827666
604,-0.02880032
605,-0.05002543
606,0.003624135
607,0.022132783
608,-0.075903902
609,0.054883265
610,-0.013652575
611,0.017603419
612,0.079311396
613,0.064791466
614,-0.004037826
615,0.03754221
616,0.006639754
617,-0.033444095
618,-0.050676118
619,0.0397568
620,0.049730732
621,0.031635662
622,-0.058503941
623,-0.011183031
624,0.015821153
625,0.045351444
626,-0.007043196
627,0.071347
628,-0.041600538
629,0.037892296
630,-0.042864668
631,0.020129318
632,-0.067373763
633,0.089940546
634,-0.107446573
635,-0.011747649
636,0.0254617
637,-0.008006257
638,0.091686153
639,-0.01872551
640,0.029061096
641,0.044074271
642,-0.050577511
643,-0.066376698
644,0.050358355
645,0.043578074
646,-0.018676717
647,0.055952514
648,-0.114291774
649,-0.062086591
650,-0.012396767
651,0.157672253
652,0.056977736
653,-0.032750255
654,0.116279152
655,0.057174927
656,-0.041452076
657,0.073165517
658,-0.056148455
659,0.050258006
660,-0.024267722
661,0.069383602
662,-0.002073529
663,0.108333367
664,-0.073521444
665,-0.03517782
666,0.023474601
667,-0.013846087
668,-0.006948726
669,-0.029041771
670,0.008735509
671,-0.036232233
672,-0.061400905
673,0.045226406
674,0.096855977
675,-0.044761948
676,0.037931366
677,-0.042716366
678,-0.032797425
679,0.024166331
680,-0.026398043
681,-0.063685002
682,-0.000972698
683,0.028741941
684,0.044030545
685,-0.055500001
686,0.015398627
687,-0.0158199
688,0.007030803
689,-0.011385987
690,-0.004571049
691,0.004785325
692,0.04730987
693,-0.003939912
694,-0.027394673
695,0.000400831
696,0.012786995
697,0.079288326
698,-0.0180247
699,-0.009361704
700,0.004325689
701,0.019891738
702,-0.084730103
703,-0.089932812
704,0.053274295
705,0.002413487
706,0.079504497
707,0.07544257
708,0.027328129
709,0.016991291
710,-0.013693354
711,-0.056643531
712,0.034365096
713,0.001625736
714,0.057966728
715,0.038023131
716,-0.132761482
717,-0.015409693
718,0.009753886
719,-0.119306917
720,0.026905958
721,0.045642059
722,-0.113400722
723,-0.004304704
724,-0.060984286
725,0.04459824
726,-0.003913272
727,-0.001587752
728,-0.024196797
729,-0.035747875
730,-0.012796284
731,-0.054554934
732,0.027504472
733,-0.034554473
734,-0.034967646
735,-0.086552521
736,0.034913016
737,0.071959954
738,0.002847821
739,-0.001603192
740,-0.007921606
741,-0.034904999
742,-0.074614876
743,-0.012511934
744,0.037541093
745,0.089606479
746,-0.052491143
747,0.009190384
748,0.011169341
749,-0.011160586
750,0.084080014
751,-0.055275805
752,0.048344748
753,0.116193072
754,-0.035508078
755,0.060355062
756,0.057750667
757,-0.030010713
758,-0.135443198
759,0.018633436
760,0.033187694
761,-0.084707081
762,0.0605279
763,0.006084623
764,0.009450449
765,0.051081535
766,0.078679271
767,0.005579048
768,-0.022744732
769,-0.034828383
770,0.011549164
771,-0.021373104
772,0.081916928
773,-0.010012085
774,0.070939357
775,0.042922007
776,-0.041936674
777,0.026875304
778,0.075270269
779,-0.005326464
780,0.123750355
781,0.003561304
782,-0.04634753
783,0.056704585
784,0.006344691
785,-0.041440203
786,0.098089912
787,0.015207662
788,0.030481832
789,-0.010584246
790,-0.027019387
791,-0.030317551
792,-0.073357165
793,-0.025911954
794,0.000592945
795,-0.00040163
796,-0.056536487
797,0.038623542
798,0.013163045
799,0.057028707
800,0.008883189
801,-0.012797448
802,-0.047884714
803,0.061697612
804,-0.109154049
805,-0.062838638
806,-0.032184771
807,0.018425409
808,0.025582473
809,-0.059123387
810,0.06795199
811,-0.009576512
812,0.016760953
813,-0.047955271
814,0.056802015
815,0.054589289
816,0.031796635
817,-0.017329198
818,0.027399913
819,-0.064117853
820,-0.124456943
821,-0.047190958
822,0.002248477
823,-0.061960142
824,-0.042318078
825,0.044734643
826,-0.052558979
827,-0.020922649
828,-0.00581113
829,0.026361633
830,-0.014859864
831,0.061155188
832,-0.05034433
833,-0.050764876
834,0.006447891
835,0.05455678
836,-0.056226685
837,-0.008668747
838,0.071907267
839,0.010490912
840,0.039179808
841,-0.008340026
842,0.001205602
843,0.011259949
844,-0.003889113
845,0.063708893
846,0.018651084
847,0.007442701
848,-0.066239301
849,0.006906429
850,-0.044391811
851,0.018359946
852,-0.065917633
853,0.028363883
854,-0.027692849
855,-0.025171954
856,-0.015113005
857,0.074678612
858,-0.099843125
859,0.003515865
860,0.005995999
861,-0.049247364
862,-0.049824055
863,-0.051279338
864,-0.088617652
865,-0.010678124
866,0.098446577
867,-0.000834326
868,-0.006151077
869,-0.037957289
870,0.059204133
871,0.026145649
872,-0.072449747
873,0.0255524
874,0.06308829
875,-0.107802605
876,-0.004521064
877,-0.024660838
878,0.032104488
879,0.044044333
880,-0.058950024
881,-0.03589481
882,-0.160005284
883,-0.062233946
884,0.022321117
885,-0.00263628
886,0.010912638
887,-0.029361562
888,-0.072494972
889,-0.010364412
890,-0.082735123
891,0.061178624
892,-0.071965827
893,0.021836417
894,-0.036786715
895,-0.077174614
896,-0.016055554
897,-0.024248275
898,0.081186071
899,0.057875487
900,0.063352913
901,0.054602112
902,-0.092511176
903,0.020786329
904,-0.007564307
905,-0.11569773
906,-0.051914798
907,-0.003012123
908,0.013313252
909,0.039624013
910,-0.022325782
911,0.00548319
912,-0.13496554
913,-0.017372453
914,0.09025619
915,-0.018286994
916,0.050877346
917,0.041842984
918,0.002452089
919,-0.024062074
920,0.031278742
921,-0.033951173
922,0.108681792
923,-0.029165319
924,-0.011925422
925,-0.012948897
926,0.072610938
927,-0.079516983
928,-0.038579777
929,-0.078243077
930,0.020787045
931,0.040969114
932,0.02983117
933,0.042365777
934,0.030789318
935,0.028008021
936,-0.062149892
937,-0.029103243
938,-0.06467667
939,-0.028530721
940,0.045120418
941,-0.11301947
942,-0.020058396
943,0.039510606
944,0.020744238
945,-0.086031898
946,0.040737696
947,0.046110358
948,0.034771875
949,-0.099383648
950,-0.030699464
951,0.002433284
952,0.061713369
953,-0.020360634
954,0.002082144
955,-0.078084125
956,0.00847783
957,-0.04598339
958,0.025531506
959,0.003237606
960,-0.030856509
961,0.012000914
962,-0.003937459
963,-0.038470399
964,-0.080181335
965,0.021775674
966,-0.03205126
967,-0.050696171
968,-0.027755666
969,-0.107729144
970,0.05931184
971,-0.028658066
972,-0.008842543
973,0.027360821
974,0.020642625
975,-0.001508506
976,-0.035968136
977,0.001269559
978,-0.051581337
979,0.020739129
980,-0.017562324
981,0.02737938
982,0.029228135
983,-0.04702799
984,-0.001630829
985,-0.12719436
986,-0.022826732
987,0.028405201
988,-0.045195219
989,0.079063764
990,-0.033251457
991,-0.032825935
992,0.024211591
993,-0.000590575
994,-0.048969825
995,-0.061285576
996,-0.0395573
997,-0.035453295
998,0.059768366
999,0.011281159
1000,0.027020356
1001,-0.046878646
1002,-0.040150224
1003,-0.080082928
1004,0.006860322
1005,0.014636247
1006,-0.00814075
1007,0.108059222
1008,-0.015490164
1009,-0.044264166
1010,0.019804591
1011,-0.051814677
1012,-0.078432282
1013,0.011322848
1014,-0.042279905
1015,-0.06479029
1016,-0.02845083
1017,-0.041669149
1018,-0.023492282
1019,-0.036878782
1020,-0.00246028
1021,0.054112135
1022,0.009504655
1023,-0.038653619
1024,-0.04292453
1025,-0.050951378
1026,-0.01640654
1027,-0.058369088
1028,0.014482238
1029,0.003078559
1030,-0.036403668
1031,-0.093276036
1032,0.044479753
1033,-0.008593472
1034,-0.024694441
1035,0.053042172
1036,0.001278684
1037,0.07867622
1038,-0.007217811
1039,0.007040008
1040,0.094665131
1041,0.002375271
1042,0.072922093
1043,0.044474341
1044,-0.034561563
1045,-0.029274378
1046,0.059412778
1047,0.014665892
1048,-0.024896806
1049,0.02957971
1050,0.051614463
1051,0.02706292
1052,-0.033306927
1053,0.020761148
1054,0.065293003
1055,-0.03904887
1056,-0.071082232
1057,-0.0021638
1058,0.007805876
1059,-0.082149174
1060,0.043024533
1061,-0.054253333
1062,-0.017372404
1063,0.026169527
1064,0.002960092
1065,0.006338687
1066,-0.048082071
1067,0.079209225
1068,0.011497613
1069,0.055496282
1070,-0.080854935
1071,0.055381098
1072,0.004539088
1073,0.019221036
1074,0.131178082
1075,0.038150871
1076,0.036398852
1077,-0.079900991
1078,0.024439682
1079,-0.019684396
1080,-0.03042401
1081,0.007868614
1082,0.094771223
1083,0.000512463
1084,-0.058941486
1085,-0.025191994
1086,0.018359784
1087,-0.015425711
1088,0.005575847
1089,0.015020862
1090,0.085358436
1091,-0.069912143
1092,-0.085349839
1093,-0.030482878
1094,-0.038357533
1095,0.055324413
1096,-0.033706485
1097,-0.095858765
1098,-0.095571096
1099,0.063892426
1100,-0.017790492
1101,0.040134304
1102,0.022612705
1103,0.07344024
1104,0.059391493
1105,0.018924767
1106,0.068836714
1107,0.037547681
1108,-0.04855454
1109,-0.099377391
1110,-0.051169031
1111,-0.030023171
1112,0.056267361
1113,-0.024385817
1114,0.005164291
1115,0.011930471
1116,0.020157289
1117,0.050506898
1118,-0.03378358
1119,-0.052259089
1120,-0.0159936
1121,0.036740282
1122,-0.070814146
1123,0.054408321
1124,-0.060841969
1125,0.000731057
1126,-0.015544235
1127,-0.097597973
1128,0.019018882
1129,0.023298259
1130,0.019143138
1131,0.029041241
1132,-0.037601783
1133,-0.068869942
1134,0.036618143
1135,0.045561767
1136,-0.003351335
1137,-0.061541955
1138,-0.061734257
1139,-0.117446901
1140,-0.039770026
1141,0.054242084
1142,0.06826989
1143,-0.02954384
1144,0.034514221
1145,-0.059092697
1146,0.05352215
1147,-0.056029641
1148,0.070907611
1149,0.044236875
1150,-0.093317894
1151,-0.064138019
1152,0.040828236
1153,0.051505545
1154,0.04966251
1155,-0.030892272
1156,-0.059377541
1157,0.059228881
1158,0.070418997
1159,0.004735114
1160,0.12114127
1161,-0.047690425
1162,-0.081242002
1163,0.047080831
1164,-0.041393586
1165,0.031121224
1166,0.038112074
1167,0.013297831
1168,-0.024394309
1169,-0.021184116
1170,-0.048597833
1171,0.030731644
1172,0.003225722
1173,-0.016634652
1174,0.027587514
1175,-0.035131228
1176,-0.051021403
1177,-0.080098068
1178,0.035251277
1179,-0.086077972
1180,0.121813268
1181,0.011606695
1182,-0.015301286
1183,-0.008792795
1184,0.042648963
1185,0.04699433
1186,0.024548398
1187,-0.035219102
1188,0.006633246
1189,-0.010543893
1190,-0.090559433
1191,-0.024769213
1192,0.006669932
1193,-0.005362701
1194,0.016469143
1195,0.009295007
1196,0.024175074
1197,0.020492689
1198,-0.125437047
1199,0.03634564
1200,0.015406759
1201,-0.02348216
1202,-0.026592021
1203,-0.014382823
1204,0.000382789
1205,-0.042702993
1206,-0.059141844
1207,-0.016726984
1208,0.014756629
1209,-0.030775113
1210,0.002954989
1211,0.112271828
1212,-0.040139702
1213,-0.015945616
1214,0.029497946
1215,-0.05658772
1216,0.016199879
1217,0.082853452
1218,0.0229384
1219,0.003555526
1220,0.018150144
1221,-0.072244955
1222,0.010719293
1223,-0.003630218
1224,-0.087947172
1225,-0.014951052
1226,0.007402843
1227,-0.039901583
1228,-0.1232116
1229,-0.055373404
1230,-0.05455481
1231,-0.018650424
1232,-0.027066279
1233,-0.074931181
1234,-0.022423951
1235,0.016751783
1236,0.08398409
1237,0.080153049
1238,0.033770548
1239,0.088370392
1240,-0.059798457
1241,-0.025846232
1242,0.062337362
1243,-0.006045578
1244,-0.045316727
1245,0.096801709
1246,0.057231217
1247,-0.061442112
1248,-0.117044332
1249,-0.035646335
1250,-0.045317546
1251,0.026404578
1252,-0.028980227
1253,0.025909456
1254,-0.115142221
1255,-0.035669359
1256,0.057619914
1257,0.005645296
1258,0.00382048
1259,-0.037310437
1260,-0.009833513
1261,0.005011424
1262,0.028388283
1263,0.04541593
1264,-0.026269918
1265,-0.033364744
1266,0.017080491
1267,0.050215747
1268,0.000834327
1269,-0.046410977
1270,-0.031974993
1271,-0.020230538
1272,-0.076708378
1273,0.048630172
1274,-0.082066259
1275,0.08208912
1276,0.08340919
1277,-0.095156105
1278,0.009374765
1279,-0.017028282
1280,0.032753045
1281,0.03112628
1282,-0.031681657
1283,-0.062189384
1284,0.020746876
1285,0.004754891
1286,-0.072770492
1287,0.009079328
1288,0.01321612
1289,-0.027660798
1290,-0.037630292
1291,0.004630392
1292,0.018631091
1293,-0.024683379
1294,-0.008587063
1295,-0.005837804
1296,-0.084806029
1297,-0.023177334
1298,0.017675336
1299,0.015954227
1300,0.010943303
1301,0.128242264
1302,-0.085561947
1303,0.052822794
1304,0.090606439
1305,-0.016158303
1306,0.052039519
1307,0.008784672
1308,-0.010031413
1309,-0.027710673
1310,-0.001229419
1311,0.014859806
1312,-0.042164518
1313,-0.090094579
1314,-0.030151197
1315,0.001403765
1316,0.063263159
1317,-0.0613022
1318,0.027959866
1319,0.041411042
1320,-0.070615247
1321,-0.00056907
1322,-0.065368705
1323,-0.024494574
1324,0.058214051
1325,0.028829944
1326,-0.043887381
1327,-0.000907773
1328,-0.003700406
1329,-0.03206251
1330,0.04163379
1331,-0.006331552
1332,0.008402718
1333,-0.003116582
1334,0.06592275
1335,0.068939624
1336,0.063443369
1337,0.093422998
1338,0.063143431
1339,0.020957915
1340,-0.007498344
1341,0.036485462
1342,-0.008846312
1343,0.07539666
1344,0.130038266
1345,0.074864244
1346,0.022214678
1347,0.033120958
1348,-0.006944954
1349,0.059772377
1350,0.02596852
1351,-0.016339022
1352,0.070555747
1353,0.026795375
1354,0.081949664
1355,0.003777926
1356,0.014349989
1357,-0.056597878
1358,0.053637414
1359,0.043033225
1360,0.001491945
1361,0.010460316
1362,0.065719521
1363,0.062973319
1364,0.032164418
1365,-0.13037026
1366,-0.017516166
1367,0.027269994
1368,-0.009438504
1369,0.036512878
1370,0.000620866
1371,-0.010298512
1372,-0.057354228
1373,0.027899654
1374,-0.067505304
1375,0.06433857
1376,-0.007580566
1377,-0.027709935
1378,0.031895001
1379,-0.024241709
1380,0.01727021
1381,0.007562865
1382,-0.038372009
1383,0.020776897
1384,-0.056239703
1385,0.002546224
1386,0.051687671
1387,0.064729466
1388,-0.010122214
1389,-0.021904004
1390,0.045993122
1391,0.027893153
1392,0.037523518
1393,0.077598242
1394,0.022412525
1395,0.086437829
1396,0.06277026
1397,-0.027895714
1398,0.039690499
1399,-0.040655843
1400,-0.038175684
1401,0.0076067
1402,0.080343843
1403,-0.001382828
1404,0.062544028
1405,0.096134367
1406,0.007690343
1407,0.004878007
1408,-0.031606495
1409,0.002351631
1410,0.013150131
1411,0.022679673
1412,0.080659004
1413,0.029552721
1414,0.062059408
1415,-0.00750371
1416,0.028784044
1417,0.032909085
1418,0.052661621
1419,0.007148281
1420,0.027056951
1421,-0.004165244
1422,-0.037724694
1423,-0.031934915
1424,-0.026168986
1425,0.060283264
1426,0.0020212
1427,0.068232339
1428,0.092967671
1429,0.019081204
1430,0.065871798
1431,0.066208122
1432,0.064099711
1433,0.027968522
1434,0.071588628
1435,0.092210665
1436,0.115488976
1437,0.108608432
1438,0.045567044
1439,0.070252577
1440,0.081899354
1441,0.123563197
1442,0.037841938
1443,-0.006251153
1444,0.060550148
1445,0.04683424
1446,0.069538343
1447,0.071024492
1448,0.062907707
1449,0.084804674
1450,-0.01645198
1451,0.119218055
1452,0.130498446
1453,0.036739791
1454,0.078565539
1455,0.032524515
1456,-0.01254833
1457,0.068328167
1458,0.017132835
1459,0.06049067
1460,0.107373164
1461,0.119269543
1462,0.107951233
1463,0.056401758
1464,0.22362756
1465,0.122546685
1466,0.190184377
1467,0.069841346
1468,0.163940599
1469,0.135481162
1470,0.141181494
1471,0.071762581
1472,0.043262942
1473,0.075949245
1474,0.169590008
1475,0.146511212
1476,0.022840463
1477,0.239236227
1478,0.069059267
1479,0.163250306
1480,-0.009983845
1481,0.03852905
1482,0.174981639
1483,0.111179614
1484,0.17675763
1485,0.014726135
1486,0.169575523
1487,0.154978494
1488,0.172801011
1489,0.119905555
1490,0.029624206
1491,0.200179637
1492,0.072333981
1493,0.189126606
1494,0.190112565
1495,0.194128112
1496,0.174617848
1497,0.1554424
1498,0.183283045
1499,0.105376798
1500,0.182980205
1501,0.154532556
1502,0.144540593
1503,0.32071489
1504,0.281114121
1505,0.144772766
1506,0.214677565
1507,0.245880593
1508,0.108885546
1509,0.194283039
1510,0.176151142
1511,0.23774131
1512,0.201441397
1513,0.208524673
1514,0.279834628
1515,0.213321858
1516,0.152411429
1517,0.248223462
1518,0.167989229
1519,0.206564188
1520,0.217988739
1521,0.18305837
1522,0.229222564
1523,0.178906398
1524,0.256584099
1525,0.242717961
1526,0.171567934
1527,0.284761045
1528,0.328058677
1529,0.223094156
1530,0.145665324
1531,0.262874813
1532,0.152891284
1533,0.21183469
1534,0.280490655
1535,0.1752216
1536,0.207642729
1537,0.203561965
1538,0.23922562
1539,0.238474116
1540,0.293115256
1541,0.234434884
1542,0.29133407
1543,0.188506478
1544,0.198324724
1545,0.248019334
1546,0.228392881
1547,0.15509098
1548,0.25865817
1549,0.274483853
1550,0.278960523
1551,0.240630058
1552,0.386077977
1553,0.130806419
1554,0.246625017
1555,0.232424165
1556,0.341621614
1557,0.315081901
1558,0.239951146
1559,0.325721518
1560,0.302268843
1561,0.251556203
1562,0.28576487
1563,0.226150644
1564,0.302891791
1565,0.289136133
1566,0.18834505
1567,0.283365458
1568,0.288710583
1569,0.215720569
1570,0.277664016
1571,0.229045682
1572,0.241019754
1573,0.253564001
1574,0.290111731
1575,0.343121245
1576,0.362802846
1577,0.313305071
1578,0.376948219
1579,0.317107591
1580,0.365056422
1581,0.248748147
1582,0.342043447
1583,0.292437077
1584,0.313629414
1585,0.265732797
1586,0.270324279
1587,0.295220064
1588,0.285173881
1589,0.255297094
1590,0.319494308
1591,0.264285528
1592,0.272566597
1593,0.261216175
1594,0.24539794
1595,0.348802749
1596,0.340988041
1597,0.214536325
1598,0.233326708
1599,0.394258888
1600,0.242705379
1601,0.289660245
1602,0.263555959
1603,0.249975171
1604,0.290886638
1605,0.364029789
1606,0.222953766
1607,0.276511535
1608,0.315325378
1609,0.386344789
1610,0.271575784
1611,0.284434268
1612,0.22008783
1613,0.292274378
1614,0.271381662
1615,0.27841728
1616,0.266596086
1617,0.255817161
1618,0.271351246
1619,0.338294694
1620,0.282168901
1621,0.248207229
1622,0.319153428
1623,0.322991114
1624,0.315135896
1625,0.313256396
1626,0.162670002
1627,0.242116351
1628,0.266944808
1629,0.232068852
1630,0.287125711
1631,0.307734892
1632,0.274492464
1633,0.324650021
1634,0.276371597
1635,0.272851307
1636,0.353298075
1637,0.169771756
1638,0.293160335
1639,0.268119065
1640,0.289186629
1641,0.29482751
1642,0.23633976
1643,0.328699548
1644,0.152313266
1645,0.188353353
1646,0.214113061
1647,0.219897116
1648,0.144133112
1649,0.263890173
1650,0.233756935
1651,0.281755833
1652,0.19982731
1653,0.213415708
1654,0.251374506
1655,0.198631291
1656,0.190484186
1657,0.179565874
1658,0.240439427
1659,0.285771311
1660,0.160369541
1661,0.204321592
1662,0.225903588
1663,0.237203263
1664,0.195632985
1665,0.159300189
1666,0.28762819
1667,0.212670691
1668,0.276147068
1669,0.197663285
1670,0.111733687
1671,0.232278729
1672,0.273669131
1673,0.278773104
1674,0.220225215
1675,0.257902469
1676,0.201601335
1677,0.271316248
1678,0.233543683
1679,0.169170018
1680,0.194181522
1681,0.21670635
1682,0.262287242
1683,0.184837808
1684,0.225602789
1685,0.215125924
1686,0.269916038
1687,0.155514172
1688,0.178207714
1689,0.144774069
1690,0.144848505
1691,0.167603277
1692,0.245952502
1693,0.184976915
1694,0.269792676
1695,0.106648421
1696,0.16384043
1697,0.174315855
1698,0.240266034
1699,0.232249911
1700,0.13286838
1701,0.146489511
1702,0.134092516
1703,0.144256791
1704,0.173718931
1705,0.13139632
1706,0.083127166
1707,0.152117383
1708,0.144214939
1709,0.121300538
1710,0.121197237
1711,0.180547938
1712,0.147683318
1713,0.193663856
1714,0.106983563
1715,0.106448744
1716,0.06421375
1717,0.203824232
1718,0.160140783
1719,0.182052629
1720,0.120309742
1721,0.142473272
1722,0.135635777
1723,0.13155971
1724,0.114040611
1725,0.112746552
1726,0.191842877
1727,0.102688598
1728,0.048877016
1729,0.225349345
1730,0.193044506
1731,0.078266951
1732,0.150231923
1733,0.116248981
1734,0.105471823
1735,0.151534379
1736,0.118985299
1737,0.162637724
1738,0.108613927
1739,0.100243473
1740,0.105351838
1741,0.020558383
1742,0.132061855
1743,0.110363501
1744,0.149408543
1745,0.025794392
1746,0.059004763
1747,0.070756054
1748,0.041346892
1749,-0.007987877
1750,0.118331537
1751,0.084948846
1752,0.11289406
1753,0.100011285
1754,0.110428824
1755,0.008212569
1756,0.072538376
1757,0.046049791
1758,0.074109855
1759,0.037342151
1760,0.03871638
1761,0.047769199
1762,0.023494176
1763,0.040867875
1764,-0.013027108
1765,0.126605192
1766,0.138749122
1767,0.06751748
1768,0.070506548
1769,0.15481181
1770,-0.017443721
1771,0.023578373
1772,0.066472388
1773,-0.030790752
1774,0.056187011
1775,0.034401092
1776,0.046154582
1777,0.113113244
1778,0.041127406
1779,-0.074414074
1780,0.035277859
1781,0.097626634
1782,0.002135713
1783,0.058183847
1784,0.011670951
1785,0.120022236
1786,6.47E-05
1787,-0.028946642
1788,-0.019869774
1789,-0.030458848
1790,0.079130707
1791,0.07809843
1792,0.089108941
1793,0.090365211
1794,0.016543987
1795,0.014362941
1796,0.091956154
1797,0.001895143
1798,-0.033042313
1799,0.068871222
1800,-0.041456949
1801,0.077318144
1802,0.023968252
1803,-0.010304936
1804,-0.044034947
1805,0.024710993
1806,0.027111889
1807,0.032080698
1808,-0.018016157
1809,0.011719017
1810,0.05558959
1811,-0.045416344
1812,-0.015727795
1813,0.01776021
1814,0.123881886
1815,0.065823322
1816,0.12816644
1817,0.030522099
1818,-0.013704974
1819,-0.026047565
1820,-0.059690747
1821,-0.031142386
1822,-0.015932975
1823,0.023019929
1824,0.00901072
1825,0.022182713
1826,0.091085664
1827,0.017387097
1828,0.056595476
1829,-0.062267335
1830,0.002340718
1831,0.056950338
1832,-0.010063429
1833,0.045861036
1834,0.03641899
1835,-0.038111832
1836,0.046302427
1837,0.02159084
1838,-0.021129708
1839,0.001778442
1840,-0.099494179
1841,0.016984779
1842,-0.020828599
1843,0.019374049
1844,0.057352096
1845,0.017085838
1846,-0.00336286
1847,-0.011552751
1848,-0.012816862
1849,-0.026436263
1850,0.0520043
1851,-0.008027619
1852,0.04126991
1853,-0.092803805
1854,-0.076297544
1855,0.072853157
1856,0.006948046
1857,0.026532715
1858,0.046722053
1859,0.008690602
1860,0.066602706
1861,-0.011265986
1862,0.047281289
1863,-0.006820177
1864,-0.008683175
1865,-0.002198059
1866,0.040223681
1867,-0.054852754
1868,-0.0024166
1869,0.011013865
1870,-0.021049676
1871,-0.048917714
1872,0.04265543
1873,-0.026304663
1874,0.082422932
1875,0.04459035
1876,0.041785727
1877,-0.020151375
1878,-0.019928656
1879,0.08201511
1880,-0.012323997
1881,-0.026748738
1882,-0.021128304
1883,-0.054359852
1884,0.043775647
1885,-0.036213662
1886,-0.042463842
1887,0.088798942
1888,0.008605062
1889,0.070495561
1890,0.031572047
1891,0.057042022
1892,-0.066681318
1893,-0.012824658
1894,0.042321746
1895,0.017726134
1896,0.007374321
1897,0.030260723
1898,-0.005505214
1899,-0.003950095
1900,-0.091973538
1901,-0.022979248
1902,0.020822278
1903,-0.022683015
1904,-0.032879756
1905,-0.046831716
1906,-0.000876111
1907,0.026129182
1908,0.083597219
1909,-0.098432412
1910,-0.018346891
1911,-0.026380683
1912,-0.072013893
1913,-0.024915817
1914,-0.033488659
1915,0.014315428
1916,-0.012829157
1917,0.015602521
1918,0.008398582
1919,0.152022986
1920,0.009729879
1921,0.031810686
1922,-0.00910347
1923,-0.085100147
1924,-0.004629997
1925,0.047806644
1926,0.042095322
1927,-0.053224066
1928,0.103064121
1929,-0.044733323
1930,0.02287706
1931,-0.020005178
1932,0.027036325
1933,-0.001446097
1934,-0.019630282
1935,0.010187582
1936,0.048151123
1937,0.016900741
1938,-0.036280884
1939,-0.009801191
1940,-0.021915738
1941,0.060836962
1942,0.003827204
1943,-0.059853466
1944,-0.005604204
1945,0.026589886
1946,-0.040628623
1947,-0.024656765
1948,0.104903211
1949,-0.027921994
1950,-0.10658408
1951,-0.044593141
1952,-0.002768031
1953,0.056813428
1954,0.073836356
1955,-0.026126879
1956,-0.006500133
1957,-0.025936251
1958,0.00946766
1959,0.000822207
1960,0.003414836
1961,-0.0085222
1962,-0.038361718
1963,-0.023119898
1964,-0.067807174
1965,0.025067955
1966,-0.002818341
1967,-0.020426914
1968,-0.000348895
1969,-0.099205675
1970,-0.004240581
1971,0.04358134
1972,0.054804821
1973,0.037483348
1974,0.01721414
1975,-0.04930919
1976,0.031609096
1977,-0.017868778
1978,-0.007021262
1979,-0.096121496
1980,-0.140546893
1981,0.049970764
1982,0.108010928
1983,0.078022157
1984,-0.004849767
1985,0.030164771
1986,-0.009095478
1987,0.030008622
1988,0.056184509
1989,0.017139865
1990,0.000180264
1991,0.010248697
1992,0.04766565
1993,-0.056829124
1994,-0.091226168
1995,-0.006011992
1996,-0.026139774
1997,-0.058443299
1998,-0.097766054
1999,0.020152213
2000,0.015882497
2001,0.031639943
2002,-0.020514818
2003,0.004226011
2004,-0.037301809
2005,-0.082384679
2006,0.028811253
2007,-0.009454847
2008,0.010913442
2009,0.006386451
2010,0.02079108
2011,-0.016345214
2012,0.058143972
2013,0.039575353
2014,0.022071838
2015,-0.039820466
2016,0.02144254
2017,-0.050942208
2018,-0.017114091
2019,-0.026461223
2020,-0.060742628
2021,-0.017065922
2022,0.019818622
2023,0.031299953
2024,-0.0619182
2025,-0.036158784
2026,-0.010447091
2027,-0.101304174
2028,0.006159212
2029,0.030554519
2030,-0.06224402
2031,0.021519517
2032,0.006600637
2033,-0.004349485
2034,-0.014867868
2035,-0.0306399
2036,0.060503783
2037,0.146157058
2038,-0.038262243
2039,0.073951802
2040,-0.061338132
2041,0.013159042
2042,0.031491606
2043,0.001336561
2044,0.028639417
2045,0.011099091
2046,0.041464682
2047,0.028764763
2048,-0.069382969
2049,-0.026671372
2050,-0.075050316
2051,0.005651399
2052,-0.01279689
2053,0.019157898
2054,-0.01035969
2055,-0.075945219
2056,0.047658828
2057,0.027503673
2058,0.030805459
2059,-0.010056495
2060,-0.012778032
2061,0.082601078
2062,-0.001892649
2063,0.044080641
2064,-0.037003843
2065,0.028755296
2066,0.043286281
2067,-0.024590136
2068,0.02133037
2069,0.034720446
2070,-0.059631772
2071,0.009168067
2072,0.010698255
2073,-0.032520903
2074,-0.028215616
2075,0.019577948
2076,-0.056425204
2077,-0.052422017
2078,-0.062395898
2079,0.002828753
2080,0.109199029
2081,0.01179967
2082,0.047349934
2083,-0.004022243
2084,0.008783976
2085,-0.022733114
2086,0.038757103
2087,0.143669545
2088,0.042603171
2089,-0.005992128
2090,-0.02487288
2091,0.024439396
2092,-0.015211686
2093,-0.017822591
2094,0.043892246
2095,0.049928918
2096,0.041635547
2097,-0.005163483
2098,0.062335891
2099,0.036503101
2100,0.029411192
2101,-0.099175203
2102,0.051398433
2103,0.010165259
2104,0.033309536
2105,0.041462818
2106,0.012403656
2107,-0.02266831
2108,0.083523578
2109,0.037126016
2110,0.049028188
2111,0.032327229
2112,-0.006780032
2113,-0.01530819
2114,-0.021190488
2115,0.03537616
2116,-0.025488196
2117,0.033550285
2118,-0.005202812
2119,-0.026104491
2120,0.106474935
2121,0.004142975
2122,-0.01962245
2123,0.032731766
2124,0.042331861
2125,-0.015861384
2126,-0.030625885
2127,0.015599287
2128,-0.049600527
2129,0.032473101
2130,-0.018309972
2131,-0.010849554
2132,0.072330967
2133,0.021994055
2134,-0.037838671
2135,-0.062371497
2136,0.008953786
2137,-0.077973723
2138,-0.026973033
2139,-0.023207953
2140,-0.008953345
2141,-0.004407622
2142,0.038471631
2143,0.005880175
2144,-0.018345199
2145,0.034524639
2146,0.009654278
2147,0.012976866
2148,0.006951397
2149,-0.015597662
2150,-0.005188611
2151,-0.037750079
2152,0.024510826
2153,-0.056922548
2154,0.055624303
2155,-0.003154879
2156,-0.050314497
2157,0.052074486
2158,-0.060646188
2159,0.05998033
2160,-0.02567353
2161,-0.035539091
2162,-0.01957101
2163,0.0307996
2164,0.098341053
2165,-0.066327231
2166,0.063515335
2167,0.023340258
2168,-0.067247599
2169,0.042447676
2170,0.009661582
2171,0.003295462
2172,0.029754664
2173,0.099809989
2174,0.035362858
2175,0.080274437
2176,0.06291308
2177,-0.047988725
2178,0.109982464
2179,0.047876136
2180,-0.012658319
2181,0.049624493
2182,0.024542917
2183,-0.052319505
2184,-0.039382327
2185,0.005363232
2186,-0.016363877
2187,-0.071429477
2188,0.087756441
2189,0.080442084
2190,-0.009961162
2191,-0.054061821
2192,-0.026567822
2193,0.023022861
2194,0.057148437
2195,0.000225443
2196,-0.000121134
2197,0.038610954
2198,-0.016184831
2199,-0.03961497
2200,0.003075669
2201,0.03425282
2202,-0.022542045
2203,0.049593201
2204,0.016162237
2205,0.027497044
2206,0.033652942
2207,0.028163798
2208,-0.011454307
2209,-0.04785464
2210,-0.05907559
2211,0.044733282
2212,-0.029484305
2213,0.064006626
2214,0.067390734
2215,0.078785872
2216,-0.010101422
2217,-0.095784171
2218,-0.039608061
2219,0.104361571
2220,0.040579808
2221,-0.004356269
2222,0.025952164
2223,0.049529288
2224,0.01118225
2225,0.133210365
2226,0.025386936
2227,-0.002896576
2228,0.064271182
2229,-0.12835705
2230,-0.041100285
2231,-0.007773779
2232,-0.016384209
2233,0.01851941
2234,-0.061551705
2235,-0.012013855
2236,0.068775934
2237,0.007163661
2238,-0.04100017
2239,0.011597
2240,-0.135264782
2241,0.095660699
2242,0.008502562
2243,0.106669721
2244,0.046997611
2245,-0.04180106
2246,-0.043908952
2247,0.005065072
2248,0.104016778
2249,-0.039790059
2250,-0.042366705
2251,0.014741422
2252,-0.06151916
2253,0.053770728
2254,-0.049781912
2255,0.068001864
2256,-0.058227895
2257,0.016986466
2258,-0.000785091
2259,0.033108395
2260,0.071630546
2261,0.004714802
2262,-0.061416605
2263,-0.040856246
2264,0.014166594
2265,-0.017620461
2266,0.012725697
2267,-0.014365135
2268,-0.06702978
2269,-0.109981482
2270,0.015146964
2271,-0.049413809
2272,-0.008765951
2273,-0.119062381
2274,-0.007377484
2275,-0.071480835
2276,-0.06043538
2277,-0.05467522
2278,-0.127210016
2279,-0.036959464
2280,-0.098861385
2281,-0.026735948
2282,-0.037883588
2283,-0.118821594
2284,-0.037794804
2285,-0.019191311
2286,-0.01903047
2287,-0.026812768
2288,-0.02080432
2289,0.012442815
2290,0.016367612
2291,-0.023764341
2292,0.011660838
2293,0.002816924
2294,-0.018368409
2295,0.00495157
2296,0.027190355
2297,0.041748586
2298,-0.010467101
2299,0.002794533
2300,0.001881719
2301,-0.06941729
2302,0.077981944
2303,0.050189393
2304,-0.129291955
2305,0.049806634
2306,0.001130179
2307,-0.074246597
2308,0.06116333
2309,0.043910002
2310,-0.077854163
2311,0.078418123
2312,0.019862279
2313,-0.028656721
2314,-0.0758588
2315,-0.00810743
2316,-0.163278158
2317,-0.01607173
2318,-0.022259646
2319,0.006134796
2320,0.002275968
2321,-0.132892828
2322,0.070679863
2323,-0.070481036
2324,-0.01652127
2325,0.010489233
2326,0.042495949
2327,0.066638575
2328,0.049319436
2329,0.065921566
2330,0.042444572
2331,0.038367572
2332,-0.003044268
2333,-0.0089651
2334,0.024270068
2335,-0.037477984
2336,-0.081313434
2337,-0.011553804
2338,-0.003499607
2339,0.009639697
2340,0.000700627
2341,-0.039959143
2342,0.005871002
2343,0.0474723
2344,-0.05827669
2345,0.002294021
2346,0.05084886
2347,-0.030221526
2348,0.030587756
2349,-0.021554657
2350,0.074936055
2351,-0.017957167
2352,0.025491855
2353,0.020647483
2354,-0.020199378
2355,0.059655762
2356,0.03406319
2357,-0.019408798
2358,0.011743019
2359,0.003795336
2360,0.037359168
2361,-0.040926268
2362,0.033605553
2363,-0.004527041
2364,0.010717154
2365,-0.078725034
2366,-0.019461192
2367,0.020360352
2368,-0.059271934
2369,0.055863546
2370,0.013957461
2371,-0.014090431
2372,0.001823033
2373,-0.129851502
2374,0.05587562
2375,0.042444643
2376,0.079016027
2377,0.003335123
2378,0.006998061
2379,-0.049336403
2380,-0.09634732
2381,-0.018804529
2382,-0.02997249
2383,0.040429608
2384,0.028798599
2385,-0.048184013
2386,0.029559054
2387,-0.021053752
2388,0.009513589
2389,-0.031168519
2390,0.104923421
2391,0.020865211
2392,0.006588099
2393,0.066000664
2394,-0.058339636
2395,0.039720406
2396,0.077510231
2397,-0.071127306
2398,0.081165346
2399,-0.016010711
2400,0.01323343
2401,-0.025528831
2402,-0.035752398
2403,-0.01477416
2404,0.014580506
2405,-0.043201817
2406,-0.026307533
2407,-0.05814298
2408,-0.068949854
2409,-0.014094798
2410,-0.069225047
2411,-0.063679876
2412,-0.030614007
2413,0.009205423
2414,0.050828825
2415,0.065085144
2416,0.040301098
2417,-0.005292808
2418,0.015042377
2419,-0.030884016
2420,0.018216041
2421,0.072545489
2422,0.006817725
2423,-0.032775739
2424,-0.006414823
2425,0.031694081
2426,0.121976177
2427,-0.06897039
2428,0.059053851
2429,-0.026137436
2430,-0.004223231
2431,-0.130723956
2432,-0.05240013
2433,0.011713562
2434,-0.010399094
2435,-0.080319015
2436,-0.026469955
2437,0.060961264
2438,0.064889838
2439,-0.018857742
2440,-0.009369931
2441,-0.049765739
2442,0.061990373
2443,-0.048069441
2444,-0.016425295
2445,-0.046476695
2446,-0.028978731
2447,-0.089061746
2448,0.092666734
2449,0.028692426
2450,0.004004407
2451,0.056858831
2452,-0.022544411
2453,0.019914748
2454,0.026004427
2455,-0.053457395
2456,-0.009133008
2457,-0.093123681
2458,0.005610444
2459,-0.045126493
2460,0.072439889
2461,0.045915244
2462,0.060507052
2463,-0.080908539
2464,0.007493503
2465,-0.016996515
2466,-0.001757949
2467,-0.021786228
2468,0.066841189
2469,0.045790844
2470,0.053380757
2471,0.054375886
2472,-0.039090612
2473,0.04371942
2474,0.002299457
2475,-0.039997563
2476,0.028949233
2477,-0.029477205
2478,0.095087825
2479,0.051639688
2480,-0.093460116
2481,-0.039477821
2482,0.059164141
2483,-0.019782295
2484,0.103651832
2485,-0.000175799
2486,0.100022375
2487,-0.028580074
2488,-0.097018437
2489,0.03746686
2490,-0.014331077
2491,-0.02870792
2492,0.063464071
2493,0.004723817
2494,-0.034175305
2495,-0.03641699
2496,-0.030455125
2497,0.020874683
2498,0.069348078
2499,-0.028082328
2500,-0.035081243
2501,0.00378562
2502,-0.04908229
2503,-0.019686019
2504,0.040630876
2505,0.013429348
2506,-0.088951994
2507,0.039161244
2508,-0.043855975
2509,0.049841305
2510,0.012738911
2511,-0.044452289
2512,-0.005149656
2513,-0.06182516
2514,0.032822315
2515,0.063510635
2516,0.007141111
2517,-0.067298622
2518,-0.065339163
2519,0.045611502
2520,0.048289074
2521,-0.008417303
2522,0.007258136
2523,0.059517668
2524,-0.008244162
2525,0.022213461
2526,0.046282203
2527,-0.055092724
2528,-0.054857508
2529,-0.007415555
2530,0.048159271
2531,-0.149784998
2532,-0.047467064
2533,0.07766527
2534,0.00468074
2535,-0.006127648
2536,0.005305496
2537,0.013276482
2538,0.000548
2539,-0.100856543
2540,-0.022864191
2541,-0.033722777
2542,0.057886607
2543,0.051536705
2544,-0.003748912
2545,-0.034781475
2546,-0.052748467
2547,-0.031835348
2548,0.018166374
2549,0.022656022
2550,-0.007499778
2551,0.025840732
2552,0.03444316
2553,-0.031761033
2554,-0.05815324
2555,-0.051851159
2556,0.007492897
2557,0.003038352
2558,0.024089007
2559,-0.070039992
2560,0.001104038
2561,-0.040177533
2562,0.021285105
2563,-0.041214547
2564,0.076483751
2565,-0.060281517
2566,-0.025151876
2567,0.067151605
2568,-0.104972486
2569,0.028250115
2570,-0.047723977
2571,-0.065904813
2572,-0.044548631
2573,0.08018417
2574,-0.00851363
2575,-0.099930341
2576,-0.064921733
2577,0.002651449
2578,-0.023882216
2579,0.113314129
2580,-0.037484004
2581,-0.124022187
2582,-0.002472747
2583,-0.060350077
2584,-0.09623945
2585,-0.02186968
2586,-0.080268382
2587,-0.018653457
2588,-0.036066334
2589,-0.083287101
2590,0.120237103
2591,0.034435409
2592,0.083490264
2593,-0.064701865
2594,-0.047724328
2595,0.010584558
2596,-0.047174818
2597,0.007800293
2598,-0.062097272
2599,-0.013540054
2600,-0.101178058
2601,-0.084827229
2602,0.057207313
2603,0.005366349
2604,-0.018277131
2605,0.001722891
2606,-0.014545755
2607,0.074635695
2608,0.034340141
2609,-0.019878976
2610,-0.016738838
2611,-0.037409531
2612,-0.030698668
2613,-0.027620252
2614,-0.086208411
2615,0.085096168
2616,0.018794572
2617,-0.008928208
2618,-0.019117558
2619,-0.013191019
2620,-0.053923203
2621,0.015663674
2622,0.046199067
2623,0.056656002
2624,0.021508998
2625,0.091818746
2626,-0.066849043
2627,0.003817096
2628,0.055835115
2629,-0.003863071
2630,-0.020209135
2631,-0.011454709
2632,-0.021289062
2633,0.001437696
2634,0.046725494
2635,0.083654941
2636,0.039433298
2637,0.012875145
2638,-0.056565445
2639,0.083110225
2640,-0.044020394
2641,-0.012527719
2642,0.00070149
2643,0.038961955
2644,0.010592402
2645,-0.03934426
2646,0.011251479
2647,0.04623052
2648,0.002982113
2649,-0.047412026
2650,-0.003821882
2651,-0.004783158
2652,-0.097755069
2653,-0.015077823
2654,-0.028232504
2655,-0.029982353
2656,-0.012240254
2657,0.094985143
2658,0.065056865
2659,-0.062524504
2660,0.063774227
2661,-0.072297158
2662,-0.108761113
2663,0.024398734
2664,-0.001327179
2665,0.049080229
2666,-0.039368608
2667,-0.002522001
2668,-0.03592399
2669,-0.010173391
2670,-0.032352589
2671,-0.025908903
2672,0.023268747
2673,-0.117709212
2674,-0.027111584
2675,0.029504933
2676,-0.009445438
2677,-0.026712608
2678,-0.021346298
2679,-0.004861032
2680,-0.022222633
2681,0.039548608
2682,0.01108319
2683,0.045329742
2684,0.038515309
2685,-0.014335058
2686,0.033572883
2687,-0.099401149
2688,-0.021142449
2689,-0.048029431
2690,-0.063260915
2691,-0.067704411
2692,0.034356855
2693,0.011677227
2694,-0.003340569
2695,-0.038210444
2696,0.009602041
2697,0.057952155
2698,0.098754512
2699,-0.036904951
2700,0.091016612
2701,0.060442771
2702,0.019387807
2703,-0.047367144
2704,0.081658298
2705,0.070530703
2706,0.002138119
2707,0.052793779
2708,0.015198237
2709,-0.011286334
2710,-0.057513492
2711,-0.018612423
2712,0.031044702
2713,0.028626179
2714,-0.023690462
2715,0.017464244
2716,0.049302673
2717,0.077677495
2718,-0.016128107
2719,0.045898629
2720,0.072674583
2721,0.022323405
2722,0.041555437
2723,0.043032481
2724,0.041155369
2725,0.003734724
2726,0.044814762
2727,0.053548022
2728,0.041785724
2729,0.105939249
2730,-0.057260366
2731,0.006474499
2732,-0.017804107
2733,0.074206433
2734,-0.034404017
2735,0.024937485
2736,0.007912655
2737,-0.006548785
2738,-0.023591228
2739,-0.000707137
2740,0.042848491
2741,0.038068675
2742,0.068862499
2743,-0.019684554
2744,0.024561178
2745,-0.002722041
2746,-0.003521769
2747,0.004686255
2748,-0.010968593
2749,-0.082349036
2750,0.076108266
2751,0.005452292
2752,0.025857143
2753,-0.064493775
2754,-0.00075008
2755,-0.012557696
2756,-0.003729929
2757,-0.045382222
2758,0.001257774
2759,0.024452662
2760,0.125993212
2761,0.056675773
2762,-0.034882061
2763,0.01715393
2764,0.000210341
2765,-0.016298504
2766,0.022194829
2767,0.068071922
2768,0.018189668
2769,-0.081260978
2770,0.03150041
2771,0.032306985
2772,-0.026428177
2773,0.048321459
2774,-0.012198969
2775,-0.002499738
2776,0.007872829
2777,-0.083583739
2778,-0.029925243
2779,0.033089399
2780,-0.040356574
2781,0.110169241
2782,0.047380455
2783,-0.123594917
2784,0.008848555
2785,-0.031198235
2786,0.00916298
2787,0.01362306
2788,-0.031579886
2789,0.104854097
2790,0.006545852
2791,-0.03960761
2792,0.072802202
2793,0.115327473
2794,-0.008734638
2795,0.078997246
2796,-0.004667785
2797,0.023971273
2798,-0.069538533
2799,0.00688456
2800,-0.024088539
2801,0.003237106
2802,0.07513356
2803,0.02300022
2804,-0.013815173
2805,-0.013061928
2806,-0.002585048
2807,-0.024211526
2808,-0.09794834
2809,0.008921288
2810,0.057346455
2811,0.012851644
2812,-0.00868487
2813,-0.022077265
2814,-0.059530503
2815,-0.000172477
2816,0.02795685
2817,-0.001165532
2818,-0.005496819
2819,0.002282833
2820,-0.061470823
2821,0.044914051
2822,-0.066432739
2823,-0.041800366
2824,-4.55E-05
2825,0.008427042
2826,-0.02307378
2827,-0.014160473
2828,-0.001916646
2829,0.001027903
2830,0.072499077
2831,0.019156728
2832,0.062991932
2833,0.07889691
2834,0.001693413
2835,-0.040385749
2836,-0.033550807
2837,0.036889986
2838,0.118629071
2839,-0.043357651
2840,0.037608566
2841,-0.018884564
2842,-0.052202742
2843,0.020986008
2844,0.059190195
2845,0.001832498
2846,0.054366256
2847,0.011535292
2848,-0.006463144
2849,0.063947859
2850,-0.007409181
2851,-0.007898693
2852,0.087054059
2853,0.076057151
2854,0.004662915
2855,0.017284174
2856,0.060281096
2857,0.000545086
2858,-0.067636267
2859,-0.02634022
2860,0.092557578
2861,0.022443847
2862,0.059272213
2863,-0.084977409
2864,-0.020899105
2865,-0.014620046
2866,0.001491383
2867,0.014493569
2868,0.052982011
2869,0.029987811
2870,0.010492304
2871,-0.123158207
2872,0.090354355
2873,0.023446029
2874,0.022005052
2875,-0.109244966
2876,0.020436359
2877,-0.037438293
2878,0.113060102
2879,0.009793257
2880,-0.046304288
2881,-0.078835082
2882,0.05797082
2883,-0.013955486
2884,-0.029957889
2885,0.066031314
2886,0.075585523
2887,0.045121453
2888,0.071527725
2889,0.030872275
2890,-0.0093298
2891,0.008809342
2892,-0.018222854
2893,-0.117210943
2894,-0.048618072
2895,-0.095915294
2896,-0.014913223
2897,-0.021385729
2898,-0.021538713
2899,0.051838404
2900,0.067630811
2901,-0.084566994
2902,0.028247553
2903,0.000947556
2904,0.044099193
2905,0.012463575
2906,-0.08940707
2907,-0.002870075
2908,-0.049783388
2909,0.036366281
2910,0.013596859
2911,0.071031767
2912,-0.010141204
2913,0.046165404
2914,-0.006801533
2915,-0.025184903
2916,0.081304461
2917,-0.013883562
2918,0.104880755
2919,0.031058812
2920,-0.013956883
2921,0.102881776
2922,-0.089635548
2923,0.061609386
2924,-0.057127215
2925,-0.021208773
2926,0.082772581
2927,-0.080710434
2928,0.001462588
2929,0.01288301
2930,0.038818293
2931,0.156490304
2932,-0.08335315
2933,-0.046520263
2934,-0.031284115
2935,0.019912199
2936,0.007366018
2937,0.06491794
2938,0.043821363
2939,0.045578138
2940,-0.009788763
2941,0.037669557
2942,-0.049167123
2943,-0.048382345
2944,-0.081279434
2945,-0.009425177
2946,-0.004144998
2947,0.035408072
2948,0.042894156
2949,-0.018382183
2950,0.088301294
2951,-0.011683404
2952,0.005340226
2953,-0.086267241
2954,0.037655378
2955,0.064374697
2956,-0.093533686
2957,-0.01760151
2958,0.063137436
2959,-0.016593996
2960,0.000304196
2961,-0.064269853
2962,-0.017594574
2963,-0.034727533
2964,0.0342404
2965,-0.093553421
2966,0.047992254
2967,-0.009405064
2968,-0.040824124
2969,-0.018409623
2970,0.088474455
2971,0.035057814
2972,-0.108980375
2973,0.003048056
2974,0.016113111
2975,0.005674976
2976,-0.003669749
2977,-0.035683824
2978,0.018337033
2979,0.037306161
2980,0.018775749
2981,-0.013086983
2982,-0.001482725
2983,0.00101736
2984,-0.047457225
2985,-0.108037475
2986,0.00954494
2987,-0.068659876
2988,0.067898217
2989,-0.016630816
2990,0.007563178
2991,0.033982875
2992,-0.031879366
2993,-0.031584487
2994,-0.044736412
2995,0.056183646
2996,-0.018843447
2997,0.040109782
2998,-0.038260393
2999,0.027349177
3000,-0.046780208
3001,0.051129409
3002,-0.001788523
3003,0.063111019
3004,0.069648258
3005,-0.025098275
3006,-0.006499927
3007,0.098130887
3008,0.045830709
3009,0.01855972
3010,-0.033565398
3011,-0.003741099
3012,-0.042709443
3013,0.050495747
3014,0.074035663
3015,0.025519707
3016,0.015848526
3017,0.028583455
3018,-0.022398347
3019,-0.009659195
3020,0.04963456
3021,0.096025157
3022,-0.061622802
3023,-0.079326776
3024,-0.018107913
3025,0.058999447
3026,0.005627654
3027,-0.079741114
3028,0.016530372
3029,-0.08297764
3030,0.053995145
3031,-0.024250153
3032,-0.078969293
3033,0.133545846
3034,-0.032096839
3035,0.035144614
3036,0.011602158
3037,0.002597441
3038,-0.004761939
3039,0.008272976
3040,0.043675197
3041,-0.042710141
3042,-0.028268711
3043,-0.050110246
3044,-0.051859936
3045,-0.051531279
3046,0.045899408
3047,-0.034720771
3048,0.089567211
3049,-0.120527828
3050,-0.039458763
3051,-0.095992004
3052,-0.014912785
3053,0.091126801
3054,-0.059041648
3055,-0.02726065
3056,0.011995449
3057,0.034568389
3058,0.067226475
3059,-0.032921985
3060,0.061904245
3061,0.002072189
3062,-0.008699556
3063,-0.097892306
3064,0.034414654
3065,0.034900102
3066,-0.053113285
3067,-0.043607367
3068,0.002551225
3069,0.103052241
3070,-0.071019091
3071,0.036361728
3072,-0.028409576
3073,0.046323507
3074,-0.008561826
3075,-0.049134326
3076,-0.00030951
3077,-0.03486691
3078,-0.053216997
3079,0.014386859
3080,-0.022611687
3081,-0.01863741
3082,0.052328109
3083,0.041711339
3084,-0.096699987
3085,-0.042945377
3086,0.072996652
3087,0.065185189
3088,0.038884066
3089,0.045771744
3090,-0.005555495
3091,-0.087372589
3092,-0.076076574
3093,0.020212809
3094,-0.017677483
3095,-0.020197858
3096,-0.030811997
3097,0.017602071
3098,0.049417834
3099,0.039648814
3100,-0.045067138
3101,0.099870301
3102,0.029722258
3103,-0.028798875
3104,0.042940287
3105,0.018557664
3106,0.028969563
3107,0.043812062
3108,0.060628783
3109,-0.030624214
3110,-0.08639453
3111,0.009570694
3112,-0.014387771
3113,0.117432204
3114,-0.089299837
3115,0.040447501
3116,0.083492469
3117,-0.049804687
3118,0.042919001
3119,0.016280683
3120,0.050220272
3121,-0.033650572
3122,-0.064386742
3123,-0.069189847
3124,-0.003925904
3125,-0.040140625
3126,0.041650412
3127,0.005299931
3128,0.035794772
3129,-0.020936128
3130,-0.001946776
3131,-0.027414188
3132,0.012976488
3133,0.027074525
3134,-0.06389877
3135,0.011960527
3136,-0.015287088
3137,0.00273967
3138,-0.014645763
3139,0.072910095
3140,-0.09513348
3141,0.064645451
3142,-0.060347603
3143,0.111443446
3144,-0.00513245
3145,-0.031624858
3146,0.053119902
3147,-0.036566886
3148,0.087805422
3149,-0.08084938
3150,-0.053932829
3151,-0.017520467
3152,0.113559619
3153,0.026683295
3154,0.055613675
3155,-0.009108842
3156,0.008142536
3157,0.018517826
3158,-0.061320024
3159,0.013655695
3160,0.037178449
3161,-0.009147091
3162,-0.061061921
3163,-0.009392277
3164,0.01262925
3165,0.029481866
3166,0.000534331
3167,0.035039822
3168,0.009925797
3169,0.058374196
3170,-0.053566774
3171,-0.009728154
3172,-0.021657954
3173,0.011006251
3174,0.01762777
3175,-0.032962209
3176,-0.009622068
3177,-0.022081293
3178,0.00961079
3179,-0.00040358
3180,0.001505332
3181,-0.064482224
3182,-0.032312723
3183,0.068288278
3184,-0.139596713
3185,-0.022819397
3186,-0.041946175
3187,0.016151216
3188,0.060154243
3189,-0.031933551
3190,-0.009839063
3191,0.149104757
3192,-0.081794233
3193,0.047120675
3194,0.01836035
3195,0.058281599
3196,0.041842987
3197,-0.048186764
3198,-0.055532873
3199,0.085954481
3200,0.029811031
3201,-0.086332888
3202,-0.012257679
3203,0.008933624
3204,-0.074146947
3205,-0.039268794
3206,0.034391432
3207,0.012267173
3208,0.000643901
3209,0.014786513
3210,-0.060859078
3211,-0.020831441
3212,0.065580943
3213,-0.007184674
3214,-0.015967504
3215,-0.058230108
3216,0.00671739
3217,0.003694341
3218,0.061331532
3219,0.053211378
3220,-0.036858723
3221,-0.038824215
3222,0.018831138
3223,0.053659857
3224,-0.026685296
3225,-0.008742024
3226,-0.068605435
3227,0.078377648
3228,0.045670412
3229,0.082466021
3230,-0.041448866
3231,0.024279795
3232,-0.034076805
3233,-0.03830428
3234,0.040989575
3235,-0.029326626
3236,-0.009326224
3237,-0.047541971
3238,-0.068172388
3239,-0.032523432
3240,0.073119656
3241,-0.055578163
3242,0.02343928
3243,0.039530542
3244,-0.059469126
3245,-0.041387712
3246,-0.066367685
3247,0.006684949
3248,0.027265362
3249,-0.028903433
3250,0.031822635
3251,0.014465613
3252,0.03290555
3253,0.092119125
3254,-0.014047681
3255,0.015179804
3256,0.063559977
3257,0.002397583
3258,0.055070452
3259,-0.042764765
3260,0.029721558
3261,-0.032198367
3262,0.061558521
3263,0.004026419
3264,0.014530726
3265,-0.116996596
3266,0.086633013
3267,-0.013598333
3268,-0.029880605
3269,0.004844336
3270,0.021720205
3271,0.098599225
3272,0.070909312
3273,-0.060536067
3274,-0.000755466
3275,-0.031401414
3276,0.073904478
3277,-0.066617682
3278,0.036831097
3279,0.005881167
3280,0.069815259
3281,-0.036973572
3282,-0.011811741
3283,-0.017757552
3284,0.03337869
3285,0.005856846
3286,-0.120637769
3287,0.000742608
3288,-0.043221227
3289,0.002640646
3290,0.015064755
3291,-0.032362743
3292,0.026180116
3293,0.161682291
3294,-0.021253247
3295,-0.021853076
3296,0.020843909
3297,0.040016754
3298,-0.074656295
3299,-0.002852798
3300,0.014610292
3301,-0.008760372
3302,-0.012894728
3303,0.063270909
3304,-0.049893337
3305,0.015899314
3306,-0.046899475
3307,0.014094712
3308,0.019908584
3309,-0.004378054
3310,-0.016935559
3311,-0.046014753
3312,-0.119658162
3313,0.026785547
3314,-0.009440619
3315,0.034524175
3316,0.068811084
3317,-0.038913878
3318,-0.003182115
3319,-0.005663556
3320,0.09575474
3321,0.014225163
3322,0.010514522
3323,-0.025249067
3324,-0.052526402
3325,0.049144236
3326,-0.001037777
3327,-0.045534921
3328,-0.003484897
3329,-0.129731575
3330,-0.017299814
3331,-0.040274897
3332,0.048226811
3333,0.134042047
3334,-0.05219786
3335,0.059156268
3336,-0.00626125
3337,-0.050730526
3338,0.065181369
3339,0.010976148
3340,-0.005794083
3341,0.083153404
3342,-0.006909417
3343,0.036178099
3344,0.035607353
3345,-0.026588057
3346,-0.030467078
3347,0.101743692
3348,0.0101234
3349,0.030152512
3350,-0.039795958
3351,-0.007763463
3352,-0.067927215
3353,0.018179879
3354,-0.029415826
3355,0.084089269
3356,0.025566324
3357,-0.032879422
3358,0.043820174
3359,0.007004092
3360,0.026434698
3361,-0.108496047
3362,-0.045942095
3363,0.059174382
3364,-0.0380366
3365,0.005134185
3366,-0.026214845
3367,0.054967398
3368,-0.008644303
3369,0.049457133
3370,0.002610061
3371,0.0280155
3372,-0.061857924
3373,-0.005993069
3374,-0.054570376
3375,0.048577165
3376,-0.027499769
3377,0.03245853
3378,-0.031710616
3379,0.02917197
3380,0.044127011
3381,0.045473498
3382,-0.008684404
3383,-0.030317227
3384,-0.090697476
3385,0.00908426
3386,0.016930759
3387,-0.042336392
3388,0.048460612
3389,-0.018646026
3390,0.031176647
3391,-0.015222424
3392,0.005813739
3393,-0.11293914
3394,-0.057462123
3395,0.029404776
3396,0.013329034
3397,-0.039889163
3398,0.00467711
3399,-0.015618686
3400,0.104327382
3401,-0.058100603
3402,-0.041693523
3403,0.010648197
3404,0.093689186
3405,0.040901721
3406,0.018001174
3407,0.053129237
3408,-0.044322857
3409,0.03175793
3410,0.012231403
3411,-0.078294437
3412,-0.053780699
3413,0.009818523
3414,0.039327378
3415,-0.028654082
3416,0.000821359
3417,-0.06367296
3418,-0.054386492
3419,0.088449585
3420,0.014851784
3421,-0.042738369
3422,0.054557772
3423,0.051740336
3424,0.00540343
3425,-0.011071656
3426,-0.009297492
3427,0.003299074
3428,0.04919643
3429,0.023013815
3430,-0.001680118
3431,0.095958775
3432,-0.011841772
3433,-0.017106839
3434,-0.035721492
3435,0.071151171
3436,0.007572982
3437,0.009247938
3438,0.077030668
3439,-0.037302169
3440,0.062121611
3441,0.037090943
3442,-0.026710618
3443,0.014073966
3444,-0.053032557
3445,-0.043489744
3446,-0.064269515
3447,-0.020312029
3448,-0.047744226
3449,0.008141595
3450,-0.084456347
3451,0.051203148
3452,-0.022433163
3453,-0.016021267
3454,0.052266441
3455,0.001446795
3456,-0.062916345
3457,0.02105235
3458,-0.017385857
3459,-0.035011165
3460,-0.044747881
3461,-0.057400443
3462,0.00741565
3463,-0.02436352
3464,0.019762311
3465,-0.103737063
3466,-0.030021169
3467,0.033789809
3468,0.018111541
3469,0.084993329
3470,-0.035334047
3471,-0.057956174
3472,-0.035481244
3473,0.000282015
3474,-0.021321134
3475,0.013197394
3476,0.002625324
3477,0.019688897
3478,-0.075509843
3479,0.030656329
3480,0.043543546
3481,0.030383963
3482,-0.096689526
3483,0.146310594
3484,-0.055385595
3485,0.003497622
3486,0.003408248
3487,0.047828782
3488,0.032847392
3489,-0.014055868
3490,0.018542655
3491,-0.014376915
3492,0.041788931
3493,-0.076621306
3494,-0.040383335
3495,-0.097853305
3496,0.006719574
3497,0.070716856
3498,-0.005436248
3499,-0.010282093
3500,0.032393012
3501,-0.025340046
3502,0.086771305
3503,0.060129974
3504,-0.01100796
3505,-0.05575318
3506,0.074094077
3507,-0.068253983
3508,-0.024488524
3509,0.003368689
3510,0.008025764
3511,0.038113265
3512,-0.026832268
3513,-0.047727708
3514,0.019627144
3515,0.106383543
3516,-0.029064357
3517,0.019977842
3518,0.045365126
3519,-0.028063005
3520,0.026540185
3521,0.054982833
3522,0.031224258
3523,0.021751034
3524,0.091972622
3525,0.075231915
3526,0.049201957
3527,-0.022346782
3528,-0.013427354
3529,0.011778926
3530,0.048209991
3531,0.006734386
3532,0.032235804
3533,0.053255091
3534,0.050447331
3535,-0.034089484
3536,0.031615668
3537,-0.029008093
3538,-0.026786428
3539,0.028076205
3540,0.008412314
3541,0.025704736
3542,0.004460952
3543,-0.040398983
3544,-0.039636927
3545,-0.077216043
3546,0.050787643
3547,-0.023150039
3548,-0.059862429
3549,0.01202873
3550,0.00622257
3551,0.019624864
3552,-0.065240408
3553,0.024211935
3554,0.07955855
3555,0.028144693
3556,0.077338561
3557,-0.056036491
3558,-0.006222042
3559,0.036925747
3560,0.015648511
3561,-0.016721816
3562,-0.012006635
3563,0.041975566
3564,0.037398415
3565,0.021464901
3566,0.004088533
3567,-0.012133184
3568,-0.051225623
3569,0.011983535
3570,0.025654299
3571,0.111807644
3572,0.015382262
3573,0.051907499
3574,-0.039860536
3575,-0.035032488
3576,-0.000699655
3577,-0.076863574
3578,-0.091094347
3579,0.026915313
3580,-0.001878308
3581,0.038781419
3582,-0.063644333
3583,0.039116907
3584,-0.117343697
3585,-0.021674675
3586,0.006189907
3587,-0.06083891
3588,0.030047634
3589,-0.0525555
3590,-0.036436081
3591,-0.002219409
3592,-0.023393902
3593,0.036808557
3594,-0.008081835
3595,0.000197321
3596,0.027544828
3597,-0.005804696
3598,0.025706596
3599,0.025623456
3600,0.004120665
3601,0.051165974
3602,0.022322526
3603,-0.012783474
3604,-0.108556992
3605,0.077340697
3606,-0.009684186
3607,0.004499485
3608,0.035440498
3609,-0.077830129
3610,-0.041734458
3611,0.0039487
3612,-0.043097745
3613,-0.025350555
3614,0.059290078
3615,0.046391706
3616,0.109339149
3617,-0.002867531
3618,-0.015135323
3619,0.027290864
3620,0.067353823
3621,-0.024913137
3622,0.006435709
3623,-0.050167326
3624,-0.000555418
3625,0.019899775
3626,-0.044907442
3627,0.094828865
3628,-0.020399297
3629,0.04850572
3630,-0.063045325
3631,-0.023206238
3632,0.048660176
3633,0.079978061
3634,0.103163137
3635,-0.068578776
3636,-0.025544777
3637,-0.040532375
3638,-0.028127933
3639,-0.005937166
3640,0.052451331
3641,-0.048062176
3642,-0.034876135
3643,-0.096196756
3644,0.023431739
3645,0.062842941
3646,0.006578021
3647,-0.010573454
3648,-0.027927289
3649,0.033492703
3650,-0.082467777
3651,0.075669565
3652,0.036429341
3653,-0.002808259
3654,-0.021201837
3655,0.028801154
3656,0.031875075
3657,-0.021850795
3658,0.025544707
3659,-0.013786358
3660,-0.034333613
3661,0.013863108
3662,0.054462858
3663,0.045275138
3664,0.020216799
3665,-0.02116964
3666,0.071430542
3667,-0.027490631
3668,-0.095187133
3669,-0.074883496
3670,-0.02371495
3671,-0.03949066
3672,-0.049512057
3673,-0.050014528
3674,0.009401267
3675,-0.019608303
3676,-0.007871688
3677,0.056938494
3678,-0.045046249
3679,-0.016488322
3680,0.022141088
3681,0.04405265
3682,-0.025441993
3683,0.010442216
3684,0.016464767
3685,-0.07130003
3686,-0.078034962
3687,0.032623416
3688,-0.036544851
3689,-0.02057468
3690,-0.001052475
3691,0.030862508
3692,-0.003221634
3693,-0.005009395
3694,0.059923176
3695,-0.043045756
3696,0.028429098
3697,0.004768207
3698,-0.045878853
3699,0.061436644
3700,0.036246156
3701,-0.069513257
3702,0.049482348
3703,0.063593303
3704,0.071918157
3705,0.013054177
3706,0.014288772
3707,-0.065018444
3708,-0.025734994
3709,-0.04516775
3710,-0.041121896
3711,0.002307684
3712,-0.096057117
3713,0.073697517
3714,0.014896705
3715,0.04472086
3716,-0.018438858
3717,0.02705375
3718,0.001809083
3719,0.026460522
3720,-0.005598451
3721,0.012554977
3722,0.050299963
3723,-0.01837001
3724,-0.02550092
3725,-0.049067762
3726,0.021633772
3727,-0.057392682
3728,-0.031851564
3729,0.060814097
3730,-0.030575071
3731,-0.004359122
3732,0.022519037
3733,-0.026934323
3734,-0.021961935
3735,-0.028214331
3736,-0.060575762
3737,0.00084377
3738,0.048447097
3739,-0.004197376
3740,-0.100596656
3741,0.066444026
3742,-0.03701971
3743,-0.040894907
3744,-0.10570962
3745,-0.031132246
3746,-0.020782674
3747,-0.056215522
3748,0.126931716
3749,-0.055680942
3750,-0.003588843
3751,0.022100616
3752,-0.00580279
3753,0.008031355
3754,-0.024682537
3755,-0.021953689
3756,0.058114968
3757,-0.068760504
3758,0.013942467
3759,-0.001148455
3760,-0.011574465
3761,0.049561995
3762,0.04904764
3763,-0.004099378
3764,-0.089139173
3765,0.131107106
3766,-0.024341356
3767,0.036672017
3768,0.09027647
3769,0.050089025
3770,0.0543753
3771,0.008193654
3772,0.010952299
3773,-0.042273479
3774,-0.000329432
3775,0.048533487
3776,0.013606249
3777,0.011012512
3778,-0.057514487
3779,0.000890579
3780,-0.031541702
3781,-0.007337947
3782,0.002061097
3783,-0.045448189
3784,-0.022659159
3785,-0.02460689
3786,-0.009627439
3787,-0.018883264
3788,0.02423746
3789,-0.023259222
3790,0.060456917
3791,-0.033343368
3792,-0.037108723
3793,-0.055879255
3794,-0.083376629
3795,-0.01279792
3796,-0.01129192
3797,0.028708196
3798,-0.005865343
3799,0.019009564
3800,-0.005157541
3801,-0.002288163
3802,0.075625996
3803,-0.003217463
3804,-0.030150116
3805,0.002500223
3806,-0.028821547
3807,-0.058746971
3808,0.040334764
3809,-0.085829572
3810,0.068243682
3811,0.068189947
3812,0.056598689
3813,-0.035760277
3814,-0.028382656
3815,-0.045850322
3816,-0.057950985
3817,0.107216415
3818,0.045897598
3819,-0.058080358
3820,0.015509804
3821,0.000990108
3822,0.043105643
3823,0.049074956
3824,-0.038340422
3825,-0.043528659
3826,-0.045324529
3827,-0.030118426
3828,0.038425977
3829,0.03537763
3830,0.039131068
3831,-0.025019069
3832,-0.006179587
3833,-0.034732844
3834,0.085698734
3835,0.052809947
3836,0.091985949
3837,-0.056872015
3838,-0.034531912
3839,-0.054445835
3840,0.036064344
3841,0.0150375
3842,0.015152149
3843,0.00915683
3844,0.052149689
3845,-0.017947351
3846,-0.010818926
3847,0.03895
3848,0.017536022
3849,0.019507609
3850,0.032633639
3851,-0.010786277
3852,-0.036828014
3853,-0.100598494
3854,0.055157235
3855,-0.071790011
3856,-0.065024651
3857,0.023956779
3858,-0.079530423
3859,0.014698647
3860,-0.071370634
3861,-0.047798537
3862,-0.015970811
3863,-0.010371991
3864,0.006040829
3865,0.062788419
3866,-0.025326326
3867,-0.044784857
3868,-0.041367292
3869,0.024084607
3870,-0.047030512
3871,-0.065262291
3872,0.038373927
3873,0.042255608
3874,-0.006646755
3875,0.048345673
3876,0.014114256
3877,-0.063892165
3878,0.043686703
3879,-0.018782632
3880,-0.086435812
3881,0.011829603
3882,-0.081721857
3883,0.011215304
3884,-0.028353478
3885,0.017638514
3886,-0.075871263
3887,0.004271385
3888,-0.058591747
3889,-0.030444637
3890,-0.021232979
3891,0.050433786
3892,-0.041787616
3893,0.021643391
3894,-0.080410066
3895,-0.059207015
3896,-0.00015475
3897,0.085032324
3898,-0.084023914
3899,-0.047202196
3900,0.030596893
3901,-0.059502247
3902,0.066042467
3903,0.063041264
3904,-0.029281853
3905,-0.029264497
3906,0.126498062
3907,-0.001175935
3908,-0.003773978
3909,0.020660118
3910,0.010663421
3911,0.010738465
3912,0.006570774
3913,0.074360339
3914,-0.003826489
3915,0.029849743
3916,-0.012504325
3917,0.042441026
3918,-0.075406532
3919,0.008954522
3920,0.024573367
3921,0.033103902
3922,0.012037448
3923,-0.038385969
3924,-0.060178956
3925,0.062736823
3926,-0.036675327
3927,-0.070040089
3928,-0.025449936
3929,-0.029074632
3930,-0.00656991
3931,0.036385131
3932,-0.013167885
3933,0.05475508
3934,0.054213259
3935,-0.004579409
3936,0.108126221
3937,0.027464294
3938,0.000676734
3939,-0.003218014
3940,0.028995169
3941,0.009030399
3942,0.038249745
3943,-0.040788794
3944,-0.023921931
3945,-0.00929502
3946,0.008289869
3947,0.010224684
3948,-0.000221938
3949,0.099497405
3950,-0.028477535
3951,0.016865365
3952,0.009860687
3953,-0.007094268
3954,-0.023634714
3955,-0.041539057
3956,0.049583525
3957,-0.08459667
3958,-0.01375943
3959,-0.025273978
3960,0.040941425
3961,-0.047043854
3962,-0.02091404
3963,0.034966687
3964,0.012808468
3965,-0.019137731
3966,0.008879899
3967,0.058294314
3968,-0.026320917
3969,0.074813174
3970,0.040534035
3971,0.020813805
3972,0.017100182
3973,-0.048965172
3974,-0.013790885
3975,-0.032406102
3976,0.017575453
3977,-0.048061668
3978,-0.081144666
3979,0.101768492
3980,0.00070956
3981,0.040267161
3982,0.069747888
3983,-0.006558898
3984,-0.047420167
3985,-0.069180168
3986,0.019957164
3987,0.069963224
3988,0.062215585
3989,0.043314604
3990,-0.034980839
3991,-0.023897662
3992,0.045928482
3993,0.104652892
3994,-0.058790461
3995,0.000749905
3996,0.001149782
3997,0.032173587
3998,-0.007566077
3999,0.123891324
4000,0.109081081
