Raman shift,Intensity
777.13729,1453.91343
778.8132,1452.81038
780.4891,1450.60427
782.16501,1449.50121
783.84091,1448.39816
785.51682,1447.2951
787.19272,1447.2951
788.86863,1447.2951
790.54453,1446.19204
792.22044,1445.08899
793.89634,1445.08899
795.57225,1443.98593
797.24815,1442.88288
798.92406,1442.88288
800.59996,1440.67677
802.27587,1439.57371
803.95177,1438.47066
805.62768,1437.3676
807.30358,1435.16149
808.97949,1434.05844
810.65539,1430.74927
812.3313,1429.64622
814.0072,1427.44011
815.68311,1425.234
817.35901,1423.02789
819.03492,1420.82178
820.71082,1418.61567
822.38673,1418.61567
824.06263,1419.71872
825.73854,1421.92483
827.41444,1424.13094
829.09035,1426.33705
830.76625,1427.44011
832.44216,1429.64622
834.11806,1430.74927
835.79397,1431.85233
837.46987,1432.95538
839.14578,1434.05844
840.82168,1434.05844
842.49759,1435.16149
844.17349,1435.16149
845.8494,1436.26455
847.5253,1436.26455
849.20121,1437.3676
850.87711,1438.47066
852.55301,1439.57371
854.22892,1439.57371
855.90482,1439.57371
857.58073,1438.47066
859.25663,1438.47066
860.93254,1438.47066
862.60844,1437.3676
864.28435,1437.3676
865.96025,1437.3676
867.63616,1436.26455
869.31206,1436.26455
870.98797,1435.16149
872.66387,1432.95538
874.33978,1432.95538
876.01568,1431.85233
877.69159,1429.64622
879.36749,1427.44011
881.0434,1426.33705
882.7193,1424.13094
884.39521,1421.92483
886.07111,1420.82178
887.74702,1418.61567
889.42292,1417.51261
891.09883,1416.40956
892.77473,1416.40956
894.45064,1417.51261
896.12654,1419.71872
897.80245,1420.82178
899.47835,1423.02789
901.15426,1425.234
902.83016,1427.44011
904.50607,1429.64622
906.18197,1432.95538
907.85788,1434.05844
909.53378,1437.3676
911.20969,1439.57371
912.88559,1442.88288
914.5615,1445.08899
916.2374,1447.2951
917.91331,1450.60427
919.58921,1452.81038
921.26512,1453.91343
922.94102,1456.11954
924.61693,1457.2226
926.29283,1458.32565
927.96874,1459.42871
929.64464,1459.42871
931.32055,1458.32565
932.99645,1458.32565
934.67235,1458.32565
936.34826,1459.42871
938.02416,1459.42871
939.70007,1460.53176
941.37597,1460.53176
943.05188,1459.42871
944.72778,1458.32565
946.40369,1457.2226
948.07959,1455.01649
949.7555,1453.91343
951.4314,1452.81038
953.10731,1452.81038
954.78321,1455.01649
956.45912,1457.2226
958.13502,1460.53176
959.81093,1463.84093
961.48683,1466.04704
963.16274,1469.3562
964.83864,1471.56231
966.51455,1473.76842
968.19045,1477.07759
969.86636,1478.18064
971.54226,1479.2837
973.21817,1479.2837
974.89407,1478.18064
976.56998,1477.07759
978.24588,1475.97453
979.92179,1473.76842
981.59769,1469.3562
983.2736,1467.15009
984.9495,1463.84093
986.62541,1460.53176
988.30131,1456.11954
989.97722,1452.81038
991.65312,1449.50121
993.32903,1447.2951
995.00493,1445.08899
996.68084,1445.08899
998.35674,1446.19204
1000.03265,1448.39816
1001.70855,1451.70732
1003.38446,1455.01649
1005.06036,1458.32565
1006.73627,1460.53176
1008.41217,1463.84093
1010.08808,1467.15009
1011.76398,1470.45926
1013.43989,1473.76842
1015.11579,1475.97453
1016.79169,1479.2837
1018.4676,1482.59287
1020.1435,1484.79898
1021.81941,1485.90203
1023.49531,1487.00509
1025.17122,1487.00509
1026.84712,1485.90203
1028.52303,1484.79898
1030.19893,1483.69592
1031.87484,1482.59287
1033.55074,1482.59287
1035.22665,1482.59287
1036.90255,1484.79898
1038.57846,1485.90203
1040.25436,1487.00509
1041.93027,1489.2112
1043.60617,1490.31425
1045.28208,1490.31425
1046.95798,1490.31425
1048.63389,1489.2112
1050.30979,1488.10814
1051.9857,1485.90203
1053.6616,1484.79898
1055.33751,1482.59287
1057.01341,1480.38675
1058.68932,1478.18064
1060.36522,1474.87148
1062.04113,1472.66537
1063.71703,1471.56231
1065.39294,1468.25315
1067.06884,1466.04704
1068.74475,1463.84093
1070.42065,1462.73787
1072.09656,1461.63482
1073.77246,1461.63482
1075.44837,1462.73787
1077.12427,1464.94398
1078.80018,1467.15009
1080.47608,1468.25315
1082.15199,1470.45926
1083.82789,1471.56231
1085.5038,1471.56231
1087.1797,1470.45926
1088.85561,1468.25315
1090.53151,1467.15009
1092.20742,1466.04704
1093.88332,1463.84093
1095.55923,1462.73787
1097.23513,1461.63482
1098.91104,1460.53176
1100.58694,1459.42871
1102.26284,1459.42871
1103.93875,1460.53176
1105.61465,1461.63482
1107.29056,1462.73787
1108.96646,1464.94398
1110.64237,1466.04704
1112.31827,1468.25315
1113.99418,1469.3562
1115.67008,1470.45926
1117.34599,1470.45926
1119.02189,1469.3562
1120.6978,1467.15009
1122.3737,1464.94398
1124.04961,1461.63482
1125.72551,1459.42871
1127.40142,1456.11954
1129.07732,1452.81038
1130.75323,1449.50121
1132.42913,1445.08899
1134.10504,1441.77982
1135.78094,1439.57371
1137.45685,1436.26455
1139.13275,1434.05844
1140.80866,1432.95538
1142.48456,1431.85233
1144.16047,1430.74927
1145.83637,1430.74927
1147.51228,1430.74927
1149.18818,1430.74927
1150.86409,1430.74927
1152.53999,1430.74927
1154.2159,1431.85233
1155.8918,1431.85233
1157.56771,1432.95538
1159.24361,1434.05844
1160.91952,1435.16149
1162.59542,1435.16149
1164.27133,1435.16149
1165.94723,1432.95538
1167.62314,1432.95538
1169.29904,1430.74927
1170.97495,1429.64622
1172.65085,1428.54316
1174.32676,1427.44011
1176.00266,1426.33705
1177.67857,1425.234
1179.35447,1424.13094
1181.03038,1423.02789
1182.70628,1420.82178
1184.38218,1419.71872
1186.05809,1417.51261
1187.73399,1415.3065
1189.4099,1413.10039
1191.0858,1410.89428
1192.76171,1410.89428
1194.43761,1413.10039
1196.11352,1415.3065
1197.78942,1418.61567
1199.46533,1421.92483
1201.14123,1423.02789
1202.81714,1426.33705
1204.49304,1428.54316
1206.16895,1429.64622
1207.84485,1430.74927
1209.52076,1431.85233
1211.19666,1431.85233
1212.87257,1430.74927
1214.54847,1429.64622
1216.22438,1428.54316
1217.90028,1427.44011
1219.57619,1426.33705
1221.25209,1424.13094
1222.928,1421.92483
1224.6039,1419.71872
1226.27981,1418.61567
1227.95571,1416.40956
1229.63162,1414.20345
1231.30752,1413.10039
1232.98343,1413.10039
1234.65933,1415.3065
1236.33524,1416.40956
1238.01114,1418.61567
1239.68705,1420.82178
1241.36295,1421.92483
1243.03886,1423.02789
1244.71476,1424.13094
1246.39067,1423.02789
1248.06657,1421.92483
1249.74248,1420.82178
1251.41838,1419.71872
1253.09429,1419.71872
1254.77019,1419.71872
1256.4461,1420.82178
1258.122,1421.92483
1259.79791,1424.13094
1261.47381,1425.234
1263.14972,1426.33705
1264.82562,1428.54316
1266.50152,1430.74927
1268.17743,1432.95538
1269.85333,1435.16149
1271.52924,1437.3676
1273.20514,1438.47066
1274.88105,1440.67677
1276.55695,1442.88288
1278.23286,1443.98593
1279.90876,1445.08899
1281.58467,1445.08899
1283.26057,1443.98593
1284.93648,1442.88288
1286.61238,1440.67677
1288.28829,1439.57371
1289.96419,1438.47066
1291.6401,1437.3676
1293.316,1436.26455
1294.99191,1436.26455
1296.66781,1436.26455
1298.34372,1436.26455
1300.01962,1437.3676
1301.69553,1437.3676
1303.37143,1437.3676
1305.04734,1438.47066
1306.72324,1438.47066
1308.39915,1439.57371
1310.07505,1439.57371
1311.75096,1438.47066
1313.42686,1437.3676
1315.10277,1436.26455
1316.77867,1435.16149
1318.45458,1431.85233
1320.13048,1430.74927
1321.80639,1427.44011
1323.48229,1426.33705
1325.1582,1423.02789
1326.8341,1420.82178
1328.51001,1418.61567
1330.18591,1417.51261
1331.86182,1416.40956
1333.53772,1415.3065
1335.21363,1416.40956
1336.88953,1417.51261
1338.56544,1418.61567
1340.24134,1420.82178
1341.91725,1423.02789
1343.59315,1424.13094
1345.26906,1427.44011
1346.94496,1429.64622
1348.62087,1430.74927
1350.29677,1432.95538
1351.97267,1432.95538
1353.64858,1432.95538
1355.32448,1431.85233
1357.00039,1430.74927
1358.67629,1428.54316
1360.3522,1426.33705
1362.0281,1424.13094
1363.70401,1421.92483
1365.37991,1418.61567
1367.05582,1415.3065
1368.73172,1414.20345
1370.40763,1411.99733
1372.08353,1411.99733
1373.75944,1413.10039
1375.43534,1415.3065
1377.11125,1418.61567
1378.78715,1420.82178
1380.46306,1424.13094
1382.13896,1426.33705
1383.81487,1430.74927
1385.49077,1434.05844
1387.16668,1437.3676
1388.84258,1440.67677
1390.51849,1442.88288
1392.19439,1447.2951
1393.8703,1449.50121
1395.5462,1450.60427
1397.22211,1451.70732
1398.89801,1451.70732
1400.57392,1450.60427
1402.24982,1448.39816
1403.92573,1446.19204
1405.60163,1443.98593
1407.27754,1442.88288
1408.95344,1440.67677
1410.62935,1439.57371
1412.30525,1440.67677
1413.98116,1440.67677
1415.65706,1440.67677
1417.33297,1441.77982
1419.00887,1441.77982
1420.68478,1441.77982
1422.36068,1442.88288
1424.03659,1442.88288
1425.71249,1443.98593
1427.3884,1445.08899
1429.0643,1446.19204
1430.74021,1447.2951
1432.41611,1448.39816
1434.09201,1449.50121
1435.76792,1450.60427
1437.44382,1450.60427
1439.11973,1448.39816
1440.79563,1446.19204
1442.47154,1443.98593
1444.14744,1441.77982
1445.82335,1438.47066
1447.49925,1436.26455
1449.17516,1434.05844
1450.85106,1431.85233
1452.52697,1429.64622
1454.20287,1428.54316
1455.87878,1427.44011
1457.55468,1425.234
1459.23059,1424.13094
1460.90649,1423.02789
1462.5824,1421.92483
1464.2583,1420.82178
1465.93421,1419.71872
1467.61011,1419.71872
1469.28602,1420.82178
1470.96192,1421.92483
1472.63783,1424.13094
1474.31373,1428.54316
1475.98964,1431.85233
1477.66554,1435.16149
1479.34145,1439.57371
1481.01735,1443.98593
1482.69326,1448.39816
1484.36916,1452.81038
1486.04507,1456.11954
1487.72097,1460.53176
1489.39688,1463.84093
1491.07278,1467.15009
1492.74869,1468.25315
1494.42459,1468.25315
1496.1005,1466.04704
1497.7764,1463.84093
1499.45231,1461.63482
1501.12821,1458.32565
1502.80412,1453.91343
1504.48002,1449.50121
1506.15593,1445.08899
1507.83183,1440.67677
1509.50774,1436.26455
1511.18364,1431.85233
1512.85955,1429.64622
1514.53545,1427.44011
1516.21135,1428.54316
1517.88726,1432.95538
1519.56316,1437.3676
1521.23907,1442.88288
1522.91497,1447.2951
1524.59088,1452.81038
1526.26678,1458.32565
1527.94269,1463.84093
1529.61859,1469.3562
1531.2945,1471.56231
1532.9704,1474.87148
1534.64631,1478.18064
1536.32221,1481.48981
1558.10898,1488.10814
1559.78488,1489.2112
1561.46079,1490.31425
1563.13669,1490.31425
1564.8126,1490.31425
1566.4885,1490.31425
1568.16441,1489.2112
1569.84031,1488.10814
1571.51622,1484.79898
1573.19212,1482.59287
1574.86803,1480.38675
1576.54393,1478.18064
1578.21984,1474.87148
1579.89574,1472.66537
1581.57165,1469.3562
1583.24755,1468.25315
1584.92346,1464.94398
1586.59936,1462.73787
1588.27527,1461.63482
1589.95117,1460.53176
1591.62708,1459.42871
1593.30298,1458.32565
1594.97889,1458.32565
1596.65479,1458.32565
1598.3307,1457.2226
1598.3307,1457.2226
1600.0066,1457.2226
1600.0066,1457.2226
1601.6825,1457.2226
1601.6825,1457.2226
1603.35841,1456.11954
1603.35841,1456.11954
1605.03431,1456.11954
1605.03431,1456.11954
1606.71022,1456.11954
1606.71022,1456.11954
1608.38612,1456.11954
1608.38612,1456.11954
1610.06203,1456.11954
1610.06203,1456.11954
1611.73793,1455.01649
1611.73793,1455.01649
1613.41384,1455.01649
1613.41384,1455.01649
1615.08974,1456.11954
1615.08974,1456.11954
1616.76565,1456.11954
1616.76565,1456.11954
1618.44155,1456.11954
1618.44155,1456.11954
1620.11746,1456.11954
1620.11746,1456.11954
1621.79336,1456.11954
1621.79336,1456.11954
1623.46927,1456.11954
1623.46927,1456.11954
1625.14517,1455.01649
1625.14517,1455.01649
1626.82108,1455.01649
1626.82108,1455.01649
1628.49698,1455.01649
1628.49698,1455.01649
1630.17289,1455.01649
1630.17289,1455.01649
1631.84879,1455.01649
1631.84879,1455.01649
1633.5247,1456.11954
1633.5247,1456.11954
1635.2006,1456.11954
1635.2006,1456.11954
1636.87651,1456.11954
1636.87651,1456.11954
1638.55241,1456.11954
1638.55241,1456.11954
1640.22832,1455.01649
1640.22832,1455.01649
1641.90422,1453.91343
1641.90422,1453.91343
1643.58013,1451.70732
1643.58013,1451.70732
1645.25603,1448.39816
1645.25603,1448.39816
1646.93194,1447.2951
1646.93194,1447.2951
1648.60784,1446.19204
1648.60784,1446.19204
1650.28375,1443.98593
1650.28375,1443.98593
1651.95965,1442.88288
1651.95965,1442.88288
1653.63556,1443.98593
1653.63556,1443.98593
1655.31146,1443.98593
1655.31146,1443.98593
1656.98737,1445.08899
1656.98737,1445.08899
1658.66327,1445.08899
1658.66327,1445.08899
1660.33918,1443.98593
1660.33918,1443.98593
1662.01508,1442.88288
1663.69099,1442.88288
1665.36689,1441.77982
1667.0428,1440.67677
1668.7187,1440.67677
1670.39461,1440.67677
1672.07051,1441.77982
1673.74642,1441.77982
1675.42232,1442.88288
1677.09823,1443.98593
1678.77413,1445.08899
1680.45004,1443.98593
1682.12594,1445.08899
1683.80184,1443.98593
1685.47775,1445.08899
1687.15365,1445.08899
1688.82956,1445.08899
1690.50546,1446.19204
1692.18137,1446.19204
1693.85727,1447.2951
1695.53318,1447.2951
1697.20908,1446.19204
1698.88499,1445.08899
1700.56089,1443.98593
1702.2368,1441.77982
1703.9127,1439.57371
1705.58861,1438.47066
1707.26451,1436.26455
1708.94042,1435.16149
1710.61632,1434.05844
1712.29223,1432.95538
1713.96813,1431.85233
1715.64404,1431.85233
1717.31994,1431.85233
1718.99585,1432.95538
1720.67175,1434.05844
1722.34766,1435.16149
1724.02356,1436.26455
1725.69947,1437.3676
1727.37537,1437.3676
1729.05128,1438.47066
1730.72718,1438.47066
1732.40309,1437.3676
1734.07899,1436.26455
1735.7549,1435.16149
1737.4308,1435.16149
1739.10671,1432.95538
1740.78261,1431.85233
1742.45852,1430.74927
1744.13442,1428.54316
1745.81033,1427.44011
1747.48623,1427.44011
1749.16214,1426.33705
1750.83804,1426.33705
1752.51395,1427.44011
1754.18985,1428.54316
1755.86576,1429.64622
1757.54166,1431.85233
1759.21757,1432.95538
1760.89347,1435.16149
1762.56938,1437.3676
1764.24528,1437.3676
1765.92118,1438.47066
1767.59709,1438.47066
1769.27299,1437.3676
1770.9489,1437.3676
1772.6248,1436.26455
1774.30071,1435.16149
1775.97661,1435.16149
1777.65252,1434.05844
1779.32842,1432.95538
1781.00433,1431.85233
1782.68023,1431.85233
1784.35614,1431.85233
1786.03204,1431.85233
1787.70795,1431.85233
1789.38385,1432.95538
1791.05976,1432.95538
1792.73566,1434.05844
1794.41157,1435.16149
1796.08747,1436.26455
1797.76338,1438.47066
1799.43928,1438.47066
1801.11519,1440.67677
1802.79109,1440.67677
1804.467,1439.57371
1806.1429,1438.47066
1807.81881,1438.47066
1809.49471,1437.3676
1811.17062,1436.26455
1812.84652,1435.16149
1814.52243,1434.05844
1816.19833,1432.95538
1817.87424,1431.85233
1819.55014,1430.74927
1821.22605,1429.64622
1822.90195,1429.64622
1824.57786,1428.54316
1826.25376,1428.54316
1827.92967,1427.44011
1829.60557,1426.33705
1831.28148,1425.234
1832.95738,1424.13094
1834.63329,1421.92483
1836.30919,1420.82178
1837.9851,1419.71872
1839.661,1418.61567
1841.33691,1418.61567
1843.01281,1418.61567
1844.68872,1419.71872
1846.36462,1419.71872
1848.04052,1420.82178
1849.71643,1421.92483
1851.39233,1423.02789
1853.06824,1424.13094
1854.74414,1425.234
1856.42005,1426.33705
1858.09595,1427.44011
1859.77186,1428.54316
1861.44776,1429.64622
1863.12367,1430.74927
1864.79957,1432.95538
1866.47548,1434.05844
1868.15138,1434.05844
1869.82729,1435.16149
1871.50319,1435.16149
1873.1791,1435.16149
1874.855,1435.16149
1876.53091,1434.05844
1878.20681,1432.95538
1879.88272,1431.85233
1881.55862,1431.85233
1883.23453,1430.74927
1884.91043,1429.64622
1886.58634,1429.64622
1888.26224,1429.64622
1889.93815,1428.54316
1891.61405,1429.64622
1893.28996,1428.54316
1894.96586,1429.64622
1896.64177,1431.85233
1898.31767,1432.95538
1899.99358,1435.16149
1901.66948,1437.3676
1903.34539,1439.57371
1905.02129,1441.77982
1906.6972,1443.98593
1908.3731,1445.08899
1910.04901,1447.2951
1911.72491,1449.50121
1913.40082,1449.50121
1915.07672,1448.39816
1916.75263,1445.08899
1918.42853,1443.98593
1920.10444,1441.77982
1921.78034,1439.57371
1923.45625,1437.3676
1925.13215,1436.26455
1926.80806,1436.26455
1928.48396,1436.26455
1930.15987,1436.26455
1931.83577,1437.3676
1933.51167,1437.3676
1935.18758,1437.3676
1936.86348,1437.3676
1938.53939,1437.3676
1940.21529,1437.3676
1941.8912,1437.3676
1943.5671,1437.3676
1945.24301,1436.26455
1946.91891,1436.26455
1948.59482,1435.16149
1950.27072,1434.05844
1951.94663,1432.95538
1953.62253,1431.85233
1955.29844,1430.74927
1956.97434,1429.64622
1958.65025,1427.44011
1960.32615,1427.44011
1962.00206,1425.234
1963.67796,1425.234
1965.35387,1425.234
1967.02977,1425.234
1968.70568,1426.33705
1970.38158,1426.33705
1972.05749,1426.33705
1973.73339,1427.44011
1975.4093,1427.44011
1977.0852,1427.44011
1978.76111,1427.44011
1980.43701,1427.44011
1982.11292,1427.44011
1983.78882,1427.44011
1985.46473,1426.33705
1987.14063,1426.33705
1988.81654,1426.33705
1990.49244,1425.234
1992.16835,1425.234
1993.84425,1425.234
1995.52016,1425.234
1997.19606,1425.234
1998.87197,1424.13094
2000.54787,1424.13094
2002.22378,1423.02789
2003.89968,1421.92483
2005.57559,1421.92483
2007.25149,1421.92483
2008.9274,1423.02789
2010.6033,1424.13094
2012.27921,1426.33705
2013.95511,1427.44011
2015.63101,1428.54316
2017.30692,1429.64622
2018.98282,1430.74927
2020.65873,1431.85233
2022.33463,1431.85233
2024.01054,1431.85233
2025.68644,1430.74927
2027.36235,1429.64622
2029.03825,1428.54316
2030.71416,1426.33705
2032.39006,1425.234
2034.06597,1423.02789
2035.74187,1420.82178
2037.41778,1419.71872
2039.09368,1417.51261
2040.76959,1416.40956
2042.44549,1415.3065
2044.1214,1414.20345
2045.7973,1414.20345
2047.47321,1415.3065
2049.14911,1416.40956
2050.82502,1417.51261
2052.50092,1420.82178
2054.17683,1423.02789
2055.85273,1424.13094
2057.52864,1427.44011
2059.20454,1429.64622
2060.88045,1431.85233
2062.55635,1434.05844
2064.23226,1435.16149
2065.90816,1436.26455
2067.58407,1436.26455
2069.25997,1436.26455
2070.93588,1435.16149
2072.61178,1435.16149
2074.28769,1435.16149
2075.96359,1435.16149
2077.6395,1435.16149
2079.3154,1434.05844
2080.99131,1432.95538
2082.66721,1430.74927
2084.34312,1428.54316
2086.01902,1426.33705
2087.69493,1423.02789
2089.37083,1421.92483
2091.04674,1419.71872
2092.72264,1417.51261
2094.39855,1415.3065
2096.07445,1414.20345
2097.75035,1414.20345
2099.42626,1415.3065
2101.10216,1416.40956
2102.77807,1417.51261
2104.45397,1419.71872
2106.12988,1423.02789
2107.80578,1426.33705
2109.48169,1428.54316
2111.15759,1431.85233
2112.8335,1435.16149
2114.5094,1438.47066
2116.18531,1441.77982
2117.86121,1443.98593
2119.53712,1445.08899
2121.21302,1447.2951
2122.88893,1446.19204
2124.56483,1445.08899
2126.24074,1443.98593
2127.91664,1442.88288
2129.59255,1440.67677
2131.26845,1438.47066
2132.94436,1436.26455
2134.62026,1435.16149
2136.29617,1434.05844
2137.97207,1432.95538
2139.64798,1431.85233
2141.32388,1432.95538
2142.99979,1432.95538
2144.67569,1434.05844
2146.3516,1434.05844
2148.0275,1432.95538
2149.70341,1432.95538
2151.37931,1431.85233
2153.05522,1430.74927
2154.73112,1430.74927
2156.40703,1429.64622
2158.08293,1428.54316
2159.75884,1427.44011
2161.43474,1426.33705
2163.11065,1425.234
2164.78655,1424.13094
2166.46246,1424.13094
2168.13836,1424.13094
2169.81427,1424.13094
2171.49017,1424.13094
2173.16608,1425.234
2174.84198,1425.234
2176.51789,1425.234
2178.19379,1426.33705
2179.8697,1426.33705
2181.5456,1427.44011
2183.2215,1428.54316
2184.89741,1429.64622
2186.57331,1431.85233
2188.24922,1432.95538
2189.92512,1434.05844
2191.60103,1435.16149
2193.27693,1436.26455
2194.95284,1437.3676
2196.62874,1438.47066
2198.30465,1438.47066
2199.98055,1439.57371
2201.65646,1440.67677
2203.33236,1440.67677
2205.00827,1441.77982
2206.68417,1441.77982
2208.36008,1442.88288
2210.03598,1442.88288
2211.71189,1443.98593
2213.38779,1442.88288
2215.0637,1442.88288
2216.7396,1442.88288
2218.41551,1441.77982
2220.09141,1441.77982
2221.76732,1442.88288
2223.44322,1443.98593
2225.11913,1443.98593
2226.79503,1445.08899
2228.47094,1446.19204
2230.14684,1446.19204
2231.82275,1447.2951
2233.49865,1448.39816
2235.17456,1448.39816
2236.85046,1447.2951
2238.52637,1447.2951
2240.20227,1446.19204
2241.87818,1443.98593
2243.55408,1442.88288
2245.22999,1441.77982
2246.90589,1439.57371
2248.5818,1438.47066
2250.2577,1437.3676
2251.93361,1436.26455
2253.60951,1435.16149
2255.28542,1435.16149
2256.96132,1434.05844
2258.63723,1434.05844
2260.31313,1432.95538
2261.98904,1432.95538
2263.66494,1432.95538
2265.34084,1432.95538
2267.01675,1432.95538
2268.69265,1434.05844
2270.36856,1434.05844
2272.04446,1435.16149
2273.72037,1435.16149
2275.39627,1434.05844
2277.07218,1432.95538
2278.74808,1430.74927
2280.42399,1429.64622
2282.09989,1427.44011
2283.7758,1426.33705
2285.4517,1425.234
2287.12761,1425.234
2288.80351,1425.234
2290.47942,1427.44011
2292.15532,1429.64622
2293.83123,1431.85233
2295.50713,1434.05844
2297.18304,1436.26455
2298.85894,1442.88288
2300.53485,1447.2951
2302.21075,1452.81038
2303.88666,1457.2226
2305.56256,1463.84093
2323.99752,1501.3448
2323.99752,1478.18064
2325.67342,1485.90203
2325.67342,1500.24175
2325.67342,1477.07759
2327.34933,1500.24175
2327.34933,1478.18064
2329.02523,1498.03564
2330.70114,1496.93258
2332.37704,1495.82953
2334.05295,1494.72647
2335.72885,1492.52036
2337.40476,1490.31425
2339.08066,1489.2112
2340.75657,1487.00509
2342.43247,1484.79898
2344.10838,1481.48981
2345.78428,1480.38675
2347.46018,1478.18064
2349.13609,1475.97453
2350.81199,1473.76842
2352.4879,1471.56231
2354.1638,1469.3562
2355.83971,1467.15009
2357.51561,1464.94398
2359.19152,1462.73787
2360.86742,1459.42871
2362.54333,1458.32565
2389.35781,1440.67677
2389.35781,1439.57371
2391.03371,1441.77982
2391.03371,1441.77982
2392.70962,1445.08899
2392.70962,1445.08899
2394.38552,1447.2951
2394.38552,1447.2951
2396.06143,1449.50121
2396.06143,1449.50121
2397.73733,1451.70732
2397.73733,1451.70732
2399.41324,1452.81038
2399.41324,1452.81038
2401.08914,1452.81038
2401.08914,1452.81038
2402.76505,1451.70732
2402.76505,1451.70732
2404.44095,1450.60427
2404.44095,1450.60427
2406.11686,1448.39816
2406.11686,1448.39816
2407.79276,1445.08899
2407.79276,1445.08899
2409.46867,1441.77982
2409.46867,1441.77982
2411.14457,1439.57371
2411.14457,1438.47066
2412.82048,1435.16149
2414.49638,1431.85233
2416.17229,1428.54316
2417.84819,1425.234
2419.5241,1423.02789
2421.2,1420.82178
2422.87591,1421.92483
2424.55181,1423.02789
2426.22772,1424.13094
2427.90362,1425.234
2429.57953,1427.44011
2431.25543,1427.44011
2432.93133,1428.54316
2434.60724,1429.64622
2436.28314,1430.74927
2437.95905,1430.74927
2439.63495,1429.64622
2441.31086,1428.54316
2442.98676,1428.54316
2444.66267,1427.44011
2446.33857,1427.44011
2448.01448,1427.44011
2449.69038,1427.44011
2451.36629,1427.44011
2453.04219,1427.44011
2454.7181,1429.64622
2456.394,1429.64622
2458.06991,1431.85233
2459.74581,1434.05844
2461.42172,1436.26455
2463.09762,1438.47066
2464.77353,1441.77982
2466.44943,1445.08899
2468.12534,1448.39816
2469.80124,1451.70732
2471.47715,1452.81038
2473.15305,1456.11954
2474.82896,1458.32565
2476.50486,1459.42871
2478.18077,1460.53176
2479.85667,1458.32565
2481.53258,1457.2226
2483.20848,1456.11954
2484.88439,1453.91343
2486.56029,1451.70732
2488.2362,1448.39816
2489.9121,1446.19204
2491.58801,1443.98593
2493.26391,1440.67677
2494.93982,1437.3676
2496.61572,1435.16149
2498.29163,1432.95538
2499.96753,1431.85233
2501.64344,1430.74927
2503.31934,1429.64622
2504.99525,1430.74927
2506.67115,1431.85233
2508.34706,1432.95538
2510.02296,1434.05844
2511.69887,1435.16149
2513.37477,1437.3676
2515.05067,1438.47066
2516.72658,1439.57371
2518.40248,1440.67677
2520.07839,1441.77982
2521.75429,1442.88288
2523.4302,1442.88288
2525.1061,1442.88288
2526.78201,1441.77982
2528.45791,1440.67677
2530.13382,1439.57371
2531.80972,1438.47066
2533.48563,1436.26455
2535.16153,1434.05844
2536.83744,1432.95538
2538.51334,1430.74927
2540.18925,1429.64622
2541.86515,1427.44011
2543.54106,1427.44011
2545.21696,1428.54316
2546.89287,1430.74927
2548.56877,1431.85233
2550.24468,1434.05844
2551.92058,1436.26455
2553.59649,1438.47066
2555.27239,1440.67677
2556.9483,1442.88288
2558.6242,1442.88288
2560.30011,1442.88288
2561.97601,1442.88288
2563.65192,1441.77982
2565.32782,1440.67677
2567.00373,1439.57371
2568.67963,1438.47066
2570.35554,1436.26455
2572.03144,1435.16149
2573.70735,1432.95538
2575.38325,1430.74927
2577.05916,1429.64622
2578.73506,1428.54316
2580.41097,1427.44011
2582.08687,1426.33705
2583.76278,1426.33705
2585.43868,1427.44011
2587.11459,1427.44011
2588.79049,1428.54316
2590.4664,1429.64622
2592.1423,1429.64622
2593.81821,1430.74927
2595.49411,1430.74927
2597.17001,1431.85233
2598.84592,1431.85233
2600.52182,1431.85233
2602.19773,1432.95538
2603.87363,1432.95538
2605.54954,1434.05844
2607.22544,1434.05844
2608.90135,1435.16149
2610.57725,1435.16149
2612.25316,1436.26455
2613.92906,1437.3676
2615.60497,1437.3676
2617.28087,1438.47066
2618.95678,1438.47066
2620.63268,1437.3676
2622.30859,1437.3676
2623.98449,1436.26455
2625.6604,1434.05844
2627.3363,1434.05844
2629.01221,1431.85233
2630.68811,1430.74927
2632.36402,1428.54316
2634.03992,1427.44011
2635.71583,1425.234
2637.39173,1424.13094
2639.06764,1421.92483
2640.74354,1420.82178
2642.41945,1420.82178
2644.09535,1420.82178
2645.77126,1421.92483
2647.44716,1423.02789
2649.12307,1425.234
2650.79897,1427.44011
2652.47488,1429.64622
2654.15078,1431.85233
2655.82669,1434.05844
2657.50259,1436.26455
2659.1785,1438.47066
2660.8544,1440.67677
2662.53031,1442.88288
2664.20621,1443.98593
2665.88212,1445.08899
2667.55802,1446.19204
2669.23393,1445.08899
2670.90983,1443.98593
2672.58574,1441.77982
2674.26164,1439.57371
2675.93755,1437.3676
2677.61345,1435.16149
2679.28936,1434.05844
2680.96526,1432.95538
2682.64116,1430.74927
2684.31707,1429.64622
2685.99297,1429.64622
2687.66888,1429.64622
2689.34478,1429.64622
2691.02069,1430.74927
2692.69659,1430.74927
2694.3725,1431.85233
2696.0484,1431.85233
2697.72431,1431.85233
2699.40021,1431.85233
2701.07612,1431.85233
2702.75202,1430.74927
2704.42793,1429.64622
2706.10383,1428.54316
2707.77974,1426.33705
2709.45564,1425.234
2711.13155,1424.13094
2712.80745,1423.02789
2714.48336,1421.92483
2716.15926,1420.82178
2717.83517,1419.71872
2719.51107,1419.71872
2721.18698,1420.82178
2722.86288,1421.92483
2724.53879,1424.13094
2726.21469,1426.33705
2727.8906,1427.44011
2729.5665,1429.64622
2731.24241,1430.74927
2732.91831,1432.95538
2734.59422,1434.05844
2736.27012,1435.16149
2737.94603,1435.16149
2739.62193,1436.26455
2741.29784,1436.26455
2742.97374,1436.26455
2744.64965,1436.26455
2746.32555,1434.05844
2748.00146,1432.95538
2749.67736,1431.85233
2751.35327,1430.74927
2753.02917,1428.54316
2754.70508,1426.33705
2756.38098,1425.234
2758.05689,1423.02789
2759.73279,1421.92483
2761.4087,1419.71872
2763.0846,1419.71872
2764.7605,1418.61567
2766.43641,1417.51261
2768.11231,1417.51261
2769.78822,1417.51261
2771.46412,1416.40956
2773.14003,1416.40956
2774.81593,1416.40956
2776.49184,1416.40956
2778.16774,1417.51261
2779.84365,1417.51261
2781.51955,1418.61567
2783.19546,1420.82178
2784.87136,1423.02789
2786.54727,1424.13094
2788.22317,1426.33705
2789.89908,1427.44011
2791.57498,1428.54316
2793.25089,1429.64622
2794.92679,1429.64622
2796.6027,1428.54316
2798.2786,1427.44011
2799.95451,1426.33705
2801.63041,1425.234
2803.30632,1424.13094
2804.98222,1421.92483
2806.65813,1421.92483
2808.33403,1420.82178
2810.00994,1419.71872
2811.68584,1419.71872
2813.36175,1419.71872
2815.03765,1420.82178
2816.71356,1421.92483
2818.38946,1424.13094
2820.06537,1425.234
2821.74127,1427.44011
2823.41718,1429.64622
2825.09308,1430.74927
2826.76899,1432.95538
2828.44489,1434.05844
2830.1208,1432.95538
2831.7967,1431.85233
2833.47261,1430.74927
2835.14851,1429.64622
2836.82442,1428.54316
2838.50032,1428.54316
2840.17623,1429.64622
2841.85213,1429.64622
2843.52804,1430.74927
2845.20394,1431.85233
2846.87984,1431.85233
2848.55575,1432.95538
2850.23165,1434.05844
2851.90756,1434.05844
2853.58346,1434.05844
2855.25937,1432.95538
2856.93527,1430.74927
2858.61118,1429.64622
2860.28708,1427.44011
2861.96299,1425.234
2863.63889,1423.02789
2865.3148,1421.92483
2866.9907,1419.71872
2868.66661,1418.61567
2870.34251,1417.51261
2872.01842,1417.51261
2873.69432,1416.40956
2875.37023,1416.40956
2877.04613,1416.40956
2878.72204,1417.51261
2880.39794,1418.61567
2882.07385,1419.71872
2883.74975,1419.71872
2885.42566,1421.92483
2887.10156,1423.02789
2888.77747,1424.13094
2890.45337,1425.234
2892.12928,1426.33705
2893.80518,1426.33705
2895.48109,1427.44011
2897.15699,1428.54316
2898.8329,1430.74927
2900.5088,1431.85233
2902.18471,1434.05844
2903.86061,1435.16149
2905.53652,1437.3676
2907.21242,1438.47066
2908.88833,1439.57371
2910.56423,1438.47066
2912.24014,1438.47066
2913.91604,1438.47066
2915.59195,1438.47066
2917.26785,1438.47066
2918.94376,1439.57371
2920.61966,1440.67677
2922.29557,1440.67677
2923.97147,1441.77982
2925.64738,1440.67677
2927.32328,1440.67677
2928.99919,1440.67677
2930.67509,1439.57371
2932.35099,1438.47066
2934.0269,1437.3676
2935.7028,1436.26455
2937.37871,1435.16149
2939.05461,1434.05844
2940.73052,1431.85233
2942.40642,1430.74927
2944.08233,1428.54316
2945.75823,1427.44011
2947.43414,1426.33705
2949.11004,1424.13094
2950.78595,1423.02789
2952.46185,1423.02789
2954.13776,1421.92483
2955.81366,1421.92483
2957.48957,1423.02789
2959.16547,1423.02789
2960.84138,1423.02789
2962.51728,1424.13094
2964.19319,1425.234
2965.86909,1425.234
2967.545,1425.234
2969.2209,1424.13094
2970.89681,1424.13094
2972.57271,1423.02789
2974.24862,1423.02789
2975.92452,1423.02789
2977.60043,1421.92483
2979.27633,1423.02789
2980.95224,1423.02789
2982.62814,1423.02789
2984.30405,1423.02789
2985.97995,1423.02789
2987.65586,1423.02789
2989.33176,1424.13094
2991.00767,1425.234
2992.68357,1426.33705
2994.35948,1427.44011
2996.03538,1429.64622
2997.71129,1430.74927
2999.38719,1431.85233
3001.0631,1432.95538
3002.739,1434.05844
3004.41491,1435.16149
3006.09081,1436.26455
3007.76672,1436.26455
3009.44262,1435.16149
3011.11853,1434.05844
3012.79443,1432.95538
3014.47033,1431.85233
3016.14624,1430.74927
3017.82214,1429.64622
3019.49805,1429.64622
3021.17395,1430.74927
3022.84986,1431.85233
3024.52576,1432.95538
3026.20167,1432.95538
3027.87757,1434.05844
3029.55348,1434.05844
3031.22938,1434.05844
3032.90529,1434.05844
3034.58119,1435.16149
3036.2571,1434.05844
3037.933,1435.16149
3039.60891,1435.16149
3041.28481,1435.16149
3042.96072,1434.05844
3044.63662,1434.05844
3046.31253,1431.85233
3047.98843,1430.74927
3049.66434,1429.64622
3051.34024,1429.64622
3053.01615,1431.85233
3054.69205,1432.95538
3056.36796,1435.16149
3058.04386,1437.3676
3059.71977,1439.57371
3061.39567,1440.67677
3063.07158,1441.77982
3064.74748,1441.77982
3066.42339,1440.67677
3068.09929,1440.67677
3069.7752,1439.57371
3071.4511,1439.57371
3073.12701,1439.57371
3074.80291,1438.47066
3076.47882,1437.3676
3078.15472,1437.3676
3079.83063,1437.3676
3081.50653,1437.3676
3083.18244,1437.3676
3084.85834,1437.3676
3086.53425,1437.3676
3088.21015,1437.3676
3089.88606,1438.47066
3091.56196,1439.57371
3093.23787,1440.67677
3094.91377,1440.67677
3096.58967,1441.77982
3098.26558,1441.77982
3099.94148,1441.77982
3101.61739,1441.77982
3103.29329,1441.77982
3104.9692,1442.88288
3106.6451,1443.98593
3108.32101,1443.98593
3109.99691,1445.08899
3111.67282,1447.2951
3113.34872,1447.2951
3115.02463,1448.39816
3116.70053,1449.50121
3118.37644,1450.60427
3120.05234,1450.60427
3121.72825,1450.60427
3123.40415,1449.50121
3125.08006,1449.50121
3126.75596,1448.39816
3128.43187,1447.2951
3130.10777,1446.19204
3131.78368,1445.08899
3133.45958,1445.08899
3135.13549,1445.08899
3136.81139,1443.98593
3138.4873,1443.98593
3140.1632,1445.08899
3141.83911,1445.08899
3143.51501,1446.19204
3143.51501,1446.19204
3145.19092,1446.19204
3145.19092,1446.19204
3146.86682,1446.19204
3146.86682,1446.19204
3148.54273,1446.19204
3148.54273,1446.19204
3150.21863,1446.19204
3150.21863,1446.19204
3151.89454,1446.19204
3151.89454,1446.19204
3153.57044,1447.2951
3153.57044,1447.2951
3155.24635,1447.2951
3155.24635,1447.2951
3156.92225,1447.2951
3156.92225,1447.2951
3158.59816,1448.39816
3160.27406,1448.39816
3161.94997,1449.50121
3163.62587,1449.50121
3165.30178,1450.60427
3166.97768,1451.70732
3168.65359,1452.81038
3170.32949,1452.81038
3172.0054,1453.91343
3173.6813,1455.01649
3175.35721,1455.01649
3177.03311,1455.01649
3178.70902,1456.11954
3180.38492,1457.2226
3182.06082,1458.32565
3183.73673,1459.42871
3185.41263,1461.63482
3187.08854,1462.73787
3188.76444,1463.84093
3190.44035,1463.84093
3192.11625,1464.94398
3193.79216,1463.84093
3195.46806,1463.84093
3197.14397,1462.73787
3198.81987,1462.73787
3200.49578,1462.73787
3202.17168,1461.63482
3203.84759,1460.53176
3205.52349,1459.42871
3207.1994,1458.32565
3208.8753,1456.11954
3210.55121,1455.01649
3212.22711,1452.81038
3213.90302,1450.60427
3215.57892,1449.50121
3217.25483,1449.50121
3218.93073,1449.50121
3220.60664,1450.60427
3222.28254,1450.60427
3223.95845,1449.50121
3225.63435,1448.39816
3227.31026,1447.2951
3228.98616,1446.19204
3230.66207,1445.08899
3232.33797,1445.08899
3234.01388,1446.19204
3235.68978,1447.2951
3237.36569,1449.50121
3239.04159,1450.60427
3240.7175,1451.70732
3242.3934,1452.81038
3244.06931,1453.91343
3245.74521,1453.91343
3247.42112,1456.11954
3249.09702,1457.2226
3250.77293,1457.2226
3252.44883,1458.32565
3254.12474,1460.53176
3255.80064,1460.53176
3257.47655,1461.63482
3259.15245,1461.63482
3260.82836,1461.63482
3262.50426,1459.42871
3264.18016,1458.32565
3265.85607,1457.2226
3267.53197,1456.11954
3269.20788,1453.91343
3270.88378,1451.70732
3272.55969,1449.50121
3274.23559,1448.39816
3275.9115,1447.2951
3277.5874,1445.08899
3279.26331,1443.98593
3280.93921,1445.08899
3282.61512,1446.19204
3284.29102,1447.2951
3285.96693,1448.39816
3287.64283,1450.60427
3289.31874,1452.81038
3290.99464,1453.91343
3292.67055,1456.11954
3294.34645,1457.2226
3296.02236,1459.42871
3297.69826,1460.53176
3299.37417,1460.53176
3301.05007,1461.63482
3302.72598,1461.63482
3304.40188,1461.63482
3306.07779,1461.63482
3307.75369,1462.73787
3309.4296,1462.73787
3311.1055,1464.94398
3312.78141,1466.04704
3314.45731,1467.15009
3316.13322,1468.25315
3317.80912,1469.3562
3319.48503,1469.3562
3321.16093,1470.45926
3322.83684,1470.45926
3324.51274,1469.3562
3326.18865,1468.25315
3327.86455,1467.15009
3329.54046,1466.04704
3331.21636,1464.94398
3332.89227,1462.73787
3334.56817,1461.63482
3336.24408,1460.53176
3337.91998,1459.42871
3339.59589,1458.32565
3341.27179,1457.2226
3342.9477,1456.11954
3344.6236,1455.01649
3346.2995,1455.01649
3347.97541,1453.91343
3349.65131,1453.91343
3351.32722,1453.91343
3353.00312,1452.81038
3354.67903,1452.81038
3356.35493,1451.70732
3358.03084,1450.60427
3359.70674,1449.50121
3361.38265,1448.39816
3363.05855,1448.39816
3364.73446,1447.2951
3366.41036,1446.19204
3368.08627,1445.08899
3369.76217,1445.08899
3371.43808,1445.08899
3373.11398,1445.08899
3374.78989,1443.98593
3376.46579,1442.88288
3378.1417,1440.67677
3379.8176,1439.57371
3381.49351,1438.47066
3383.16941,1437.3676
3384.84532,1436.26455
3386.52122,1436.26455
3388.19713,1436.26455
3389.87303,1436.26455
3391.54894,1436.26455
3393.22484,1436.26455
3394.90075,1437.3676
3396.57665,1437.3676
3398.25256,1438.47066
3399.92846,1439.57371
3401.60437,1440.67677
3403.28027,1441.77982
3404.95618,1442.88288
3406.63208,1442.88288
3408.30799,1442.88288
3409.98389,1442.88288
3411.6598,1441.77982
3413.3357,1439.57371
3415.01161,1437.3676
3416.68751,1435.16149
3418.36342,1434.05844
3420.03932,1431.85233
3421.71523,1429.64622
3423.39113,1427.44011
3425.06704,1426.33705
3426.74294,1424.13094
3428.41885,1423.02789
3430.09475,1423.02789
3431.77065,1423.02789
3433.44656,1424.13094
3435.12246,1425.234
3436.79837,1426.33705
3438.47427,1427.44011
3440.15018,1429.64622
3441.82608,1431.85233
3443.50199,1432.95538
3445.17789,1435.16149
3446.8538,1436.26455
3448.5297,1437.3676
3450.20561,1438.47066
3451.88151,1438.47066
3453.55742,1437.3676
3455.23332,1436.26455
3456.90923,1436.26455
3458.58513,1435.16149
3460.26104,1434.05844
3461.93694,1432.95538
3463.61285,1431.85233
3465.28875,1430.74927
3466.96466,1430.74927
3468.64056,1429.64622
3470.31647,1428.54316
3471.99237,1428.54316
3473.66828,1428.54316
3475.34418,1428.54316
3477.02009,1428.54316
3478.69599,1429.64622
3480.3719,1429.64622
3482.0478,1429.64622
3483.72371,1430.74927
3485.39961,1430.74927
3487.07552,1431.85233
3488.75142,1431.85233
3490.42733,1432.95538
3492.10323,1434.05844
3493.77914,1435.16149
3495.45504,1436.26455
3497.13095,1437.3676
3498.80685,1437.3676
3500.48276,1438.47066
3502.15866,1437.3676
3503.83457,1437.3676
3505.51047,1436.26455
3507.18638,1435.16149
3508.86228,1435.16149
3510.53819,1434.05844
3512.21409,1432.95538
3513.88999,1432.95538
3515.5659,1431.85233
3517.2418,1431.85233
3518.91771,1430.74927
3520.59361,1430.74927
3522.26952,1429.64622
3523.94542,1429.64622
3525.62133,1429.64622
3527.29723,1430.74927
3528.97314,1431.85233
3530.64904,1431.85233
3532.32495,1432.95538
3534.00085,1431.85233
3535.67676,1431.85233
3537.35266,1430.74927
3539.02857,1430.74927
3540.70447,1430.74927
3542.38038,1432.95538
3544.05628,1432.95538
3545.73219,1435.16149
3547.40809,1436.26455
3549.084,1437.3676
3550.7599,1439.57371
3552.43581,1441.77982
3554.11171,1443.98593
3555.78762,1445.08899
3557.46352,1447.2951
3559.13943,1449.50121
3560.81533,1451.70732
3562.49124,1452.81038
3564.16714,1453.91343
3565.84305,1455.01649
3567.51895,1456.11954
3569.19486,1456.11954
3570.87076,1456.11954
3572.54667,1456.11954
3574.22257,1455.01649
3575.89848,1455.01649
3577.57438,1453.91343
3579.25029,1452.81038
3580.92619,1451.70732
3582.6021,1451.70732
3584.278,1451.70732
3585.95391,1451.70732
3587.62981,1452.81038
3589.30572,1453.91343
3590.98162,1453.91343
3592.65753,1456.11954
3594.33343,1457.2226
3596.00933,1458.32565
3597.68524,1459.42871
3599.36114,1460.53176
3601.03705,1460.53176
3602.71295,1461.63482
3604.38886,1462.73787
3606.06476,1462.73787
3607.74067,1462.73787
3609.41657,1462.73787
3611.09248,1461.63482
3612.76838,1461.63482
3614.44429,1462.73787
3616.12019,1462.73787
3617.7961,1464.94398
3619.472,1466.04704
3621.14791,1468.25315
3622.82381,1470.45926
3622.82381,1475.97453
3624.49972,1471.56231
3624.49972,1477.07759
3626.17562,1473.76842
3626.17562,1478.18064
3627.85153,1480.38675
3629.52743,1482.59287
3631.20334,1483.69592
3632.87924,1484.79898
3634.55515,1489.2112
3636.23105,1492.52036
3637.90696,1494.72647
3639.58286,1499.13869
3641.25877,1502.44786
3642.93467,1505.75702
3644.61058,1511.2723
3646.28648,1516.78758
3647.96239,1522.30285
3649.63829,1527.81813
3651.3142,1532.23035
3652.9901,1538.84868
3654.66601,1546.57006
3656.34191,1553.1884
3658.01782,1559.80673
3659.69372,1565.322
3661.36963,1569.73422
3663.04553,1573.04339
3664.72144,1576.35255
3666.39734,1580.76477
3668.07325,1584.07394
3669.74915,1586.28005
3671.42506,1586.28005
3673.10096,1585.177
3674.77687,1582.97088
3676.45277,1580.76477
3678.12868,1578.55866
3679.80458,1574.14644
3681.48048,1570.83728
3683.15639,1567.52811
3684.83229,1563.11589
3686.5082,1558.70367
3688.1841,1553.1884
3689.86001,1549.87923
3691.53591,1544.36395
3693.21182,1537.74562
3694.88772,1531.12729
3696.56363,1525.61202
3698.23953,1520.09674
3699.91544,1513.47841
3701.59134,1506.86008
3703.26725,1501.3448
3704.94315,1496.93258
3706.61906,1490.31425
3708.29496,1484.79898
3708.29496,1483.69592
3709.97087,1483.69592
3709.97087,1479.2837
3711.64677,1474.87148
3711.64677,1481.48981
3713.32268,1479.2837
3713.32268,1470.45926
3714.99858,1477.07759
3714.99858,1466.04704
3716.67449,1462.73787
3718.35039,1460.53176
3720.0263,1457.2226
3721.7022,1452.81038
3723.37811,1450.60427
3725.05401,1447.2951
3726.72992,1446.19204
3728.40582,1443.98593
3730.08173,1441.77982
3731.75763,1440.67677
3733.43354,1438.47066
3735.10944,1437.3676
3736.78535,1437.3676
3738.46125,1436.26455
3740.13716,1436.26455
3741.81306,1436.26455
3743.48897,1437.3676
3745.16487,1438.47066
3746.84078,1439.57371
3748.51668,1439.57371
3750.19259,1440.67677
3751.86849,1441.77982
3753.5444,1441.77982
3755.2203,1441.77982
3756.89621,1441.77982
3758.57211,1441.77982
3760.24802,1441.77982
3761.92392,1440.67677
3763.59982,1439.57371
3765.27573,1438.47066
3766.95163,1437.3676
3768.62754,1436.26455
3770.30344,1435.16149
3771.97935,1435.16149
3773.65525,1434.05844
3775.33116,1434.05844
3777.00706,1434.05844
3778.68297,1432.95538
3780.35887,1432.95538
3782.03478,1432.95538
3783.71068,1432.95538
3785.38659,1432.95538
3787.06249,1432.95538
3788.7384,1432.95538
3790.4143,1431.85233
3792.09021,1431.85233
3793.76611,1431.85233
3795.44202,1430.74927
3797.11792,1430.74927
3798.79383,1429.64622
3800.46973,1429.64622
3802.14564,1429.64622
3803.82154,1429.64622
3805.49745,1429.64622
3807.17335,1429.64622
3808.84926,1429.64622
3810.52516,1429.64622
3812.20107,1429.64622
3813.87697,1429.64622
3815.55288,1429.64622
3817.22878,1429.64622
3818.90469,1429.64622
3820.58059,1428.54316
3822.2565,1428.54316
3823.9324,1428.54316
3825.60831,1428.54316
3827.28421,1429.64622
3828.96012,1429.64622
3830.63602,1430.74927
3832.31193,1431.85233
3833.98783,1431.85233
3835.66374,1431.85233
3837.33964,1430.74927
3839.01555,1429.64622
3840.69145,1428.54316
3842.36736,1428.54316
3844.04326,1429.64622
3845.71916,1429.64622
3847.39507,1429.64622
3849.07097,1430.74927
3850.74688,1430.74927
3852.42278,1430.74927
3854.09869,1430.74927
3855.77459,1430.74927
3857.4505,1431.85233
3859.1264,1434.05844
3860.80231,1435.16149
3862.47821,1436.26455
3864.15412,1437.3676
3865.83002,1438.47066
3867.50593,1438.47066
3869.18183,1437.3676
3870.85774,1436.26455
3872.53364,1435.16149
3874.20955,1432.95538
3875.88545,1430.74927
3877.56136,1429.64622
3879.23726,1427.44011
3880.91317,1426.33705
3882.58907,1425.234
3884.26498,1424.13094
3885.94088,1424.13094
3887.61679,1424.13094
3889.29269,1426.33705
3890.9686,1427.44011
3892.6445,1428.54316
3894.32041,1430.74927
3895.99631,1432.95538
3897.67222,1434.05844
3899.34812,1435.16149
3901.02403,1437.3676
3902.69993,1438.47066
3904.37584,1438.47066
3906.05174,1438.47066
3907.72765,1438.47066
3909.40355,1437.3676
3911.07946,1436.26455
3912.75536,1435.16149
3914.43127,1432.95538
3916.10717,1431.85233
3917.78308,1430.74927
3919.45898,1430.74927
3921.13489,1429.64622
3922.81079,1428.54316
3924.4867,1428.54316
3926.1626,1428.54316
3927.8385,1429.64622
3929.51441,1429.64622
3931.19031,1430.74927
3932.86622,1431.85233
3934.54212,1432.95538
3936.21803,1432.95538
3937.89393,1432.95538
3939.56984,1432.95538
3941.24574,1431.85233
3942.92165,1430.74927
3944.59755,1428.54316
3946.27346,1427.44011
3947.94936,1426.33705
3949.62527,1425.234
3951.30117,1424.13094
3952.97708,1423.02789
3954.65298,1421.92483
3956.32889,1421.92483
3958.00479,1423.02789
3959.6807,1424.13094
3961.3566,1426.33705
3963.03251,1426.33705
3964.70841,1428.54316
3966.38432,1430.74927
3968.06022,1431.85233
3969.73613,1432.95538
3971.41203,1435.16149
3973.08794,1436.26455
3974.76384,1437.3676
3976.43975,1437.3676
