Raman shift,Intensity
760.65504,606.3531
762.20938,606.3531
763.76372,607.70945
765.31805,609.0658
766.87239,610.42214
768.42673,611.77849
769.98107,611.77849
771.53541,611.77849
773.08975,611.77849
774.64409,613.13484
776.19843,613.13484
777.75277,611.77849
779.3071,611.77849
780.86144,610.42214
782.41578,609.0658
783.97012,610.42214
785.52446,610.42214
787.0788,609.0658
788.63314,609.0658
790.18748,610.42214
791.74181,609.0658
793.29615,607.70945
794.85049,609.0658
796.40483,609.0658
797.95917,609.0658
799.51351,610.42214
801.06785,610.42214
802.62219,609.0658
804.17652,607.70945
805.73086,606.3531
807.2852,604.99675
808.83954,604.99675
810.39388,604.99675
811.94822,606.3531
813.50256,607.70945
813.50256,606.3531
815.0569,609.0658
815.0569,607.70945
816.61123,609.0658
816.61123,610.42214
816.61123,613.13484
816.61123,614.49119
816.61123,615.84754
816.61123,611.77849
818.16557,617.20388
818.16557,615.84754
819.71991,618.56023
819.71991,619.91658
819.71991,621.27293
819.71991,617.20388
821.27425,622.62927
821.27425,621.27293
822.82859,623.98562
822.82859,625.34197
822.82859,622.62927
824.38293,625.34197
825.93727,625.34197
827.49161,625.34197
827.49161,628.05467
827.49161,626.69832
829.04594,629.41101
829.04594,628.05467
830.60028,629.41101
832.15462,630.76736
832.15462,632.12371
832.15462,633.48006
832.15462,634.8364
832.15462,636.19275
832.15462,629.41101
833.70896,636.19275
835.2633,637.5491
835.2633,636.19275
836.81764,638.90545
836.81764,640.2618
836.81764,637.5491
838.37198,641.61814
838.37198,642.97449
838.37198,644.33084
838.37198,645.68719
838.37198,640.2618
839.92632,648.39988
839.92632,649.75623
839.92632,651.11258
839.92632,652.46892
839.92632,653.82527
839.92632,647.04353
841.48066,655.18162
841.48066,656.53797
841.48066,653.82527
843.03499,656.53797
843.03499,657.89432
844.58933,657.89432
846.14367,657.89432
847.69801,657.89432
849.25235,657.89432
850.80669,657.89432
852.36103,659.25066
852.36103,657.89432
853.91537,664.67605
853.91537,659.25066
853.91537,660.60701
853.91537,661.96336
853.91537,663.31971
853.91537,666.0324
855.4697,667.38875
857.02404,667.38875
858.57838,666.0324
860.13272,664.67605
861.68706,663.31971
863.2414,661.96336
864.79574,661.96336
866.35008,663.31971
867.90441,663.31971
867.90441,664.67605
869.45875,663.31971
871.01309,663.31971
872.56743,661.96336
874.12177,660.60701
875.67611,659.25066
877.23045,657.89432
878.78479,657.89432
880.33912,657.89432
881.89346,659.25066
883.4478,666.0324
883.4478,659.25066
883.4478,660.60701
883.4478,661.96336
883.4478,663.31971
883.4478,664.67605
885.00214,666.0324
886.55648,666.0324
888.11082,666.0324
889.66516,670.10145
889.66516,666.0324
891.2195,667.38875
891.2195,668.7451
891.2195,671.45779
892.77384,672.81414
894.32817,679.59588
894.32817,674.17049
894.32817,675.52684
894.32817,676.88318
894.32817,678.23953
895.88251,683.66492
895.88251,680.95223
895.88251,682.30858
897.43685,686.37762
897.43685,685.02127
898.99119,705.36649
898.99119,687.73397
898.99119,689.09031
898.99119,690.44666
898.99119,691.80301
898.99119,704.01014
898.99119,699.9411
898.99119,698.58475
898.99119,697.2284
900.54553,695.87205
900.54553,694.51571
900.54553,701.29744
900.54553,702.65379
900.54553,693.15936
900.54553,729.78075
900.54553,706.72283
900.54553,728.4244
900.54553,731.13709
902.09987,708.07918
902.09987,720.28631
902.09987,727.06805
902.09987,709.43553
902.09987,732.49344
903.65421,717.57362
903.65421,712.14823
903.65421,718.92996
903.65421,721.64266
903.65421,716.21727
903.65421,743.34422
903.65421,744.70057
903.65421,746.05692
903.65421,710.79188
903.65421,725.7117
903.65421,750.12596
903.65421,748.76962
903.65421,733.84979
903.65421,740.63153
903.65421,739.27518
903.65421,741.98788
905.20855,736.56249
905.20855,735.20614
905.20855,737.91883
905.20855,714.86092
905.20855,713.50457
905.20855,751.48231
905.20855,747.41327
905.20855,722.99901
905.20855,724.35536
905.20855,756.9077
905.20855,752.83866
905.20855,754.19501
905.20855,758.26405
906.76288,762.33309
906.76288,755.55135
906.76288,759.6204
906.76288,760.97674
908.31722,763.68944
909.87156,767.75848
909.87156,765.04579
911.4259,766.40214
911.4259,785.391
911.4259,769.11483
911.4259,770.47118
911.4259,782.67831
912.98024,773.18387
912.98024,792.17274
912.98024,771.82753
912.98024,789.46005
912.98024,788.1037
912.98024,786.74735
912.98024,781.32196
912.98024,790.8164
912.98024,784.03466
912.98024,796.24179
912.98024,794.88544
914.53458,779.96561
914.53458,797.59813
914.53458,801.66718
914.53458,798.95448
914.53458,793.52909
914.53458,774.54022
914.53458,775.89657
914.53458,800.31083
916.08892,777.25292
916.08892,778.60927
916.08892,803.02353
917.64326,804.37987
917.64326,805.73622
917.64326,807.09257
919.19759,812.51796
919.19759,808.44892
919.19759,809.80526
919.19759,811.16161
919.19759,813.87431
920.75193,816.587
920.75193,815.23065
922.30627,822.01239
922.30627,817.94335
923.86061,820.65605
923.86061,823.36874
923.86061,819.2997
925.41495,827.43778
925.41495,824.72509
925.41495,828.79413
926.96929,826.08144
926.96929,827.43778
926.96929,828.79413
928.52363,824.72509
928.52363,826.08144
930.07797,824.72509
931.6323,823.36874
931.6323,824.72509
933.18664,822.01239
934.74098,820.65605
934.74098,822.01239
936.29532,819.2997
936.29532,817.94335
937.84966,813.87431
937.84966,817.94335
937.84966,816.587
937.84966,815.23065
939.404,813.87431
940.95834,811.16161
940.95834,813.87431
940.95834,812.51796
942.51268,801.66718
942.51268,809.80526
942.51268,808.44892
942.51268,807.09257
942.51268,805.73622
944.06701,804.37987
944.06701,803.02353
944.06701,797.59813
944.06701,800.31083
944.06701,798.95448
944.06701,793.52909
944.06701,796.24179
945.62135,792.17274
945.62135,794.88544
945.62135,790.8164
947.17569,788.1037
947.17569,789.46005
948.73003,777.25292
948.73003,786.74735
948.73003,782.67831
948.73003,781.32196
950.28437,785.391
950.28437,784.03466
950.28437,779.96561
950.28437,771.82753
950.28437,778.60927
950.28437,775.89657
950.28437,774.54022
950.28437,773.18387
951.83871,765.04579
951.83871,770.47118
951.83871,769.11483
953.39305,767.75848
953.39305,766.40214
953.39305,758.26405
953.39305,763.68944
953.39305,762.33309
954.94739,755.55135
954.94739,759.6204
954.94739,760.97674
954.94739,756.9077
954.94739,754.19501
954.94739,750.12596
954.94739,752.83866
954.94739,751.48231
956.50173,748.76962
958.05606,741.98788
958.05606,747.41327
958.05606,746.05692
958.05606,736.56249
958.05606,743.34422
958.05606,740.63153
959.6104,733.84979
959.6104,739.27518
959.6104,744.70057
959.6104,737.91883
959.6104,735.20614
959.6104,729.78075
959.6104,732.49344
959.6104,731.13709
961.16474,727.06805
961.16474,728.4244
961.16474,725.7117
962.71908,720.28631
962.71908,724.35536
964.27342,722.99901
964.27342,721.64266
964.27342,699.9411
964.27342,718.92996
964.27342,717.57362
964.27342,701.29744
964.27342,702.65379
965.82776,713.50457
965.82776,698.58475
965.82776,704.01014
965.82776,699.9411
965.82776,716.21727
965.82776,714.86092
967.3821,697.2284
967.3821,705.36649
967.3821,698.58475
967.3821,708.07918
967.3821,712.14823
968.93644,710.79188
968.93644,706.72283
968.93644,709.43553
968.93644,697.2284
970.49077,697.2284
972.04511,697.2284
973.59945,697.2284
973.59945,695.87205
975.15379,695.87205
976.70813,693.15936
976.70813,694.51571
978.26247,687.73397
978.26247,693.15936
978.26247,691.80301
978.26247,690.44666
978.26247,689.09031
979.81681,687.73397
981.37115,687.73397
982.92548,687.73397
984.47982,687.73397
986.03416,686.37762
986.03416,687.73397
987.5885,686.37762
989.14284,683.66492
989.14284,686.37762
989.14284,685.02127
989.14284,680.95223
989.14284,682.30858
989.14284,676.88318
989.14284,679.59588
989.14284,678.23953
990.69718,674.17049
990.69718,675.52684
992.25152,674.17049
992.25152,672.81414
993.80586,671.45779
993.80586,672.81414
995.36019,670.10145
995.36019,671.45779
995.36019,668.7451
996.91453,667.38875
996.91453,668.7451
998.46887,666.0324
998.46887,664.67605
1000.02321,663.31971
1001.57755,661.96336
1001.57755,663.31971
1003.13189,661.96336
1004.68623,661.96336
1004.68623,657.89432
1004.68623,660.60701
1004.68623,659.25066
1004.68623,656.53797
1006.24057,656.53797
1006.24057,655.18162
1007.79491,653.82527
1009.34924,652.46892
1009.34924,653.82527
1010.90358,649.75623
1010.90358,651.11258
1012.45792,648.39988
1014.01226,647.04353
1014.01226,648.39988
1015.5666,644.33084
1015.5666,647.04353
1015.5666,645.68719
1017.12094,642.97449
1018.67528,641.61814
1018.67528,642.97449
1020.22962,641.61814
1020.22962,640.2618
1021.78395,637.5491
1021.78395,640.2618
1021.78395,638.90545
1023.33829,637.5491
1024.89263,633.48006
1024.89263,636.19275
1024.89263,634.8364
1026.44697,633.48006
1028.00131,633.48006
1029.55565,633.48006
1031.10999,633.48006
1032.66433,633.48006
1034.21866,633.48006
1035.773,632.12371
1035.773,633.48006
1037.32734,628.05467
1037.32734,632.12371
1037.32734,630.76736
1037.32734,629.41101
1037.32734,625.34197
1037.32734,626.69832
1037.32734,623.98562
1038.88168,622.62927
1040.43602,622.62927
1041.99036,623.98562
1043.5447,622.62927
1045.09904,621.27293
1046.65337,621.27293
1048.20771,619.91658
1049.76205,619.91658
1051.31639,619.91658
1052.87073,619.91658
1054.42507,619.91658
1055.97941,618.56023
1057.53375,618.56023
1059.08808,618.56023
1060.64242,619.91658
1062.19676,621.27293
1063.7511,622.62927
1065.30544,617.20388
1065.30544,622.62927
1065.30544,621.27293
1065.30544,619.91658
1065.30544,618.56023
1066.85978,615.84754
1066.85978,617.20388
1068.41412,615.84754
1069.96846,614.49119
1071.5228,613.13484
1073.07713,613.13484
1074.63147,613.13484
1076.18581,613.13484
1077.74015,613.13484
1079.29449,614.49119
1080.84883,615.84754
1082.40317,617.20388
1083.95751,618.56023
1085.51184,618.56023
1087.06618,618.56023
1088.62052,618.56023
1090.17486,617.20388
1091.7292,615.84754
1093.28354,614.49119
1094.83788,613.13484
1096.39222,611.77849
1097.94655,611.77849
1099.50089,613.13484
1101.05523,614.49119
1102.60957,613.13484
1104.16391,613.13484
1105.71825,614.49119
1107.27259,615.84754
1108.82693,617.20388
1110.38126,615.84754
1111.9356,614.49119
1113.48994,615.84754
1115.04428,615.84754
1116.59862,615.84754
1118.15296,615.84754
1119.7073,615.84754
1121.26164,615.84754
1122.81598,617.20388
1124.37031,617.20388
1125.92465,617.20388
1127.47899,617.20388
1129.03333,617.20388
1130.58767,617.20388
1132.14201,617.20388
1133.69635,617.20388
1135.25069,617.20388
1136.80502,615.84754
1138.35936,614.49119
1139.9137,613.13484
1141.46804,614.49119
1141.46804,613.13484
1143.02238,614.49119
1144.57672,615.84754
1144.57672,614.49119
1146.13106,615.84754
1147.6854,615.84754
1149.23973,617.20388
1149.23973,618.56023
1150.79407,618.56023
1152.34841,619.91658
1152.34841,618.56023
1153.90275,621.27293
1153.90275,619.91658
1155.45709,621.27293
1157.01143,628.05467
1157.01143,621.27293
1157.01143,622.62927
1157.01143,623.98562
1157.01143,625.34197
1157.01143,626.69832
1158.56577,629.41101
1160.12011,628.05467
1161.67444,626.69832
1163.22878,626.69832
1164.78312,628.05467
1166.33746,629.41101
1167.8918,630.76736
1169.44614,630.76736
1171.00048,630.76736
1172.55482,630.76736
1174.10915,630.76736
1175.66349,629.41101
1177.21783,628.05467
1177.21783,629.41101
1178.77217,628.05467
1180.32651,628.05467
1181.88085,628.05467
1181.88085,626.69832
1183.43519,625.34197
1183.43519,626.69832
1184.98953,625.34197
1186.54387,625.34197
1188.0982,625.34197
1189.65254,622.62927
1189.65254,623.98562
1189.65254,619.91658
1189.65254,621.27293
1191.20688,619.91658
1192.76122,621.27293
1194.31556,621.27293
1195.8699,619.91658
1197.42424,618.56023
1198.97858,619.91658
1200.53291,621.27293
1202.08725,622.62927
1203.64159,622.62927
1205.19593,622.62927
1206.75027,622.62927
1208.30461,623.98562
1209.85895,623.98562
1211.41329,623.98562
1212.96762,622.62927
1214.52196,621.27293
1216.0763,621.27293
1217.63064,622.62927
1219.18498,623.98562
1220.73932,622.62927
1222.29366,621.27293
1223.848,621.27293
1225.40233,621.27293
1226.95667,622.62927
1228.51101,622.62927
1230.06535,622.62927
1231.61969,622.62927
1233.17403,622.62927
1234.72837,622.62927
1236.28271,622.62927
1237.83705,623.98562
1239.39138,623.98562
1240.94572,623.98562
1242.50006,623.98562
1244.0544,623.98562
1245.60874,623.98562
1247.16308,623.98562
1248.71742,623.98562
1250.27176,623.98562
1251.82609,623.98562
1253.38043,623.98562
1254.93477,625.34197
1256.48911,625.34197
1258.04345,625.34197
1259.59779,625.34197
1261.15213,626.69832
1262.70647,626.69832
1264.2608,626.69832
1265.81514,628.05467
1267.36948,628.05467
1268.92382,626.69832
1270.47816,628.05467
1272.0325,628.05467
1273.58684,628.05467
1275.14118,628.05467
1276.69551,626.69832
1278.24985,626.69832
1279.80419,628.05467
1281.35853,629.41101
1282.91287,629.41101
1284.46721,628.05467
1286.02155,626.69832
1287.57589,625.34197
1289.13022,632.12371
1289.13022,625.34197
1289.13022,626.69832
1289.13022,628.05467
1289.13022,629.41101
1289.13022,630.76736
1290.68456,632.12371
1292.2389,633.48006
1293.79324,633.48006
1295.34758,633.48006
1296.90192,634.8364
1298.45626,634.8364
1300.0106,636.19275
1301.56494,636.19275
1303.11927,637.5491
1304.67361,637.5491
1306.22795,637.5491
1307.78229,637.5491
1309.33663,637.5491
1310.89097,638.90545
1312.44531,637.5491
1313.99965,637.5491
1315.55398,636.19275
1317.10832,634.8364
1318.66266,634.8364
1320.217,636.19275
1321.77134,634.8364
1323.32568,633.48006
1324.88002,632.12371
1326.43436,633.48006
1327.98869,634.8364
1329.54303,636.19275
1331.09737,636.19275
1332.65171,636.19275
1334.20605,636.19275
1335.76039,634.8364
1337.31473,633.48006
1338.86907,634.8364
1340.4234,636.19275
1341.97774,636.19275
1343.53208,637.5491
1345.08642,637.5491
1346.64076,636.19275
1348.1951,634.8364
1349.74944,633.48006
1351.30378,634.8364
1352.85812,636.19275
1354.41245,637.5491
1355.96679,638.90545
1357.52113,640.2618
1359.07547,641.61814
1360.62981,641.61814
1362.18415,641.61814
1363.73849,641.61814
1365.29283,640.2618
1366.84716,638.90545
1368.4015,640.2618
1369.95584,640.2618
1371.51018,640.2618
1373.06452,641.61814
1374.61886,641.61814
1376.1732,641.61814
1377.72754,641.61814
1379.28187,641.61814
1380.83621,641.61814
1382.39055,641.61814
1383.94489,642.97449
1385.49923,642.97449
1387.05357,642.97449
1388.60791,642.97449
1390.16225,641.61814
1391.71658,642.97449
1393.27092,644.33084
1394.82526,642.97449
1396.3796,641.61814
1397.93394,640.2618
1399.48828,640.2618
1401.04262,641.61814
1402.59696,641.61814
1404.15129,641.61814
1405.70563,642.97449
1407.25997,641.61814
1408.81431,640.2618
1410.36865,640.2618
1411.92299,638.90545
1413.47733,638.90545
1415.03167,637.5491
1416.58601,637.5491
1418.14034,637.5491
1419.69468,637.5491
1421.24902,636.19275
1422.80336,636.19275
1424.3577,636.19275
1425.91204,637.5491
1427.46638,638.90545
1429.02072,640.2618
1430.57505,641.61814
1432.12939,641.61814
1433.68373,641.61814
1435.23807,641.61814
1436.79241,642.97449
1438.34675,642.97449
1439.90109,642.97449
1441.45543,642.97449
1443.00976,642.97449
1444.5641,642.97449
1446.11844,642.97449
1447.67278,641.61814
1449.22712,640.2618
1450.78146,638.90545
1452.3358,637.5491
1453.89014,637.5491
1455.44447,637.5491
1456.99881,637.5491
1458.55315,637.5491
1460.10749,637.5491
1461.66183,637.5491
1463.21617,637.5491
1464.77051,636.19275
1466.32485,636.19275
1467.87919,636.19275
1469.43352,634.8364
1470.98786,634.8364
1472.5422,633.48006
1474.09654,633.48006
1475.65088,633.48006
1477.20522,634.8364
1478.75956,636.19275
1480.3139,634.8364
1481.86823,633.48006
1483.42257,632.12371
1484.97691,632.12371
1486.53125,632.12371
1488.08559,633.48006
1489.63993,634.8364
1489.63993,633.48006
1491.19427,634.8364
1492.74861,636.19275
1492.74861,634.8364
1494.30294,636.19275
1495.85728,636.19275
1497.41162,644.33084
1497.41162,637.5491
1497.41162,638.90545
1497.41162,640.2618
1497.41162,641.61814
1497.41162,642.97449
1498.96596,644.33084
1500.5203,645.68719
1502.07464,644.33084
1503.62898,642.97449
1505.18332,641.61814
1506.73765,640.2618
1508.29199,640.2618
1509.84633,641.61814
1511.40067,642.97449
1512.95501,644.33084
1514.50935,644.33084
1516.06369,642.97449
1517.61803,642.97449
1519.17236,641.61814
1520.7267,640.2618
1522.28104,638.90545
1523.83538,637.5491
1525.38972,637.5491
1526.94406,638.90545
1528.4984,641.61814
1528.4984,638.90545
1528.4984,640.2618
1530.05274,641.61814
1531.60708,641.61814
1533.16141,641.61814
1534.71575,642.97449
1536.27009,645.68719
1536.27009,644.33084
1537.82443,645.68719
1539.37877,645.68719
1540.93311,647.04353
1542.48745,648.39988
1544.04179,656.53797
1544.04179,649.75623
1544.04179,651.11258
1544.04179,652.46892
1544.04179,653.82527
1544.04179,655.18162
1545.59612,656.53797
1547.15046,656.53797
1548.7048,657.89432
1550.25914,656.53797
1551.81348,655.18162
1553.36782,655.18162
1554.92216,656.53797
1556.4765,657.89432
1558.03083,657.89432
1559.58517,657.89432
1561.13951,657.89432
1562.69385,657.89432
1564.24819,657.89432
1565.80253,660.60701
1565.80253,659.25066
1567.35687,660.60701
1568.91121,660.60701
1570.46554,663.31971
1570.46554,661.96336
1572.01988,664.67605
1572.01988,663.31971
1573.57422,664.67605
1575.12856,666.0324
1576.6829,666.0324
1578.23724,668.7451
1578.23724,667.38875
1579.79158,670.10145
1579.79158,668.7451
1581.34592,670.10145
1582.90026,671.45779
1582.90026,670.10145
1584.45459,671.45779
1586.00893,672.81414
1587.56327,672.81414
1589.11761,672.81414
1589.11761,674.17049
1590.67195,674.17049
1592.22629,675.52684
1592.22629,674.17049
1593.78063,676.88318
1593.78063,675.52684
1595.33497,676.88318
1596.8893,676.88318
1598.44364,679.59588
1598.44364,678.23953
1599.99798,679.59588
1601.55232,680.95223
1601.55232,679.59588
1603.10666,680.95223
1604.661,680.95223
1606.21534,685.02127
1606.21534,682.30858
1606.21534,683.66492
1606.21534,689.09031
1606.21534,686.37762
1606.21534,687.73397
1607.76968,687.73397
1609.32401,686.37762
1610.87835,685.02127
1612.43269,683.66492
1613.98703,685.02127
1615.54137,686.37762
1617.09571,687.73397
1618.65005,689.09031
1620.20439,690.44666
1621.75872,690.44666
1623.31306,689.09031
1623.31306,690.44666
1624.8674,689.09031
1626.42174,689.09031
1627.97608,687.73397
1629.53042,686.37762
1629.53042,687.73397
1631.08476,686.37762
1632.6391,685.02127
1632.6391,686.37762
1634.19343,685.02127
1635.74777,683.66492
1635.74777,685.02127
1637.30211,683.66492
1638.85645,682.30858
1638.85645,683.66492
1640.41079,682.30858
1641.96513,680.95223
1641.96513,682.30858
1643.51947,679.59588
1643.51947,680.95223
1645.07381,679.59588
1645.07381,678.23953
1646.62815,678.23953
1648.18248,678.23953
1648.18248,676.88318
1649.73682,675.52684
1651.29116,675.52684
1652.8455,674.17049
1652.8455,675.52684
1654.39984,674.17049
1655.95418,671.45779
1655.95418,672.81414
1657.50852,671.45779
1659.06286,670.10145
1660.61719,670.10145
1662.17153,667.38875
1662.17153,668.7451
1663.72587,666.0324
1663.72587,667.38875
1665.28021,666.0324
1666.83455,664.67605
1666.83455,666.0324
1668.38889,663.31971
1668.38889,664.67605
1669.94323,663.31971
1671.49757,661.96336
1673.0519,659.25066
1673.0519,660.60701
1674.60624,657.89432
1674.60624,659.25066
1676.16058,657.89432
1677.71492,656.53797
1677.71492,657.89432
1679.26926,655.18162
1679.26926,656.53797
1680.8236,655.18162
1682.37794,653.82527
1682.37794,655.18162
1683.93228,652.46892
1683.93228,653.82527
1685.48661,652.46892
1687.04095,652.46892
1688.59529,651.11258
1690.14963,649.75623
1690.14963,651.11258
1691.70397,642.97449
1691.70397,649.75623
1691.70397,648.39988
1691.70397,647.04353
1691.70397,645.68719
1691.70397,644.33084
1693.25831,641.61814
1694.81265,641.61814
1696.36699,641.61814
1697.92133,642.97449
1699.47566,641.61814
1701.03,642.97449
1702.58434,644.33084
1704.13868,645.68719
1705.69302,645.68719
1707.24736,642.97449
1707.24736,644.33084
1707.24736,640.2618
1707.24736,641.61814
1707.24736,637.5491
1707.24736,638.90545
1708.8017,636.19275
1708.8017,637.5491
1710.35604,636.19275
1711.91037,636.19275
1711.91037,634.8364
1713.46471,634.8364
1715.01905,634.8364
1716.57339,636.19275
1718.12773,637.5491
1719.68207,636.19275
1721.23641,637.5491
1722.79075,637.5491
1724.34508,637.5491
1724.34508,632.12371
1724.34508,636.19275
1724.34508,634.8364
1724.34508,633.48006
1724.34508,630.76736
1725.89942,630.76736
1727.45376,629.41101
1727.45376,630.76736
1729.0081,628.05467
1729.0081,629.41101
1730.56244,628.05467
1732.11678,628.05467
1733.67112,629.41101
1735.22546,630.76736
1736.77979,632.12371
1738.33413,633.48006
1739.88847,632.12371
1741.44281,633.48006
1742.99715,633.48006
1744.55149,632.12371
1746.10583,632.12371
1747.66017,632.12371
1749.2145,632.12371
1750.76884,630.76736
1752.32318,630.76736
1753.87752,629.41101
1755.43186,629.41101
1756.9862,628.05467
1758.54054,628.05467
1760.09488,628.05467
1761.64922,628.05467
1763.20355,628.05467
1764.75789,629.41101
1766.31223,629.41101
1767.86657,629.41101
1769.42091,628.05467
1770.97525,626.69832
1772.52959,625.34197
1774.08393,623.98562
1775.63826,623.98562
1777.1926,625.34197
1778.74694,625.34197
1780.30128,625.34197
1781.85562,625.34197
1783.40996,625.34197
1784.9643,625.34197
1786.51864,626.69832
1788.07297,628.05467
1789.62731,629.41101
1791.18165,630.76736
1792.73599,630.76736
1794.29033,629.41101
1795.84467,628.05467
1797.39901,628.05467
1798.95335,629.41101
1800.50768,629.41101
1802.06202,628.05467
1803.61636,628.05467
1805.1707,628.05467
1806.72504,626.69832
1808.27938,626.69832
1809.83372,626.69832
1811.38806,626.69832
1812.9424,626.69832
1814.49673,626.69832
1816.05107,626.69832
1817.60541,626.69832
1819.15975,626.69832
1820.71409,626.69832
1822.26843,625.34197
1823.82277,625.34197
1825.37711,625.34197
1826.93144,625.34197
1828.48578,625.34197
1830.04012,623.98562
1831.59446,622.62927
1833.1488,623.98562
1834.70314,625.34197
1836.25748,625.34197
1837.81182,626.69832
1839.36615,626.69832
1840.92049,626.69832
1842.47483,626.69832
1844.02917,626.69832
1845.58351,626.69832
1847.13785,626.69832
1848.69219,626.69832
1850.24653,625.34197
1851.80086,625.34197
1853.3552,625.34197
1854.90954,625.34197
1856.46388,625.34197
1858.01822,625.34197
1859.57256,625.34197
1861.1269,625.34197
1862.68124,625.34197
1864.23557,625.34197
1865.78991,623.98562
1867.34425,622.62927
1868.89859,622.62927
1870.45293,622.62927
1872.00727,622.62927
1873.56161,622.62927
1875.11595,622.62927
1876.67029,622.62927
1878.22462,623.98562
1879.77896,623.98562
1881.3333,623.98562
1882.88764,625.34197
1884.44198,625.34197
1885.99632,623.98562
1887.55066,622.62927
1889.105,622.62927
1890.65933,623.98562
1892.21367,622.62927
1893.76801,622.62927
1895.32235,622.62927
1896.87669,622.62927
1898.43103,621.27293
1899.98537,621.27293
1901.53971,621.27293
1903.09404,622.62927
1904.64838,623.98562
1906.20272,628.05467
1906.20272,625.34197
1906.20272,626.69832
1907.75706,629.41101
1907.75706,628.05467
1909.3114,629.41101
1910.86574,629.41101
1912.42008,628.05467
1913.97442,626.69832
1915.52875,625.34197
1917.08309,625.34197
1918.63743,626.69832
1920.19177,628.05467
1921.74611,629.41101
1923.30045,628.05467
1924.85479,626.69832
1926.40913,625.34197
1927.96346,623.98562
1929.5178,625.34197
1931.07214,626.69832
1932.62648,628.05467
1934.18082,628.05467
1935.73516,628.05467
1937.2895,628.05467
1938.84384,628.05467
1940.39818,628.05467
1941.95251,628.05467
1943.50685,626.69832
1945.06119,626.69832
1946.61553,628.05467
1948.16987,628.05467
1949.72421,628.05467
1951.27855,626.69832
1952.83289,625.34197
1954.38722,625.34197
1955.94156,625.34197
1957.4959,625.34197
1959.05024,625.34197
1960.60458,625.34197
1962.15892,625.34197
1963.71326,623.98562
1965.2676,622.62927
1966.82193,621.27293
1968.37627,619.91658
1969.93061,619.91658
1971.48495,619.91658
1973.03929,619.91658
1974.59363,619.91658
1976.14797,621.27293
1977.70231,622.62927
1979.25664,622.62927
1980.81098,623.98562
1982.36532,625.34197
1983.91966,626.69832
1985.474,628.05467
1987.02834,629.41101
1988.58268,628.05467
1990.13702,626.69832
1991.69136,625.34197
1993.24569,625.34197
1994.80003,626.69832
1996.35437,628.05467
1997.90871,628.05467
1999.46305,628.05467
2001.01739,628.05467
2002.57173,628.05467
2004.12607,626.69832
2005.6804,628.05467
2007.23474,628.05467
2008.78908,628.05467
2010.34342,628.05467
2011.89776,626.69832
2013.4521,626.69832
2015.00644,626.69832
2016.56078,625.34197
2018.11511,623.98562
2019.66945,622.62927
2021.22379,622.62927
2022.77813,623.98562
2024.33247,625.34197
2025.88681,625.34197
2027.44115,623.98562
2028.99549,622.62927
2030.54982,623.98562
2032.10416,625.34197
2033.6585,625.34197
2035.21284,625.34197
2036.76718,625.34197
2038.32152,625.34197
2039.87586,625.34197
2041.4302,623.98562
2042.98453,622.62927
2044.53887,621.27293
2046.09321,621.27293
2047.64755,621.27293
2049.20189,622.62927
2050.75623,622.62927
2052.31057,622.62927
2053.86491,621.27293
2055.41925,621.27293
2056.97358,621.27293
2058.52792,622.62927
2060.08226,623.98562
2061.6366,625.34197
2063.19094,625.34197
2064.74528,623.98562
2066.29962,625.34197
2067.85396,625.34197
2069.40829,626.69832
2070.96263,626.69832
2072.51697,625.34197
2074.07131,625.34197
2075.62565,625.34197
2077.17999,623.98562
2078.73433,622.62927
2080.28867,622.62927
2081.843,622.62927
2083.39734,622.62927
2084.95168,623.98562
2086.50602,623.98562
2088.06036,623.98562
2089.6147,623.98562
2091.16904,622.62927
2092.72338,622.62927
2094.27771,623.98562
2095.83205,623.98562
2097.38639,623.98562
2098.94073,622.62927
2100.49507,621.27293
2102.04941,619.91658
2103.60375,619.91658
2105.15809,619.91658
2106.71243,621.27293
2108.26676,622.62927
2109.8211,621.27293
2111.37544,619.91658
2112.92978,618.56023
2114.48412,618.56023
2116.03846,618.56023
2117.5928,618.56023
2119.14714,619.91658
2120.70147,619.91658
2122.25581,619.91658
2123.81015,621.27293
2125.36449,621.27293
2126.91883,621.27293
2128.47317,621.27293
2130.02751,621.27293
2131.58185,621.27293
2133.13618,622.62927
2134.69052,621.27293
2136.24486,621.27293
2137.7992,621.27293
2139.35354,622.62927
2140.90788,622.62927
2142.46222,622.62927
2144.01656,621.27293
2145.57089,619.91658
2147.12523,619.91658
2148.67957,619.91658
2150.23391,619.91658
2151.78825,619.91658
2153.34259,621.27293
2154.89693,621.27293
2156.45127,621.27293
2158.0056,621.27293
2159.55994,621.27293
2161.11428,622.62927
2162.66862,622.62927
2164.22296,622.62927
2165.7773,622.62927
2167.33164,622.62927
2168.88598,622.62927
2170.44032,622.62927
2171.99465,621.27293
2173.54899,619.91658
2175.10333,619.91658
2176.65767,619.91658
2178.21201,619.91658
2179.76635,619.91658
2181.32069,619.91658
2182.87503,619.91658
2184.42936,619.91658
2185.9837,621.27293
2187.53804,622.62927
2189.09238,622.62927
2190.64672,622.62927
2192.20106,622.62927
2193.7554,622.62927
2195.30974,621.27293
2196.86407,621.27293
2198.41841,621.27293
2199.97275,621.27293
2201.52709,621.27293
2203.08143,621.27293
2204.63577,621.27293
2206.19011,621.27293
2207.74445,622.62927
2209.29878,622.62927
2210.85312,623.98562
2212.40746,625.34197
2213.9618,625.34197
2215.51614,623.98562
2217.07048,623.98562
2218.62482,623.98562
2220.17916,625.34197
2221.7335,623.98562
2223.28783,622.62927
2224.84217,622.62927
2226.39651,622.62927
2227.95085,622.62927
2229.50519,622.62927
2231.05953,623.98562
2232.61387,623.98562
2234.16821,623.98562
2235.72254,622.62927
2237.27688,621.27293
2238.83122,622.62927
2240.38556,622.62927
2241.9399,622.62927
2243.49424,622.62927
2245.04858,621.27293
2246.60292,619.91658
2248.15725,619.91658
2249.71159,619.91658
2251.26593,619.91658
2252.82027,619.91658
2254.37461,619.91658
2255.92895,619.91658
2257.48329,621.27293
2259.03763,621.27293
2260.59196,621.27293
2262.1463,622.62927
2263.70064,623.98562
2265.25498,625.34197
2266.80932,625.34197
2268.36366,623.98562
2269.918,622.62927
2271.47234,622.62927
2273.02667,622.62927
2274.58101,622.62927
2276.13535,622.62927
2277.68969,621.27293
2279.24403,621.27293
2280.79837,621.27293
2282.35271,621.27293
2283.90705,621.27293
2285.46139,622.62927
2287.01572,621.27293
2288.57006,619.91658
2290.1244,619.91658
2291.67874,618.56023
2293.23308,619.91658
2294.78742,619.91658
2296.34176,619.91658
2297.8961,619.91658
2299.45043,619.91658
2301.00477,621.27293
2302.55911,621.27293
2302.55911,623.98562
2302.55911,625.34197
2302.55911,626.69832
2302.55911,628.05467
2302.55911,629.41101
2302.55911,622.62927
2304.11345,622.62927
2304.11345,629.41101
2305.66779,629.41101
2305.66779,630.76736
2305.66779,622.62927
2305.66779,623.98562
2307.22213,623.98562
2307.22213,630.76736
2308.77647,632.12371
2308.77647,630.76736
2308.77647,625.34197
2310.33081,625.34197
2310.33081,626.69832
2310.33081,633.48006
2310.33081,632.12371
2311.88514,633.48006
2311.88514,626.69832
2313.43948,634.8364
2313.43948,633.48006
2313.43948,626.69832
2313.43948,628.05467
2314.99382,628.05467
2314.99382,629.41101
2314.99382,636.19275
2314.99382,634.8364
2316.54816,629.41101
2316.54816,636.19275
2316.54816,637.5491
2318.1025,638.90545
2318.1025,629.41101
2319.65684,638.90545
2319.65684,634.8364
2319.65684,633.48006
2319.65684,636.19275
2319.65684,637.5491
2319.65684,630.76736
2319.65684,632.12371
2321.21118,638.90545
2321.21118,637.5491
2322.76552,638.90545
2322.76552,636.19275
2324.31985,634.8364
2324.31985,638.90545
2325.87419,638.90545
2325.87419,633.48006
2327.42853,638.90545
2327.42853,633.48006
2328.98287,638.90545
2328.98287,634.8364
2328.98287,648.39988
2328.98287,647.04353
2328.98287,645.68719
2328.98287,644.33084
2328.98287,642.97449
2330.53721,641.61814
2330.53721,649.75623
2330.53721,638.90545
2330.53721,640.2618
2330.53721,636.19275
2332.09155,637.5491
2332.09155,655.18162
2332.09155,652.46892
2332.09155,651.11258
2332.09155,653.82527
2333.64589,637.5491
2335.20023,637.5491
2336.75457,637.5491
2338.3089,637.5491
2339.86324,637.5491
2341.41758,637.5491
2342.97192,637.5491
2344.52626,636.19275
2346.0806,634.8364
2346.0806,636.19275
2347.63494,634.8364
2349.18928,633.48006
2349.18928,634.8364
2350.74361,633.48006
2352.29795,632.12371
2352.29795,633.48006
2353.85229,632.12371
2355.40663,632.12371
2356.96097,629.41101
2356.96097,630.76736
2358.51531,629.41101
2360.06965,629.41101
2360.06965,628.05467
2361.62399,628.05467
2363.17832,628.05467
2363.17832,625.34197
2363.17832,626.69832
2364.73266,625.34197
2366.287,623.98562
2366.287,625.34197
2367.84134,621.27293
2367.84134,623.98562
2367.84134,622.62927
2367.84134,618.56023
2367.84134,619.91658
2369.39568,618.56023
2370.95002,618.56023
2372.50436,618.56023
2374.0587,618.56023
2375.61303,619.91658
2377.16737,621.27293
2378.72171,622.62927
2380.27605,623.98562
2381.83039,623.98562
2383.38473,622.62927
2384.93907,623.98562
2386.49341,623.98562
2388.04774,622.62927
2389.60208,621.27293
2391.15642,619.91658
2392.71076,618.56023
2394.2651,618.56023
2395.81944,619.91658
2397.37378,619.91658
2398.92812,619.91658
2400.48246,621.27293
2400.48246,625.34197
2400.48246,622.62927
2400.48246,623.98562
2400.48246,628.05467
2400.48246,626.69832
2402.03679,629.41101
2403.59113,629.41101
2405.14547,628.05467
2406.69981,626.69832
2408.25415,626.69832
2409.80849,625.34197
2411.36283,623.98562
2412.91717,623.98562
2414.4715,623.98562
2416.02584,623.98562
2417.58018,623.98562
2419.13452,623.98562
2420.68886,622.62927
2422.2432,623.98562
2423.79754,625.34197
2425.35188,625.34197
2426.90621,623.98562
2428.46055,622.62927
2430.01489,623.98562
2431.56923,625.34197
2433.12357,626.69832
2434.67791,628.05467
2436.23225,628.05467
2437.78659,628.05467
2439.34092,628.05467
2440.89526,626.69832
2442.4496,625.34197
2444.00394,623.98562
2445.55828,622.62927
2447.11262,623.98562
2448.66696,623.98562
2450.2213,623.98562
2451.77564,623.98562
2453.32997,623.98562
2454.88431,622.62927
2456.43865,623.98562
2457.99299,625.34197
2459.54733,623.98562
2461.10167,623.98562
2462.65601,623.98562
2464.21035,625.34197
2465.76468,626.69832
2467.31902,626.69832
2468.87336,628.05467
2470.4277,626.69832
2471.98204,625.34197
2473.53638,626.69832
2475.09072,626.69832
2476.64506,626.69832
2478.19939,625.34197
2479.75373,626.69832
2481.30807,628.05467
2482.86241,628.05467
2484.41675,628.05467
2485.97109,628.05467
2487.52543,628.05467
2489.07977,629.41101
2490.6341,629.41101
2492.18844,629.41101
2493.74278,629.41101
2495.29712,629.41101
2496.85146,629.41101
2498.4058,629.41101
2499.96014,628.05467
2501.51448,626.69832
2503.06881,628.05467
2504.62315,629.41101
2506.17749,628.05467
2507.73183,626.69832
2509.28617,625.34197
2510.84051,623.98562
2512.39485,625.34197
2513.94919,626.69832
2515.50353,626.69832
2517.05786,628.05467
2518.6122,628.05467
2520.16654,626.69832
2521.72088,625.34197
2523.27522,625.34197
2524.82956,625.34197
2526.3839,625.34197
2527.93824,625.34197
2529.49257,625.34197
2531.04691,625.34197
2532.60125,623.98562
2534.15559,623.98562
2535.70993,623.98562
2537.26427,622.62927
2538.81861,622.62927
2540.37295,622.62927
2541.92728,622.62927
2543.48162,622.62927
2545.03596,622.62927
2546.5903,623.98562
2548.14464,625.34197
2549.69898,625.34197
2551.25332,623.98562
2552.80766,622.62927
2554.36199,623.98562
2555.91633,625.34197
2557.47067,626.69832
2559.02501,626.69832
2560.57935,626.69832
2562.13369,626.69832
2563.68803,626.69832
2565.24237,626.69832
2566.79671,626.69832
2568.35104,626.69832
2569.90538,626.69832
2571.45972,626.69832
2573.01406,626.69832
2574.5684,626.69832
2576.12274,626.69832
2577.67708,626.69832
2579.23142,626.69832
2580.78575,626.69832
2582.34009,626.69832
2583.89443,626.69832
2585.44877,626.69832
2587.00311,626.69832
2588.55745,626.69832
2590.11179,626.69832
2591.66613,626.69832
2593.22046,626.69832
2594.7748,626.69832
2596.32914,628.05467
2597.88348,628.05467
2599.43782,628.05467
2600.99216,626.69832
2602.5465,625.34197
2604.10084,623.98562
2605.65517,623.98562
2607.20951,623.98562
2608.76385,623.98562
2610.31819,623.98562
2611.87253,623.98562
2613.42687,622.62927
2614.98121,622.62927
2616.53555,622.62927
2618.08988,622.62927
2619.64422,622.62927
2621.19856,622.62927
2622.7529,622.62927
2624.30724,622.62927
2625.86158,622.62927
2627.41592,621.27293
2628.97026,621.27293
2630.5246,621.27293
2632.07893,621.27293
2633.63327,619.91658
2635.18761,621.27293
2636.74195,622.62927
2638.29629,622.62927
2639.85063,622.62927
2641.40497,621.27293
2642.95931,619.91658
2644.51364,618.56023
2646.06798,619.91658
2647.62232,621.27293
2649.17666,622.62927
2650.731,623.98562
2652.28534,625.34197
2653.83968,625.34197
2655.39402,625.34197
2656.94835,626.69832
2658.50269,626.69832
2660.05703,626.69832
2661.61137,626.69832
2663.16571,625.34197
2664.72005,626.69832
2666.27439,628.05467
2667.82873,629.41101
2669.38306,629.41101
2670.9374,629.41101
2672.49174,629.41101
2674.04608,629.41101
2675.60042,629.41101
2677.15476,628.05467
2678.7091,626.69832
2680.26344,625.34197
2681.81778,623.98562
2683.37211,623.98562
2684.92645,623.98562
2686.48079,625.34197
2688.03513,626.69832
2689.58947,628.05467
2691.14381,629.41101
2692.69815,629.41101
2694.25249,629.41101
2695.80682,629.41101
2697.36116,628.05467
2698.9155,628.05467
2700.46984,629.41101
2702.02418,629.41101
2703.57852,629.41101
2705.13286,629.41101
2706.6872,628.05467
2708.24153,626.69832
2709.79587,625.34197
2711.35021,623.98562
2712.90455,622.62927
2714.45889,623.98562
2716.01323,625.34197
2717.56757,623.98562
2719.12191,622.62927
2720.67624,622.62927
2722.23058,622.62927
2723.78492,622.62927
2725.33926,622.62927
2726.8936,622.62927
2728.44794,621.27293
2730.00228,621.27293
2731.55662,621.27293
2733.11095,619.91658
2734.66529,619.91658
2736.21963,621.27293
2737.77397,622.62927
2739.32831,621.27293
2740.88265,619.91658
2742.43699,621.27293
2743.99133,622.62927
2745.54567,622.62927
2747.1,623.98562
2748.65434,623.98562
2750.20868,623.98562
2751.76302,623.98562
2753.31736,623.98562
2754.8717,625.34197
2756.42604,625.34197
2757.98038,625.34197
2759.53471,625.34197
2761.08905,625.34197
2762.64339,623.98562
2764.19773,622.62927
2765.75207,621.27293
2767.30641,622.62927
2768.86075,622.62927
2770.41509,621.27293
2771.96942,622.62927
2773.52376,621.27293
2775.0781,621.27293
2776.63244,621.27293
2778.18678,622.62927
2779.74112,621.27293
2781.29546,619.91658
2782.8498,619.91658
2784.40413,619.91658
2785.95847,619.91658
2787.51281,621.27293
2789.06715,622.62927
2790.62149,623.98562
2792.17583,623.98562
2793.73017,623.98562
2795.28451,625.34197
2796.83885,625.34197
2798.39318,625.34197
2799.94752,625.34197
2801.50186,625.34197
2803.0562,625.34197
2804.61054,625.34197
2806.16488,625.34197
2807.71922,626.69832
2809.27356,626.69832
2810.82789,628.05467
2812.38223,628.05467
2813.93657,626.69832
2815.49091,625.34197
2817.04525,623.98562
2818.59959,623.98562
2820.15393,623.98562
2821.70827,623.98562
2823.2626,623.98562
2824.81694,622.62927
2826.37128,622.62927
2827.92562,622.62927
2829.47996,622.62927
2831.0343,622.62927
2832.58864,622.62927
2834.14298,622.62927
2835.69731,622.62927
2837.25165,621.27293
2838.80599,622.62927
2840.36033,623.98562
2841.91467,625.34197
2843.46901,626.69832
2845.02335,626.69832
2846.57769,626.69832
2848.13202,625.34197
2849.68636,623.98562
2851.2407,625.34197
2852.79504,625.34197
2854.34938,623.98562
2855.90372,623.98562
2857.45806,623.98562
2859.0124,625.34197
2860.56674,625.34197
2862.12107,623.98562
2863.67541,625.34197
2865.22975,626.69832
2866.78409,626.69832
2868.33843,625.34197
2869.89277,625.34197
2871.44711,625.34197
2873.00145,625.34197
2874.55578,625.34197
2876.11012,623.98562
2877.66446,623.98562
2879.2188,623.98562
2880.77314,625.34197
2882.32748,626.69832
2883.88182,628.05467
2885.43616,628.05467
2886.99049,628.05467
2888.54483,626.69832
2890.09917,625.34197
2891.65351,623.98562
2893.20785,623.98562
2894.76219,622.62927
2896.31653,623.98562
2897.87087,623.98562
2899.4252,625.34197
2900.97954,626.69832
2902.53388,628.05467
2904.08822,628.05467
2905.64256,628.05467
2907.1969,628.05467
2908.75124,628.05467
2910.30558,629.41101
2911.85992,629.41101
2913.41425,630.76736
2914.96859,630.76736
2916.52293,632.12371
2918.07727,632.12371
2919.63161,632.12371
2921.18595,632.12371
2922.74029,632.12371
2924.29463,630.76736
2925.84896,629.41101
2927.4033,629.41101
2928.95764,630.76736
2930.51198,629.41101
2932.06632,628.05467
2933.62066,629.41101
2935.175,630.76736
2936.72934,629.41101
2938.28367,628.05467
2939.83801,626.69832
2941.39235,626.69832
2942.94669,626.69832
2944.50103,626.69832
2946.05537,626.69832
2947.60971,626.69832
2949.16405,628.05467
2950.71838,628.05467
2952.27272,628.05467
2953.82706,628.05467
2955.3814,626.69832
2956.93574,626.69832
2958.49008,626.69832
2960.04442,625.34197
2961.59876,625.34197
2963.15309,623.98562
2964.70743,623.98562
2966.26177,623.98562
2967.81611,622.62927
2969.37045,622.62927
2970.92479,623.98562
2972.47913,625.34197
2974.03347,626.69832
2975.58781,628.05467
2977.14214,626.69832
2978.69648,626.69832
2980.25082,626.69832
2981.80516,625.34197
2983.3595,623.98562
2984.91384,622.62927
2986.46818,622.62927
2988.02252,622.62927
2989.57685,622.62927
2991.13119,622.62927
2992.68553,622.62927
2994.23987,621.27293
2995.79421,621.27293
2997.34855,621.27293
2998.90289,621.27293
3000.45723,621.27293
3002.01156,622.62927
3003.5659,623.98562
3005.12024,623.98562
3006.67458,623.98562
3008.22892,625.34197
3009.78326,626.69832
3011.3376,626.69832
3012.89194,625.34197
3014.44627,623.98562
3016.00061,622.62927
3017.55495,622.62927
3019.10929,622.62927
3020.66363,622.62927
3022.21797,622.62927
3023.77231,621.27293
3025.32665,621.27293
3026.88099,619.91658
3028.43532,619.91658
3029.98966,621.27293
3031.544,622.62927
3033.09834,623.98562
3034.65268,625.34197
3036.20702,626.69832
3037.76136,626.69832
3039.3157,626.69832
3040.87003,626.69832
3042.42437,626.69832
3043.97871,626.69832
3045.53305,628.05467
3047.08739,628.05467
3048.64173,628.05467
3050.19607,628.05467
3051.75041,628.05467
3053.30474,628.05467
3054.85908,628.05467
3056.41342,628.05467
3057.96776,628.05467
3059.5221,628.05467
3061.07644,628.05467
3062.63078,628.05467
3064.18512,628.05467
3065.73945,628.05467
3067.29379,628.05467
3068.84813,628.05467
3070.40247,628.05467
3071.95681,628.05467
3073.51115,628.05467
3075.06549,628.05467
3076.61983,628.05467
3078.17416,626.69832
3079.7285,626.69832
3081.28284,625.34197
3082.83718,623.98562
3084.39152,623.98562
3085.94586,622.62927
3087.5002,621.27293
3089.05454,622.62927
3090.60888,623.98562
3092.16321,625.34197
3093.71755,623.98562
3095.27189,622.62927
3096.82623,622.62927
3098.38057,622.62927
3099.93491,622.62927
3101.48925,622.62927
3103.04359,622.62927
3104.59792,622.62927
3106.15226,622.62927
3107.7066,623.98562
3109.26094,625.34197
3110.81528,625.34197
3112.36962,625.34197
3113.92396,625.34197
3115.4783,625.34197
3117.03263,625.34197
3118.58697,625.34197
3120.14131,625.34197
3121.69565,625.34197
3123.24999,625.34197
3124.80433,625.34197
3126.35867,625.34197
3127.91301,626.69832
3129.46734,626.69832
3131.02168,625.34197
3132.57602,623.98562
3134.13036,623.98562
3135.6847,625.34197
3137.23904,625.34197
3138.79338,625.34197
3140.34772,623.98562
3141.90206,622.62927
3143.45639,623.98562
3145.01073,623.98562
3146.56507,625.34197
3148.11941,623.98562
3149.67375,622.62927
3151.22809,623.98562
3152.78243,623.98562
3154.33677,623.98562
3155.8911,625.34197
3157.44544,625.34197
3158.99978,625.34197
3160.55412,625.34197
3162.10846,625.34197
3163.6628,623.98562
3165.21714,622.62927
3166.77148,621.27293
3168.32581,621.27293
3168.32581,622.62927
3169.88015,622.62927
3171.43449,622.62927
3172.98883,630.76736
3172.98883,623.98562
3172.98883,625.34197
3172.98883,626.69832
3172.98883,628.05467
3172.98883,629.41101
3174.54317,630.76736
3176.09751,630.76736
3177.65185,630.76736
3179.20619,630.76736
3180.76052,629.41101
3182.31486,628.05467
3183.8692,626.69832
3185.42354,625.34197
3186.97788,625.34197
3188.53222,625.34197
3190.08656,625.34197
3191.6409,623.98562
3193.19523,625.34197
3194.74957,626.69832
3196.30391,628.05467
3197.85825,629.41101
3199.41259,628.05467
3200.96693,626.69832
3202.52127,625.34197
3204.07561,625.34197
3205.62995,626.69832
3207.18428,626.69832
3208.73862,626.69832
3210.29296,626.69832
3211.8473,628.05467
3213.40164,629.41101
3214.95598,630.76736
3216.51032,629.41101
3218.06466,629.41101
3219.61899,630.76736
3221.17333,630.76736
3222.72767,629.41101
3224.28201,628.05467
3225.83635,628.05467
3227.39069,628.05467
3228.94503,628.05467
3230.49937,629.41101
3232.0537,629.41101
3233.60804,629.41101
3235.16238,629.41101
3236.71672,629.41101
3238.27106,629.41101
3239.8254,630.76736
3241.37974,632.12371
3242.93408,632.12371
3244.48841,632.12371
3246.04275,632.12371
3247.59709,632.12371
3249.15143,632.12371
3250.70577,633.48006
3252.26011,633.48006
3253.81445,632.12371
3255.36879,630.76736
3256.92313,632.12371
3258.47746,632.12371
3260.0318,630.76736
3261.58614,630.76736
3263.14048,632.12371
3264.69482,630.76736
3266.24916,629.41101
3267.8035,630.76736
3269.35784,630.76736
3270.91217,630.76736
3272.46651,630.76736
3274.02085,630.76736
3275.57519,629.41101
3277.12953,628.05467
3278.68387,628.05467
3280.23821,626.69832
3281.79255,626.69832
3283.34688,628.05467
3284.90122,629.41101
3286.45556,628.05467
3288.0099,629.41101
3289.56424,630.76736
3291.11858,632.12371
3292.67292,632.12371
3294.22726,633.48006
3295.78159,633.48006
3297.33593,633.48006
3298.89027,634.8364
3300.44461,634.8364
3301.99895,634.8364
3303.55329,634.8364
3305.10763,634.8364
3306.66197,634.8364
3308.2163,633.48006
3309.77064,633.48006
3311.32498,633.48006
3312.87932,633.48006
3314.43366,633.48006
3315.988,634.8364
3317.54234,636.19275
3319.09668,636.19275
3320.65102,636.19275
3322.20535,634.8364
3323.75969,633.48006
3325.31403,632.12371
3326.86837,630.76736
3328.42271,630.76736
3329.97705,630.76736
3331.53139,632.12371
3333.08573,633.48006
3334.64006,634.8364
3336.1944,634.8364
3336.1944,636.19275
3337.74874,634.8364
3339.30308,633.48006
3339.30308,634.8364
3340.85742,633.48006
3342.41176,633.48006
3343.9661,625.34197
3343.9661,632.12371
3343.9661,630.76736
3343.9661,629.41101
3343.9661,628.05467
3343.9661,626.69832
3345.52044,625.34197
3347.07477,623.98562
3348.62911,625.34197
3350.18345,626.69832
3351.73779,626.69832
3353.29213,625.34197
3354.84647,626.69832
3356.40081,626.69832
3357.95515,625.34197
3359.50948,626.69832
3361.06382,628.05467
3362.61816,626.69832
3364.1725,625.34197
3365.72684,625.34197
3367.28118,626.69832
3368.83552,626.69832
3370.38986,626.69832
3371.9442,626.69832
3373.49853,626.69832
3375.05287,625.34197
3376.60721,623.98562
3378.16155,623.98562
3379.71589,622.62927
3381.27023,623.98562
3382.82457,625.34197
3384.37891,623.98562
3385.93324,623.98562
3387.48758,622.62927
3389.04192,622.62927
3390.59626,622.62927
3392.1506,622.62927
3393.70494,622.62927
3395.25928,623.98562
3396.81362,625.34197
3398.36795,625.34197
3399.92229,623.98562
3401.47663,622.62927
3403.03097,621.27293
3404.58531,621.27293
3406.13965,622.62927
3407.69399,623.98562
3409.24833,625.34197
3410.80266,625.34197
3412.357,626.69832
3413.91134,628.05467
3415.46568,628.05467
3417.02002,628.05467
3418.57436,628.05467
3420.1287,628.05467
3421.68304,626.69832
3423.23737,625.34197
3424.79171,623.98562
3426.34605,622.62927
3427.90039,623.98562
3429.45473,623.98562
3431.00907,623.98562
3432.56341,623.98562
3434.11775,623.98562
3435.67209,625.34197
3437.22642,623.98562
3438.78076,622.62927
3440.3351,622.62927
3441.88944,622.62927
3443.44378,621.27293
3444.99812,621.27293
3446.55246,622.62927
3448.1068,622.62927
3449.66113,622.62927
3451.21547,623.98562
3452.76981,623.98562
3454.32415,623.98562
3455.87849,625.34197
3457.43283,625.34197
3458.98717,625.34197
3460.54151,625.34197
3462.09584,625.34197
3463.65018,626.69832
3465.20452,628.05467
3466.75886,628.05467
3468.3132,628.05467
3469.86754,626.69832
3471.42188,625.34197
3472.97622,625.34197
3474.53055,625.34197
3476.08489,626.69832
3477.63923,625.34197
3479.19357,623.98562
3480.74791,625.34197
3482.30225,626.69832
3483.85659,628.05467
3485.41093,628.05467
3486.96527,628.05467
3488.5196,628.05467
3490.07394,629.41101
3491.62828,629.41101
3493.18262,628.05467
3494.73696,626.69832
3496.2913,628.05467
3497.84564,629.41101
3499.39998,629.41101
3500.95431,628.05467
3502.50865,628.05467
3504.06299,628.05467
3505.61733,626.69832
3507.17167,626.69832
3508.72601,626.69832
3510.28035,625.34197
3511.83469,625.34197
3513.38902,623.98562
3514.94336,622.62927
3516.4977,621.27293
3518.05204,619.91658
3519.60638,619.91658
3521.16072,619.91658
3522.71506,619.91658
3524.2694,619.91658
3524.2694,625.34197
3524.2694,621.27293
3524.2694,622.62927
3524.2694,623.98562
3524.2694,626.69832
3525.82373,628.05467
3527.37807,628.05467
3528.93241,628.05467
3530.48675,626.69832
3532.04109,625.34197
3533.59543,623.98562
3535.14977,622.62927
3536.70411,623.98562
3538.25844,625.34197
3539.81278,626.69832
3541.36712,628.05467
3542.92146,628.05467
3544.4758,628.05467
3546.03014,626.69832
3547.58448,626.69832
3549.13882,628.05467
3550.69316,628.05467
3552.24749,628.05467
3553.80183,628.05467
3555.35617,626.69832
3556.91051,626.69832
3558.46485,626.69832
3560.01919,625.34197
3561.57353,623.98562
3563.12787,622.62927
3564.6822,621.27293
3566.23654,621.27293
3567.79088,622.62927
3569.34522,621.27293
3570.89956,622.62927
3572.4539,622.62927
3574.00824,623.98562
3575.56258,623.98562
3577.11691,623.98562
3578.67125,625.34197
3580.22559,626.69832
3581.77993,628.05467
3583.33427,629.41101
3584.88861,629.41101
3586.44295,630.76736
3587.99729,630.76736
3589.55162,629.41101
3591.10596,628.05467
3592.6603,626.69832
3594.21464,628.05467
3595.76898,629.41101
3597.32332,629.41101
3598.87766,629.41101
3600.432,629.41101
3601.98634,629.41101
3603.54067,628.05467
3605.09501,626.69832
3606.64935,625.34197
3608.20369,623.98562
3609.75803,623.98562
3611.31237,623.98562
3612.86671,630.76736
3612.86671,623.98562
3612.86671,625.34197
3612.86671,626.69832
3612.86671,628.05467
3612.86671,629.41101
3612.86671,632.12371
3614.42105,632.12371
3614.42105,633.48006
3615.97538,633.48006
3617.52972,634.8364
3617.52972,633.48006
3619.08406,637.5491
3619.08406,634.8364
3619.08406,636.19275
3620.6384,637.5491
3620.6384,638.90545
3622.19274,641.61814
3622.19274,640.2618
3623.74708,641.61814
3625.30142,641.61814
3626.85576,649.75623
3626.85576,641.61814
3626.85576,651.11258
3628.41009,651.11258
3628.41009,655.18162
3628.41009,653.82527
3628.41009,652.46892
3628.41009,641.61814
3628.41009,648.39988
3629.96443,645.68719
3629.96443,641.61814
3629.96443,661.96336
3629.96443,647.04353
3629.96443,651.11258
3629.96443,657.89432
3629.96443,644.33084
3629.96443,642.97449
3629.96443,656.53797
3631.51877,644.33084
3631.51877,659.25066
3631.51877,660.60701
3631.51877,664.67605
3631.51877,663.31971
3633.07311,668.7451
3633.07311,666.0324
3633.07311,667.38875
3634.62745,674.17049
3634.62745,670.10145
3634.62745,671.45779
3634.62745,672.81414
3636.18179,675.52684
3637.73613,676.88318
3639.29047,687.73397
3639.29047,678.23953
3639.29047,686.37762
3639.29047,685.02127
3639.29047,689.09031
3640.8448,690.44666
3640.8448,691.80301
3640.8448,679.59588
3640.8448,694.51571
3640.8448,683.66492
3640.8448,693.15936
3642.39914,680.95223
3642.39914,682.30858
3642.39914,695.87205
3643.95348,699.9411
3643.95348,695.87205
3643.95348,697.2284
3643.95348,698.58475
3645.50782,695.87205
3645.50782,705.36649
3645.50782,701.29744
3647.06216,702.65379
3647.06216,708.07918
3647.06216,704.01014
3647.06216,706.72283
3648.6165,710.79188
3648.6165,708.07918
3648.6165,709.43553
3650.17084,712.14823
3651.72518,712.14823
3653.27951,712.14823
3653.27951,713.50457
3654.83385,712.14823
3656.38819,710.79188
3657.94253,712.14823
3659.49687,713.50457
3661.05121,704.01014
3661.05121,712.14823
3661.05121,710.79188
3661.05121,709.43553
3661.05121,708.07918
3661.05121,706.72283
3661.05121,705.36649
3662.60555,699.9411
3662.60555,704.01014
3662.60555,702.65379
3662.60555,701.29744
3664.15989,698.58475
3664.15989,699.9411
3665.71423,697.2284
3667.26856,697.2284
3668.8229,687.73397
3668.8229,697.2284
3668.8229,695.87205
3668.8229,689.09031
3668.8229,686.37762
3670.37724,685.02127
3670.37724,683.66492
3670.37724,694.51571
3670.37724,690.44666
3671.93158,680.95223
3671.93158,691.80301
3671.93158,682.30858
3671.93158,694.51571
3673.48592,694.51571
3673.48592,693.15936
3673.48592,676.88318
3673.48592,679.59588
3673.48592,678.23953
3675.04026,668.7451
3675.04026,675.52684
3675.04026,674.17049
3675.04026,672.81414
3676.5946,671.45779
3676.5946,670.10145
3676.5946,664.67605
3676.5946,667.38875
3676.5946,666.0324
3678.14894,661.96336
3678.14894,663.31971
3679.70327,655.18162
3679.70327,660.60701
3679.70327,659.25066
3681.25761,657.89432
3681.25761,656.53797
3681.25761,653.82527
3681.25761,652.46892
3682.81195,649.75623
3682.81195,651.11258
3684.36629,649.75623
3685.92063,649.75623
3687.47497,649.75623
3689.02931,636.19275
3689.02931,649.75623
3689.02931,637.5491
3690.58365,634.8364
3690.58365,649.75623
3690.58365,638.90545
3690.58365,640.2618
3690.58365,641.61814
3692.13798,642.97449
3692.13798,644.33084
3692.13798,645.68719
3692.13798,647.04353
3692.13798,634.8364
3692.13798,648.39988
3693.69232,634.8364
3695.24666,634.8364
3696.801,634.8364
3698.35534,634.8364
3699.90968,633.48006
3701.46402,622.62927
3701.46402,632.12371
3701.46402,630.76736
3701.46402,629.41101
3701.46402,628.05467
3701.46402,626.69832
3701.46402,625.34197
3701.46402,623.98562
3703.01836,621.27293
3703.01836,622.62927
3704.57269,619.91658
3704.57269,621.27293
3706.12703,619.91658
3707.68137,618.56023
3709.23571,618.56023
3710.79005,618.56023
3712.34439,619.91658
3713.89873,621.27293
3715.45307,622.62927
3717.00741,622.62927
3718.56174,621.27293
3720.11608,619.91658
3721.67042,618.56023
3723.22476,618.56023
3724.7791,618.56023
3726.33344,619.91658
3727.88778,619.91658
3729.44212,619.91658
3730.99645,619.91658
3732.55079,619.91658
3734.10513,619.91658
3735.65947,619.91658
3737.21381,621.27293
3738.76815,622.62927
3740.32249,623.98562
3741.87683,625.34197
3743.43116,625.34197
3744.9855,623.98562
3746.53984,622.62927
3748.09418,621.27293
3749.64852,622.62927
3751.20286,623.98562
3752.7572,623.98562
3754.31154,623.98562
3755.86587,623.98562
3757.42021,625.34197
3758.97455,623.98562
3760.52889,622.62927
3762.08323,621.27293
3763.63757,621.27293
3765.19191,619.91658
3766.74625,619.91658
3768.30058,619.91658
3769.85492,621.27293
3771.40926,621.27293
3772.9636,621.27293
3774.51794,622.62927
3776.07228,623.98562
3777.62662,622.62927
3779.18096,623.98562
3780.7353,623.98562
3782.28963,623.98562
3783.84397,622.62927
3785.39831,621.27293
3786.95265,622.62927
3788.50699,623.98562
3790.06133,625.34197
3791.61567,626.69832
3793.17001,626.69832
3794.72434,626.69832
3796.27868,626.69832
3797.83302,626.69832
3799.38736,625.34197
3800.9417,623.98562
3802.49604,625.34197
3804.05038,623.98562
3805.60472,623.98562
3807.15905,623.98562
3808.71339,623.98562
3810.26773,623.98562
3811.82207,623.98562
3813.37641,623.98562
3814.93075,622.62927
3816.48509,623.98562
3818.03943,623.98562
3819.59376,623.98562
3821.1481,623.98562
3822.70244,622.62927
3824.25678,622.62927
3825.81112,623.98562
3827.36546,623.98562
3828.9198,623.98562
3830.47414,623.98562
3832.02848,623.98562
3833.58281,623.98562
3835.13715,623.98562
3836.69149,623.98562
3838.24583,622.62927
3839.80017,622.62927
3841.35451,622.62927
3842.90885,622.62927
3844.46319,623.98562
3846.01752,623.98562
3847.57186,623.98562
3849.1262,623.98562
3850.68054,623.98562
3852.23488,622.62927
3853.78922,621.27293
3855.34356,622.62927
3856.8979,623.98562
3858.45223,625.34197
3860.00657,625.34197
3861.56091,623.98562
3863.11525,623.98562
3864.66959,623.98562
3866.22393,623.98562
3867.77827,622.62927
3869.33261,621.27293
3870.88694,621.27293
3872.44128,621.27293
3873.99562,621.27293
3875.54996,621.27293
3877.1043,622.62927
3878.65864,621.27293
3880.21298,621.27293
3881.76732,621.27293
3883.32165,622.62927
3884.87599,621.27293
3886.43033,619.91658
3887.98467,619.91658
3889.53901,619.91658
3891.09335,621.27293
3892.64769,619.91658
3894.20203,619.91658
3895.75637,619.91658
3897.3107,619.91658
3898.86504,621.27293
3900.41938,621.27293
3901.97372,622.62927
3903.52806,622.62927
3905.0824,622.62927
3906.63674,622.62927
3908.19108,623.98562
3909.74541,622.62927
3911.29975,623.98562
3912.85409,623.98562
3914.40843,623.98562
3915.96277,625.34197
3917.51711,625.34197
3919.07145,626.69832
3920.62579,626.69832
3922.18012,626.69832
3923.73446,626.69832
3925.2888,628.05467
3926.84314,629.41101
3928.39748,629.41101
3929.95182,629.41101
3931.50616,629.41101
3933.0605,630.76736
3934.61483,632.12371
3936.16917,632.12371
3937.72351,630.76736
3939.27785,629.41101
3940.83219,628.05467
3942.38653,626.69832
3943.94087,625.34197
3945.49521,625.34197
3947.04955,625.34197
3948.60388,626.69832
3950.15822,626.69832
3951.71256,626.69832
3953.2669,626.69832
3954.82124,628.05467
3956.37558,628.05467
3957.92992,628.05467
3959.48426,628.05467
3961.03859,629.41101
3962.59293,630.76736
3964.14727,630.76736
3965.70161,629.41101
3967.25595,629.41101
3968.81029,629.41101
3970.36463,628.05467
