Raman Shift,Intensity
214.3785040343428,7.813
224.78145843945092,10.418
235.01908334044856,49.483
245.41130867789616,28.648
255.63837774522108,-62.505
265.8602158678186,192.724
276.23642015571386,216.163
286.44772684514464,-28.648
296.8132434111685,10.418
307.0140349346475,-205.746
317.209615658554,-13.022
327.399989574551,-153.658
337.7442627077253,-106.779
347.9241537664129,-70.318
358.09885002992814,54.692
368.2683554736213,276.064
378.5914504125685,-5.209
388.7505051753542,20.835
398.90438108190574,0.0
409.0530820913264,302.108
419.196612158652,-174.493
429.3349752349313,362.008
439.626465572117,67.714
449.75442592354375,252.624
459.8772311743669,174.493
469.994885259468,187.515
480.1073921097559,101.571
490.2147556521086,513.062
500.31697980943136,341.173
510.41406850063504,244.811
520.5060256406359,187.515
530.5928551403995,252.624
540.6745609068894,286.481
550.7511468431039,273.459
560.8226168481124,260.438
570.888974816975,348.986
580.9502246408374,346.382
590.8492821665859,317.734
600.9004070215597,585.984
610.9464353206786,565.149
620.9873709393651,893.301
631.0232177491416,1323.023
641.0539796175653,1752.745
650.9230482019848,2070.478
660.9437310766662,1507.933
670.9593405290361,755.269
680.9698804110958,726.621
690.8190579752118,257.833
700.8195493193562,437.535
710.8149825658329,317.734
720.805361551138,382.843
730.6347081696804,395.865
740.6150689503047,421.909
750.4345613154874,520.875
760.404918953056,304.712
770.3702413346182,599.006
780.174941402227,453.161
790.1302832356378,273.459
799.925166080895,648.489
809.8705423523497,268.251
819.6556227125038,455.766
829.5910483782136,645.885
839.3663409610526,375.03
849.2918309472952,273.459
859.0573504311833,307.316
868.972919634427,338.569
878.7286806683987,489.623
888.6343439553166,362.008
898.3803611591502,359.404
908.12155022542,359.404
918.0124213310264,239.603
927.743888384779,406.283
937.4705381077074,348.986
947.3466501411676,393.261
957.0635996041163,218.768
966.7757425107702,546.919
976.6371284824854,643.281
986.3395928168538,961.015
996.0372613373548,2424.673
1005.7301375988682,3265.887
1015.5719657306544,2898.67
1025.255192198514,1619.921
1034.9336371072422,929.762
1044.6073039976543,635.468
1054.2761964070742,554.732
1063.9403178693246,440.139
1073.5996719147442,484.414
1083.4074711432768,533.897
1093.057225399156,362.008
1102.70222286418,648.489
1112.3424670547538,708.39
1121.9779614837898,804.752
1131.6087096607444,546.919
1141.2347150916105,648.489
1150.855981278939,453.161
1160.4725117218331,854.235
1170.0843099159465,455.766
1179.6913793534914,476.601
1189.293723523253,205.746
1198.739039559725,390.656
1208.3320185130287,661.511
1217.9202825891407,468.788
1227.5038352631818,619.841
1237.0826800068826,291.69
1246.6568202885535,419.304
1256.226259573108,343.778
1265.639216696829,255.229
1275.1993388504195,346.382
1284.7547703264208,281.273
1294.3055145761757,-2.604
1303.7000868433097,716.203
1313.241541245312,333.36
1322.778318700337,416.7
1332.310422646282,182.306
1341.686663866676,309.921
1351.2095051416618,333.36
1360.727683146746,390.656
1370.0902294598782,145.845
1379.5991650801443,286.481
1388.9526223370776,244.811
1398.4523290278594,252.624
1407.7967104575073,161.471
1417.287201648047,114.593
1426.7730533080105,429.722
1436.1038095471376,356.799
1445.5804658554116,156.263
1454.9021792800197,203.141
1464.369653600741,132.823
1473.6823373500883,-31.253
1482.9905472474493,226.581
1492.444310209452,252.624
1501.7435100404182,177.098
1511.1881242589734,177.098
1520.4783270994303,-7.813
1529.764072276041,351.591
1539.1950247490097,169.284
1548.4717924494323,190.119
1557.7441121511074,302.108
1567.1614324998736,161.471
1576.4247941832873,273.459
1585.6837175051332,221.372
1594.9382056544855,270.855
1604.3374199708342,119.801
1613.5829759239496,208.35
1622.8241063047317,291.69
1632.0608142900164,528.688
1641.2931030535765,151.054
1650.6697762525291,247.416
1659.8931649322622,210.954
1669.1121439444323,242.207
1678.3267164506542,307.316
1687.53688560953,59.901
1696.7426545766284,343.778
1705.9440265045123,315.129
1715.1410045427183,174.493
1724.3335918377925,302.108
1733.5217915332687,148.449
1742.705606769683,276.064
1751.8850406845886,247.416
1761.0600964125188,106.779
1770.230777085024,273.459
1779.397085830693,117.197
1788.55902577511,260.438
1797.7166000408906,234.394
1806.8698117476447,184.911
1816.0186640120735,-36.461
1825.163159947857,216.163
1834.1559155330324,75.527
1843.29177827917,302.108
1852.4232939699289,289.086
1861.550465707216,26.044
1870.673296589972,218.768
1879.644751645923,320.338
1888.758979994156,148.449
1897.8688767172423,182.306
1906.974444902422,369.821
1915.9289277003045,44.274
1925.025917750907,-36.461
1934.118588458099,156.263
1943.060390766601,-145.845
1952.144501554074,7.813
1961.2243021666216,67.714
1970.153450902042,-117.197
1979.224709758193,158.867
1988.1454604369865,117.197
1997.208189584475,278.668
2006.120554048888,109.384
2015.1747655127983,213.559
2024.0787555828572,104.175
2033.12446136566,114.593
2042.0200888391555,62.505
2051.057300920809,179.702
2059.9445775734057,195.328
2068.9733079113576,52.088
2077.852245496608,96.362
2086.8725060258803,-78.131
2095.743116275291,164.076
2104.6096010526526,174.493
2113.6172135316083,125.01
2122.4753884816528,341.173
2131.329446630596,156.263
2140.324437642892,216.163
2149.170203423979,20.835
2158.011861050589,208.35
2166.994257105456,36.461
2175.8276397748195,231.789
2184.656922912145,239.603
2193.48210937062,210.954
2202.303202000803,179.702
2211.2647105948345,91.153
2220.077557114586,75.527
2228.886318388424,80.736
2237.6909972563008,166.68
2246.4915965555265,179.702
2255.2881191208,158.867
2264.0805677841927,312.525
2272.8689453751285,440.139
2281.6532547204406,226.581
2290.5774032157133,72.923
2299.353517963282,234.394
2308.125572976198,257.833
2316.893571070781,312.525
2325.6575150607823,78.131
2334.273835606975,210.954
2343.029746164546,125.01
2351.781610997117,229.185
2360.5294329081007,283.877
2369.273214698267,236.998
2378.0129591658333,85.944
2386.7486691064114,18.231
2395.48034731306,174.493
2404.2079965762314,229.185
2412.788641914361,80.736
2421.5083075861257,-158.867
2430.2239526247795,203.141
2438.9355798105607,148.449
2447.64319192111,67.714
2456.204142101211,179.702
2464.9037980916983,46.879
2473.5994472792227,190.119
2482.148638712344,78.131
2490.836348166158,106.779
2499.5200590665554,119.801
2508.0575159626023,119.801
2516.7333034706826,138.032
2525.405100652257,65.109
2533.930847154741,218.768
2542.5947372405863,184.911
2551.112711590584,114.593
2559.768705390503,26.044
2568.2789182109263,-28.648
2576.927026515033,205.746
2585.5711635713087,62.505
2594.069721988235,-72.923
2602.5644435408976,145.845
2611.196813145194,-28.648
2619.683804921093,83.34
2628.3083212822166,210.954
2636.7875938271245,221.372
2645.404267656864,130.219
2653.875831497382,26.044
2662.343576738021,156.263
2670.948539131641,278.668
2679.408591378582,195.328
2687.8648328054915,283.877
2696.4581076233444,-44.274
2704.906671724595,41.67
2713.351432764532,148.449
2721.792393310454,138.032
2730.370143142005,463.579
2738.8034471581705,2.604
2747.232958411034,10.418
2755.658679458633,104.175
2764.220946338093,125.01
2772.639031576786,312.525
2781.053334313052,210.954
2789.463857095703,125.01
2797.8706024712737,281.273
2806.2735729839987,62.505
2814.672771175843,23.439
2823.0681995864725,70.318
2831.459860753297,39.066
2839.847757211428,197.933
2848.231891493713,242.207
2856.612266130724,-57.296
2864.988883650767,223.976
2873.3617465798743,234.394
2881.7308574418275,195.328
2890.096218758139,101.571
2898.457833048058,117.197
2906.815702828586,252.624
2915.169830614461,145.845
2923.5202189181878,161.471
2931.8668702499926,151.054
2940.209787117892,223.976
2948.41001618022,203.141
2956.7455337723804,289.086
2965.077324369493,104.175
2973.405390470638,46.879
2981.7297345726547,145.845
2989.9117125592966,122.406
2998.2286820744484,122.406
3006.5419370261297,270.855
3014.8514799023105,247.416
3023.0189130185245,276.064
3031.3211009634906,380.239
3039.619584242202,203.141
3047.776149306213,252.624
3056.067292329164,322.943
3064.2166442633534,294.294
3072.500456765243,223.976
3080.780576892153,255.229
3088.919096831967,309.921
3097.1919010483834,585.984
3105.3232317767324,489.623
3113.588729774354,416.7
3121.712880813,684.951
3129.9710822664056,682.346
3138.0880631202745,776.104
3146.338977686973,945.388
3154.448797844241,757.873
3162.692435164703,1080.816
3170.7951040967964,1046.959
3178.894230970407,836.005
3187.127000956163,1255.309
3195.218990740796,919.345
3203.3074454664093,911.531
3211.5293695924192,677.138
3219.610701328027,895.905
3227.688504985643,1049.563
3235.899604670318,994.871
3243.9702993997853,684.951
3252.03747301393,773.499
3260.1011278165533,927.158
3268.297848330192,809.961
3276.354412870096,757.873
3284.407465536773,796.939
3292.4570086259846,974.036
3300.5030444314834,966.223
3308.545575245,895.905
3316.720827896272,937.575
3324.756296283769,851.631
3332.788266581294,742.247
3340.816741072602,947.993
3348.8417220394404,872.466
3356.8632117615925,1062.585
3364.8812125168406,984.454
3372.895726580995,1286.561
3380.906756227865,1080.816
3388.91430372934,950.597
3396.918371355256,1067.794
3404.9189613735507,1005.289
3412.9160760501472,627.654
3420.909717649003,851.631
3428.8998884321263,645.885
3436.886590659553,661.511
3444.734546370892,690.159
3452.714376952972,658.907
3460.690745709508,539.106
3468.663654892749,468.788
3476.633106752961,632.863
3484.5991035384795,539.106
3492.4267178764712,333.36
3500.385869715596,330.756
3508.341573175334,421.909
3516.293830496281,401.074
3524.1079469444667,398.469
3532.0533770164475,328.151
3539.9953676218797,247.416
3547.7993978646555,309.921
3555.734574435446,380.239
3563.666318194715,333.36
3571.460281747888,208.35
3579.385224652753,283.877
3587.30674138396,270.855
3595.090657713052,445.348
3603.00538673612,119.801
3610.782634691175,184.911
3618.6905847266535,20.835
3626.461172873067,325.547
3634.362352626544,208.35
3642.1262895150494,-75.527
3650.020707677235,143.241
3657.778001843908,187.515
3665.665667090652,216.163
3673.416327056992,127.614
3681.163701429177,281.273
3689.041282322214,218.768
3696.782035212709,257.833
3704.6528847781447,54.692
3712.3870246721344,190.119
3720.117889469839,41.67
3727.845481251112,62.505
3735.702951367959,5.209
3743.4239470074463,117.197
3751.141675895298,153.658
3758.989119491133,148.449
3766.700264858686,54.692
3774.408149723422,75.527
3782.1127761528696,125.01
3789.814146212797,164.076
3797.644959575024,-20.835
3805.339767031168,158.867
3813.03132434014,96.362
3820.7196335607214,255.229
3828.404696749953,221.372
3836.086515963114,138.032
3843.76509325378,-7.813
3851.4404306737633,59.901
3859.112530273167,-375.03
3866.7813941003615,98.966
3874.4470242019815,140.636
3882.109422622947,111.988
3889.7685914064414,130.219
3897.4245325939337,-304.712
3905.0772482251705,268.251
3912.7267403381848,10.418
3920.373010969284,39.066
3928.016062153074,72.923
3935.655895922435,125.01
3943.292514308545,497.436
3950.925919340858,263.042
3958.424585178429,125.01
3966.051624900327,156.263
3973.675457311714,333.36
3981.296084435249,2.604
3988.913508291902,184.911
3996.396478310664,75.527
4004.007556831755,166.68
4011.615438103967,395.865
4019.220124141517,252.624
4026.690583777876,98.966
4034.288940385857,276.064
4041.8841077570687,138.032
4049.3452186808136,289.086
4056.934068499933,-15.626
4064.519735065173,101.571
4071.971514814119,302.108
4079.550875675057,54.692
4086.996462302253,-250.987
4094.5695253181984,-486.417
4102.008926541021,-657.034
4109.575699558212,-768.277
4117.008923081237,-825.585
4124.569413932906,-834.392
4131.996467447912,-800.137
4139.550683954272,-728.258
4146.971575140262,-624.191
4154.519525108568,-493.373
4161.93426163181,-341.241
4169.475952856366,-173.235
4228.011654085007,5.209
4235.396210255021,143.241
4242.907210725418,143.241
4250.415076793586,192.724
4257.7904449892885,57.296
4265.292102093408,148.449
4272.790630641473,109.384
4280.156827999919,247.416
4287.649159161061,244.811
4295.138367597785,143.241
4302.4954112134365,111.988
4309.978433811593,125.01
4317.329402006981,101.571
4324.8062464273535,135.428
4332.151146724958,31.253
4339.621820615692,153.658
4346.960660525576,171.889
4354.425171522191,72.923
4361.757958542046,236.998
4369.216314267462,-31.253
4376.543055882612,78.131
4383.9952639471885,65.109
4391.315967630617,-125.01
4398.762035632179,98.966
4406.07670884455,226.581
4413.516644368407,20.835
4420.825294558097,80.736
4428.130962180556,229.185
4435.561739780205,28.648
4442.861395497304,255.229
4450.1580741507205,31.253
4457.579710724684,236.998
4464.870388562711,177.098
4472.158094827057,-299.503
4479.570607232323,67.714
4486.852323743988,265.646
4494.131074158497,62.505
4501.534479210626,158.867
4508.807250907994,130.219
4516.077061971264,122.406
4523.3439142079005,260.438
4530.735219799091,54.692
4537.996107969229,-7.813
4545.254042757973,234.394
4552.509025966887,20.835
4559.888261734326,278.668
4567.13729547953,122.406
4574.383383072374,54.692
4581.626526308552,234.394
4588.866726982291,75.527
4596.103986886381,143.241
4603.338307812148,145.845
4610.69653172473,192.724
4617.92492857972,80.736
4625.150391852971,174.493
4632.372923329975,111.988
4639.592524794789,203.141
4646.809198030001,-13.022
4654.022944816745,145.845
4661.233766934747,140.636
4668.441666162253,166.68
4675.646644276094,559.941
4682.8487030516335,-78.131
4690.047844262837,-57.296
4697.244069682201,15.626
4704.437381080781,57.296
4711.627780228235,223.976
4718.815268892759,130.219
4725.999848841122,98.966
4733.181521838655,299.503
4740.3602896492885,145.845
4747.536154035501,98.966
4754.583300303697,65.109
4761.753413983191,169.284
4768.9206294863325,106.779
4776.084948569973,244.811
4783.246372989488,78.131
4790.404904498872,78.131
4797.435032206777,104.175
4804.5878338284165,127.614
4811.73774776268,252.624
4818.884775757928,65.109
4826.028919561082,197.933
4833.044920461813,101.571
4840.183351639585,57.296
4847.3189038270575,-104.175
4854.451578765569,135.428
4861.456318765864,18.231
4868.58329482688,114.593
4875.707398824052,65.109
4882.703723295803,59.901
4889.822138682386,31.253
4896.937687177771,119.801
4903.925611277555,-5.209
4911.035481404608,80.736
4918.142489800703,153.658
4925.122028648751,148.449
4932.223368894192,205.746
4939.197342363797,0.0
4946.293021236786,208.35
4953.385846941688,80.736
4960.35146024984,114.593
4967.43863475923,33.857
4974.398699333346,229.185
4981.480229398396,-59.901
4988.43475186592,62.505
4995.510644227063,91.153
5002.459631204903,72.923
5009.529892591847,236.998
5016.473350686378,127.614
5023.537987818112,83.34
5030.475923625207,-612.028
5037.534943210041,-111.988
5044.467363315067,414.096
5051.397052412052,143.241
5058.447683028528,359.404
5065.371866252855,166.68
5072.416896017057,62.505
5079.335579928018,169.284
5086.251540943114,239.603
5093.288206657562,221.372
5100.198678149784,-54.692
5107.106431592307,229.185
5114.134748143202,88.549
5121.037021830118,216.163
5127.93658230202,106.779
5134.833431158368,18.231
5141.85065500065,80.736
5148.742037069234,93.758
5155.630712341699,39.066
5162.516682412504,-67.714
5169.522839786696,-31.253
5176.403355996677,7.813
5183.281171809234,23.439
5190.156288813778,44.274
5197.028708598496,7.813
5204.021081907653,10.418
5210.888063918697,-28.648
5217.752353495271,-28.648
5224.613952220541,111.988
5231.472861676462,283.877
5238.329083443728,2.604
5245.182619101804,111.988
5252.033470228904,-15.626
5258.881638402017,41.67
5265.727125196914,65.109
5272.569932188097,174.493
5279.532181775125,-7.813
5286.369586094326,135.428
5293.204315354014,138.032
5300.036371123795,91.153
5306.865754971979,78.131
5313.692468465706,106.779
5320.516513170878,44.274
5327.216103720151,307.316
5334.034863128356,52.088
5340.850958410447,104.175
5347.664391127459,41.67
5354.475162839211,96.362
5361.283275104273,78.131
5368.088729480027,93.758
5374.891527522632,62.505
5381.6916707870405,164.076
5388.489160826968,-70.318
5395.162686039381,101.571
5401.954921596684,57.296
5408.744508555763,91.153
5415.531448465517,161.471
5422.31574287366,80.736
5428.976315601984,127.614
5435.7553708175255,65.109
5442.531785139763,192.724
5449.305560111599,-5.209
5456.076697274744,67.714
5462.724355191152,62.505
5469.490268392445,156.263
5476.253548375513,111.988
5482.893493883399,213.559
5489.651558992991,276.064
5496.406995464167,78.131
5503.039241977291,-65.109
5509.789472642318,151.054
5516.5370792381145,-15.626
5523.161640139158,85.944
5529.904049975114,143.241
5536.643840300443,-28.648
5543.260728941095,-182.306
5549.995331531944,273.459
5556.607128017575,125.01
5563.336548861262,140.636
5569.943259067753,197.933
5576.667504142417,104.175
5583.269133936614,-169.284
5589.988209211173,54.692
5596.58476445092,62.505
5603.298675885118,39.066
5609.890162419251,41.67
5616.598915963696,31.253
5623.185339632037,78.131
5629.888941228186,10.418
5636.470307861637,354.195
5643.16876344182,33.857
5649.745078862296,197.933
5656.438394349752,75.527
5663.009664370256,96.362
5669.578436568787,49.483
5676.264076103718,109.384
5682.827811578958,70.318
5689.3890535265455,197.933
5696.067030305661,-174.493
5702.623244186747,36.461
5709.176968824671,229.185
5715.847296014435,-20.835
5722.39600122282,67.714
5728.942221462719,70.318
5735.4859581482815,26.044
5742.146121627004,57.296
5748.684850350968,44.274
5755.221099782248,268.251
5761.754871330697,-218.768
5768.404894310675,41.67
5774.933669330552,158.867
5781.459970716278,205.746
5787.983799873429,111.988
5794.505158206499,70.318
5801.142549523138,80.736
5807.658925557145,70.318
5814.172834999641,26.044
5820.684279250832,226.581
5827.193259709879,104.175
5833.699777774898,72.923
5840.203834842934,26.044
5846.7054323099655,78.131
5853.204571570954,190.119
5859.701254019747,70.318
5866.195481049195,190.119
5872.687254051074,145.845
5879.176574416102,-85.944
5885.663443533944,-59.901
5892.14786279323,98.966
5898.629833581537,148.449
5905.109357285379,164.076
5911.586435290243,333.36
5918.061068980562,109.384
5924.533259739736,7.813
5931.003008950094,-13.022
5937.470317992949,-7.813
5943.935188248557,148.449
5950.397621096134,26.044
5956.857617913869,44.274
5963.315180078898,20.835
5969.7703089673305,169.284
5976.105705888956,169.284
5982.556016527509,-145.845
5989.003897986593,-91.153
5995.449351638199,-83.34
6001.8923788532775,-65.109
6008.215900781644,184.911
6014.654123287393,-36.461
6021.089923438405,20.835
6027.523302601519,156.263
6033.954262142564,296.899
6040.265942433929,101.571
6046.692110755517,41.67
6053.115863521547,18.231
6059.420472023492,91.153
6065.839441620141,-13.022
6072.255999718647,200.537
6078.553548309683,231.789
6084.965331270854,54.692
6091.374706782226,62.505
6097.665207314269,106.779
6104.06981570238,-72.923
6110.472020679961,41.67
6116.755484978421,117.197
6123.152930828903,226.581
6129.431725134898,-85.944
6135.824417162912,-130.219
6142.098546680769,158.867
6148.486490183052,96.362
6154.872039648391,135.428
6161.139160374798,-15.626
6167.519969269015,210.954
6173.782438208022,221.372
6180.158511808193,179.702
6186.416334137088,2.604
6192.787677712448,265.646
6199.040858600842,158.867
6205.291741972564,135.428
6211.656022022646,190.119
6217.902271670246,20.835
6224.261834810408,192.724
6230.503455884398,5.209
6236.742785809074,184.911
6243.095304999864,164.076
6249.330014038809,41.67
6255.677829386121,62.505
6261.907922670827,114.593
6268.1357311500615,148.449
6274.476522051649,122.406
6280.699722436162,148.449
6286.920641805642,72.923
6293.139281413962,169.284
6299.470738832184,72.923
6305.684780516531,54.692
6311.896546218988,93.758
6318.106037189755,135.428
6324.428181717434,83.34
6330.633084905065,18.231
6336.835717129172,-96.362
6343.036079636258,250.02
6349.234173671932,132.823
6355.544716640681,7.813
6361.738235515753,132.823
6367.929489673777,62.505
6374.118480356665,109.384
6380.305208805476,218.768
6386.489676260331,106.779
6392.671883960451,36.461
6398.851833144166,200.537
6405.143905470883,52.088
6411.319299566196,98.966
6417.492438877496,192.724
6423.663324639478,109.384
6429.831958085924,109.384
6435.998340449718,91.153
6442.162472962846,-205.746
6448.324356856407,-62.505
6454.483993360576,-229.185
6460.641383704664,-26.044
6466.79652911704,83.34
6472.949430825232,260.438
6479.100090055821,96.362
6485.248508034543,-492.227
6491.280888225534,65.109
6497.424868822251,177.098
6503.5666118162335,156.263
6509.706118429633,41.67
6515.843389883739,132.823
6521.978427398899,184.911
6528.111232194642,122.406
6534.241805489546,151.054
6540.256680928833,-26.044
6546.382836142315,-46.879
6552.506763482961,153.658
6558.628464165849,210.954
6564.747939405184,518.271
6570.751928194237,302.108
6576.866997341494,143.241
6582.979844660076,135.428
6589.090471360658,80.736
6595.0857801617385,15.626
6601.192010321647,44.274
6607.296023467985,83.34
6613.39782080795,75.527
6619.384468430493,283.877
6625.481878753591,39.066
6631.577076864334,-59.901
6637.5572509579,-119.801
6643.64806916556,83.34
6649.623946782151,226.581
6655.71038980603,101.571
6661.794626582923,-10.418
6667.764048126817,166.68
6673.843916808139,72.923
6679.809053455574,130.219
6685.884558743659,98.966
6691.957863728712,111.988
6697.916561697035,208.35
6703.985510351609,59.901
6709.939934962422,239.603
6716.004531971987,-111.988
6721.954687820689,101.571
6728.014937863976,54.692
6733.960829539363,140.636
6739.904610751524,109.384
6745.95836937274,177.098
6751.897893261092,-5.209
6757.947316561804,39.066
6763.8825876987685,166.68
6769.927680334353,-395.865
6775.858703285812,13.022
6781.787623684751,23.439
6787.826249230238,15.626
6793.750928258974,119.801
6799.673508107371,393.261
6805.705676935038,36.461
6811.624022213946,-62.505
6817.540271677499,169.284
6823.5659941374615,304.712
6829.478015817709,44.274
6835.387945040406,-2.604
6841.407231460638,80.736
6847.312939671727,140.636
6853.216558775894,252.624
6859.118089881435,54.692
6865.017534095896,145.845
6871.026143398485,18.231
6876.921377827312,184.911
6882.814528703813,127.614
6888.705597132364,-15.626
6894.594584216582,179.702
6900.592544785228,-85.944
6906.477333270021,98.966
6912.360043737404,122.406
6918.240677287846,135.428
6924.119235021055,41.67
6929.995718035963,138.032
6935.870127430717,52.088
6941.742464302697,23.439
6947.6127297485,83.34
6953.480924863958,96.362
6959.347050744116,62.505
6965.21110848328,338.569
6971.073099174937,88.549
6976.93302391185,75.527
6982.79088378598,315.129
6988.64667988853,132.823
6994.500413309928,-31.253
7000.35208513985,656.303
7006.201696467178,96.362
7012.049248380063,377.634
7017.894741965851,153.658
7023.738178311156,109.384
7029.579558501813,158.867
7035.418883622879,104.175
7041.2561547586665,442.744
7047.091372992727,125.01
7052.924539407839,13.022
7058.645653010426,164.076
7064.474757695687,158.867
7070.301813785409,177.098
7076.126822359336,166.68
7081.949784496486,62.505
7087.660891581778,122.406
7093.479802640664,229.185
7099.296670474898,70.318
7105.111496160462,-13.022
7110.814624476749,223.976
7116.625407570507,0.0
7122.434151718757,109.384
7128.2408579944895,59.901
7133.936024250346,127.614
7139.73869639702,41.67
7145.53933386541,151.054
7151.22854892195,20.835
7157.025158582874,59.901
7162.819736753059,-2.604
7168.503009933542,125.01
7174.293566604632,88.549
7180.082094965896,83.34
7185.759435574095,148.449
7191.54394873148,18.231
7197.2173519438,2.604
7202.997854073568,135.428
7208.667323984642,153.658
7214.443819257263,119.801
7220.109359956041,138.032
7225.881852536215,218.768
7231.54346810597,52.088
7237.311962152613,119.801
7242.969656670975,-13.022
7248.734156337254,70.318
7254.387933876205,83.34
7260.148443309525,-20.835
7265.798307935409,119.801
7271.554831277448,143.241
7277.20078705097,18.231
7282.953328437674,174.493
7288.59537941395,-91.153
7294.235498085545,114.593
7299.982093204053,31.253
7305.618313131272,-23.439
7311.252603748333,-2.604
7316.993261813666,156.263
7322.623659726734,70.318
7328.252131317968,46.879
7333.9868615261075,-23.439
7339.611446441268,70.318
7345.234108016753,106.779
7350.962919544712,-5.209
7356.581700459581,91.153
7362.198561010817,98.966
7367.813502182726,166.68
7373.426524958988,174.493
7379.145517410223,177.098
7384.7546694986595,104.175
7390.361906157261,125.01
7395.967228366993,283.877
7401.570637108154,15.626
7407.279835705631,140.636
7412.879383697611,59.901
7418.477021176703,106.779
7424.072749120482,111.988
7429.666568505905,-49.483
7435.258480309247,-23.439
7440.848485506111,75.527
7446.436585071431,132.823
7452.022779979503,15.626
7457.607071203925,20.835
7463.296794702215,119.801
7468.877244915177,153.658
7474.455794380043,255.229
7480.032444067743,18.231
7485.607194948596,169.284
7491.18004799222,127.614
7496.751004167574,210.954
7502.2129850032,91.153
7507.7801867781745,31.253
7513.345494569261,104.175
7518.908909342786,91.153
7524.470432064445,54.692
7530.03006369928,88.549
7535.587805211653,-23.439
7541.1436575652915,-44.274
7546.697621723266,88.549
7552.249698647978,23.439
7557.693172648,135.428
7563.241514237732,13.022
7568.787971459049,-23.439
7574.332545271769,70.318
7579.87523663506,151.054
7585.416046507413,36.461
7590.848475703144,111.988
7596.385561603231,-7.813
7601.920768865631,143.241
7607.454098446255,200.537
7612.879194899509,148.449
7618.4088080453,54.692
7623.936546354853,111.988
7629.462410781522,98.966
7634.880189328982,59.901
7640.402344837916,52.088
7645.9226293018255,130.219
7651.334937948188,33.857
7656.851519109852,83.34
7662.260197498763,26.044
7667.773079083498,67.714
7673.284094334183,226.581
7678.687316594296,26.044
7684.194637864675,187.515
7689.7000956236625,-140.636
7695.097870006797,20.835
7700.599639370841,231.789
7705.993798107356,59.901
7711.491882781789,145.845
7716.882429503323,62.505
7722.376833188511,10.418
7727.763771521855,153.658
7733.254497913214,-23.439
7738.637831480286,317.734
7744.124884268305,-13.022
7749.504616686187,46.879
7754.987999556393,23.439
7760.364134437317,153.658
7765.738489349154,75.527
7771.216392021717,135.428
7776.587154788423,18.231
7782.061396717661,13.022
7787.428570939446,49.483
7792.793969640064,57.296
7798.262745065967,-65.109
7803.624560595526,111.988
7808.984603262106,20.835
7814.447920368751,78.131
7819.804385227417,-88.549
7825.159079875983,80.736
7830.616946831127,49.483
7835.968069024231,236.998
7841.317423654822,59.901
7846.665011598543,-52.088
7852.115636126822,-20.835
7857.459658723532,0.0
7862.801917273948,23.439
7868.142412651388,130.219
7873.481145728587,0.0
7878.922746278997,-70.318
7884.257922859626,20.835
7889.59133977185,294.294
7894.922997886111,0.0
7900.252898072242,80.736
7905.581041199541,263.042
7910.907428136696,138.032
7916.336446752692,-18.231
7921.65928952102,28.648
7926.980378718883,49.483
7932.29971521271,205.746
7937.617299868325,57.296
7942.933133550996,18.231
7948.247217125423,67.714
7953.559551455743,260.438
7958.870137405502,-31.253
7964.178975837705,117.197
7969.486067614758,197.933
7974.791413598527,-75.527
7980.0950146503055,145.845
7985.396871630804,91.153
7990.696985400187,213.559
7995.995356818043,96.362
8001.291986743403,0.0
8006.586876034729,0.0
8011.880025549901,15.626
8017.067699705829,36.461
8022.357406311574,70.318
8027.645375694708,28.648
8032.931608710882,-49.483
8038.216106215201,114.593
8043.498869062179,-2.604
8048.779898105804,57.296
8053.955695240969,101.571
8059.233293192043,119.801
8064.509159881611,67.714
8069.783296161415,85.944
8074.952338977277,122.406
8080.223050878609,203.141
8085.492034905405,93.758
8090.759291907168,83.34
8095.921593616502,20.835
8101.185432936367,44.274
8106.447547759821,322.943
8111.604810570996,138.032
8116.863512715307,26.044
8122.120492886879,-127.614
8127.272724173963,127.614
8132.526296659391,104.175
8137.778149690843,122.406
8142.925356813517,7.813
8148.173807142077,-78.131
8153.4205405305,252.624
8158.562730834117,111.988
8163.806066493191,96.362
8168.944927307508,-153.658
8174.184868536668,166.68
8179.32040309432,-98.966
8184.55695318873,80.736
8189.689164718173,-106.779
8194.922326968728,111.988
8200.051218694258,62.505
8205.280996387602,28.648
8210.406571529322,158.867
8215.632967947844,234.394
8220.7552297217,10.418
8225.978248143558,-33.857
8231.097199761349,247.416
8236.316843460441,-252.624
8241.43248812982,-46.879
8246.546496881761,117.197
8251.76110130029,36.461
8256.871807891675,250.02
8261.98088093357,49.483
8267.190453365733,62.505
8272.296229025691,101.571
8277.400373499535,138.032
8282.604921225458,93.758
8287.705773086778,-33.857
8292.804996120794,-263.042
8298.004526406577,239.603
8303.100461588281,-7.813
8308.194770296956,98.966
8313.28745331115,-23.439
8318.48031600209,-106.779
8323.569717486189,179.702
8328.657495624051,88.549
8333.743651192239,-96.362
8338.828184966831,65.109
8344.012739449463,41.67
8349.093999566121,65.109
8354.17364022991,-5.209
8359.251662214898,-23.439
8364.328066294685,135.428
8369.402853242376,-15.626
8374.476023830553,-93.758
8379.547578831349,91.153
8384.718901354245,127.614
8389.787195221597,23.439
8394.853875830348,-119.801
8399.91894395064,75.527
8404.98240035212,-26.044
8410.044245803958,-28.648
8415.104481074803,78.131
8420.163106932847,-5.209
8425.220124145773,-44.274
8430.275533480788,54.692
8435.32933570461,39.066
8440.381531583458,111.988
8445.432121883085,52.088
8450.48110736873,140.636
8455.528488805172,-10.418
8460.473367100913,91.153
8465.51757477424,132.823
8470.560180674485,39.066
8475.601185564497,7.813
8480.64059020661,127.614
8485.67839536271,119.801
8490.714601794163,-15.626
8495.749210261878,-192.724
8500.681576948675,109.384
8505.713023691114,-268.251
8510.742874734438,-91.153
8515.771130837642,13.022
8520.797792759218,158.867
8525.722375497866,5.209
8530.745883175656,140.636
8535.7677989293,-101.571
8540.788123515384,-151.054
8545.706498587671,85.944
8550.723674892208,325.547
8555.739262280982,109.384
8560.652997083213,54.692
8565.665440644778,-119.801
8570.676297538128,-75.527
8575.585398634048,0.0
8580.593116146138,0.0
8585.599249233324,52.088
8590.503723174297,-65.109
8595.506721317797,-39.066
8600.508137275468,330.756
8605.40799060051,93.758
8610.406276043708,-223.976
8615.303062904772,72.923
8620.298220771765,31.253
8625.191944046568,-46.879
8630.18397727198,-46.879
8635.074639834631,5.209
8640.063551349394,78.131
8644.951156070434,-67.714
8649.936948801806,-44.274
8654.821498548154,-85.944
8659.804175419777,80.736
8664.685673054784,85.944
8669.665236986599,-252.624
8674.543685370048,-104.175
8679.520139278378,106.779
8684.395541266465,-91.153
8689.2694364983,-5.209
8694.241246509358,-10.418
8699.112099609058,-93.758
8703.981448060618,-2.604
8708.948620671701,-31.253
8713.81493124642,85.944
8718.779005433622,0.0
8723.642280973501,-10.418
8728.504055374753,-104.175
8733.364329332315,-80.736
8738.32224658698,93.758
8743.179491154478,109.384
8748.035237374625,145.845
8752.889485940628,-135.428
8757.8412577103,18.231
8762.692482517024,114.593
8767.542211760752,10.418
8772.39044613298,-67.714
8777.336083836857,-41.67
8782.18130006664,158.867
8787.02502351089,18.231
8791.867254859393,117.197
8796.707994801498,-174.493
8801.547244026118,-2.604
8806.385003221756,127.614
8811.319956958603,-91.153
8816.154707786565,164.076
8820.987970662514,2.604
8825.819746273257,-28.648
8830.650035305174,65.109
8835.478838444196,5.209
8840.306156375878,-119.801
8845.131989785303,106.779
8849.956339357173,-96.362
8854.779205775758,44.274
8859.60058972489,-28.648
8864.420491888006,49.483
8869.238912948098,0.0
8874.055853587757,-44.274
8878.871314489159,52.088
8883.685296334032,26.044
8888.497799803714,-46.879
8893.308825579123,62.505
8898.118374340735,-44.274
8902.926446768637,-109.384
8907.634964476681,-138.032
8912.440116370435,229.185
8917.243793954342,-111.988
8922.045997906822,106.779
8926.846728905857,-114.593
8931.645987629043,13.022
8936.443774753548,-117.197
8941.142221650607,18.231
8945.937097605834,-57.296
8950.73050397759,-78.131
8955.522441441404,13.022
8960.215160665939,109.384
8965.004192282166,44.274
8969.791757000756,-10.418
8974.577855495572,52.088
8979.26485751475,78.131
8984.048055470721,-75.527
8988.829789208343,145.845
8993.51251749025,-2.604
8998.291354655303,-33.857
9003.068729603765,36.461
9007.747189991118,-67.714
9012.521672326067,-23.439
9017.294694442531,-2.604
9021.968892767374,-390.656
9026.739026222178,-54.692
9031.41039612206,10.418
9036.17764353675,33.857
9040.943434050514,-80.736
9045.610551571128,36.461
9050.373459984672,158.867
9055.037755503963,106.779
9059.797784430888,41.67
9064.45926050758,-135.428
9069.216412558366,93.758
9073.87507174812,67.714
9078.629349530078,75.527
9083.285194385431,-190.119
9088.036600502714,-57.296
9092.689633573158,-91.153
9097.438170626783,-52.088
9102.088394458704,-13.022
9106.73722909284,-177.098
9111.481482183284,218.768
9116.12751137963,44.274
9120.868901881862,31.253
9125.512128179163,-72.923
9130.153968412898,-52.088
9134.891084617178,-184.911
9139.53012574118,52.088
9144.167782675046,52.088
9148.9006303586,-380.239
9153.535491965213,-31.253
9158.168971251744,7.813
9162.801068836525,-57.296
9167.528243916331,28.648
9172.157551197888,-49.483
9176.785478643267,-2.604
9181.412026869286,151.054
9186.13353953768,91.153
9190.757302472506,23.439
9195.37968804908,190.119
9200.000696882766,-72.923
9204.620329588544,-39.066
9209.334785850184,-122.406
9213.951639506451,-72.923
9218.567118890363,-88.549
9223.181224615444,-49.483
9227.79395729483,31.253
9232.40531754132,-83.34
9237.015305967328,216.163
9241.623923184923,80.736
9246.23116980579,15.626
9250.932987640888,72.923
9255.537466379788,-62.505
9260.140576367572,78.131
9264.742318214474,-229.185
9269.342692530376,-190.119
9273.941699924766,91.153
9278.539341006806,-52.088
9283.135616385269,-7.813
9287.730526668583,-471.392
9292.324072464791,320.338
9296.91625438162,-59.901
9301.411444872112,-39.066
9306.00092923447,-80.736
9310.589051525738,36.461
9315.175812352172,23.439
9319.761212319692,-2.604
9324.345252033823,109.384
9328.927932099774,-325.547
9333.509253122353,114.593
9338.08921570604,49.483
9342.572446701386,7.813
9347.149722488744,231.789
9351.7256416359,18.231
9356.300204745894,130.219
9360.873412421412,96.362
9365.350032145325,111.988
9369.920558965528,15.626
9374.489732144635,135.428
9379.05755228394,44.274
9383.528899030936,-104.175
9388.09404305015,-59.901
9392.657835818722,31.253
9397.125240831178,-5.209
9401.6863610176,135.428
9406.246131739394,52.088
9410.80455359534,101.571
9415.266701898625,67.714
9419.822455888205,-226.581
9424.281993052333,98.966
9428.835081516963,114.593
9433.38682407955,-57.296
9437.84243511156,7.813
9442.391515668474,-75.527
9446.84452129656,20.835
9451.390942182352,26.044
9455.93602012123,10.418
9460.385108237591,49.483
9464.927530014324,-44.274
9469.374018445214,-18.231
9473.913786387537,36.461
9478.35767741084,18.231
9482.894793843763,59.901
9487.33608973474,10.418
9491.87055698055,143.241
9496.30926001177,23.439
9500.74668109923,-26.044
9505.277192831463,78.131
9509.71202445114,101.571
9514.23989277796,-15.626
9518.672137195834,125.01
9523.103102466685,-5.209
9527.62702390948,59.901
9532.05540536064,-10.418
9536.57668916292,78.131
9541.002489053764,-98.966
9545.42701258622,-130.219
9549.850260312329,171.889
9554.36630345335,-364.613
9558.78697410632,-119.801
9563.206370618926,-33.857
9567.718482324255,-39.066
9572.13530512818,-41.67
9576.550855454823,-13.022
9580.965133854,-18.231
9585.47202083257,-28.648
9589.883729992052,-31.253
9594.294168883298,7.813
9598.703338054846,158.867
9603.111238054931,-70.318
9607.611613766734,80.736
9612.016950092931,119.801
9616.421018902103,138.032
9620.823820741218,-85.944
9625.225356156909,7.813
9629.625625695517,-41.67
9634.02462990307,-20.835
9638.422369325252,0.0
9642.81884450748,114.593
9647.21405599481,223.976
9651.701478874824,80.736
9656.094137748323,20.835
9660.485534571855,-36.461
9664.875669889248,-93.758
9669.264544244,-96.362
9673.65215817932,-109.384
9678.03851223808,-57.296
9682.423606962846,-132.823
9686.807442895892,-80.736
9691.19002057915,-18.231
9695.478134071804,-151.054
9699.858223622705,-26.044
9704.23705653629,33.857
9708.614633353289,114.593
9712.990954614088,-59.901
9717.36602085878,-236.998
9721.739832627154,2.604
9726.112390458671,117.197
9730.483694892511,26.044
9734.760779687776,-23.439
9739.129605581998,88.549
9743.497179682729,-109.384
9747.863502527893,33.857
9752.228574655115,-39.066
9756.499562339395,-127.614
9760.862161224974,-28.648
9765.223510992222,-135.428
9769.583612177565,59.901
9773.849736751828,-96.362
9778.207368918504,-57.296
9782.563754099236,-80.736
9786.918892829211,91.153
9791.18016259473,348.986
9795.532836519418,-96.362
9799.884265585692,18.231
9804.14190615754,-15.626
9808.490873566669,15.626
9812.83859770701,88.549
9817.09261371952,322.943
9821.437879345483,-23.439
9825.689490172908,39.066
9830.032299369228,70.318
9834.373867936378,-151.054
9838.621861899856,-31.253
9842.960977171238,52.088
9847.206571054325,-125.01
9851.543235108787,59.901
9855.786430944943,67.714
9860.12064585897,-52.088
9864.361445679362,-96.362
9868.693213527116,-213.559
9872.931619360628,-52.088
9877.26094221391,-36.461
9881.49695608711,-5.209
9885.823836015392,-26.044
9890.057459952584,-119.801
9894.289902518456,93.758
9898.613135046206,-109.384
9902.843190697367,-33.857
9907.163985452502,20.835
9911.391656207565,117.197
9915.61814808206,31.253
9919.935303126713,-119.801
9924.15941311792,18.231
9928.38234571751,67.714
9932.695865648708,31.253
9936.91641937277,23.439
9941.135797191648,26.044
9945.445686598703,41.67
9949.662688544726,-62.505
9953.878516069532,78.131
9958.09316966365,-7.813
9962.398234183594,-59.901
9966.61051589339,75.527
9970.821625153134,148.449
9975.031562452265,-23.439
9979.240328279942,-23.439
9983.53937957713,-411.491
9987.745778488254,-239.603
9991.95100740443,-13.022
9996.155066813732,-145.845
10000.357957203963,-20.835
10004.55967906266,-18.231
10008.760232877092,-2.604
10013.050897176752,20.835
10017.249090997648,265.646
10021.446118245014,78.131
10025.641979405023,-49.483
10029.83667496358,15.626
10034.03020540632,-20.835
10038.222571218605,91.153
10042.413772885537,-52.088
10046.603810891938,36.461
10050.79268572236,36.461
10054.980397861098,-57.296
10059.16694779218,-229.185
10063.352335999334,205.746
10067.536562966066,-65.109
10071.719629175575,49.483
10075.90153511081,-96.362
10080.082281254454,-111.988
10084.26186808891,7.813
10088.440296096323,231.789
10092.52676786215,41.67
10096.702904826674,-72.923
10100.877884398516,-33.857
10105.051707058765,-346.382
10109.224373288234,-166.68
10113.395883567471,52.088
10117.475590772649,-93.758
10121.64481569536,39.066
10125.812886097472,28.648
10129.979802458443,39.066
10134.145565257517,46.879
10138.219652237512,-41.67
10142.383134400929,122.406
10146.545464428116,-44.274
10150.706642797257,-39.066
10154.776246850048,-10.418
10158.935148346747,-135.428
10163.092899607942,-20.835
10167.159152430871,-65.109
10171.314629631466,20.835
10175.468958016776,-195.328
10179.531863747628,-28.648
10183.683920879565,-518.271
10187.834830614069,-54.692
10191.894393383842,78.131
10196.043034667582,-101.571
10200.190529969435,-7.813
10204.246753902304,-36.461
10208.391983551395,49.483
10212.44599199288,-36.461
10216.588957845182,91.153
10220.640752609928,-33.857
10224.781456519388,78.131
10228.831039420063,-75.527
10232.969483238625,101.571
10237.016856085897,72.923
10241.15304166346,15.626
10245.19820626604,23.439
10249.332135450502,96.362
10253.375093615126,-72.923
10257.506768252357,177.098
10261.547521783785,-151.054
10265.58718577827,-26.044
10269.715494418666,62.505
10273.752956473523,-7.813
10277.87901516247,-23.439
10281.91427707755,-151.054
10285.948451675904,-62.505
10290.0711512271,-62.505
10294.10312837192,2.604
10298.13401952729,2.604
10302.253364041218,-130.219
10306.282060424935,-7.813
10310.309672144327,67.714
10314.425665714796,31.253
10318.451085340042,-57.296
10322.475421623927,-85.944
10326.498675003731,57.296
10330.610215200984,-122.406
10334.631280043344,13.022
10338.651263301725,62.505
10342.670165412448,96.362
10346.687986811625,70.318
10350.704727935088,-57.296
10354.80961387438,-54.692
10358.824171771252,33.857
10362.837650708272,-122.406
10366.850051120337,80.736
10370.86137344214,49.483
10374.871618108127,18.231
10378.880785552512,229.185
10382.888876209276,-59.901
10386.984923052532,41.67
10390.990837530662,221.372
10394.995676531347,140.636
10398.999440487634,-192.724
10403.00212983234,-23.439
10407.003744998048,-135.428
10411.004286417105,13.022
10415.003754521616,-23.439
10419.002149743475,-98.966
10422.999472514348,-26.044
10426.995723265634,156.263
10430.990902428544,33.857
10434.985010434026,-52.088
10438.889325180557,-88.549
10442.881315942828,-80.736
10446.872236829608,-114.593
10450.86208827093,15.626
10454.85087069661,15.626
10458.838584536235,231.789
10462.82523021915,208.35
10466.810808174472,182.306
10470.706785742112,-184.911
10474.690253232264,62.505
10478.672654271297,26.044
10482.653989287404,-85.944
10486.634258708573,-2.604
10490.525047770485,-98.966
10494.50321094102,18.231
10498.480309789697,85.944
10502.45634474356,-88.549
10506.342995080442,-18.231
10510.316927143493,-192.724
10514.2897965821,-44.274
10518.261603822417,-39.066
10522.144122034457,-18.231
10526.113829736623,54.692
10530.082476508169,20.835
10533.961905709137,-10.418
10537.92845544769,296.899
10541.89394552126,98.966
10545.770289396216,-13.022
10549.733684937964,70.318
10553.607981637546,-302.108
10557.569284306495,-41.67
10561.52952941227,-28.648
10565.400746905443,36.461
10569.35890163298,109.384
10573.22807600992,49.483
10577.184142013864,70.318
10581.05127489159,41.67
10585.005253824836,-111.988
10588.87034681866,23.439
10592.822240332363,-18.231
10596.685295055897,-117.197
10600.635104799476,-18.231
10604.496122864624,-54.692
10608.443850485746,-184.911
10612.302833502728,-23.439
10616.160811022752,-75.527
10620.10543022464,28.648
10623.9613750996,-15.626
10627.903916281392,-111.988
10631.757830117263,205.746
10635.61074043666,-33.857
10639.550179321655,57.296
10643.401060998756,26.044
10647.250940343372,-156.263
10651.187280591832,-114.593
10655.035133687184,-153.658
10658.881985632182,-70.318
10662.815230898605,104.175
10666.660058983602,36.461
10670.50388709854,-52.088
10674.346715633475,-101.571
10678.275847672114,41.67
10682.116655520924,96.362
10685.956464967534,13.022
10689.795276401208,-197.933
10693.633090210977,109.384
10697.557095575656,-13.022
10701.39289265285,65.109
10705.227693280882,221.372
10709.061497847986,-52.088
10712.894306742182,-135.428
10716.726120351308,-96.362
10720.55693906298,46.879
10724.386763264632,52.088
10728.302600658342,-59.901
10732.130414421008,41.67
10735.957234843503,26.044
10739.783062312445,-46.879
10743.60789721425,31.253
10747.431739935131,-122.406
10751.254590861114,-26.044
10755.076450378,312.525
10758.897318871408,445.348
10762.717196726757,-26.044
10766.536084329256,80.736
10770.353982063916,-109.384
10774.170890315563,13.022
10777.98680946881,67.714
10781.801739908076,-28.648
10785.615682017564,-70.318
10789.341989100834,-62.505
10793.153978142976,-85.944
10796.964979998098,36.461
10800.774995049622,2.604
10804.58402368077,18.231
10808.392066274577,-130.219
10812.199123213884,57.296
10816.005194881312,-2.604
10819.723813349112,236.998
10823.52793799081,-106.779
10827.331078498672,72.923
10831.133235254529,28.648
10834.848029253728,-67.714
10838.64824198676,-54.692
10842.447472103491,10.418
10846.24571998498,-83.34
10849.956695412544,-44.274
10853.753002267928,-18.231
10857.548328021428,-59.901
10861.342673053316,-46.879
10865.049835794096,-135.428
10868.842242790466,-18.231
10872.63367019626,-117.197
10876.337982712816,80.736
10880.12747431772,-13.022
10883.82989575329,-5.209
10887.617453039476,15.626
10891.404032613404,-98.966
10895.103609289945,2.604
10898.88825677408,-80.736
10902.585945994537,-36.461
10906.368662867266,65.109
10910.150403901262,70.318
10913.845253813895,-101.571
10917.62506645972,26.044
10921.318032531915,-78.131
10925.095918264182,-7.813
10928.787001936307,114.593
10932.562962228116,-44.274
10936.252164939066,-70.318
10939.940438510435,-5.209
10943.713524449233,-93.758
10947.399919206764,75.527
10951.171083372872,-23.439
10954.855600751816,85.944
10958.62484461311,-5.209
10962.307486047235,80.736
10965.989200819247,15.626
10969.755577991731,-166.68
10973.435418958636,-18.231
10977.114334320191,-67.714
10980.877848072992,-184.911
10984.554891765896,7.813
10988.231010908596,46.879
10991.991664505884,46.879
10995.665914113146,88.549
10999.33924022374,-7.813
11003.011643185791,-57.296
11006.768495629847,-13.022
11010.439031890255,-20.835
11014.108646053544,-54.692
11017.777338467138,15.626
11021.530395518184,88.549
11025.197224058184,-135.428
11028.863131897786,41.67
11032.528119383707,-62.505
11036.192186862492,54.692
11039.855334680517,-78.131
11043.602720353196,78.131
11047.264008520897,-62.505
11050.924378073953,-218.768
11054.58382935806,18.231
11058.242362718707,-143.241
11061.899978501227,80.736
11065.556677050785,26.044
11069.21245871235,-13.022
11072.867323830738,28.648
11076.521272750586,-46.879
11080.174305816368,-28.648
11083.826423372368,-177.098
11087.477625762698,62.505
11091.127913331318,-33.857
11094.777286422,7.813
11098.425745378345,-273.459
11102.073290543767,98.966
11105.719922261547,13.022
11109.36564087477,111.988
11113.010446726335,-177.098
11116.654340159006,98.966
11120.29732151534,62.505
11123.93939113774,-91.153
11127.580549368427,-78.131
11131.22079654947,39.066
11134.77550763161,-171.889
11138.413954906267,161.471
11142.051492148485,-20.835
11145.688119699626,-13.022
11149.323837900913,-122.406
11152.958647093375,-41.67
11156.508048620988,70.318
11160.141061938251,-70.318
11163.773167260852,41.67
11167.40436492916,7.813
11170.950240228543,98.966
11174.579644697213,-31.253
11178.208142523734,-65.109
11181.751381744987,20.835
11185.378088371155,-111.988
11189.003889365817,-130.219
11192.628785068173,-23.439
11196.16850723805,0.0
11199.79161440632,-26.044
11203.413817290922,158.867
11206.950910239968,-565.149
11210.571326582844,93.758
11214.10667518314,13.022
11217.725306305692,-52.088
11221.343034819707,-70.318
11224.875759069631,-52.088
11228.49170435076,7.813
11232.022687482247,5.209
11235.636850848638,39.066
11239.166094148528,111.988
11242.778476917028,62.505
11246.305981670925,166.68
11249.91658515709,-296.899
11253.442352649325,-72.923
11257.05117816741,-98.966
11260.575209681025,96.362
11264.182258544,41.67
11267.704555360804,140.636
11271.309828880325,-208.35
11274.83039228086,46.879
11278.350099642112,-72.923
11281.952723030843,80.736
11285.470698886753,20.835
11288.987819646914,-59.901
11292.587795825824,39.066
11296.103186988752,98.966
11299.70139304264,39.066
11303.215055883851,85.944
11306.727865201254,54.692
11310.23982130582,174.493
11313.834511810855,-15.626
11317.34474212601,33.857
11320.8541201677,78.131
11324.446172200132,46.879
11327.953826352135,5.209
11331.460629168672,-88.549
11334.96658095964,153.658
11338.471682034791,-125.01
11342.059356881087,5.209
11345.562737216636,-33.857
11349.06526777208,83.34
11352.566948856567,-31.253
11356.067780779093,-13.022
11359.56776384851,-148.449
11363.1502007606,-111.988
11366.648466857394,-5.209
11370.145885034064,54.692
11373.642455598843,0.0
11377.138178859836,197.933
11380.633055125,44.274
11384.1270847021,26.044
11387.620267898808,20.835
11391.112605022612,18.231
11394.60409638087,-2.604
11398.094742280777,114.593
11401.584543029392,148.449
11405.073498933603,98.966
11408.561610300185,41.67
11412.048877435727,1317.814
11415.5353006467,-52.088
11419.020880239405,-195.328
11422.505616520008,-205.746
11425.989509794525,31.253
11429.472560368817,67.714
11432.954768548592,-78.131
11436.43613463944,18.231
11439.916658946764,-28.648
11443.313501961433,143.241
11446.79236364179,80.736
11450.270384446749,-33.857
11453.74756468115,26.044
11457.22390464968,-57.296
11460.699404656869,-88.549
11464.091344754375,-70.318
11467.565185732994,-156.263
11471.038187655771,-62.505
11474.51035082668,-98.966
11477.981675549512,36.461
11481.369541233144,-65.109
11484.839209915755,-104.175
11488.30804105362,-7.813
11491.693473394258,91.153
11495.16065027576,-72.923
11498.626990514544,98.966
11502.092494413417,-153.658
11505.474679896604,-62.505
11508.938531918346,49.483
11512.401548500471,171.889
11515.78130675673,104.175
11519.242673239612,33.857
11522.620821260369,31.253
11526.080538823127,18.231
11529.5394224415,46.879
11532.915147579475,-31.253
11536.372384051368,-205.746
11539.74650183491,-62.505
11543.202092336618,-158.867
11546.574603913472,33.857
11550.028549620163,-36.461
11553.399456136987,-88.549
11556.85175822272,130.219
11560.221060825072,-65.109
11563.67172046279,177.098
11567.039420295116,-250.02
11570.488438656655,10.418
11573.854536862347,117.197
11577.301915118398,57.296
11580.666412839755,-36.461
11584.030120381583,-13.022
11587.475050538147,39.066
11590.837159300165,-164.076
11594.280452266124,49.483
11597.64096338792,-13.022
11601.000685734118,-114.593
11604.441534950183,-328.151
11607.79966135666,-72.923
11611.156999826935,13.022
11614.59540789372,39.066
11617.951152122365,-101.571
11621.306109253032,23.439
11624.66027956261,-5.209
11628.09544335218,-65.109
11631.44802167594,-15.626
11634.799814015252,20.835
11638.15082064648,-31.253
11641.58274474832,28.648
11644.932161645294,-140.636
11648.280793669244,-15.626
11651.62864109602,-161.471
11654.975704201344,117.197
11658.403590030808,36.461
11661.749066206958,13.022
11665.093758894744,-70.318
11668.43766836938,33.857
11671.780794905935,127.614
11675.12313877933,223.976
11678.4647002644,-59.901
11681.805479635816,-33.857
11685.145477168146,-10.418
11688.484693135812,-46.879
11691.904543291126,-18.231
11695.24217790648,234.394
11698.579031786354,-49.483
11701.915105204676,106.779
11705.25039843522,-104.175
11708.584911751648,-88.549
11711.918645427471,75.527
11715.251599736104,13.022
11718.502511651865,-26.044
11721.83392703817,-28.648
11725.164563870054,-304.712
11728.4944224204,-356.799
11731.823502961994,-39.066
11735.15180576744,-39.066
11738.479331109273,151.054
11741.806079259855,7.813
11745.132050491462,44.274
11748.457245076206,-158.867
11751.70058915004,28.648
11755.024250183047,13.022
11758.34713537819,52.088
11761.669245007088,52.088
11764.990579341233,216.163
11768.230158619372,-111.988
11771.549962071174,-164.076
11774.86899103535,-96.362
11778.187245782876,13.022
11781.423821624776,-93.758
11784.740547618409,36.461
11788.05650020102,80.736
11791.371679643096,132.823
11794.605256223578,57.296
11797.91890903626,52.088
11801.231789512534,-28.648
11804.46312397414,-39.066
11807.774479408556,101.571
11811.085063309589,57.296
11814.314157983485,78.131
11817.623218427994,-26.044
11820.850827315822,-148.449
11824.158365355152,57.296
11827.4651331948,46.879
11830.690506166697,138.032
11833.995753182851,-145.845
11837.219642936305,104.175
11840.52337017791,39.066
11843.745777735792,109.384
11847.047986250807,-15.626
11850.26891263506,114.593
11853.569603470474,174.493
11856.789049702087,101.571
11860.088223903953,533.897
11863.30619100298,218.768
11866.603849616356,88.549
11869.820338601929,72.923
11873.11648267094,-226.581
11876.331494561222,72.923
11879.545777396996,18.231
11882.839660941268,-122.406
11886.052468201013,10.418
11889.26454715598,33.857
11892.55617250015,18.231
11895.766777396242,33.857
11899.056892350098,75.527
11902.26602420178,-98.966
11905.474428998024,28.648
11908.682106985869,-41.67
11911.969222890988,104.175
11915.17542984806,-125.01
11918.380910743392,-65.109
11921.66577540321,-31.253
11924.869786778698,-114.593
11928.07307283808,2.604
11931.27563382762,20.835
11934.477469993468,-49.483
11937.758600089848,-44.274
11940.95896924119,-49.483
11944.158614312782,-111.988
11947.35753555032,31.253
11950.55573319941,26.044
11953.753207505528,39.066
11957.029868231695,390.656
11960.225878519712,44.274
11963.42116620667,-148.449
11966.615731537608,-7.813
11969.809574757444,5.209
11973.002696111003,57.296
11976.195095842992,75.527
11979.386774197992,-26.044
11982.577731420495,-7.813
11985.767967754866,33.857
11988.957483445382,-44.274
11992.146278736183,57.296
11995.334353871312,-302.108
11998.521709094712,-132.823
12001.708344650193,20.835
12004.894260781464,78.131
12008.079457732136,31.253
12011.2639357457,-28.648
12014.44769506553,-5.209
12017.630735934905,122.406
12020.81305859698,-106.779
12023.994663294816,-125.01
12027.175550271351,-7.813
12030.27622427429,-101.571
12033.455694464548,-375.03
12036.634447655608,-91.153
12039.812484089987,2.604
12042.989804010074,184.911
12046.166407658158,-7.813
12049.26290681064,98.966
12052.4380965329,18.231
12055.612570703324,5.209
12058.786329563762,65.109
12061.880055974125,31.253
12065.052402807443,-13.022
12068.224035049663,169.284
12071.394952942192,2.604
12074.485910333004,-33.857
12077.655418093736,49.483
12080.824212222367,59.901
12083.913099633974,41.67
12087.080485047096,70.318
12090.247157544738,182.306
12093.333977055809,-18.231
