Raman shift,Intensity
762.87479,845.77163
765.08702,845.77163
767.29926,846.55255
769.51149,847.33346
771.72373,848.11437
773.93596,848.89528
776.1482,848.89528
778.36044,848.89528
780.57267,848.11437
782.78491,848.89528
784.99714,848.89528
787.20938,848.11437
789.42161,847.33346
791.63385,847.33346
793.84609,848.11437
796.05832,848.89528
798.27056,849.6762
800.48279,848.89528
802.69503,848.89528
804.90726,848.89528
804.90726,848.11437
807.1195,848.11437
809.33173,848.11437
811.54397,847.33346
813.75621,847.33346
813.75621,846.55255
813.75621,845.77163
815.96844,845.77163
818.18068,845.77163
820.39291,845.77163
822.60515,844.99072
822.60515,844.20981
822.60515,843.42889
822.60515,842.64798
822.60515,841.86707
824.81738,841.86707
827.02962,841.86707
829.24186,841.86707
831.45409,842.64798
833.66633,843.42889
835.87856,844.20981
838.0908,844.20981
840.30303,844.99072
842.51527,844.20981
844.72751,843.42889
846.93974,844.20981
849.15198,844.99072
851.36421,844.99072
853.57645,844.99072
855.78868,844.99072
858.00092,844.20981
860.21315,844.99072
862.42539,845.77163
864.63763,845.77163
866.84986,846.55255
869.0621,846.55255
871.27433,845.77163
873.48657,844.99072
875.6988,844.20981
877.91104,844.20981
880.12328,844.99072
882.33551,845.77163
884.54775,846.55255
886.75998,846.55255
886.75998,845.77163
888.97222,845.77163
891.18445,845.77163
891.18445,844.99072
893.39669,844.99072
895.60892,844.99072
895.60892,844.20981
897.82116,844.20981
897.82116,843.42889
900.0334,843.42889
902.24563,843.42889
904.45787,843.42889
906.6701,842.64798
908.88234,842.64798
911.09457,838.74342
911.09457,839.52433
911.09457,840.30524
911.09457,841.08616
911.09457,841.86707
913.30681,838.74342
915.51905,839.52433
917.73128,838.74342
919.94352,837.9625
922.15575,837.9625
924.36799,837.9625
926.58022,837.9625
928.79246,838.74342
931.0047,838.74342
931.0047,839.52433
933.21693,839.52433
933.21693,840.30524
935.42917,840.30524
935.42917,841.08616
937.6414,841.08616
939.85364,841.08616
939.85364,843.42889
939.85364,844.99072
939.85364,844.20981
939.85364,841.86707
939.85364,842.64798
942.06587,845.77163
942.06587,844.99072
944.27811,845.77163
944.27811,846.55255
946.49034,846.55255
948.70258,846.55255
950.91482,846.55255
953.12705,846.55255
953.12705,850.45711
955.33929,851.23802
955.33929,847.33346
955.33929,848.11437
955.33929,848.89528
955.33929,849.6762
957.55152,852.01893
959.76376,855.9235
959.76376,868.4181
959.76376,852.79985
959.76376,853.58076
959.76376,854.36167
959.76376,855.14259
959.76376,856.70441
959.76376,857.48532
959.76376,869.19902
959.76376,873.10358
959.76376,870.76084
959.76376,869.97993
961.97599,858.26624
961.97599,861.38989
961.97599,872.32267
961.97599,871.54175
961.97599,873.88449
961.97599,874.66541
961.97599,875.44632
961.97599,876.22723
961.97599,877.00814
961.97599,867.63719
961.97599,880.1318
961.97599,879.35088
964.18823,878.56997
964.18823,880.91271
964.18823,887.16001
964.18823,882.47453
964.18823,877.78906
964.18823,883.25545
964.18823,859.04715
964.18823,859.82806
964.18823,860.60898
964.18823,862.1708
964.18823,862.95171
964.18823,863.73263
964.18823,864.51354
964.18823,865.29445
964.18823,887.94092
964.18823,866.85628
964.18823,884.03636
964.18823,884.81727
964.18823,886.3791
966.40047,885.59818
966.40047,881.69362
966.40047,866.07537
966.40047,888.72184
966.40047,889.50275
966.40047,890.28366
968.6127,891.06457
968.6127,899.65462
968.6127,892.6264
968.6127,893.40731
968.6127,894.18823
968.6127,894.96914
968.6127,895.75005
968.6127,896.53096
968.6127,897.31188
968.6127,900.43553
968.6127,898.8737
970.82494,891.84549
970.82494,898.09279
970.82494,901.21644
970.82494,905.121
970.82494,902.77827
970.82494,903.55918
970.82494,904.34009
970.82494,908.24466
970.82494,907.46374
970.82494,906.68283
973.03717,905.90192
973.03717,901.99735
973.03717,909.02557
973.03717,912.93013
973.03717,910.58739
973.03717,911.36831
973.03717,912.14922
973.03717,916.05378
973.03717,915.27287
973.03717,914.49196
975.24941,913.71105
975.24941,909.80648
975.24941,916.8347
975.24941,918.39652
975.24941,922.30109
975.24941,919.17743
975.24941,919.95835
975.24941,921.52017
977.46164,920.73926
977.46164,917.61561
977.46164,923.082
977.46164,923.86291
979.67388,924.64382
979.67388,925.42474
979.67388,926.20565
979.67388,926.98656
979.67388,927.76748
979.67388,930.11021
979.67388,929.3293
981.88611,928.54839
981.88611,930.89113
981.88611,931.67204
981.88611,932.45295
984.09835,933.23387
984.09835,934.01478
986.31059,934.01478
986.31059,936.35752
986.31059,937.13843
988.52282,937.91934
988.52282,935.5766
988.52282,934.01478
990.73506,934.01478
990.73506,934.79569
990.73506,938.70025
990.73506,940.26208
990.73506,939.48117
992.94729,940.26208
992.94729,939.48117
992.94729,938.70025
992.94729,936.35752
992.94729,937.13843
992.94729,934.01478
992.94729,935.5766
992.94729,934.79569
995.15953,937.91934
995.15953,934.01478
997.37176,934.01478
999.584,934.01478
1001.79624,933.23387
1001.79624,932.45295
1001.79624,931.67204
1004.00847,931.67204
1004.00847,928.54839
1006.22071,930.11021
1006.22071,929.3293
1006.22071,930.89113
1006.22071,927.76748
1006.22071,926.98656
1006.22071,926.20565
1008.43294,925.42474
1008.43294,924.64382
1008.43294,923.86291
1008.43294,923.082
1008.43294,920.73926
1008.43294,921.52017
1008.43294,917.61561
1010.64518,919.95835
1010.64518,919.17743
1010.64518,922.30109
1010.64518,918.39652
1010.64518,916.8347
1010.64518,916.05378
1010.64518,912.93013
1010.64518,910.58739
1012.85741,913.71105
1012.85741,915.27287
1012.85741,912.14922
1012.85741,914.49196
1012.85741,911.36831
1012.85741,909.80648
1012.85741,909.02557
1012.85741,908.24466
1012.85741,907.46374
1015.06965,906.68283
1015.06965,905.90192
1015.06965,905.121
1015.06965,901.99735
1015.06965,897.31188
1017.28189,902.77827
1017.28189,904.34009
1017.28189,901.21644
1017.28189,900.43553
1017.28189,899.65462
1017.28189,898.8737
1017.28189,898.09279
1017.28189,903.55918
1017.28189,896.53096
1019.49412,895.75005
1019.49412,892.6264
1021.70636,894.18823
1021.70636,893.40731
1021.70636,894.96914
1021.70636,891.84549
1021.70636,891.06457
1021.70636,890.28366
1021.70636,886.3791
1021.70636,887.16001
1023.91859,889.50275
1023.91859,887.94092
1023.91859,888.72184
1023.91859,885.59818
1023.91859,884.81727
1023.91859,884.03636
1026.13083,883.25545
1026.13083,882.47453
1026.13083,881.69362
1026.13083,880.1318
1026.13083,879.35088
1026.13083,878.56997
1026.13083,877.00814
1026.13083,877.78906
1028.34306,876.22723
1028.34306,880.91271
1030.5553,875.44632
1030.5553,874.66541
1030.5553,873.88449
1030.5553,873.10358
1030.5553,872.32267
1030.5553,871.54175
1030.5553,869.19902
1030.5553,868.4181
1032.76753,870.76084
1032.76753,869.97993
1032.76753,867.63719
1032.76753,866.85628
1032.76753,866.07537
1032.76753,865.29445
1032.76753,864.51354
1032.76753,863.73263
1034.97977,862.95171
1034.97977,862.1708
1034.97977,861.38989
1037.19201,860.60898
1039.40424,860.60898
1039.40424,859.82806
1039.40424,859.04715
1039.40424,858.26624
1039.40424,857.48532
1041.61648,857.48532
1041.61648,856.70441
1041.61648,855.9235
1041.61648,855.14259
1041.61648,854.36167
1041.61648,853.58076
1043.82871,852.79985
1046.04095,852.79985
1048.25318,852.79985
1050.46542,853.58076
1052.67766,853.58076
1052.67766,854.36167
1054.88989,854.36167
1054.88989,855.14259
1057.10213,855.14259
1059.31436,855.9235
1059.31436,856.70441
1061.5266,856.70441
1061.5266,857.48532
1063.73883,857.48532
1065.95107,857.48532
1065.95107,858.26624
1068.16331,857.48532
1070.37554,858.26624
1072.58778,858.26624
1074.80001,858.26624
1077.01225,858.26624
1079.22448,859.04715
1081.43672,859.82806
1083.64895,859.04715
1085.86119,859.82806
1088.07343,860.60898
1090.28566,860.60898
1092.4979,859.82806
1094.71013,859.82806
1096.92237,859.82806
1099.1346,859.04715
1099.1346,858.26624
1099.1346,857.48532
1099.1346,856.70441
1099.1346,855.9235
1101.34684,855.14259
1103.55908,855.14259
1105.77131,855.14259
1105.77131,854.36167
1107.98355,854.36167
1107.98355,853.58076
1110.19578,852.79985
1112.40802,852.79985
1114.62025,852.79985
1116.83249,853.58076
1119.04472,854.36167
1121.25696,854.36167
1123.4692,854.36167
1125.68143,855.14259
1127.89367,855.14259
1130.1059,855.14259
1132.31814,855.14259
1134.53037,854.36167
1136.74261,853.58076
1138.95485,852.79985
1141.16708,852.79985
1143.37932,853.58076
1145.59155,853.58076
1147.80379,853.58076
1150.01602,853.58076
1152.22826,853.58076
1154.4405,854.36167
1156.65273,855.14259
1158.86497,855.9235
1161.0772,856.70441
1163.28944,855.9235
1165.50167,855.9235
1167.71391,855.9235
1169.92614,855.14259
1172.13838,855.14259
1172.13838,854.36167
1172.13838,853.58076
1172.13838,852.79985
1172.13838,852.01893
1172.13838,851.23802
1174.35062,850.45711
1176.56285,850.45711
1178.77509,850.45711
1180.98732,850.45711
1183.19956,850.45711
1183.19956,849.6762
1183.19956,848.89528
1185.41179,848.89528
1185.41179,848.11437
1187.62403,848.11437
1189.83627,848.11437
1189.83627,847.33346
1192.0485,847.33346
1194.26074,846.55255
1194.26074,845.77163
1196.47297,845.77163
1198.68521,845.77163
1198.68521,844.99072
1200.89744,844.99072
1203.10968,844.99072
1205.32192,845.77163
1207.53415,846.55255
1209.74639,845.77163
1211.95862,844.99072
1214.17086,844.99072
1216.38309,844.99072
1218.59533,844.99072
1220.80756,844.99072
1223.0198,844.99072
1225.23204,844.20981
1227.44427,844.99072
1229.65651,844.99072
1231.86874,844.20981
1234.08098,844.20981
1236.29321,844.20981
1238.50545,843.42889
1238.50545,842.64798
1238.50545,841.86707
1238.50545,841.08616
1238.50545,840.30524
1240.71769,841.08616
1242.92992,841.86707
1245.14216,842.64798
1247.35439,842.64798
1249.56663,842.64798
1251.77886,841.86707
1253.9911,841.08616
1256.20333,840.30524
1258.41557,839.52433
1260.62781,840.30524
1262.84004,840.30524
1265.05228,840.30524
1267.26451,841.08616
1267.26451,841.86707
1267.26451,842.64798
1269.47675,841.86707
1271.68898,841.86707
1273.90122,841.86707
1276.11346,842.64798
1278.32569,841.86707
1280.53793,842.64798
1282.75016,842.64798
1284.9624,842.64798
1287.17463,843.42889
1287.17463,844.20981
1287.17463,844.99072
1287.17463,845.77163
1287.17463,846.55255
1289.38687,845.77163
1291.59911,844.99072
1293.81134,844.20981
1296.02358,844.99072
1298.23581,844.99072
1300.44805,844.99072
1302.66028,844.99072
1304.87252,844.99072
1307.08475,845.77163
1309.29699,845.77163
1311.50923,845.77163
1313.72146,845.77163
1315.9337,846.55255
1318.14593,847.33346
1320.35817,848.11437
1322.5704,848.11437
1324.78264,847.33346
1326.99488,847.33346
1329.20711,846.55255
1329.20711,845.77163
1329.20711,844.99072
1329.20711,844.20981
1329.20711,843.42889
1331.41935,842.64798
1333.63158,842.64798
1335.84382,842.64798
1338.05605,843.42889
1340.26829,844.20981
1342.48052,844.99072
1344.69276,845.77163
1346.905,845.77163
1349.11723,845.77163
1351.32947,845.77163
1353.5417,845.77163
1355.75394,845.77163
1357.96617,845.77163
1360.17841,845.77163
1362.39065,845.77163
1364.60288,845.77163
1364.60288,844.99072
1366.81512,844.99072
1366.81512,844.20981
1366.81512,843.42889
1366.81512,842.64798
1366.81512,841.86707
1369.02735,841.86707
1369.02735,841.08616
1371.23959,841.08616
1373.45182,841.08616
1375.66406,841.08616
1377.8763,841.86707
1380.08853,842.64798
1382.30077,841.86707
1384.513,841.08616
1384.513,841.86707
1384.513,842.64798
1384.513,843.42889
1384.513,844.20981
1384.513,844.99072
1386.72524,844.99072
1388.93747,845.77163
1391.14971,845.77163
1391.14971,846.55255
1393.36194,846.55255
1395.57418,846.55255
1397.78642,845.77163
1399.99865,844.99072
1402.21089,844.20981
1404.42312,844.99072
1406.63536,845.77163
1408.84759,846.55255
1411.05983,846.55255
1411.05983,845.77163
1411.05983,844.99072
1411.05983,844.20981
1411.05983,843.42889
1413.27207,843.42889
1413.27207,842.64798
1415.4843,842.64798
1415.4843,841.86707
1417.69654,841.86707
1419.90877,841.86707
1419.90877,841.08616
1422.12101,841.08616
1424.33324,841.08616
1424.33324,840.30524
1426.54548,840.30524
1428.75772,841.08616
1430.96995,841.86707
1433.18219,842.64798
1435.39442,842.64798
1437.60666,843.42889
1439.81889,843.42889
1442.03113,842.64798
1444.24336,841.86707
1446.4556,841.08616
1448.66784,841.86707
1450.88007,842.64798
1453.09231,842.64798
1455.30454,842.64798
1457.51678,842.64798
1459.72901,842.64798
1461.94125,841.86707
1464.15349,841.86707
1466.36572,841.86707
1468.57796,842.64798
1470.79019,843.42889
1473.00243,844.20981
1475.21466,844.20981
1477.4269,844.20981
1479.63913,843.42889
1481.85137,842.64798
1484.06361,841.86707
1486.27584,841.08616
1488.48808,841.86707
1488.48808,842.64798
1488.48808,843.42889
1490.70031,844.20981
1492.91255,844.20981
1492.91255,844.99072
1495.12478,844.99072
1495.12478,845.77163
1497.33702,844.99072
1499.54926,844.20981
1501.76149,844.99072
1503.97373,845.77163
1506.18596,845.77163
1508.3982,845.77163
1508.3982,844.99072
1508.3982,844.20981
1508.3982,843.42889
1508.3982,842.64798
1510.61043,842.64798
1510.61043,841.86707
1512.82267,841.86707
1512.82267,841.08616
1515.03491,841.08616
1517.24714,841.08616
1519.45938,841.08616
1519.45938,840.30524
1521.67161,840.30524
1521.67161,838.74342
1521.67161,839.52433
1523.88385,840.30524
1523.88385,841.08616
1523.88385,838.74342
1523.88385,839.52433
1526.09608,841.08616
1528.30832,841.08616
1530.52055,847.33346
1530.52055,841.86707
1530.52055,842.64798
1530.52055,843.42889
1530.52055,844.20981
1530.52055,844.99072
1530.52055,845.77163
1530.52055,846.55255
1532.73279,847.33346
1534.94503,847.33346
1537.15726,847.33346
1539.3695,847.33346
1541.58173,847.33346
1543.79397,847.33346
1543.79397,848.11437
1546.0062,848.89528
1546.0062,848.11437
1548.21844,848.89528
1550.43068,849.6762
1552.64291,850.45711
1554.85515,851.23802
1557.06738,850.45711
1559.27962,849.6762
1561.49185,849.6762
1563.70409,849.6762
1565.91633,849.6762
1568.12856,849.6762
1570.3408,848.89528
1572.55303,849.6762
1574.76527,849.6762
1576.9775,849.6762
1579.18974,850.45711
1581.40197,850.45711
1583.61421,850.45711
1585.82645,850.45711
1588.03868,850.45711
1590.25092,851.23802
1592.46315,850.45711
1594.67539,849.6762
1596.88762,849.6762
1599.09986,848.89528
1601.3121,848.89528
1603.52433,848.89528
1605.73657,848.89528
1607.9488,848.89528
1610.16104,848.89528
1612.37327,848.11437
1614.58551,847.33346
1616.79774,847.33346
1619.00998,847.33346
1621.22222,847.33346
1623.43445,846.55255
1625.64669,846.55255
1627.85892,846.55255
1630.07116,846.55255
1632.28339,845.77163
1634.49563,845.77163
1636.70787,845.77163
1638.9201,845.77163
1641.13234,845.77163
1643.34457,845.77163
1645.55681,846.55255
1647.76904,846.55255
1649.98128,846.55255
1652.19352,845.77163
1654.40575,844.99072
1656.61799,844.99072
1658.83022,844.99072
1661.04246,845.77163
1663.25469,845.77163
1665.46693,844.99072
1667.67916,844.20981
1669.8914,844.20981
1672.10364,844.20981
1674.31587,844.99072
1676.52811,844.20981
1678.74034,844.20981
1680.95258,844.20981
1683.16481,844.20981
1685.37705,843.42889
1687.58929,843.42889
1689.80152,843.42889
1692.01376,843.42889
1694.22599,843.42889
1696.43823,844.20981
1698.65046,844.99072
1700.8627,845.77163
1703.07493,845.77163
1705.28717,845.77163
1707.49941,845.77163
1709.71164,845.77163
1711.92388,846.55255
1714.13611,846.55255
1716.34835,847.33346
1718.56058,846.55255
1720.77282,845.77163
1722.98506,844.99072
1725.19729,844.20981
1727.40953,844.20981
1729.62176,844.20981
1731.834,843.42889
1734.04623,843.42889
1736.25847,842.64798
1738.47071,842.64798
1740.68294,842.64798
1742.89518,843.42889
1745.10741,844.20981
1747.31965,844.99072
1749.53188,845.77163
1751.74412,845.77163
1753.95635,845.77163
1756.16859,845.77163
1758.38083,845.77163
1760.59306,845.77163
1762.8053,845.77163
1765.01753,844.99072
1767.22977,845.77163
1769.442,844.99072
1771.65424,844.20981
1773.86648,844.20981
1776.07871,844.99072
1778.29095,844.99072
1780.50318,844.99072
1782.71542,845.77163
1784.92765,846.55255
1787.13989,846.55255
1789.35213,846.55255
1791.56436,844.99072
1791.56436,845.77163
1793.7766,844.20981
1795.98883,844.20981
1798.20107,844.20981
1800.4133,843.42889
1802.62554,844.20981
1804.83777,844.99072
1807.05001,844.99072
1809.26225,845.77163
1811.47448,845.77163
1813.68672,844.99072
1815.89895,844.20981
1818.11119,843.42889
1820.32342,842.64798
1822.53566,842.64798
1824.7479,842.64798
1826.96013,842.64798
1829.17237,842.64798
1831.3846,843.42889
1833.59684,842.64798
1835.80907,841.86707
1838.02131,842.64798
1840.23354,841.86707
1842.44578,841.86707
1844.65802,841.86707
1846.87025,841.08616
1849.08249,841.86707
1851.29472,842.64798
1853.50696,843.42889
1855.71919,843.42889
1857.93143,843.42889
1860.14367,842.64798
1862.3559,842.64798
1864.56814,842.64798
1866.78037,842.64798
1868.99261,842.64798
1871.20484,842.64798
1873.41708,842.64798
1875.62932,842.64798
1877.84155,841.86707
1880.05379,841.08616
1882.26602,841.08616
1884.47826,841.86707
1886.69049,841.86707
1888.90273,841.86707
1891.11496,841.86707
1893.3272,842.64798
1895.53944,843.42889
1897.75167,842.64798
1899.96391,841.86707
1902.17614,841.08616
1904.38838,840.30524
1906.60061,840.30524
1908.81285,841.08616
1911.02509,841.08616
1911.02509,841.86707
1913.23732,841.86707
1915.44956,841.86707
1917.66179,844.99072
1917.66179,842.64798
1917.66179,843.42889
1917.66179,844.20981
1917.66179,845.77163
1919.87403,845.77163
1922.08626,845.77163
1924.2985,846.55255
1926.51073,845.77163
1928.72297,845.77163
1930.93521,845.77163
1933.14744,845.77163
1935.35968,842.64798
1935.35968,844.99072
1935.35968,844.20981
1935.35968,843.42889
1937.57191,842.64798
1939.78415,841.86707
1941.99638,841.86707
1944.20862,842.64798
1946.42086,843.42889
1948.63309,844.20981
1950.84533,844.99072
1953.05756,844.20981
1955.2698,844.20981
1957.48203,844.20981
1959.69427,844.20981
1961.90651,844.20981
1964.11874,844.99072
1966.33098,844.99072
1968.54321,844.99072
1970.75545,844.99072
1972.96768,844.99072
1975.17992,844.99072
1977.39215,844.99072
1979.60439,844.20981
1981.81663,843.42889
1984.02886,842.64798
1986.2411,841.86707
1988.45333,842.64798
1990.66557,842.64798
1992.8778,842.64798
1995.09004,842.64798
1997.30228,842.64798
1999.51451,843.42889
2001.72675,843.42889
2003.93898,844.20981
2006.15122,844.20981
2008.36345,844.20981
2010.57569,844.20981
2012.78793,843.42889
2015.00016,844.20981
2017.2124,843.42889
2019.42463,843.42889
2021.63687,844.20981
2023.8491,844.99072
2026.06134,845.77163
2028.27357,845.77163
2030.48581,845.77163
2032.69805,845.77163
2034.91028,845.77163
2037.12252,845.77163
2039.33475,845.77163
2041.54699,845.77163
2043.75922,844.99072
2045.97146,844.99072
2048.1837,844.99072
2050.39593,844.99072
2052.60817,844.20981
2054.8204,843.42889
2057.03264,842.64798
2059.24487,841.86707
2061.45711,842.64798
2063.66934,842.64798
2065.88158,843.42889
2068.09382,844.20981
2070.30605,844.99072
2072.51829,845.77163
2074.73052,845.77163
2076.94276,845.77163
2079.15499,844.99072
2081.36723,844.99072
2083.57947,844.99072
2085.7917,845.77163
2088.00394,845.77163
2090.21617,845.77163
2092.42841,844.99072
2094.64064,844.20981
2096.85288,843.42889
2099.06512,843.42889
2101.27735,843.42889
2103.48959,843.42889
2105.70182,844.20981
2107.91406,845.77163
2107.91406,844.99072
2110.12629,844.99072
2112.33853,845.77163
2114.55076,845.77163
2116.763,845.77163
2118.97524,845.77163
2121.18747,845.77163
2123.39971,845.77163
2125.61194,844.99072
2127.82418,844.99072
2130.03641,845.77163
2132.24865,846.55255
2134.46089,847.33346
2136.67312,847.33346
2138.88536,846.55255
2141.09759,845.77163
2143.30983,845.77163
2145.52206,845.77163
2147.7343,845.77163
2149.94654,846.55255
2152.15877,845.77163
2154.37101,844.99072
2156.58324,844.20981
2158.79548,844.99072
2161.00771,844.20981
2163.21995,843.42889
2165.43218,843.42889
2167.64442,843.42889
2169.85666,843.42889
2172.06889,844.20981
2174.28113,844.20981
2176.49336,844.20981
2178.7056,844.20981
2180.91783,844.99072
2183.13007,844.20981
2185.34231,844.20981
2187.55454,844.20981
2189.76678,844.99072
2191.97901,844.99072
2194.19125,844.99072
2196.40348,845.77163
2198.61572,846.55255
2200.82795,847.33346
2203.04019,848.11437
2205.25243,847.33346
2207.46466,847.33346
2209.6769,847.33346
2211.88913,846.55255
2214.10137,846.55255
2216.3136,845.77163
2218.52584,845.77163
2220.73808,845.77163
2222.95031,845.77163
2225.16255,845.77163
2227.37478,845.77163
2229.58702,845.77163
2231.79925,845.77163
2234.01149,845.77163
2236.22373,845.77163
2238.43596,845.77163
2240.6482,846.55255
2242.86043,846.55255
2245.07267,845.77163
2247.2849,844.99072
2249.49714,845.77163
2251.70937,846.55255
2253.92161,846.55255
2256.13385,846.55255
2258.34608,846.55255
2260.55832,846.55255
2262.77055,846.55255
2264.98279,846.55255
2267.19502,845.77163
2269.40726,846.55255
2271.6195,846.55255
2273.83173,845.77163
2276.04397,845.77163
2278.2562,845.77163
2280.46844,845.77163
2282.68067,844.99072
2284.89291,844.20981
2287.10514,843.42889
2289.31738,842.64798
2291.52962,842.64798
2293.74185,847.33346
2293.74185,843.42889
2293.74185,844.20981
2293.74185,844.99072
2293.74185,845.77163
2293.74185,846.55255
2295.95409,848.11437
2295.95409,847.33346
2298.16632,848.11437
2300.37856,848.11437
2302.59079,848.11437
2304.80303,848.89528
2307.01527,848.89528
2309.2275,848.89528
2309.2275,849.6762
2311.43974,850.45711
2313.65197,850.45711
2315.86421,856.70441
2315.86421,851.23802
2315.86421,852.01893
2315.86421,852.79985
2315.86421,853.58076
2315.86421,854.36167
2315.86421,855.14259
2315.86421,855.9235
2318.07644,856.70441
2320.28868,857.48532
2320.28868,856.70441
2322.50092,856.70441
2324.71315,857.48532
2326.92539,857.48532
2329.13762,857.48532
2331.34986,857.48532
2333.56209,859.82806
2333.56209,857.48532
2333.56209,858.26624
2333.56209,859.04715
2333.56209,860.60898
2335.77433,855.14259
2335.77433,861.38989
2335.77433,862.1708
2335.77433,854.36167
2335.77433,860.60898
2335.77433,857.48532
2335.77433,855.9235
2335.77433,856.70441
2337.98656,861.38989
2337.98656,858.26624
2337.98656,854.36167
2337.98656,859.82806
2337.98656,862.1708
2340.1988,859.04715
2340.1988,854.36167
2340.1988,862.95171
2342.41104,854.36167
2344.62327,854.36167
2346.83551,854.36167
2349.04774,853.58076
2349.04774,852.79985
2351.25998,851.23802
2351.25998,852.79985
2351.25998,852.01893
2351.25998,848.89528
2351.25998,850.45711
2351.25998,849.6762
2353.47221,848.89528
2355.68445,848.89528
2357.89669,848.89528
2360.10892,848.89528
2362.32116,848.11437
2362.32116,848.89528
2364.53339,848.11437
2364.53339,847.33346
2366.74563,845.77163
2366.74563,847.33346
2366.74563,846.55255
2366.74563,844.20981
2366.74563,844.99072
2368.95786,843.42889
2371.1701,843.42889
2373.38234,843.42889
2375.59457,844.20981
2377.80681,844.99072
2380.01904,845.77163
2382.23128,845.77163
2384.44351,844.99072
2386.65575,844.20981
2388.86798,843.42889
2391.08022,842.64798
2393.29246,842.64798
2395.50469,842.64798
2397.71693,843.42889
2399.92916,843.42889
2402.1414,844.20981
2404.35363,847.33346
2404.35363,844.99072
2404.35363,845.77163
2404.35363,846.55255
2404.35363,848.11437
2406.56587,848.11437
2408.77811,848.11437
2410.99034,848.11437
2413.20258,848.11437
2415.41481,847.33346
2415.41481,848.11437
2417.62705,847.33346
2419.83928,847.33346
2422.05152,846.55255
2424.26375,846.55255
2426.47599,845.77163
2428.68823,845.77163
2430.90046,845.77163
2433.1127,846.55255
2435.32493,846.55255
2437.53717,846.55255
2439.7494,846.55255
2441.96164,845.77163
2444.17388,844.99072
2446.38611,845.77163
2448.59835,846.55255
2450.81058,843.42889
2450.81058,846.55255
2450.81058,845.77163
2450.81058,844.99072
2450.81058,844.20981
2453.02282,842.64798
2455.23505,842.64798
2457.44729,843.42889
2459.65953,844.20981
2461.87176,844.99072
2464.084,844.99072
2466.29623,844.20981
2468.50847,844.20981
2470.7207,843.42889
2472.93294,842.64798
2475.14517,841.86707
2477.35741,841.86707
2479.56965,842.64798
2481.78188,843.42889
2481.78188,842.64798
2483.99412,843.42889
2486.20635,844.20981
2486.20635,844.99072
2486.20635,845.77163
2486.20635,846.55255
2486.20635,847.33346
2486.20635,848.11437
2488.41859,848.11437
2490.63082,848.11437
2492.84306,847.33346
2495.0553,846.55255
2497.26753,847.33346
2499.47977,848.11437
2501.692,848.11437
2501.692,847.33346
2503.90424,847.33346
2506.11647,847.33346
2508.32871,846.55255
2508.32871,845.77163
2508.32871,844.99072
2508.32871,844.20981
2508.32871,843.42889
2510.54095,842.64798
2512.75318,842.64798
2514.96542,842.64798
2517.17765,843.42889
2519.38989,844.20981
2521.60212,844.99072
2523.81436,844.20981
2526.02659,844.99072
2528.23883,845.77163
2530.45107,845.77163
2532.6633,845.77163
2534.87554,845.77163
2537.08777,844.99072
2539.30001,844.99072
2541.51224,844.99072
2543.72448,844.99072
2545.93672,844.99072
2548.14895,844.20981
2550.36119,843.42889
2552.57342,842.64798
2554.78566,842.64798
2556.99789,843.42889
2559.21013,844.20981
2561.42236,844.99072
2563.6346,845.77163
2565.84684,845.77163
2568.05907,845.77163
2570.27131,844.99072
2572.48354,844.99072
2572.48354,844.20981
2574.69578,844.20981
2576.90801,844.20981
2576.90801,843.42889
2576.90801,842.64798
2576.90801,841.86707
2579.12025,842.64798
2581.33249,841.86707
2583.54472,841.08616
2585.75696,840.30524
2587.96919,839.52433
2590.18143,839.52433
2592.39366,840.30524
2594.6059,840.30524
2596.81814,840.30524
2599.03037,841.08616
2601.24261,841.08616
2603.45484,841.86707
2605.66708,842.64798
2605.66708,843.42889
2605.66708,844.20981
2605.66708,844.99072
2605.66708,845.77163
2607.87931,845.77163
2610.09155,846.55255
2612.30378,846.55255
2614.51602,846.55255
2616.72826,846.55255
2618.94049,846.55255
2621.15273,845.77163
2623.36496,844.99072
2625.5772,844.20981
2627.78943,844.20981
2630.00167,844.99072
2632.21391,845.77163
2634.42614,845.77163
2636.63838,845.77163
2636.63838,844.99072
2638.85061,844.99072
2638.85061,844.20981
2638.85061,843.42889
2638.85061,842.64798
2638.85061,841.86707
2641.06285,841.86707
2643.27508,841.08616
2645.48732,841.86707
2647.69955,842.64798
2649.91179,843.42889
2652.12403,844.20981
2654.33626,844.20981
2656.5485,844.20981
2658.76073,844.20981
2660.97297,844.20981
2663.1852,844.99072
2665.39744,844.99072
2667.60968,845.77163
2669.82191,845.77163
2672.03415,845.77163
2674.24638,845.77163
2676.45862,844.99072
2678.67085,845.77163
2680.88309,845.77163
2683.09533,845.77163
2685.30756,844.99072
2687.5198,844.20981
2689.73203,843.42889
2691.94427,843.42889
2694.1565,844.20981
2696.36874,844.20981
2698.58097,844.99072
2700.79321,845.77163
2703.00545,846.55255
2705.21768,847.33346
2707.42992,847.33346
2709.64215,847.33346
2711.85439,846.55255
2714.06662,846.55255
2714.06662,845.77163
2714.06662,844.99072
2714.06662,844.20981
2714.06662,843.42889
2714.06662,842.64798
2716.27886,842.64798
2718.4911,842.64798
2720.70333,843.42889
2722.91557,844.20981
2725.1278,844.99072
2727.34004,844.20981
2729.55227,843.42889
2731.76451,842.64798
2733.97675,842.64798
2733.97675,843.42889
2736.18898,844.20981
2736.18898,844.99072
2736.18898,845.77163
2738.40122,845.77163
2740.61345,846.55255
2742.82569,845.77163
2745.03792,844.99072
2747.25016,844.20981
2749.46239,844.20981
2751.67463,843.42889
2753.88687,844.20981
2756.0991,844.99072
2758.31134,845.77163
2760.52357,845.77163
2762.73581,845.77163
2764.94804,845.77163
2764.94804,844.99072
2767.16028,844.99072
2769.37252,844.20981
2771.58475,844.20981
2771.58475,843.42889
2773.79699,843.42889
2773.79699,842.64798
2773.79699,841.86707
2773.79699,841.08616
2773.79699,840.30524
2776.00922,841.08616
2778.22146,841.86707
2780.43369,841.08616
2782.64593,840.30524
2784.85816,839.52433
2787.0704,840.30524
2789.28264,840.30524
2791.49487,840.30524
2791.49487,841.08616
2793.70711,841.08616
2795.91934,841.86707
2795.91934,842.64798
2798.13158,842.64798
2798.13158,843.42889
2798.13158,844.20981
2798.13158,844.99072
2798.13158,845.77163
2800.34381,845.77163
2802.55605,846.55255
2804.76829,846.55255
2806.98052,846.55255
2809.19276,846.55255
2811.40499,846.55255
2813.61723,846.55255
2815.82946,846.55255
2818.0417,845.77163
2820.25394,844.99072
2822.46617,844.20981
2824.67841,844.20981
2826.89064,844.20981
2829.10288,844.99072
2831.31511,845.77163
2833.52735,846.55255
2835.73958,846.55255
2835.73958,845.77163
2837.95182,845.77163
2837.95182,844.99072
2837.95182,844.20981
2840.16406,844.20981
2840.16406,843.42889
2840.16406,842.64798
2840.16406,841.86707
2842.37629,841.86707
2844.58853,841.86707
2846.80076,841.86707
2849.013,842.64798
2851.22523,843.42889
2853.43747,842.64798
2855.64971,841.86707
2857.86194,841.86707
2857.86194,842.64798
2857.86194,843.42889
2857.86194,844.20981
2857.86194,844.99072
2860.07418,845.77163
2862.28641,845.77163
2864.49865,844.99072
2866.71088,844.20981
2868.92312,843.42889
2871.13536,843.42889
2873.34759,843.42889
2875.55983,843.42889
2877.77206,842.64798
2879.9843,841.86707
2882.19653,841.86707
2884.40877,841.86707
2886.621,841.08616
2888.83324,841.08616
2891.04548,841.08616
2893.25771,841.08616
2895.46995,841.86707
2897.68218,842.64798
2899.89442,843.42889
2902.10665,843.42889
2904.31889,843.42889
2906.53113,843.42889
2908.74336,843.42889
2910.9556,844.20981
2913.16783,844.99072
2915.38007,844.99072
2917.5923,844.99072
2919.80454,844.99072
2922.01677,844.20981
2924.22901,844.99072
2926.44125,844.99072
2928.65348,845.77163
2930.86572,846.55255
2933.07795,846.55255
2935.29019,845.77163
2937.50242,844.99072
2939.71466,844.20981
2941.9269,843.42889
2944.13913,843.42889
2946.35137,843.42889
2948.5636,843.42889
2950.77584,843.42889
2952.98807,842.64798
2955.20031,842.64798
2957.41255,843.42889
2959.62478,844.20981
2961.83702,844.99072
2964.04925,844.99072
2966.26149,844.20981
2968.47372,843.42889
2970.68596,842.64798
2972.89819,842.64798
2975.11043,843.42889
2977.32267,843.42889
2979.5349,844.20981
2981.74714,844.20981
2983.95937,844.20981
2986.17161,844.20981
2988.38384,843.42889
2990.59608,842.64798
2992.80832,842.64798
2995.02055,843.42889
2997.23279,844.20981
2999.44502,843.42889
3001.65726,842.64798
3003.86949,842.64798
3006.08173,843.42889
3008.29396,846.55255
3008.29396,843.42889
3008.29396,844.20981
3008.29396,844.99072
3008.29396,845.77163
3010.5062,847.33346
3012.71844,847.33346
3014.93067,847.33346
3017.14291,847.33346
3019.35514,847.33346
3021.56738,846.55255
3023.77961,845.77163
3025.99185,844.99072
3028.20409,844.20981
3030.41632,844.20981
3032.62856,844.99072
3034.84079,844.99072
3034.84079,845.77163
3037.05303,845.77163
3039.26526,845.77163
3041.4775,846.55255
3041.4775,847.33346
3043.68974,850.45711
3043.68974,847.33346
3043.68974,848.11437
3043.68974,848.89528
3043.68974,849.6762
3045.90197,851.23802
3048.11421,851.23802
3050.32644,850.45711
3052.53868,849.6762
3054.75091,849.6762
3056.96315,850.45711
3059.17538,851.23802
3061.38762,851.23802
3063.59986,851.23802
3065.81209,851.23802
3068.02433,851.23802
3070.23656,852.01893
3072.4488,852.01893
3074.66103,852.79985
3076.87327,852.01893
3079.08551,851.23802
3081.29774,850.45711
3083.50998,849.6762
3085.72221,849.6762
3087.93445,849.6762
3090.14668,849.6762
3092.35892,849.6762
3094.57116,849.6762
3096.78339,850.45711
3098.99563,851.23802
3101.20786,852.01893
3103.4201,852.01893
3105.63233,852.01893
3107.84457,852.01893
3110.0568,851.23802
3112.26904,850.45711
3114.48128,850.45711
3116.69351,850.45711
3116.69351,851.23802
3118.90575,851.23802
3121.11798,851.23802
3123.33022,852.01893
3125.54245,852.01893
3127.75469,855.9235
3127.75469,852.79985
3127.75469,853.58076
3127.75469,854.36167
3127.75469,855.14259
3129.96693,855.9235
3132.17916,856.70441
3134.3914,856.70441
3136.60363,856.70441
3138.81587,856.70441
3141.0281,856.70441
3143.24034,855.9235
3145.45257,855.9235
3147.66481,855.9235
3149.87705,856.70441
3152.08928,856.70441
3154.30152,856.70441
3156.51375,856.70441
3158.72599,856.70441
3160.93822,855.9235
3163.15046,855.14259
3165.3627,855.14259
3167.57493,855.9235
3167.57493,855.14259
3169.78717,855.9235
3171.9994,855.9235
3174.21164,857.48532
3174.21164,856.70441
3176.42387,858.26624
3176.42387,857.48532
3178.63611,859.04715
3178.63611,858.26624
3180.84835,859.82806
3180.84835,859.04715
3183.06058,859.82806
3183.06058,860.60898
3185.27282,861.38989
3185.27282,860.60898
3187.48505,862.1708
3187.48505,861.38989
3189.69729,862.1708
3191.90952,864.51354
3191.90952,862.1708
3191.90952,862.95171
3191.90952,863.73263
3194.12176,864.51354
3196.33399,864.51354
3198.54623,864.51354
3200.75847,864.51354
3202.9707,865.29445
3205.18294,866.85628
3205.18294,866.07537
3207.39517,866.85628
3209.60741,867.63719
3209.60741,866.85628
3211.81964,868.4181
3211.81964,867.63719
3214.03188,869.19902
3216.24412,869.97993
3216.24412,869.19902
3218.45635,869.97993
3218.45635,870.76084
3220.66859,870.76084
3222.88082,871.54175
3222.88082,870.76084
3225.09306,871.54175
3227.30529,872.32267
3227.30529,874.66541
3227.30529,873.10358
3227.30529,873.88449
3227.30529,875.44632
3229.51753,875.44632
3231.72976,875.44632
3233.942,875.44632
3236.15424,876.22723
3238.36647,875.44632
3240.57871,874.66541
3242.79094,873.88449
3245.00318,873.88449
3245.00318,874.66541
3247.21541,874.66541
3249.42765,875.44632
3249.42765,874.66541
3251.63989,879.35088
3251.63989,875.44632
3251.63989,876.22723
3251.63989,877.00814
3251.63989,877.78906
3251.63989,878.56997
3251.63989,880.1318
3253.85212,880.91271
3253.85212,880.1318
3256.06436,880.91271
3258.27659,880.91271
3260.48883,880.91271
3262.70106,880.91271
3264.9133,880.91271
3264.9133,881.69362
3267.12554,882.47453
3267.12554,881.69362
3267.12554,883.25545
3269.33777,883.25545
3271.55001,883.25545
3273.76224,887.94092
3273.76224,884.03636
3273.76224,884.81727
3273.76224,885.59818
3273.76224,886.3791
3273.76224,887.16001
3275.97448,888.72184
3275.97448,887.94092
3278.18671,889.50275
3278.18671,888.72184
3278.18671,890.28366
3280.39895,891.06457
3280.39895,890.28366
3282.61118,891.06457
3284.82342,892.6264
3284.82342,891.06457
3284.82342,891.84549
3287.03566,893.40731
3287.03566,892.6264
3289.24789,894.18823
3289.24789,893.40731
3291.46013,894.96914
3291.46013,894.18823
3293.67236,894.96914
3295.8846,895.75005
3295.8846,894.96914
3298.09683,898.09279
3298.09683,895.75005
3298.09683,896.53096
3298.09683,897.31188
3300.30907,898.09279
3302.52131,898.09279
3304.73354,900.43553
3304.73354,898.8737
3304.73354,899.65462
3306.94578,901.21644
3306.94578,900.43553
3309.15801,901.99735
3309.15801,901.21644
3311.37025,901.99735
3313.58248,901.99735
3313.58248,905.121
3313.58248,902.77827
3313.58248,903.55918
3313.58248,904.34009
3315.79472,905.90192
3318.00696,906.68283
3318.00696,905.90192
3320.21919,907.46374
3320.21919,906.68283
3322.43143,908.24466
3324.64366,908.24466
3326.8559,909.02557
3329.06813,910.58739
3329.06813,909.80648
3331.28037,912.14922
3331.28037,910.58739
3331.28037,911.36831
3331.28037,912.93013
3333.4926,914.49196
3333.4926,912.93013
3333.4926,913.71105
3333.4926,915.27287
3335.70484,916.05378
3337.91708,917.61561
3337.91708,916.05378
3337.91708,916.8347
3340.12931,919.17743
3340.12931,917.61561
3340.12931,918.39652
3342.34155,920.73926
3342.34155,919.95835
3344.55378,922.30109
3344.55378,921.52017
3346.76602,923.86291
3346.76602,923.082
3348.97825,924.64382
3351.19049,926.98656
3351.19049,924.64382
3351.19049,925.42474
3351.19049,926.20565
3353.40273,928.54839
3353.40273,926.98656
3353.40273,927.76748
3355.61496,929.3293
3355.61496,928.54839
3357.8272,929.3293
3357.8272,930.11021
3360.03943,932.45295
3360.03943,930.11021
3360.03943,930.89113
3360.03943,931.67204
3362.25167,934.01478
3362.25167,933.23387
3364.4639,934.79569
3366.67614,935.5766
3366.67614,936.35752
3368.88837,937.91934
3368.88837,936.35752
3368.88837,937.13843
3371.10061,938.70025
3373.31285,940.26208
3373.31285,938.70025
3373.31285,939.48117
3375.52508,941.04299
3375.52508,940.26208
3377.73732,941.82391
3377.73732,941.04299
3377.73732,942.60482
3379.94955,942.60482
3382.16179,942.60482
3384.37402,942.60482
3386.58626,944.16664
3386.58626,942.60482
3386.58626,943.38573
3386.58626,946.50938
3386.58626,944.94756
3386.58626,945.72847
3388.7985,946.50938
3391.01073,947.2903
3393.22297,947.2903
3395.4352,947.2903
3397.64744,947.2903
3399.85967,947.2903
3402.07191,946.50938
3404.28415,945.72847
3406.49638,944.94756
3408.70862,944.16664
3410.92085,944.94756
3410.92085,944.16664
3413.13309,944.94756
3415.34532,944.94756
3415.34532,945.72847
3415.34532,946.50938
3417.55756,946.50938
3419.76979,946.50938
3421.98203,947.2903
3421.98203,948.85212
3421.98203,948.07121
3424.19427,949.63303
3424.19427,948.85212
3424.19427,951.19486
3424.19427,950.41395
3424.19427,951.97577
3426.4065,952.75668
3428.61874,951.97577
3430.83097,951.97577
3433.04321,952.75668
3435.25544,952.75668
3437.46768,952.75668
3439.67992,951.97577
3441.89215,951.97577
3441.89215,948.07121
3441.89215,951.19486
3441.89215,950.41395
3441.89215,949.63303
3441.89215,948.85212
3441.89215,947.2903
3444.10439,947.2903
3444.10439,946.50938
3446.31662,944.94756
3446.31662,946.50938
3446.31662,945.72847
3448.52886,944.16664
3450.74109,942.60482
3450.74109,943.38573
3452.95333,941.82391
3452.95333,942.60482
3452.95333,941.04299
3455.16557,940.26208
3457.3778,938.70025
3457.3778,940.26208
3457.3778,939.48117
3459.59004,937.91934
3459.59004,938.70025
3461.80227,937.91934
3464.01451,937.13843
3464.01451,937.91934
3464.01451,935.5766
3464.01451,936.35752
3466.22674,933.23387
3466.22674,935.5766
3466.22674,934.79569
3466.22674,934.01478
3468.43898,931.67204
3468.43898,932.45295
3470.65121,930.11021
3470.65121,931.67204
3470.65121,930.89113
3472.86345,928.54839
3472.86345,929.3293
3475.07569,927.76748
3477.28792,924.64382
3477.28792,926.98656
3477.28792,926.20565
3477.28792,925.42474
3479.50016,923.082
3479.50016,923.86291
3481.71239,922.30109
3483.92463,921.52017
3483.92463,922.30109
3483.92463,920.73926
3486.13686,919.95835
3488.3491,918.39652
3488.3491,919.95835
3488.3491,919.17743
3490.56134,918.39652
3492.77357,915.27287
3492.77357,918.39652
3492.77357,917.61561
3492.77357,916.8347
3492.77357,916.05378
3494.98581,913.71105
3494.98581,914.49196
3497.19804,913.71105
3499.41028,911.36831
3499.41028,912.93013
3499.41028,912.14922
3501.62251,909.80648
3501.62251,911.36831
3501.62251,910.58739
3503.83475,909.02557
3506.04698,908.24466
3506.04698,909.02557
3508.25922,908.24466
3510.47146,906.68283
3510.47146,908.24466
3510.47146,907.46374
3512.68369,905.90192
3512.68369,906.68283
3512.68369,905.121
3514.89593,905.121
3517.10816,905.121
3519.3204,905.121
3521.53263,905.121
3523.74487,901.99735
3523.74487,905.121
3523.74487,904.34009
3523.74487,903.55918
3523.74487,902.77827
3525.95711,901.99735
3528.16934,901.99735
3530.38158,901.99735
3532.59381,901.99735
3532.59381,901.21644
3534.80605,900.43553
3537.01828,898.8737
3537.01828,900.43553
3537.01828,899.65462
3539.23052,898.8737
3541.44276,897.31188
3541.44276,898.8737
3541.44276,898.09279
3543.65499,895.75005
3543.65499,897.31188
3543.65499,896.53096
3545.86723,894.18823
3545.86723,895.75005
3545.86723,894.96914
3545.86723,893.40731
3548.07946,892.6264
3548.07946,893.40731
3550.2917,892.6264
3550.2917,891.84549
3552.50393,891.06457
3554.71617,890.28366
3554.71617,891.06457
3554.71617,889.50275
3556.9284,889.50275
3559.14064,887.16001
3559.14064,888.72184
3559.14064,887.94092
3561.35288,886.3791
3561.35288,887.16001
3563.56511,885.59818
3563.56511,886.3791
3565.77735,884.81727
3565.77735,885.59818
3567.98958,884.03636
3567.98958,884.81727
3570.20182,883.25545
3570.20182,884.03636
3572.41405,880.91271
3572.41405,883.25545
3572.41405,882.47453
3572.41405,881.69362
3574.62629,880.91271
3574.62629,880.1318
3576.83853,879.35088
3576.83853,880.1318
3579.05076,878.56997
3579.05076,879.35088
3581.263,877.00814
3581.263,876.22723
3581.263,878.56997
3581.263,877.78906
3583.47523,874.66541
3583.47523,876.22723
3583.47523,873.88449
3583.47523,875.44632
3583.47523,873.10358
3585.68747,873.10358
3587.8997,873.10358
3587.8997,872.32267
3590.11194,871.54175
3590.11194,872.32267
3592.32417,870.76084
3592.32417,869.97993
3592.32417,871.54175
3594.53641,869.97993
3594.53641,869.19902
3596.74865,867.63719
3596.74865,866.85628
3596.74865,866.07537
3596.74865,865.29445
3596.74865,864.51354
3596.74865,869.19902
3596.74865,868.4181
3598.96088,864.51354
3601.17312,864.51354
3603.38535,862.95171
3603.38535,864.51354
3603.38535,863.73263
3605.59759,862.95171
3605.59759,862.1708
3607.80982,862.1708
3610.02206,862.1708
3612.2343,862.1708
3614.44653,860.60898
3614.44653,862.1708
3614.44653,861.38989
3616.65877,860.60898
3618.871,859.82806
3618.871,860.60898
3621.08324,859.04715
3621.08324,859.82806
3623.29547,858.26624
3623.29547,859.04715
3625.50771,858.26624
3627.71995,858.26624
3629.93218,858.26624
3632.14442,857.48532
3632.14442,856.70441
3634.35665,856.70441
3634.35665,855.9235
3636.56889,855.14259
3636.56889,855.9235
3638.78112,855.14259
3640.99336,855.14259
3643.20559,854.36167
3645.41783,854.36167
3647.63007,854.36167
3647.63007,853.58076
3649.8423,852.79985
3652.05454,852.79985
3654.26677,852.01893
3654.26677,852.79985
3656.47901,852.01893
3658.69124,852.79985
3660.90348,853.58076
3663.11572,854.36167
3665.32795,853.58076
3667.54019,853.58076
3669.75242,854.36167
3671.96466,853.58076
3674.17689,853.58076
3676.38913,853.58076
3678.60137,851.23802
3678.60137,850.45711
3678.60137,849.6762
3678.60137,852.01893
3678.60137,852.79985
3680.8136,849.6762
3683.02584,848.89528
3685.23807,848.89528
3687.45031,848.89528
3687.45031,848.11437
3689.66254,848.11437
3691.87478,848.89528
3694.08701,849.6762
3696.29925,850.45711
3698.51149,849.6762
3700.72372,849.6762
3702.93596,849.6762
3705.14819,848.89528
3707.36043,848.11437
3709.57266,847.33346
3711.7849,846.55255
3713.99714,847.33346
3716.20937,848.11437
3718.42161,848.89528
3720.63384,848.89528
3722.84608,848.89528
3725.05831,848.89528
3727.27055,848.11437
3729.48278,848.89528
3731.69502,848.11437
3733.90726,848.11437
3736.11949,848.11437
3738.33173,848.11437
3740.54396,848.11437
3742.7562,848.11437
3744.96843,847.33346
3747.18067,847.33346
3749.39291,847.33346
3751.60514,848.11437
3753.81738,848.89528
3756.02961,849.6762
3758.24185,849.6762
3760.45408,849.6762
3762.66632,848.89528
3764.87856,849.6762
3767.09079,849.6762
3769.30303,848.89528
3771.51526,848.89528
3773.7275,848.89528
3775.93973,848.11437
3778.15197,847.33346
3780.3642,846.55255
3782.57644,845.77163
3784.78868,844.99072
3787.00091,844.20981
3789.21315,844.99072
3791.42538,844.99072
3793.63762,845.77163
3795.84985,845.77163
3798.06209,845.77163
3800.27433,844.99072
3802.48656,844.99072
3804.6988,844.99072
3806.91103,844.20981
3809.12327,844.99072
3809.12327,844.20981
3811.3355,843.42889
3813.54774,843.42889
3815.75998,843.42889
3817.97221,842.64798
3820.18445,843.42889
3822.39668,844.20981
3824.60892,844.99072
3826.82115,845.77163
3829.03339,845.77163
3831.24562,845.77163
3833.45786,845.77163
3835.6701,845.77163
3837.88233,845.77163
3840.09457,844.99072
3842.3068,844.99072
3844.51904,844.99072
3846.73127,844.20981
3848.94351,844.20981
3851.15575,841.86707
3851.15575,843.42889
3851.15575,840.30524
3851.15575,842.64798
3851.15575,841.08616
3853.36798,840.30524
3855.58022,840.30524
3857.79245,840.30524
3860.00469,841.08616
3862.21692,841.86707
3864.42916,842.64798
3866.64139,843.42889
3868.85363,843.42889
3871.06587,844.20981
3873.2781,844.20981
3875.49034,843.42889
3877.70257,842.64798
3879.91481,842.64798
3882.12704,842.64798
3884.33928,842.64798
3886.55152,842.64798
3888.76375,842.64798
3890.97599,842.64798
3893.18822,843.42889
3895.40046,844.20981
3897.61269,844.99072
3899.82493,845.77163
3902.03717,844.99072
3904.2494,844.20981
3906.46164,843.42889
3908.67387,844.20981
3910.88611,844.99072
3913.09834,844.20981
3915.31058,843.42889
3917.52281,842.64798
3919.73505,842.64798
3921.94729,842.64798
3924.15952,842.64798
3926.37176,842.64798
3928.58399,843.42889
3930.79623,842.64798
3933.00846,842.64798
3935.2207,842.64798
3937.43294,842.64798
3939.64517,842.64798
3941.85741,842.64798
3944.06964,843.42889
3946.28188,844.20981
3948.49411,843.42889
3950.70635,843.42889
3952.91858,842.64798
3955.13082,842.64798
3957.34306,843.42889
3959.55529,844.20981
3961.76753,844.99072
3963.97976,844.20981
3966.192,843.42889
3968.40423,843.42889
3970.61647,844.20981
3972.82871,844.99072
3975.04094,844.99072
3977.25318,844.99072
3979.46541,844.99072
3981.67765,844.20981
3983.88988,844.20981
3986.10212,844.20981
3988.31436,844.20981
3990.52659,843.42889
3992.73883,842.64798
3994.95106,842.64798
3997.1633,842.64798
3999.37553,842.64798
4001.58777,843.42889
4003.8,842.64798
