Wavenumber (cm⁻¹),Intensity
200.0,2540.3563298070935
201.00097751710655,2588.7880055601477
202.0019550342131,2646.941268087412
203.00293255131965,2733.9481316971633
204.0039100684262,2819.943551469692
205.00488758553274,2889.198905098113
206.0058651026393,2945.1494556835587
207.00684261974584,3019.0027912726237
208.0078201368524,3082.2851189920766
209.00879765395894,3074.522939047825
210.00977517106548,2953.1576526213244
211.01075268817203,2740.5696882211114
212.01173020527858,2530.0396824541467
213.01270772238513,2369.6508636691115
214.01368523949168,2254.737697715662
215.01466275659823,2147.4409536771254
216.01564027370478,2040.7824144475858
217.01661779081132,1996.7592537331077
218.01759530791787,1980.8686103502466
219.01857282502445,1934.6637712561305
220.019550342131,1888.6795205358678
221.02052785923755,1890.05615293611
222.0215053763441,1891.0571168766573
223.02248289345064,1865.67777764213
224.0234604105572,1858.5547803634026
225.02443792766374,1860.7778450537046
226.0254154447703,1858.626233740338
227.02639296187684,1852.6015220342817
228.02737047898339,1849.324747566193
229.02834799608993,1832.4663952828969
230.02932551319648,1839.643317806201
231.03030303030303,1856.5920134610308
232.03128054740958,1862.2393899198337
233.03225806451613,1849.3000720436798
234.03323558162268,1883.622121281046
235.03421309872923,1904.0050714877057
236.03519061583577,1904.8483803265403
237.03616813294232,1937.284476724876
238.03714565004887,1966.00890118399
239.03812316715542,2009.6211690167827
240.03910068426197,2057.0244522102403
241.04007820136852,2096.8646684572604
242.04105571847506,2144.1932533813147
243.0420332355816,2247.582172968225
244.0430107526882,2337.752654988369
245.04398826979474,2391.8638008273924
246.0449657869013,2436.612409889223
247.04594330400784,2485.9807435983384
248.04692082111438,2564.582205434923
249.04789833822093,2664.4066129895864
250.04887585532748,2750.284629136175
251.04985337243403,2767.8920733387226
252.05083088954058,2729.6127365431244
253.05180840664713,2621.8292288401813
254.05278592375367,2479.5119003844957
255.05376344086022,2366.1727055877395
256.05474095796677,2281.2233991891126
257.0557184750733,2243.379171373287
258.05669599217987,2231.7664107917803
259.0576735092864,2226.0724895314834
260.05865102639297,2240.4822591205025
261.0596285434995,2293.5853666850994
262.06060606060606,2357.4820798903797
263.0615835777126,2414.481802236185
264.06256109481916,2466.8020601587677
265.0635386119257,2522.8765613105593
266.06451612903226,2567.3583455513854
267.0654936461388,2606.964783457352
268.06647116324535,2648.662911789674
269.0674486803519,2681.9871064350073
270.06842619745845,2687.881425965546
271.069403714565,2665.2734975781063
272.07038123167155,2628.9995447665738
273.0713587487781,2607.8126761896538
274.07233626588464,2625.2477383301666
275.0733137829912,2674.3265317650466
276.07429130009774,2744.4413466078604
277.0752688172043,2847.7381237596255
278.07624633431084,3018.6416607936535
279.0772238514174,3219.8882416003867
280.07820136852393,3478.6565540141555
281.0791788856305,3794.583708126284
282.08015640273703,4135.394677777436
283.0811339198436,4414.783091502171
284.08211143695013,4729.557889288127
285.0830889540567,5039.327994139752
286.0840664711632,5344.9512159353635
287.0850439882698,5716.617229647784
288.0860215053764,6026.675214795044
289.0869990224829,6210.285007515184
290.0879765395895,6265.2712444109075
291.088954056696,6131.119475378869
292.0899315738026,5633.507632664024
293.0909090909091,5032.822708717535
294.09188660801567,4434.3238818422715
295.0928641251222,3891.9284104977633
296.09384164222877,3467.3252050353203
297.0948191593353,3150.613911330815
298.09579667644186,2950.241273176995
299.0967741935484,2799.7881048353597
300.09775171065496,2666.192244269984
301.0987292277615,2593.28929176361
302.09970674486806,2543.096623456031
303.1006842619746,2507.2211295639
304.10166177908116,2466.5630850802804
305.1026392961877,2423.95178716805
306.10361681329425,2443.892040608425
307.1045943304008,2431.718283491924
308.10557184750735,2410.3391134315225
309.1065493646139,2394.656254962658
310.10752688172045,2371.4698589749596
311.108504398827,2369.0860170163387
312.10948191593354,2345.192516128829
313.1104594330401,2324.51301554457
314.11143695014664,2324.2653208309666
315.1124144672532,2313.8208195009897
316.11339198435974,2278.1980903589965
317.1143695014663,2322.8211044698623
318.11534701857283,2382.3660738825315
319.1163245356794,2383.7836534100666
320.11730205278593,2449.6805263053852
321.1182795698925,2542.2119994089508
322.119257086999,2602.7752055951055
323.1202346041056,2654.992607435941
324.1212121212121,2765.75156387773
325.1221896383187,2831.890141718895
326.1231671554252,2920.7285226571666
327.12414467253177,3000.087026154715
328.1251221896383,3037.2010704781515
329.12609970674487,3035.6108364687484
330.1270772238514,2924.556263879335
331.12805474095796,2755.2114700936772
332.1290322580645,2587.304794976279
333.13000977517106,2458.352969018933
334.1309872922776,2361.835686234042
335.13196480938416,2295.3952303199403
336.1329423264907,2259.584089663522
337.13391984359725,2227.573720986372
338.1348973607038,2175.310070302762
339.13587487781035,2172.4828615269257
340.1368523949169,2173.3027802589386
341.13782991202345,2168.1341523314727
342.13880742913,2163.7015337930766
343.13978494623655,2165.439989505983
344.1407624633431,2159.2575349816693
345.14173998044964,2155.383785303098
346.1427174975562,2157.88226147346
347.14369501466274,2170.0132530479736
348.1446725317693,2193.3959786095907
349.14565004887584,2163.4004130349404
350.1466275659824,2173.925828250791
351.14760508308893,2177.1119828824017
352.1485826001955,2130.3078282118613
353.14956011730203,2147.0160208654584
354.1505376344086,2122.747438788188
355.1515151515151,2112.233708604401
356.1524926686217,2133.6983648699693
357.1534701857282,2150.1469943761845
358.1544477028348,2126.4600431427516
359.1554252199413,2113.281298192597
360.15640273704787,2108.7183198993166
361.1573802541544,2113.94549720023
362.15835777126097,2134.0235686132464
363.1593352883675,2116.459666482154
364.16031280547406,2127.7372217090697
365.1612903225806,2142.5239127205573
366.16226783968716,2129.206188625523
367.1632453567937,2093.4345772443266
368.16422287390026,2130.2839630970548
369.1652003910068,2146.3900807020364
370.16617790811335,2142.036709673365
371.1671554252199,2133.6946083240423
372.16813294232645,2107.130543450646
373.169110459433,2128.7530141421703
374.17008797653955,2132.0562482996866
375.1710654936461,2126.1788229209815
376.1720430107527,2134.8486988288246
377.17302052785925,2138.7873310887544
378.1739980449658,2144.0212290107047
379.17497556207235,2158.3817799183394
380.1759530791789,2160.2760053705656
381.17693059628544,2142.708458722358
382.177908113392,2156.522305265352
383.17888563049854,2171.010003239128
384.1798631476051,2167.7898137321995
385.18084066471164,2165.06941277946
386.1818181818182,2180.4398013803248
387.18279569892474,2186.4903378065583
388.1837732160313,2247.1177639376288
389.18475073313783,2291.615432891048
390.1857282502444,2303.7011801844596
391.18670576735093,2314.9552848786157
392.1876832844575,2330.8169237883385
393.188660801564,2358.7259728718223
394.1896383186706,2377.5728615380062
395.1906158357771,2404.5498602041057
396.1915933528837,2467.006468574174
397.1925708699902,2519.7241332342423
398.19354838709677,2579.8779818000557
399.1945259042033,2654.4456404492985
400.19550342130987,2719.939405568623
401.1964809384164,2738.066216017898
402.19745845552296,2736.824592600635
403.1984359726295,2779.058914880786
404.19941348973606,2852.42557093325
405.2003910068426,2948.2536178747514
406.20136852394916,3060.5771727192223
407.2023460410557,3111.457399940752
408.20332355816225,3137.3955830620876
409.20430107526886,3060.1977604209105
410.2052785923754,2872.71240577969
411.20625610948196,2689.837409220367
412.2072336265885,2664.8287390335504
413.20821114369505,2662.8501716610062
414.2091886608016,2649.6052196382816
415.21016617790815,2635.871903492236
416.2111436950147,2627.0617082862664
417.21212121212125,2603.895075851839
418.2130987292278,2535.9995104383042
419.21407624633434,2444.816408933058
420.2150537634409,2375.3651753566746
421.21603128054744,2354.501281402458
422.217008797654,2327.487964797218
423.21798631476054,2315.7414159807627
424.2189638318671,2324.426433214454
425.21994134897363,2328.194251181749
426.2209188660802,2286.0590046027037
427.22189638318673,2272.2934248132
428.2228739002933,2289.528291649255
429.2238514173998,2303.864999556356
430.2248289345064,2304.0225180824445
431.2258064516129,2305.060263618175
432.2267839687195,2279.314183996457
433.227761485826,2298.580107151976
434.22873900293257,2308.5950883658425
435.2297165200391,2300.5528836531653
436.23069403714567,2324.752581608282
437.2316715542522,2309.506745645425
438.23264907135876,2321.7225697566505
439.2336265884653,2339.7433021616694
440.23460410557186,2343.8965949472035
441.2355816226784,2344.7774472819
442.23655913978496,2349.0632853042134
443.2375366568915,2363.6369346639003
444.23851417399806,2388.8579827530384
445.2394916911046,2400.25912111297
446.24046920821115,2382.8859687784566
447.2414467253177,2406.8127127421726
448.24242424242425,2455.6758808369955
449.2434017595308,2490.9493971517572
450.24437927663735,2508.775080280697
451.2453567937439,2527.1156833574523
452.24633431085044,2552.673631984579
453.247311827957,2552.5788596485354
454.24828934506354,2590.8875640231145
455.2492668621701,2630.2568451646957
456.25024437927664,2625.1478043621464
457.2512218963832,2681.959226794714
458.25219941348973,2679.273424044975
459.2531769305963,2671.8762611436646
460.25415444770283,2694.8335852653026
461.2551319648094,2740.1075112369867
462.2561094819159,2804.557874596173
463.2570869990225,2903.015471455222
464.258064516129,3021.7424008710086
465.2590420332356,3161.9106646692553
466.2600195503421,3326.9812280640062
467.26099706744867,3511.794205422759
468.2619745845552,3695.864843938716
469.26295210166177,3929.4508315091825
470.2639296187683,4187.269785250979
471.26490713587486,4460.492205244117
472.2658846529814,4783.043068319547
473.26686217008796,5070.125353150705
474.2678396871945,5351.828863155502
475.26881720430106,5668.747571821742
476.2697947214076,5993.920926147277
477.27077223851416,6250.954894592181
478.2717497556207,6407.252188892758
479.27272727272725,6368.347546698851
480.2737047898338,6047.965629618355
481.27468230694035,5498.8776190181525
482.2756598240469,4879.551667373164
483.27663734115345,4392.671969883317
484.27761485826,4005.719114005957
485.27859237536654,3708.7007980273747
486.2795698924731,3522.1971983994767
487.28054740957964,3434.5412954435474
488.2815249266862,3360.0238022346266
489.2825024437928,3353.5629312035594
490.28347996089934,3374.5595052921985
491.2844574780059,3444.979457162979
492.28543499511244,3598.940383339183
493.286412512219,3818.5967728668847
494.28739002932554,4018.7100879874915
495.2883675464321,4272.924006281781
496.28934506353863,4536.376908364411
497.2903225806452,4829.595263838991
498.29130009775173,5242.865444070961
499.2922776148583,5672.283549143402
500.2932551319648,6126.517356206758
501.2942326490714,6612.1175956145025
502.2952101661779,7129.943176905663
503.2961876832845,7679.621984592716
504.297165200391,8268.55708587411
505.29814271749757,8710.711781713058
506.2991202346041,9076.103928586515
507.30009775171067,9134.861854657125
508.3010752688172,8647.99198980032
509.30205278592376,7757.115611527296
510.3030303030303,6743.224782265684
511.30400782013686,5812.994004256303
512.3049853372434,5077.384442034234
513.3059628543499,4526.711943257398
514.3069403714564,4088.7225502464644
515.307917888563,3780.957853563449
516.3088954056695,3575.991687597222
517.3098729227761,3442.001586537028
518.3108504398826,3326.1292123584517
519.3118279569892,3186.7556214389165
520.3128054740957,3096.0843243777313
521.3137829912023,3034.595313759272
522.3147605083088,2960.6175229909204
523.3157380254154,2909.3130878806332
524.3167155425219,2893.8881829459488
525.3176930596285,2831.5725794255504
526.318670576735,2798.7462484627085
527.3196480938416,2776.92613361631
528.3206256109481,2746.777770236645
529.3216031280547,2723.3474760151453
530.3225806451612,2725.922674649216
531.3235581622678,2704.6093647055122
532.3245356793743,2689.2482469182673
533.3255131964809,2661.895814566163
534.3264907135874,2640.700783983314
535.327468230694,2652.359700177396
536.3284457478005,2656.0470615343074
537.3294232649071,2621.819174366061
538.3304007820136,2586.1101685877397
539.3313782991202,2593.9022170580647
540.3323558162267,2621.7009702713954
541.3333333333333,2610.58629205559
542.3343108504398,2661.5247331432984
543.3352883675464,2624.386621964682
544.3362658846529,2591.9824045491355
545.3372434017595,2596.2975087085406
546.338220918866,2590.9332431335038
547.3391984359725,2601.825310150648
548.3401759530791,2620.4175794444022
549.3411534701856,2605.788952777472
550.3421309872922,2595.307688834531
551.3431085043987,2609.411874370499
552.3440860215054,2598.386343254087
553.345063538612,2565.6336765553597
554.3460410557185,2591.9391974821824
555.347018572825,2587.9803817239763
556.3479960899316,2566.4120493786013
557.3489736070381,2598.100029564569
558.3499511241447,2606.4178349003814
559.3509286412512,2600.2794580686527
560.3519061583578,2572.8490439669804
561.3528836754643,2590.429078625951
562.3538611925709,2634.7843250561696
563.3548387096774,2580.0439309874137
564.355816226784,2607.3234049431017
565.3567937438905,2604.4144949618626
566.3577712609971,2611.3470293985083
567.3587487781036,2644.5895256069543
568.3597262952102,2662.3214465941305
569.3607038123167,2639.710027397851
570.3616813294233,2676.3416208089307
571.3626588465298,2686.0071645408048
572.3636363636364,2691.896353114217
573.3646138807429,2713.3592034119442
574.3655913978495,2717.6921154670536
575.366568914956,2733.5040302488937
576.3675464320626,2749.736326750196
577.3685239491691,2769.9354594648735
578.3695014662757,2774.5872215441855
579.3704789833822,2753.035083518518
580.3714565004888,2736.2751146631012
581.3724340175953,2724.732478732768
582.3734115347019,2713.2968829148576
583.3743890518084,2684.3978095123093
584.375366568915,2653.6423779031256
585.3763440860215,2649.9542302850655
586.377321603128,2639.467190700185
587.3782991202346,2644.228833405415
588.3792766373411,2645.6743780925053
589.3802541544477,2637.746722197789
590.3812316715542,2636.8211006453316
591.3822091886608,2655.1999997112666
592.3831867057673,2624.773978768961
593.3841642228739,2643.5844871283443
594.3851417399804,2654.0056794664433
595.386119257087,2645.1934653979015
596.3870967741935,2643.5405014151797
597.3880742913001,2623.5737327807656
598.3890518084066,2610.4071872213917
599.3900293255132,2634.417666686533
600.3910068426197,2663.4522392755466
601.3919843597263,2667.783005657677
602.3929618768328,2652.1600726733895
603.3939393939394,2660.243512033842
604.3949169110459,2678.9250330589753
605.3958944281525,2685.9106162846
606.396871945259,2695.7590778183503
607.3978494623656,2701.2640316246357
608.3988269794721,2681.9549909049556
609.3998044965787,2712.243204235582
610.4007820136852,2745.43926158082
611.4017595307918,2717.232329061335
612.4027370478983,2691.1155797375964
613.4037145650049,2717.870701269677
614.4046920821114,2729.975320261247
615.405669599218,2736.340770429063
616.4066471163245,2739.7717642312277
617.4076246334312,2759.6131528156716
618.4086021505377,2776.350741444697
619.4095796676443,2774.1971435457817
620.4105571847508,2791.2175790557085
621.4115347018574,2817.839114457501
622.4125122189639,2813.317487277982
623.4134897360705,2807.3799054235474
624.414467253177,2813.024318224187
625.4154447702836,2816.873581589628
626.4164222873901,2818.5570473472317
627.4173998044967,2851.5008206750776
628.4183773216032,2894.370860109621
629.4193548387098,2909.24892610956
630.4203323558163,2910.29382581586
631.4213098729228,2930.5688238437538
632.4222873900294,2918.458501913973
633.423264907136,2904.9537258023965
634.4242424242425,2869.7324856027594
635.425219941349,2811.56417911738
636.4261974584556,2769.553103084563
637.4271749755621,2790.6363880783465
638.4281524926687,2777.596636084432
639.4291300097752,2738.061164775805
640.4301075268818,2727.5282608056605
641.4310850439883,2728.983615026755
642.4320625610949,2715.262490569828
643.4330400782014,2705.4871147121694
644.434017595308,2707.124221923148
645.4349951124145,2714.234120937582
646.4359726295211,2720.166070713357
647.4369501466276,2696.4730914127485
648.4379276637342,2649.6418851714407
649.4389051808407,2632.6666866280066
650.4398826979473,2627.1703693111117
651.4408602150538,2625.336758685678
652.4418377321604,2572.950081890621
653.4428152492669,2518.231252161706
654.4437927663735,2499.5088878440533
655.44477028348,2470.5904749216475
656.4457478005866,2490.827647151193
657.4467253176931,2484.0336798474327
658.4477028347997,2473.067804628374
659.4486803519062,2471.6654213362267
660.4496578690128,2460.781545564441
661.4506353861193,2430.4176517056458
662.4516129032259,2456.5740848931673
663.4525904203324,2463.1296916104857
664.453567937439,2440.1337796454195
665.4545454545455,2440.174480662258
666.455522971652,2467.260474373174
667.4565004887586,2450.394985397464
668.4574780058651,2470.9706044066743
669.4584555229717,2449.683029460958
670.4594330400782,2441.919655248311
671.4604105571848,2438.9162080779283
672.4613880742913,2425.39047768104
673.4623655913979,2436.153981913805
674.4633431085044,2437.1876353131247
675.464320625611,2432.7073925445916
676.4652981427175,2408.99841963297
677.4662756598241,2399.9118403502284
678.4672531769306,2413.429546749588
679.4682306940372,2411.1808284824406
680.4692082111437,2413.9341384266413
681.4701857282503,2397.9287312434208
682.4711632453568,2416.115135022238
683.4721407624634,2433.249946268798
684.4731182795699,2423.077569557915
685.4740957966765,2421.437753162943
686.475073313783,2435.8830197796665
687.4760508308896,2470.2773316108683
688.4770283479961,2445.880907303963
689.4780058651027,2427.5712693421565
690.4789833822092,2442.4184262813847
691.4799608993158,2437.5978925586833
692.4809384164223,2417.7172544786645
693.4819159335289,2425.692092401923
694.4828934506354,2442.6875076515403
695.483870967742,2452.5502591685567
696.4848484848485,2437.7370225607374
697.485826001955,2415.3822182734266
698.4868035190616,2457.155980712438
699.4877810361681,2435.5833727279614
700.4887585532747,2435.5760698912563
701.4897360703812,2437.448183350139
702.4907135874878,2433.10927103806
703.4916911045943,2432.7607603091965
704.4926686217009,2413.5578597320737
705.4936461388074,2426.4091401833743
706.494623655914,2428.5163376290557
707.4956011730205,2420.9437773225764
708.4965786901271,2428.807855338621
709.4975562072336,2442.281002267288
710.4985337243402,2425.4821230673965
711.4995112414467,2436.1934647302046
712.5004887585533,2469.5209279289456
713.5014662756598,2475.2558923441616
714.5024437927664,2464.1279868926335
715.5034213098729,2453.746390740064
716.5043988269795,2446.3572363803028
717.505376344086,2475.0385141283764
718.5063538611926,2470.1916486752434
719.5073313782991,2481.5904067298434
720.5083088954057,2503.8709416375045
721.5092864125122,2509.5299287024727
722.5102639296188,2494.741155014626
723.5112414467253,2477.8481462112945
724.5122189638319,2455.268826799863
725.5131964809384,2480.7290009817766
726.514173998045,2488.554455551155
727.5151515151515,2478.7663422570795
728.516129032258,2476.804302018723
729.5171065493646,2469.771631457192
730.5180840664711,2497.9926029694943
731.5190615835777,2492.3225700262965
732.5200391006842,2495.75069610674
733.5210166177908,2489.0926484172483
734.5219941348973,2468.160108849906
735.5229716520039,2478.394505717592
736.5239491691104,2514.557158620754
737.524926686217,2485.3674615523123
738.5259042033235,2466.9100554577226
739.5268817204301,2463.461897246143
740.5278592375366,2490.3072414747076
741.5288367546432,2539.052513915124
742.5298142717497,2526.1523313150387
743.5307917888563,2511.173210010457
