Raman shift,Intensity
752.29475,532.23575
753.91051,532.23575
755.52627,532.23575
757.14202,532.23575
758.75778,532.23575
760.37353,531.57793
761.98929,532.23575
763.60504,531.57793
765.2208,531.57793
766.83656,531.57793
768.45231,531.57793
770.06807,531.57793
771.68382,532.23575
773.29958,532.89358
774.91533,532.89358
776.53109,532.89358
778.14685,532.89358
779.7626,532.89358
781.37836,532.23575
782.99411,531.57793
784.60987,530.9201
786.22563,530.9201
787.84138,530.9201
789.45714,530.9201
791.07289,530.9201
792.68865,530.9201
794.3044,530.9201
795.92016,530.9201
797.53592,530.9201
799.15167,530.9201
800.76743,530.9201
802.38318,530.9201
803.99894,530.9201
805.61469,530.9201
807.23045,530.9201
808.84621,530.9201
810.46196,530.9201
812.07772,530.9201
813.69347,530.9201
815.30923,530.9201
816.92498,530.9201
818.54074,530.9201
820.1565,530.9201
821.77225,530.9201
823.38801,530.9201
825.00376,530.9201
826.61952,530.9201
828.23528,530.9201
829.85103,530.9201
831.46679,530.9201
833.08254,530.9201
834.6983,530.9201
836.31405,530.9201
837.92981,530.9201
839.54557,530.9201
841.16132,530.9201
842.77708,530.9201
844.39283,530.9201
846.00859,530.9201
847.62434,530.9201
849.2401,530.9201
850.85586,530.9201
852.47161,530.9201
854.08737,530.9201
855.70312,530.9201
857.31888,530.9201
858.93464,530.9201
860.55039,530.9201
862.16615,530.9201
863.7819,530.9201
865.39766,530.9201
867.01341,530.9201
868.62917,530.9201
870.24493,530.9201
871.86068,530.9201
873.47644,530.9201
875.09219,530.9201
876.70795,530.9201
878.3237,530.9201
879.93946,530.9201
881.55522,530.9201
883.17097,530.9201
884.78673,530.9201
886.40248,530.9201
888.01824,530.9201
889.63399,530.9201
891.24975,530.9201
892.86551,530.9201
894.48126,530.9201
896.09702,530.9201
897.71277,530.9201
899.32853,530.9201
900.94429,530.9201
902.56004,530.9201
904.1758,530.9201
905.79155,530.9201
907.40731,530.9201
909.02306,530.9201
910.63882,530.9201
912.25458,530.9201
913.87033,530.9201
915.48609,530.9201
917.10184,530.9201
918.7176,530.9201
920.33335,530.9201
921.94911,530.9201
923.56487,530.9201
925.18062,530.9201
926.79638,530.9201
928.41213,530.9201
930.02789,530.9201
931.64365,530.9201
933.2594,530.9201
934.87516,530.9201
936.49091,530.9201
938.10667,530.9201
939.72242,530.9201
941.33818,530.9201
942.95394,530.9201
944.56969,530.9201
946.18545,530.9201
947.8012,530.9201
949.41696,530.9201
951.03271,531.57793
952.64847,532.23575
954.26423,532.89358
955.87998,532.89358
957.49574,532.89358
959.11149,532.89358
960.72725,532.89358
962.343,532.89358
963.95876,532.89358
965.57452,532.89358
967.19027,532.89358
968.80603,532.89358
970.42178,533.5514
972.03754,533.5514
973.6533,533.5514
975.26905,533.5514
976.88481,533.5514
978.50056,533.5514
980.11632,533.5514
981.73207,533.5514
983.34783,533.5514
984.96359,533.5514
986.57934,533.5514
988.1951,533.5514
989.81085,533.5514
991.42661,533.5514
993.04236,533.5514
994.65812,533.5514
996.27388,533.5514
997.88963,533.5514
999.50539,533.5514
1001.12114,533.5514
1002.7369,533.5514
1004.35266,533.5514
1005.96841,533.5514
1007.58417,533.5514
1009.19992,533.5514
1010.81568,533.5514
1012.43143,533.5514
1014.04719,533.5514
1015.66295,533.5514
1017.2787,533.5514
1018.89446,533.5514
1020.51021,533.5514
1022.12597,533.5514
1023.74172,533.5514
1025.35748,533.5514
1026.97324,533.5514
1028.58899,533.5514
1030.20475,533.5514
1031.8205,533.5514
1033.43626,533.5514
1035.05201,533.5514
1036.66777,533.5514
1038.28353,533.5514
1039.89928,533.5514
1041.51504,533.5514
1043.13079,533.5514
1044.74655,533.5514
1046.36231,533.5514
1047.97806,533.5514
1049.59382,533.5514
1051.20957,533.5514
1052.82533,533.5514
1054.44108,533.5514
1056.05684,533.5514
1057.6726,533.5514
1059.28835,533.5514
1060.90411,533.5514
1062.51986,533.5514
1064.13562,533.5514
1065.75137,533.5514
1067.36713,533.5514
1068.98289,533.5514
1070.59864,533.5514
1072.2144,533.5514
1073.83015,533.5514
1075.44591,533.5514
1077.06167,533.5514
1078.67742,533.5514
1080.29318,533.5514
1081.90893,533.5514
1083.52469,533.5514
1085.14044,533.5514
1086.7562,533.5514
1088.37196,533.5514
1089.98771,533.5514
1091.60347,533.5514
1093.21922,533.5514
1094.83498,533.5514
1096.45073,533.5514
1098.06649,533.5514
1099.68225,533.5514
1101.298,533.5514
1102.91376,533.5514
1104.52951,533.5514
1106.14527,533.5514
1107.76102,533.5514
1109.37678,533.5514
1110.99254,533.5514
1112.60829,533.5514
1114.22405,533.5514
1115.8398,533.5514
1117.45556,533.5514
1119.07132,533.5514
1120.68707,533.5514
1122.30283,533.5514
1123.91858,533.5514
1125.53434,533.5514
1127.15009,533.5514
1128.76585,533.5514
1130.38161,533.5514
1131.99736,533.5514
1133.61312,533.5514
1135.22887,533.5514
1136.84463,533.5514
1138.46038,533.5514
1140.07614,533.5514
1141.6919,533.5514
1143.30765,533.5514
1144.92341,533.5514
1146.53916,533.5514
1148.15492,533.5514
1149.77068,533.5514
1151.38643,533.5514
1153.00219,533.5514
1154.61794,533.5514
1156.2337,533.5514
1157.84945,533.5514
1159.46521,533.5514
1161.08097,533.5514
1162.69672,533.5514
1164.31248,533.5514
1165.92823,533.5514
1167.54399,533.5514
1169.15974,533.5514
1170.7755,533.5514
1172.39126,533.5514
1174.00701,533.5514
1175.62277,533.5514
1177.23852,533.5514
1178.85428,533.5514
1180.47003,533.5514
1182.08579,533.5514
1183.70155,533.5514
1185.3173,533.5514
1186.93306,533.5514
1188.54881,533.5514
1190.16457,533.5514
1191.78033,533.5514
1193.39608,533.5514
1195.01184,533.5514
1196.62759,533.5514
1198.24335,533.5514
1199.8591,533.5514
1201.47486,533.5514
1203.09062,533.5514
1204.70637,533.5514
1206.32213,533.5514
1207.93788,533.5514
1209.55364,533.5514
1211.16939,533.5514
1212.78515,533.5514
1214.40091,533.5514
1216.01666,533.5514
1217.63242,533.5514
1219.24817,533.5514
1220.86393,532.89358
1222.47969,532.23575
1224.09544,531.57793
1225.7112,530.9201
1227.32695,530.26228
1228.94271,530.26228
1230.55846,530.26228
1232.17422,530.26228
1233.78998,530.26228
1235.40573,530.26228
1237.02149,530.26228
1238.63724,530.26228
1240.253,530.26228
1241.86875,530.26228
1243.48451,530.26228
1245.10027,530.26228
1246.71602,530.26228
1248.33178,530.26228
1249.94753,530.26228
1251.56329,530.26228
1253.17904,530.26228
1254.7948,530.26228
1256.41056,530.26228
1258.02631,530.26228
1259.64207,530.26228
1261.25782,530.26228
1262.87358,530.26228
1264.48934,530.26228
1266.10509,530.26228
1267.72085,530.26228
1269.3366,530.26228
1270.95236,530.26228
1272.56811,530.26228
1274.18387,530.26228
1275.79963,530.26228
1277.41538,530.26228
1279.03114,530.26228
1280.64689,530.26228
1282.26265,530.26228
1283.8784,530.26228
1285.49416,530.26228
1287.10992,530.26228
1288.72567,530.26228
1290.34143,530.26228
1291.95718,530.9201
1293.57294,530.9201
1295.1887,530.9201
1296.80445,530.9201
1298.42021,530.9201
1300.03596,530.9201
1301.65172,530.9201
1303.26747,530.9201
1304.88323,530.9201
1306.49899,530.9201
1308.11474,530.9201
1309.7305,530.9201
1311.34625,530.9201
1312.96201,530.9201
1314.57776,530.9201
1316.19352,530.9201
1317.80928,530.9201
1319.42503,530.9201
1321.04079,530.9201
1322.65654,530.9201
1324.2723,530.9201
1325.88805,530.9201
1327.50381,530.9201
1329.11957,530.9201
1330.73532,530.9201
1332.35108,530.9201
1333.96683,530.9201
1335.58259,530.9201
1337.19835,530.9201
1338.8141,530.9201
1340.42986,530.9201
1342.04561,530.9201
1343.66137,530.9201
1345.27712,530.9201
1346.89288,530.9201
1348.50864,530.9201
1350.12439,530.9201
1351.74015,530.9201
1353.3559,530.9201
1354.97166,530.9201
1356.58741,530.9201
1358.20317,530.9201
1359.81893,530.9201
1361.43468,530.9201
1363.05044,530.9201
1364.66619,530.9201
1366.28195,530.9201
1367.89771,530.9201
1369.51346,530.9201
1371.12922,530.9201
1372.74497,530.9201
1374.36073,530.9201
1375.97648,530.9201
1377.59224,530.9201
1379.208,530.9201
1380.82375,530.9201
1382.43951,531.57793
1384.05526,531.57793
1385.67102,531.57793
1387.28677,531.57793
1388.90253,531.57793
1390.51829,531.57793
1392.13404,531.57793
1393.7498,531.57793
1395.36555,531.57793
1396.98131,531.57793
1398.59706,531.57793
1400.21282,531.57793
1401.82858,531.57793
1403.44433,532.23575
1405.06009,532.23575
1406.67584,532.23575
1408.2916,532.23575
1409.90736,532.23575
1411.52311,532.89358
1413.13887,533.5514
1414.75462,534.20923
1416.37038,534.86705
1417.98613,534.86705
1419.60189,534.86705
1421.21765,534.20923
1422.8334,534.20923
1424.44916,534.20923
1426.06491,534.20923
1427.68067,533.5514
1429.29642,533.5514
1430.91218,534.20923
1432.52794,534.20923
1434.14369,534.20923
1435.75945,534.20923
1437.3752,534.20923
1438.99096,534.20923
1440.60672,534.20923
1442.22247,534.20923
1443.83823,534.20923
1445.45398,534.20923
1447.06974,534.20923
1448.68549,534.20923
1450.30125,534.20923
1451.91701,534.20923
1453.53276,534.20923
1455.14852,533.5514
1456.76427,533.5514
1458.38003,533.5514
1459.99578,533.5514
1461.61154,533.5514
1463.2273,533.5514
1464.84305,533.5514
1466.45881,533.5514
1468.07456,533.5514
1469.69032,533.5514
1471.30607,533.5514
1472.92183,532.89358
1474.53759,532.23575
1476.15334,531.57793
1477.7691,531.57793
1479.38485,531.57793
1481.00061,531.57793
1482.61637,531.57793
1484.23212,532.23575
1485.84788,532.89358
1487.46363,532.89358
1489.07939,532.89358
1490.69514,532.89358
1492.3109,532.89358
1493.92666,532.89358
1495.54241,532.89358
1497.15817,532.23575
1498.77392,531.57793
1500.38968,530.9201
1502.00543,530.9201
1503.62119,530.9201
1505.23695,530.9201
1506.8527,530.9201
1508.46846,530.9201
1510.08421,530.9201
1511.69997,530.9201
1513.31573,530.9201
1514.93148,530.9201
1516.54724,530.9201
1518.16299,530.9201
1519.77875,530.9201
1521.3945,531.57793
1523.01026,532.23575
1524.62602,532.23575
1526.24177,532.23575
1527.85753,532.23575
1529.47328,532.23575
1531.08904,532.23575
1532.70479,532.23575
1534.32055,532.23575
1535.93631,532.23575
1537.55206,532.23575
1539.16782,532.23575
1539.16782,535.52487
1539.16782,533.5514
1539.16782,532.89358
1539.16782,536.84052
1539.16782,536.1827
1540.78357,534.86705
1540.78357,534.20923
1540.78357,532.23575
1540.78357,532.89358
1542.39933,532.89358
1542.39933,532.23575
1544.01508,532.89358
1544.01508,532.23575
1545.63084,532.89358
1545.63084,532.23575
1547.2466,532.23575
1547.2466,532.89358
1548.86235,532.89358
1548.86235,532.23575
1550.47811,532.89358
1550.47811,531.57793
1552.09386,530.9201
1552.09386,532.89358
1553.70962,532.89358
1553.70962,530.9201
1555.32538,532.89358
1555.32538,530.9201
1556.94113,533.5514
1556.94113,530.9201
1558.55689,530.9201
1558.55689,533.5514
1560.17264,533.5514
1560.17264,530.9201
1561.7884,530.9201
1561.7884,533.5514
1563.40415,533.5514
1563.40415,530.9201
1565.01991,530.9201
1565.01991,533.5514
1566.63567,533.5514
1566.63567,530.9201
1568.25142,530.9201
1568.25142,533.5514
1569.86718,533.5514
1569.86718,530.9201
1571.48293,530.9201
1571.48293,533.5514
1573.09869,530.9201
1573.09869,533.5514
1574.71444,532.89358
1574.71444,530.9201
1576.3302,532.23575
1576.3302,530.9201
1577.94596,530.9201
1577.94596,531.57793
1579.56171,531.57793
1579.56171,530.9201
1581.17747,531.57793
1581.17747,530.9201
1582.79322,530.9201
1582.79322,531.57793
1584.40898,530.9201
1584.40898,531.57793
1586.02474,530.9201
1586.02474,531.57793
1587.64049,530.9201
1587.64049,531.57793
1589.25625,530.9201
1589.25625,531.57793
1590.872,532.23575
1590.872,530.9201
1592.48776,530.9201
1592.48776,532.89358
1594.10351,532.23575
1594.10351,531.57793
1595.71927,530.9201
1595.71927,532.23575
1597.33503,530.9201
1597.33503,532.23575
1598.95078,532.23575
1598.95078,530.9201
1600.56654,532.23575
1600.56654,530.9201
1602.18229,530.9201
1602.18229,532.23575
1603.79805,530.9201
1603.79805,532.23575
1605.4138,532.89358
1605.4138,530.9201
1607.02956,530.9201
1607.02956,533.5514
1608.64532,531.57793
1608.64532,534.20923
1610.26107,534.20923
1610.26107,531.57793
1611.87683,531.57793
1611.87683,534.20923
1613.49258,531.57793
1613.49258,534.20923
1615.10834,534.20923
1615.10834,531.57793
1616.72409,534.20923
1616.72409,531.57793
1618.33985,531.57793
1618.33985,534.20923
1619.95561,531.57793
1619.95561,534.20923
1621.57136,534.20923
1621.57136,531.57793
1623.18712,531.57793
1623.18712,534.20923
1624.80287,531.57793
1624.80287,534.20923
1626.41863,534.20923
1626.41863,531.57793
1628.03439,531.57793
1628.03439,534.20923
1629.65014,534.20923
1629.65014,531.57793
1631.2659,534.20923
1631.2659,531.57793
1632.88165,531.57793
1632.88165,534.20923
1634.49741,534.20923
1634.49741,531.57793
1636.11316,534.20923
1636.11316,531.57793
1637.72892,534.20923
1637.72892,531.57793
1639.34468,534.20923
1639.34468,531.57793
1640.96043,531.57793
1640.96043,534.20923
1642.57619,534.20923
1642.57619,531.57793
1644.19194,534.20923
1644.19194,531.57793
1645.8077,531.57793
1645.8077,534.20923
1647.42345,531.57793
1647.42345,534.20923
1649.03921,531.57793
1649.03921,534.20923
1650.65497,534.20923
1650.65497,531.57793
1652.27072,534.20923
1652.27072,531.57793
1653.88648,531.57793
1653.88648,534.20923
1655.50223,534.20923
1655.50223,531.57793
1657.11799,534.20923
1657.11799,531.57793
1658.73375,531.57793
1658.73375,534.20923
1660.3495,534.20923
1660.3495,531.57793
1661.96526,531.57793
1661.96526,534.20923
1663.58101,534.20923
1663.58101,532.23575
1665.19677,533.5514
1665.19677,532.23575
1666.81252,532.89358
1666.81252,532.23575
1668.42828,532.89358
1668.42828,532.23575
1670.04404,533.5514
1670.04404,532.89358
1671.65979,533.5514
1671.65979,532.89358
1673.27555,532.89358
1673.27555,533.5514
1674.8913,533.5514
1674.8913,534.20923
1676.50706,534.20923
1678.12281,534.20923
1678.12281,534.86705
1679.73857,534.86705
1679.73857,535.52487
1679.73857,536.1827
1679.73857,536.84052
1679.73857,537.49835
1679.73857,538.15617
1679.73857,538.814
1681.35433,538.814
1681.35433,539.47182
1682.97008,539.47182
1682.97008,540.12965
1684.58584,540.12965
1684.58584,540.78747
1684.58584,541.44529
1686.20159,541.44529
1686.20159,542.10312
1687.81735,542.10312
1687.81735,542.76094
1687.81735,543.41877
1689.4331,543.41877
1691.04886,544.07659
1691.04886,544.73442
1691.04886,545.39224
1692.66462,545.39224
1694.28037,545.39224
1695.89613,545.39224
1697.51188,545.39224
1699.12764,545.39224
1700.7434,545.39224
1702.35915,545.39224
1702.35915,546.05006
1703.97491,546.05006
1703.97491,546.70789
1703.97491,547.36571
1703.97491,548.02354
1703.97491,548.68136
1703.97491,549.33919
1705.59066,549.99701
1707.20642,549.99701
1708.82217,549.33919
1710.43793,548.68136
1712.05369,549.33919
1713.66944,549.99701
1715.2852,549.99701
1716.90095,549.33919
1718.51671,549.33919
1720.13246,548.68136
1720.13246,548.02354
1721.74822,548.02354
1723.36398,548.02354
1723.36398,547.36571
1723.36398,546.70789
1723.36398,546.05006
1724.97973,546.05006
1726.59549,546.05006
1726.59549,545.39224
1726.59549,544.73442
1726.59549,544.07659
1728.21124,544.07659
1729.827,544.07659
1731.44276,544.07659
1733.05851,544.07659
1733.05851,543.41877
1734.67427,543.41877
1734.67427,542.76094
1736.29002,542.76094
1736.29002,542.10312
1737.90578,542.10312
1737.90578,541.44529
1739.52153,541.44529
1741.13729,541.44529
1741.13729,540.78747
1742.75305,540.78747
1742.75305,540.12965
1744.3688,540.12965
1744.3688,539.47182
1744.3688,538.814
1744.3688,538.15617
1744.3688,537.49835
1745.98456,536.84052
1747.60031,536.84052
1749.21607,536.1827
1750.83182,536.1827
1752.44758,536.1827
1754.06334,536.1827
1755.67909,536.1827
1757.29485,535.52487
1758.9106,535.52487
1760.52636,535.52487
1762.14211,535.52487
1763.75787,535.52487
1765.37363,535.52487
1766.98938,535.52487
1768.60514,535.52487
1770.22089,535.52487
1771.83665,535.52487
1773.45241,536.1827
1775.06816,535.52487
1776.68392,534.86705
1778.29967,534.86705
1779.91543,534.20923
1781.53118,534.20923
1783.14694,534.20923
1784.7627,534.20923
1786.37845,534.20923
1787.99421,534.20923
1789.60996,534.20923
1791.22572,534.20923
1792.84147,533.5514
1794.45723,533.5514
1796.07299,533.5514
1797.68874,534.20923
1799.3045,533.5514
1800.92025,533.5514
1802.53601,533.5514
1804.15177,532.89358
1805.76752,532.89358
1807.38328,532.89358
1808.99903,533.5514
1810.61479,532.89358
1812.23054,532.89358
1813.8463,532.89358
1815.46206,532.89358
1817.07781,533.5514
1818.69357,532.89358
1820.30932,532.23575
1821.92508,532.23575
1823.54083,531.57793
1825.15659,531.57793
1826.77235,531.57793
1828.3881,531.57793
1830.00386,531.57793
1831.61961,531.57793
1833.23537,531.57793
1834.85112,531.57793
1836.46688,531.57793
1838.08264,532.23575
1839.69839,532.89358
1841.31415,533.5514
1842.9299,533.5514
1844.54566,533.5514
1846.16142,533.5514
1847.77717,533.5514
1849.39293,532.89358
1851.00868,532.89358
1852.62444,532.89358
1854.24019,532.23575
1855.85595,531.57793
1857.47171,530.9201
1859.08746,530.9201
1860.70322,530.9201
1862.31897,530.9201
1863.93473,530.9201
1865.55048,530.9201
1867.16624,531.57793
1868.782,532.23575
1870.39775,532.89358
1872.01351,533.5514
1873.62926,533.5514
1875.24502,533.5514
1876.86078,533.5514
1878.47653,533.5514
1880.09229,533.5514
1881.70804,533.5514
1883.3238,533.5514
1884.93955,533.5514
1886.55531,533.5514
1888.17107,532.89358
1889.78682,532.23575
1891.40258,531.57793
1893.01833,531.57793
1894.63409,531.57793
1896.24984,531.57793
1897.8656,531.57793
1899.48136,531.57793
1901.09711,531.57793
1902.71287,531.57793
1904.32862,532.23575
1905.94438,532.23575
1907.56013,532.23575
1909.17589,532.23575
1910.79165,532.23575
1912.4074,532.23575
1914.02316,532.89358
1915.63891,533.5514
1917.25467,534.20923
1918.87043,534.20923
1920.48618,534.20923
1922.10194,534.20923
1923.71769,534.20923
1925.33345,534.20923
1926.9492,534.20923
1928.56496,534.20923
1930.18072,534.20923
1931.79647,534.20923
1933.41223,534.20923
1935.02798,534.20923
1936.64374,534.20923
1938.25949,534.20923
1939.87525,534.20923
1941.49101,534.20923
1943.10676,534.86705
1944.72252,534.86705
1946.33827,534.86705
1947.95403,534.86705
1949.56979,534.86705
1951.18554,534.86705
1952.8013,534.86705
1954.41705,534.86705
1956.03281,535.52487
1957.64856,535.52487
1959.26432,535.52487
1960.88008,535.52487
1962.49583,535.52487
1964.11159,535.52487
1965.72734,535.52487
1967.3431,535.52487
1968.95885,535.52487
1970.57461,535.52487
1972.19037,536.1827
1973.80612,536.1827
1975.42188,536.1827
1977.03763,536.1827
1978.65339,536.1827
1980.26914,536.1827
1981.8849,536.1827
1983.50066,536.1827
1985.11641,536.1827
1986.73217,536.1827
1988.34792,536.1827
1989.96368,536.84052
1991.57944,536.84052
1993.19519,536.84052
1994.81095,536.84052
1996.4267,536.84052
1998.04246,536.84052
1999.65821,536.84052
2001.27397,536.84052
2002.88973,536.84052
2004.50548,536.1827
2006.12124,535.52487
2007.73699,534.86705
2009.35275,534.20923
2010.9685,534.20923
2012.58426,534.20923
2014.20002,534.20923
2015.81577,534.20923
2017.43153,534.20923
2019.04728,534.20923
2020.66304,533.5514
2022.2788,533.5514
2023.89455,533.5514
2025.51031,533.5514
2027.12606,533.5514
2028.74182,533.5514
2030.35757,533.5514
2031.97333,533.5514
2033.58909,533.5514
2035.20484,533.5514
2036.8206,533.5514
2038.43635,533.5514
2040.05211,533.5514
2041.66786,533.5514
2043.28362,532.89358
2044.89938,532.89358
2046.51513,532.89358
2048.13089,532.89358
2049.74664,532.89358
2051.3624,532.89358
2052.97815,532.89358
2054.59391,532.89358
2056.20967,532.89358
2057.82542,532.89358
2059.44118,532.89358
2061.05693,532.23575
2062.67269,532.23575
2064.28845,532.23575
2065.9042,532.23575
2067.51996,532.23575
2069.13571,532.23575
2070.75147,532.23575
2072.36722,532.23575
2073.98298,532.23575
2075.59874,531.57793
2077.21449,531.57793
2078.83025,531.57793
2080.446,531.57793
2082.06176,531.57793
2083.67751,532.23575
2085.29327,531.57793
2086.90903,531.57793
2088.52478,531.57793
2090.14054,532.23575
2091.75629,532.89358
2093.37205,532.89358
2094.98781,532.23575
2096.60356,531.57793
2098.21932,531.57793
2099.83507,531.57793
2101.45083,531.57793
2103.06658,530.9201
2104.68234,530.9201
2106.2981,530.9201
2107.91385,530.9201
2109.52961,530.9201
2111.14536,530.9201
2112.76112,530.9201
2114.37687,530.9201
2115.99263,530.9201
2117.60839,530.9201
2119.22414,530.9201
2120.8399,530.9201
2122.45565,530.9201
2124.07141,530.9201
2125.68716,530.9201
2127.30292,530.9201
2128.91868,530.9201
2130.53443,530.9201
2132.15019,530.9201
2133.76594,530.9201
2135.3817,530.9201
2136.99746,530.9201
2138.61321,530.9201
2140.22897,530.9201
2141.84472,530.9201
2143.46048,530.9201
2145.07623,530.9201
2146.69199,530.9201
2148.30775,530.9201
2149.9235,531.57793
2151.53926,532.23575
2153.15501,532.89358
2154.77077,532.89358
2156.38652,532.89358
2158.00228,532.89358
2159.61804,532.89358
2161.23379,532.89358
2162.84955,532.89358
2164.4653,532.89358
2166.08106,532.89358
2167.69682,532.89358
2169.31257,533.5514
2170.92833,533.5514
2172.54408,533.5514
2174.15984,533.5514
2175.77559,533.5514
2177.39135,533.5514
2179.00711,533.5514
2180.62286,533.5514
2182.23862,533.5514
2183.85437,533.5514
2185.47013,533.5514
2187.08588,533.5514
2188.70164,533.5514
2190.3174,533.5514
2191.93315,533.5514
2193.54891,533.5514
2195.16466,533.5514
2196.78042,533.5514
2198.39617,533.5514
2200.01193,533.5514
2201.62769,533.5514
2203.24344,533.5514
2204.8592,533.5514
2206.47495,533.5514
2208.09071,533.5514
2209.70647,533.5514
2211.32222,533.5514
2212.93798,533.5514
2214.55373,533.5514
2216.16949,533.5514
2217.78524,533.5514
2219.401,533.5514
2221.01676,533.5514
2222.63251,533.5514
2224.24827,533.5514
2225.86402,533.5514
2227.47978,533.5514
2229.09553,533.5514
2230.71129,533.5514
2232.32705,533.5514
2233.9428,533.5514
2235.55856,533.5514
2237.17431,533.5514
2238.79007,533.5514
2240.40583,533.5514
2242.02158,533.5514
2243.63734,533.5514
2245.25309,533.5514
2246.86885,533.5514
2248.4846,533.5514
2250.10036,533.5514
2251.71612,533.5514
2253.33187,533.5514
2254.94763,533.5514
2256.56338,533.5514
2258.17914,533.5514
2259.79489,533.5514
2261.41065,533.5514
2263.02641,533.5514
2264.64216,533.5514
2266.25792,533.5514
2267.87367,533.5514
2269.48943,533.5514
2271.10518,533.5514
2272.72094,533.5514
2274.3367,533.5514
2275.95245,533.5514
2277.56821,533.5514
2279.18396,533.5514
2280.79972,533.5514
2282.41548,533.5514
2284.03123,533.5514
2285.64699,533.5514
2287.26274,533.5514
2288.8785,533.5514
2290.49425,533.5514
2292.11001,533.5514
2293.72577,533.5514
2295.34152,533.5514
2296.95728,533.5514
2298.57303,533.5514
2300.18879,533.5514
2301.80454,533.5514
2303.4203,533.5514
2305.03606,533.5514
2306.65181,533.5514
2308.26757,533.5514
2309.88332,533.5514
2311.49908,533.5514
2313.11484,533.5514
2314.73059,532.89358
2316.34635,532.23575
2317.9621,532.23575
2319.57786,532.23575
2321.19361,532.23575
2322.80937,532.23575
2324.42513,532.23575
2326.04088,531.57793
2327.65664,531.57793
2329.27239,531.57793
2330.88815,531.57793
2332.5039,531.57793
2334.11966,531.57793
2335.73542,531.57793
2337.35117,531.57793
2338.96693,531.57793
2340.58268,531.57793
2342.19844,531.57793
2343.81419,531.57793
2345.42995,531.57793
2347.04571,531.57793
2348.66146,531.57793
2350.27722,531.57793
2351.89297,531.57793
2353.50873,531.57793
2355.12449,531.57793
2356.74024,531.57793
2358.356,531.57793
2359.97175,531.57793
2361.58751,531.57793
2363.20326,531.57793
2364.81902,531.57793
2366.43478,531.57793
2368.05053,531.57793
2369.66629,531.57793
2371.28204,531.57793
2372.8978,531.57793
2374.51355,531.57793
2376.12931,531.57793
2377.74507,531.57793
2379.36082,531.57793
2380.97658,531.57793
2382.59233,531.57793
2384.20809,531.57793
2385.82385,531.57793
2387.4396,531.57793
2389.05536,531.57793
2390.67111,531.57793
2392.28687,531.57793
2393.90262,531.57793
2395.51838,531.57793
2397.13414,531.57793
2398.74989,531.57793
2400.36565,531.57793
2401.9814,531.57793
2403.59716,531.57793
2405.21291,531.57793
2406.82867,531.57793
2408.44443,531.57793
2410.06018,531.57793
2411.67594,531.57793
2413.29169,531.57793
2414.90745,531.57793
2416.5232,531.57793
2418.13896,531.57793
2419.75472,531.57793
2421.37047,531.57793
2422.98623,531.57793
2424.60198,531.57793
2426.21774,532.23575
2427.8335,532.89358
2429.44925,533.5514
2431.06501,533.5514
2432.68076,533.5514
2434.29652,533.5514
2435.91227,533.5514
2437.52803,533.5514
2439.14379,533.5514
2440.75954,533.5514
2442.3753,533.5514
2443.99105,533.5514
2445.60681,533.5514
2447.22256,533.5514
2448.83832,533.5514
2450.45408,533.5514
2452.06983,533.5514
2453.68559,533.5514
2455.30134,533.5514
2456.9171,533.5514
2458.53286,533.5514
2460.14861,533.5514
2461.76437,533.5514
2463.38012,533.5514
2464.99588,533.5514
2466.61163,533.5514
2468.22739,533.5514
2469.84315,533.5514
2471.4589,533.5514
2473.07466,533.5514
2474.69041,533.5514
2476.30617,533.5514
2477.92192,533.5514
2479.53768,533.5514
2481.15344,533.5514
2482.76919,533.5514
2484.38495,533.5514
2486.0007,533.5514
2487.61646,533.5514
2489.23221,533.5514
2490.84797,533.5514
2492.46373,533.5514
2494.07948,533.5514
2495.69524,533.5514
2497.31099,533.5514
2498.92675,533.5514
2500.54251,533.5514
2502.15826,533.5514
2503.77402,533.5514
2505.38977,533.5514
2507.00553,533.5514
2508.62128,533.5514
2510.23704,533.5514
2511.8528,533.5514
2513.46855,533.5514
2515.08431,533.5514
2516.70006,533.5514
2518.31582,533.5514
2519.93157,533.5514
2521.54733,533.5514
2523.16309,533.5514
2524.77884,533.5514
2526.3946,533.5514
2528.01035,533.5514
2529.62611,533.5514
2531.24187,533.5514
2532.85762,533.5514
2534.47338,533.5514
2536.08913,533.5514
2537.70489,533.5514
2539.32064,533.5514
2540.9364,533.5514
2542.55216,533.5514
2544.16791,533.5514
2545.78367,533.5514
2547.39942,533.5514
2549.01518,533.5514
2550.63093,533.5514
2552.24669,533.5514
2553.86245,533.5514
2555.4782,533.5514
2557.09396,533.5514
2558.70971,533.5514
2560.32547,533.5514
2561.94122,533.5514
2563.55698,533.5514
2565.17274,533.5514
2566.78849,533.5514
2568.40425,533.5514
2570.02,532.89358
2571.63576,532.23575
2573.25152,531.57793
2574.86727,531.57793
2576.48303,531.57793
2578.09878,531.57793
2579.71454,531.57793
2581.33029,531.57793
2582.94605,531.57793
2584.56181,531.57793
2586.17756,531.57793
2587.79332,531.57793
2589.40907,532.23575
2591.02483,532.23575
2592.64058,532.23575
2594.25634,532.23575
2595.8721,532.23575
2597.48785,532.23575
2599.10361,532.23575
2600.71936,532.23575
2602.33512,532.23575
2603.95088,532.23575
2605.56663,532.23575
2607.18239,532.23575
2608.79814,532.23575
2610.4139,532.23575
2612.02965,532.23575
2613.64541,532.23575
2615.26117,532.23575
2616.87692,532.23575
2618.49268,532.23575
2620.10843,532.23575
2621.72419,532.23575
2623.33994,532.23575
2624.9557,532.23575
2626.57146,532.23575
2628.18721,532.23575
2629.80297,532.23575
2631.41872,532.23575
2633.03448,532.23575
2634.65023,532.23575
2636.26599,532.23575
2637.88175,532.23575
2639.4975,532.23575
2641.11326,532.89358
2642.72901,533.5514
2644.34477,534.20923
2645.96053,534.20923
2647.57628,534.20923
2649.19204,534.20923
2650.80779,534.20923
2652.42355,534.20923
2654.0393,534.20923
2655.65506,534.20923
2657.27082,534.20923
2658.88657,534.20923
2660.50233,534.20923
2662.11808,534.20923
2663.73384,534.20923
2665.34959,534.20923
2666.96535,534.20923
2668.58111,534.20923
2670.19686,534.20923
2671.81262,534.20923
2673.42837,534.20923
2675.04413,534.20923
2676.65989,534.20923
2678.27564,534.20923
2679.8914,534.20923
2681.50715,534.20923
2683.12291,534.20923
2684.73866,534.20923
2686.35442,534.20923
2687.97018,534.20923
2689.58593,534.20923
2691.20169,534.20923
2692.81744,534.20923
2694.4332,534.20923
2696.04895,534.20923
2697.66471,534.20923
2699.28047,534.20923
2700.89622,534.20923
2702.51198,534.20923
2704.12773,534.20923
2705.74349,534.20923
2707.35924,534.20923
2708.975,534.20923
2710.59076,534.20923
2712.20651,534.20923
2713.82227,534.20923
2715.43802,534.20923
2717.05378,534.20923
2718.66954,534.20923
2720.28529,534.86705
2721.90105,534.86705
2723.5168,534.86705
2725.13256,534.86705
2726.74831,534.86705
2728.36407,534.86705
2729.97983,534.86705
2731.59558,534.86705
2733.21134,534.86705
2734.82709,534.86705
2736.44285,534.86705
2738.0586,534.86705
2739.67436,534.86705
2741.29012,534.86705
2742.90587,534.86705
2744.52163,534.86705
2746.13738,534.86705
2747.75314,534.86705
2749.3689,534.86705
2750.98465,534.86705
2752.60041,535.52487
2754.21616,535.52487
2755.83192,535.52487
2757.44767,535.52487
2759.06343,535.52487
2760.67919,535.52487
2762.29494,535.52487
2763.9107,535.52487
2765.52645,535.52487
2767.14221,536.1827
2768.75796,536.1827
2770.37372,536.1827
2771.98948,535.52487
2773.60523,536.1827
2775.22099,536.1827
2776.83674,536.1827
2778.4525,536.1827
2780.06825,536.1827
2781.68401,535.52487
2783.29977,534.86705
2784.91552,534.86705
2786.53128,534.86705
2786.53128,535.52487
2788.14703,535.52487
2789.76279,535.52487
2789.76279,536.1827
2791.37855,536.1827
2792.9943,536.1827
2792.9943,536.84052
2794.61006,536.84052
2796.22581,536.84052
2796.22581,537.49835
2797.84157,537.49835
2799.45732,537.49835
2799.45732,538.15617
2801.07308,538.15617
2801.07308,538.814
2802.68884,538.814
2802.68884,539.47182
2804.30459,539.47182
2805.92035,539.47182
2807.5361,539.47182
2809.15186,540.12965
2810.76761,540.12965
2810.76761,540.78747
2812.38337,540.78747
2813.99913,540.78747
2813.99913,541.44529
2815.61488,541.44529
2817.23064,541.44529
2818.84639,542.10312
2818.84639,542.76094
2818.84639,543.41877
2818.84639,544.07659
2818.84639,544.73442
2818.84639,545.39224
2820.46215,545.39224
2822.07791,545.39224
2823.69366,546.05006
2825.30942,546.05006
2826.92517,545.39224
2828.54093,545.39224
2830.15668,545.39224
2831.77244,544.73442
2833.3882,544.07659
2835.00395,543.41877
2836.61971,543.41877
2838.23546,543.41877
2839.85122,543.41877
2841.46697,543.41877
2843.08273,543.41877
2844.69849,543.41877
2846.31424,543.41877
2847.93,543.41877
2849.54575,543.41877
2851.16151,542.76094
2852.77726,542.76094
2854.39302,542.10312
2856.00878,542.10312
2857.62453,541.44529
2859.24029,541.44529
2860.85604,542.10312
2862.4718,542.76094
2864.08756,542.10312
2865.70331,542.76094
2867.31907,542.10312
2868.93482,541.44529
2870.55058,540.78747
2872.16633,540.78747
2873.78209,540.12965
2875.39785,540.12965
2877.0136,539.47182
2878.62936,539.47182
2880.24511,539.47182
2881.86087,539.47182
2883.47662,538.814
2885.09238,538.814
2886.70814,538.814
2888.32389,538.814
2889.93965,538.814
2891.5554,538.814
2893.17116,538.814
2894.78692,538.814
2896.40267,539.47182
2898.01843,540.12965
2899.63418,540.78747
2901.24994,541.44529
2902.86569,541.44529
2904.48145,541.44529
2906.09721,541.44529
2907.71296,541.44529
2909.32872,541.44529
2910.94447,541.44529
2912.56023,541.44529
2914.17598,541.44529
2915.79174,541.44529
2917.4075,541.44529
2919.02325,542.10312
2920.63901,542.10312
2922.25476,542.10312
2923.87052,542.10312
2925.48627,542.76094
2927.10203,542.76094
2928.71779,542.76094
2930.33354,543.41877
2931.9493,543.41877
2933.56505,542.76094
2935.18081,542.10312
2936.79657,541.44529
2938.41232,541.44529
2938.41232,542.10312
2940.02808,542.10312
2941.64383,542.10312
2941.64383,542.76094
2943.25959,542.76094
2943.25959,543.41877
2944.87534,543.41877
2944.87534,544.07659
2946.4911,544.07659
2948.10686,544.07659
2948.10686,544.73442
2949.72261,544.73442
2951.33837,544.73442
2952.95412,544.73442
2952.95412,545.39224
2954.56988,545.39224
2956.18563,545.39224
2956.18563,546.05006
2957.80139,546.05006
2957.80139,546.70789
2959.41715,546.70789
2959.41715,547.36571
2961.0329,547.36571
2961.0329,548.02354
2962.64866,548.02354
2964.26441,548.02354
2965.88017,548.02354
2967.49593,548.68136
2967.49593,549.33919
2967.49593,549.99701
2967.49593,550.65484
2967.49593,551.31266
2967.49593,551.97048
2969.11168,551.97048
2969.11168,552.62831
2969.11168,553.28613
2969.11168,553.94396
2970.72744,553.94396
2972.34319,553.94396
2972.34319,554.60178
2973.95895,554.60178
2973.95895,555.25961
2975.5747,555.25961
2975.5747,555.91743
2977.19046,555.91743
2977.19046,556.57526
2978.80622,556.57526
2978.80622,557.23308
2980.42197,557.23308
2980.42197,557.8909
2982.03773,557.8909
2983.65348,557.8909
2985.26924,557.8909
2986.88499,557.8909
2986.88499,558.54873
2988.50075,558.54873
2988.50075,559.20655
2988.50075,559.86438
2990.11651,559.86438
2990.11651,560.5222
2991.73226,560.5222
2991.73226,561.18003
2991.73226,561.83785
2993.34802,561.83785
2993.34802,562.49568
2994.96377,562.49568
2994.96377,563.1535
2994.96377,563.81132
2994.96377,564.46915
2994.96377,565.12697
2996.57953,565.7848
2998.19528,565.7848
2999.81104,565.7848
3001.4268,566.44262
3001.4268,567.10045
3001.4268,567.75827
3001.4268,568.4161
3003.04255,569.07392
3004.65831,569.73174
3004.65831,570.38957
3004.65831,571.04739
3004.65831,571.70522
3006.27406,571.70522
3006.27406,572.36304
3006.27406,573.02087
3007.88982,573.02087
3007.88982,573.67869
3007.88982,574.33652
3007.88982,574.99434
3009.50558,575.65216
3009.50558,582.23041
3009.50558,580.91476
3009.50558,581.57258
3011.12133,577.62564
3011.12133,576.30999
3011.12133,576.96781
3011.12133,580.25694
3011.12133,585.51953
3011.12133,583.54606
3011.12133,582.88823
3012.73709,578.28346
3012.73709,578.94129
3012.73709,579.59911
3012.73709,584.86171
3012.73709,584.20388
3012.73709,586.17736
3012.73709,586.83518
3014.35284,587.493
3014.35284,588.15083
3014.35284,588.80865
3015.9686,589.46648
3015.9686,590.1243
3015.9686,590.78213
3017.58435,591.43995
3017.58435,592.09778
3017.58435,592.7556
3017.58435,593.41342
3017.58435,594.07125
3017.58435,594.72907
3019.20011,595.3869
3020.81587,596.04472
3020.81587,596.70255
3020.81587,597.36037
3020.81587,599.33384
3022.43162,598.67602
3022.43162,598.0182
3022.43162,599.99167
3022.43162,600.64949
3022.43162,601.30732
3024.04738,601.96514
3025.66313,602.62297
3025.66313,603.28079
3025.66313,603.93862
3027.27889,604.59644
3027.27889,605.25426
3028.89464,605.91209
3030.5104,606.56991
3030.5104,607.22774
3030.5104,607.88556
3030.5104,609.85904
3030.5104,611.83251
3030.5104,611.17468
3030.5104,610.51686
3032.12616,608.54339
3032.12616,609.20121
3032.12616,612.49033
3032.12616,613.14816
3032.12616,613.80598
3033.74191,614.46381
3033.74191,615.12163
3033.74191,615.77945
3033.74191,616.43728
3035.35767,617.0951
3035.35767,617.75293
3035.35767,618.41075
3036.97342,619.06858
3038.58918,619.7264
3040.20494,619.7264
3041.82069,619.7264
3041.82069,621.04205
3043.43645,620.38423
3043.43645,621.04205
3045.0522,621.04205
3046.66796,621.04205
3046.66796,621.69987
3048.28371,622.3577
3048.28371,623.01552
3048.28371,623.67335
3049.89947,623.67335
3049.89947,624.33117
3049.89947,624.989
3051.51523,624.989
3051.51523,625.64682
3051.51523,626.30465
3051.51523,626.96247
3051.51523,627.62029
3051.51523,628.27812
3051.51523,628.93594
3053.13098,629.59377
3054.74674,629.59377
3056.36249,629.59377
3057.97825,628.93594
3059.594,628.27812
3061.20976,628.93594
3062.82552,629.59377
3064.44127,629.59377
3066.05703,629.59377
3066.05703,628.93594
3066.05703,628.27812
3066.05703,627.62029
3066.05703,626.96247
3066.05703,626.30465
3066.05703,625.64682
3067.67278,625.64682
3067.67278,624.989
3069.28854,624.989
3070.90429,624.989
3072.52005,624.989
3074.13581,624.989
3075.75156,624.989
3075.75156,624.33117
3077.36732,624.33117
3077.36732,623.67335
3078.98307,623.67335
3078.98307,623.01552
3080.59883,622.3577
3082.21459,621.69987
3082.21459,621.04205
3082.21459,620.38423
3082.21459,619.7264
3083.83034,619.7264
3083.83034,619.06858
3085.4461,619.06858
3087.06185,618.41075
3087.06185,617.75293
3087.06185,617.0951
3087.06185,616.43728
3088.67761,615.77945
3090.29336,615.77945
3090.29336,615.12163
3091.90912,615.12163
3091.90912,614.46381
3093.52488,614.46381
3093.52488,613.80598
3093.52488,613.14816
3093.52488,612.49033
3095.14063,612.49033
3095.14063,611.83251
3096.75639,611.83251
3096.75639,611.17468
3098.37214,611.17468
3098.37214,610.51686
3099.9879,610.51686
3099.9879,609.85904
3101.60365,609.85904
3101.60365,609.20121
3103.21941,609.20121
3103.21941,608.54339
3103.21941,607.88556
3103.21941,607.22774
3103.21941,606.56991
3103.21941,605.91209
3103.21941,605.25426
3104.83517,605.25426
3104.83517,604.59644
3106.45092,604.59644
3106.45092,603.93862
3108.06668,603.93862
3109.68243,603.28079
3111.29819,603.28079
3112.91395,603.93862
3114.5297,604.59644
3116.14546,605.25426
3117.76121,605.25426
3119.37697,605.25426
3120.99272,605.25426
3122.60848,605.25426
3124.22424,604.59644
3125.83999,603.93862
3127.45575,603.28079
3129.0715,602.62297
3130.68726,603.28079
3132.30301,603.93862
3133.91877,604.59644
3135.53453,605.25426
3137.15028,605.91209
3138.76604,605.91209
3140.38179,605.91209
3141.99755,605.25426
3143.6133,605.25426
3145.22906,605.25426
3146.84482,605.25426
3148.46057,604.59644
3150.07633,604.59644
3151.69208,603.93862
3151.69208,603.28079
3151.69208,602.62297
3151.69208,601.96514
3151.69208,601.30732
3151.69208,600.64949
3153.30784,600.64949
3153.30784,599.99167
3154.9236,599.99167
3154.9236,599.33384
3156.53935,599.33384
3158.15511,599.33384
3158.15511,598.67602
3159.77086,598.67602
3159.77086,598.0182
3161.38662,598.0182
3163.00237,598.0182
3164.61813,598.0182
3166.23389,598.0182
3166.23389,597.36037
3167.84964,597.36037
3167.84964,596.70255
3169.4654,596.70255
3169.4654,596.04472
3169.4654,595.3869
3171.08115,595.3869
3171.08115,594.72907
3172.69691,594.72907
3172.69691,594.07125
3172.69691,593.41342
3174.31266,593.41342
3174.31266,592.7556
3175.92842,592.09778
3175.92842,591.43995
3175.92842,590.78213
3175.92842,590.1243
3177.54418,589.46648
3179.15993,589.46648
3180.77569,589.46648
3180.77569,588.80865
3180.77569,588.15083
3180.77569,587.493
3182.39144,587.493
3184.0072,587.493
3185.62296,586.83518
3185.62296,586.17736
3185.62296,585.51953
3185.62296,584.86171
3185.62296,584.20388
3185.62296,583.54606
3187.23871,583.54606
3187.23871,582.88823
3187.23871,582.23041
3187.23871,581.57258
3188.85447,581.57258
3190.47022,581.57258
3192.08598,581.57258
3193.70173,581.57258
3193.70173,580.91476
3193.70173,580.25694
3195.31749,580.25694
3195.31749,579.59911
3196.93325,579.59911
3196.93325,578.94129
3198.549,578.94129
3198.549,578.28346
3198.549,577.62564
3200.16476,577.62564
3201.78051,576.96781
3201.78051,576.30999
3201.78051,575.65216
3203.39627,575.65216
3205.01202,574.99434
3205.01202,574.33652
3206.62778,574.33652
3206.62778,573.67869
3206.62778,573.02087
3208.24354,573.02087
3208.24354,572.36304
3209.85929,572.36304
3211.47505,571.70522
3211.47505,571.04739
3211.47505,570.38957
3213.0908,570.38957
3213.0908,569.73174
3213.0908,569.07392
3213.0908,568.4161
3214.70656,567.75827
3216.32231,567.75827
3217.93807,567.75827
3219.55383,567.75827
3219.55383,567.10045
3221.16958,567.10045
3221.16958,566.44262
3221.16958,565.7848
3221.16958,565.12697
3221.16958,564.46915
3222.78534,564.46915
3222.78534,563.81132
3224.40109,563.1535
3226.01685,563.1535
3227.63261,563.1535
3229.24836,563.1535
3229.24836,562.49568
3230.86412,562.49568
3230.86412,561.83785
3232.47987,561.18003
3232.47987,560.5222
3232.47987,559.86438
3232.47987,559.20655
3232.47987,558.54873
3234.09563,558.54873
3235.71138,558.54873
3235.71138,557.8909
3237.32714,557.8909
3237.32714,557.23308
3238.9429,557.23308
3238.9429,556.57526
3240.55865,556.57526
3242.17441,556.57526
3243.79016,556.57526
3243.79016,555.91743
3245.40592,555.91743
3245.40592,555.25961
3247.02167,555.25961
3247.02167,554.60178
3248.63743,554.60178
3250.25319,554.60178
3251.86894,554.60178
3251.86894,553.94396
3251.86894,553.28613
3253.4847,552.62831
3255.10045,552.62831
3255.10045,551.97048
3256.71621,551.97048
3258.33197,551.97048
3258.33197,551.31266
3259.94772,551.31266
3261.56348,551.31266
3261.56348,550.65484
3263.17923,549.99701
3264.79499,549.99701
3266.41074,549.99701
3266.41074,549.33919
3268.0265,549.33919
3269.64226,549.33919
3271.25801,549.33919
3271.25801,548.68136
3272.87377,548.68136
3272.87377,548.02354
3274.48952,548.02354
3276.10528,548.02354
3276.10528,547.36571
3277.72103,547.36571
3279.33679,547.36571
3279.33679,546.70789
3280.95255,546.70789
3282.5683,547.36571
3284.18406,548.02354
3285.79981,548.68136
3287.41557,548.02354
3289.03132,548.02354
3290.64708,548.68136
3292.26284,548.02354
3293.87859,548.02354
3295.49435,548.02354
3297.1101,547.36571
3298.72586,546.70789
3300.34162,546.70789
3301.95737,546.05006
3303.57313,546.05006
3305.18888,546.05006
3306.80464,546.05006
3308.42039,545.39224
3310.03615,546.05006
3311.65191,546.05006
3313.26766,545.39224
3314.88342,545.39224
3316.49917,544.73442
3318.11493,544.07659
3319.73068,544.07659
3321.34644,544.07659
3322.9622,544.07659
3324.57795,543.41877
3326.19371,543.41877
3327.80946,544.07659
3329.42522,543.41877
3331.04098,542.76094
3332.65673,542.76094
3334.27249,542.76094
3335.88824,542.76094
3337.504,542.76094
3339.11975,542.10312
3340.73551,542.10312
3342.35127,542.10312
3343.96702,541.44529
3345.58278,541.44529
3347.19853,541.44529
3348.81429,540.78747
3350.43004,541.44529
3352.0458,541.44529
3353.66156,540.78747
3355.27731,540.78747
3356.89307,540.78747
3358.50882,540.12965
3360.12458,540.78747
3361.74033,540.78747
3363.35609,540.78747
3364.97185,540.12965
3366.5876,540.12965
3368.20336,540.12965
3369.81911,540.12965
3371.43487,540.12965
3373.05063,539.47182
3374.66638,539.47182
3376.28214,538.814
3377.89789,539.47182
3379.51365,539.47182
3381.1294,538.814
3382.74516,538.814
3384.36092,538.814
3385.97667,538.15617
3387.59243,538.814
3389.20818,538.814
3390.82394,538.814
3392.43969,538.15617
3394.05545,538.15617
3395.67121,537.49835
3397.28696,538.15617
3398.90272,538.15617
3400.51847,538.15617
3402.13423,537.49835
3403.74999,537.49835
3405.36574,537.49835
3406.9815,536.84052
3408.59725,536.1827
3410.21301,536.84052
3411.82876,536.84052
3413.44452,536.84052
3415.06028,536.84052
3416.67603,536.84052
3418.29179,536.84052
3419.90754,536.84052
3421.5233,536.84052
3423.13905,536.84052
3424.75481,536.1827
3426.37057,536.1827
3427.98632,536.1827
3429.60208,536.1827
3431.21783,536.1827
3432.83359,536.1827
3434.44934,536.1827
3436.0651,536.1827
3437.68086,535.52487
3439.29661,536.1827
3440.91237,535.52487
3442.52812,535.52487
3444.14388,534.86705
3445.75964,534.20923
3447.37539,533.5514
3448.99115,533.5514
3450.6069,534.20923
3452.22266,534.86705
3453.83841,535.52487
3455.45417,535.52487
3457.06993,535.52487
3458.68568,535.52487
3460.30144,535.52487
3461.91719,535.52487
3463.53295,534.86705
3465.1487,534.20923
3466.76446,533.5514
3468.38022,532.89358
3469.99597,532.89358
3471.61173,532.89358
3473.22748,532.89358
3474.84324,532.89358
3476.459,532.89358
3478.07475,532.89358
3479.69051,532.89358
3481.30626,532.89358
3482.92202,532.89358
3484.53777,532.89358
3486.15353,532.89358
3487.76929,532.89358
3489.38504,532.89358
3491.0008,532.89358
3492.61655,532.89358
3494.23231,532.89358
3495.84806,532.89358
3497.46382,532.89358
3499.07958,532.89358
3500.69533,532.89358
3502.31109,532.89358
3503.92684,532.89358
3505.5426,533.5514
3507.15835,534.20923
3508.77411,534.86705
3510.38987,535.52487
3512.00562,535.52487
3513.62138,535.52487
3515.23713,535.52487
3516.85289,535.52487
3518.46865,534.86705
3520.0844,534.20923
3521.70016,534.86705
3523.31591,535.52487
3524.93167,534.86705
3526.54742,534.20923
3528.16318,533.5514
3529.77894,532.89358
3531.39469,533.5514
3533.01045,534.20923
3534.6262,534.86705
3536.24196,535.52487
3537.85771,535.52487
3539.47347,535.52487
3541.08923,534.86705
3542.70498,534.20923
3544.32074,533.5514
3545.93649,532.89358
3547.55225,532.23575
3549.16801,532.23575
3550.78376,532.23575
3552.39952,532.23575
3554.01527,532.89358
3555.63103,532.89358
3557.24678,532.89358
3558.86254,532.89358
3560.4783,532.89358
3562.09405,532.89358
3563.70981,533.5514
3565.32556,534.20923
3566.94132,534.86705
3568.55707,535.52487
3570.17283,535.52487
3571.78859,535.52487
3573.40434,535.52487
3575.0201,535.52487
3576.63585,535.52487
3578.25161,534.86705
3579.86736,534.86705
3581.48312,534.86705
3583.09888,534.86705
3584.71463,534.86705
3586.33039,534.86705
3587.94614,534.86705
3589.5619,534.86705
3591.17766,534.86705
3592.79341,534.20923
3594.40917,533.5514
3596.02492,532.89358
3597.64068,532.23575
3599.25643,532.23575
3600.87219,532.23575
3602.48795,532.23575
3604.1037,532.23575
3605.71946,532.23575
3607.33521,532.23575
3608.95097,532.23575
3610.56672,532.23575
3612.18248,532.23575
3613.79824,532.23575
3615.41399,532.23575
3617.02975,532.23575
3618.6455,532.23575
3620.26126,532.23575
3621.87702,532.23575
3623.49277,532.23575
3625.10853,532.23575
3626.72428,532.23575
3628.34004,532.23575
3629.95579,532.23575
3631.57155,532.23575
3633.18731,532.23575
3634.80306,532.23575
3636.41882,532.23575
3638.03457,532.23575
3639.65033,532.23575
3641.26608,532.23575
3642.88184,532.23575
3644.4976,532.23575
3646.11335,532.23575
3647.72911,532.23575
3649.34486,532.23575
3650.96062,532.23575
3652.57637,532.23575
3654.19213,532.23575
3655.80789,532.23575
3657.42364,532.23575
3659.0394,532.23575
3660.65515,532.23575
3662.27091,532.23575
3663.88667,532.23575
3665.50242,532.23575
3667.11818,532.23575
3668.73393,532.23575
3670.34969,532.23575
3671.96544,532.23575
3673.5812,532.23575
3675.19696,532.23575
3676.81271,532.23575
3678.42847,532.23575
3680.04422,532.23575
3681.65998,532.23575
3683.27573,532.89358
3684.89149,533.5514
3686.50725,534.20923
3688.123,534.86705
3689.73876,534.86705
3691.35451,534.86705
3692.97027,534.86705
3694.58603,534.86705
3696.20178,534.86705
3697.81754,534.20923
3699.43329,534.20923
3701.04905,534.20923
3702.6648,534.20923
3704.28056,533.5514
3705.89632,532.89358
3707.51207,532.89358
3709.12783,533.5514
3710.74358,534.20923
3712.35934,534.20923
3713.97509,534.20923
3715.59085,534.20923
3717.20661,534.20923
3718.82236,534.20923
3720.43812,534.20923
3722.05387,533.5514
3723.66963,532.89358
3725.28538,532.23575
3726.90114,531.57793
3728.5169,531.57793
3730.13265,531.57793
3731.74841,531.57793
3733.36416,531.57793
3734.97992,531.57793
3736.59568,531.57793
3738.21143,531.57793
3739.82719,531.57793
3741.44294,531.57793
3743.0587,531.57793
3744.67445,531.57793
3746.29021,531.57793
3747.90597,531.57793
3749.52172,531.57793
3751.13748,531.57793
3752.75323,531.57793
3754.36899,532.23575
3755.98474,532.89358
3757.6005,532.23575
3759.21626,531.57793
3760.83201,531.57793
3762.44777,532.23575
3764.06352,532.89358
3765.67928,533.5514
3767.29504,534.20923
3768.91079,534.20923
3770.52655,534.20923
3772.1423,534.20923
3773.75806,534.20923
3775.37381,533.5514
3776.98957,532.89358
3778.60533,532.23575
3780.22108,531.57793
3781.83684,531.57793
3783.45259,531.57793
3785.06835,531.57793
3786.6841,531.57793
3788.29986,531.57793
3789.91562,531.57793
3791.53137,531.57793
3793.14713,531.57793
3794.76288,531.57793
3796.37864,531.57793
3797.99439,531.57793
3799.61015,531.57793
3801.22591,531.57793
3802.84166,531.57793
3804.45742,531.57793
3806.07317,531.57793
3807.68893,531.57793
3809.30469,531.57793
3810.92044,531.57793
3812.5362,531.57793
3814.15195,531.57793
3815.76771,531.57793
3817.38346,531.57793
3818.99922,531.57793
3820.61498,531.57793
3822.23073,531.57793
3823.84649,531.57793
3825.46224,531.57793
3827.078,531.57793
3828.69375,531.57793
3830.30951,531.57793
3831.92527,531.57793
3833.54102,531.57793
3835.15678,531.57793
3836.77253,531.57793
3838.38829,531.57793
3840.00405,531.57793
3841.6198,531.57793
3843.23556,531.57793
3844.85131,531.57793
3846.46707,531.57793
3848.08282,531.57793
3849.69858,531.57793
3851.31434,531.57793
3852.93009,531.57793
3854.54585,531.57793
3856.1616,531.57793
3857.77736,531.57793
3859.39311,531.57793
3861.00887,531.57793
3862.62463,531.57793
3864.24038,531.57793
3865.85614,531.57793
3867.47189,531.57793
3869.08765,531.57793
3870.7034,531.57793
3872.31916,531.57793
3873.93492,531.57793
3875.55067,531.57793
3877.16643,531.57793
3878.78218,531.57793
3880.39794,531.57793
3882.0137,531.57793
3883.62945,531.57793
3885.24521,531.57793
3886.86096,531.57793
3888.47672,531.57793
3890.09247,532.23575
3891.70823,532.89358
3893.32399,533.5514
3894.93974,534.20923
3896.5555,534.20923
3898.17125,534.20923
3899.78701,534.20923
3901.40276,534.20923
3903.01852,534.20923
3904.63428,533.5514
3906.25003,532.89358
3907.86579,532.23575
3909.48154,532.23575
3911.0973,532.23575
3912.71306,532.23575
3914.32881,532.23575
3915.94457,532.23575
3917.56032,532.23575
3919.17608,531.57793
3920.79183,530.9201
3922.40759,530.9201
3924.02335,530.9201
3925.6391,530.9201
3927.25486,530.9201
3928.87061,530.9201
3930.48637,530.9201
3932.10212,530.9201
3933.71788,530.9201
3935.33364,530.9201
3936.94939,530.9201
3938.56515,530.9201
3940.1809,530.9201
3941.79666,530.9201
3943.41241,530.9201
3945.02817,530.9201
3946.64393,530.9201
3948.25968,530.9201
3949.87544,530.9201
3951.49119,530.9201
3953.10695,531.57793
3954.72271,531.57793
3956.33846,531.57793
3957.95422,531.57793
3959.56997,531.57793
3961.18573,531.57793
3962.80148,531.57793
3964.41724,531.57793
3966.033,531.57793
3967.64875,531.57793
3969.26451,532.23575
3970.88026,532.89358
3972.49602,533.5514
3974.11177,533.5514
3975.72753,533.5514
3977.34329,533.5514
3978.95904,533.5514
3980.5748,533.5514
3982.19055,532.89358
3983.80631,532.23575
3985.42207,532.23575
3987.03782,532.23575
3988.65358,532.23575
3990.26933,532.23575
3991.88509,532.23575
3993.50084,532.23575
3995.1166,532.23575
3996.73236,532.23575
3998.34811,532.23575
3999.96387,532.23575
