Raman shift,Intensity
756.5672,725.15558
756.5672,726.47609
758.71479,723.83507
760.86239,723.83507
763.00999,719.87354
763.00999,722.51456
763.00999,721.19405
765.15758,718.55303
767.30518,718.55303
769.45278,717.23252
771.60037,717.23252
773.74797,717.23252
775.89557,715.91201
778.04316,715.91201
780.19076,717.23252
782.33836,718.55303
784.48595,719.87354
786.63355,719.87354
788.78115,719.87354
790.92874,719.87354
793.07634,719.87354
795.22394,719.87354
797.37153,719.87354
799.51913,719.87354
801.66673,719.87354
803.81433,719.87354
805.96192,719.87354
808.10952,721.19405
810.25712,721.19405
812.40471,721.19405
814.55231,721.19405
816.69991,721.19405
818.8475,721.19405
820.9951,721.19405
823.1427,721.19405
825.29029,719.87354
827.43789,719.87354
829.58549,718.55303
831.73308,718.55303
833.88068,719.87354
836.02828,719.87354
838.17587,719.87354
840.32347,719.87354
842.47107,719.87354
844.61866,718.55303
846.76626,718.55303
848.91386,718.55303
851.06145,718.55303
853.20905,717.23252
855.35665,715.91201
857.50424,714.5915
859.65184,714.5915
861.79944,714.5915
863.94703,714.5915
866.09463,714.5915
868.24223,714.5915
870.38982,715.91201
872.53742,717.23252
874.68502,718.55303
876.83261,719.87354
878.98021,719.87354
881.12781,719.87354
883.2754,719.87354
885.423,719.87354
887.5706,719.87354
889.71819,719.87354
891.86579,719.87354
894.01339,719.87354
896.16098,719.87354
898.30858,719.87354
900.45618,719.87354
902.60377,719.87354
904.75137,721.19405
906.89897,721.19405
909.04656,721.19405
911.19416,721.19405
913.34176,722.51456
915.48935,721.19405
917.63695,719.87354
919.78455,719.87354
921.93214,719.87354
924.07974,719.87354
926.22734,719.87354
928.37493,721.19405
928.37493,719.87354
930.52253,721.19405
932.67013,722.51456
932.67013,721.19405
934.81772,722.51456
936.96532,723.83507
936.96532,722.51456
939.11292,725.15558
939.11292,723.83507
941.26051,725.15558
943.40811,725.15558
945.55571,726.47609
947.7033,729.11711
947.7033,727.7966
949.8509,729.11711
951.9985,729.11711
954.14609,730.43762
956.29369,733.07863
956.29369,731.75812
958.44129,733.07863
960.58888,733.07863
960.58888,734.39914
962.73648,735.71965
962.73648,734.39914
964.88408,737.04016
964.88408,738.36067
964.88408,735.71965
964.88408,741.00169
964.88408,742.3222
964.88408,739.68118
967.03167,742.3222
969.17927,742.3222
971.32687,743.64271
973.47446,743.64271
975.62206,742.3222
977.76966,741.00169
979.91725,739.68118
982.06485,738.36067
984.21245,738.36067
986.36004,738.36067
988.50764,738.36067
990.65524,738.36067
992.80283,739.68118
994.95043,741.00169
997.09803,741.00169
997.09803,742.3222
999.24562,739.68118
999.24562,741.00169
1001.39322,739.68118
1003.54082,739.68118
1005.68841,738.36067
1005.68841,739.68118
1007.83601,738.36067
1009.98361,737.04016
1009.98361,738.36067
1012.1312,737.04016
1014.2788,735.71965
1014.2788,737.04016
1016.4264,735.71965
1018.57399,735.71965
1020.72159,734.39914
1020.72159,733.07863
1022.86919,731.75812
1025.01678,731.75812
1027.16438,731.75812
1029.31198,730.43762
1029.31198,731.75812
1031.45957,730.43762
1033.60717,729.11711
1033.60717,727.7966
1033.60717,726.47609
1033.60717,725.15558
1033.60717,723.83507
1033.60717,730.43762
1035.75477,722.51456
1037.90236,722.51456
1040.04996,722.51456
1042.19756,721.19405
1044.34515,721.19405
1046.49275,721.19405
1048.64035,721.19405
1050.78794,719.87354
1052.93554,719.87354
1055.08314,721.19405
1057.23073,719.87354
1059.37833,719.87354
1061.52593,719.87354
1063.67352,718.55303
1065.82112,718.55303
1067.96872,718.55303
1070.11631,718.55303
1072.26391,718.55303
1074.41151,718.55303
1076.5591,718.55303
1078.7067,718.55303
1080.8543,718.55303
1083.00189,718.55303
1085.14949,718.55303
1087.29709,718.55303
1089.44468,718.55303
1091.59228,718.55303
1093.73988,718.55303
1095.88747,718.55303
1098.03507,718.55303
1100.18267,718.55303
1102.33026,718.55303
1104.47786,718.55303
1106.62546,717.23252
1108.77305,717.23252
1110.92065,717.23252
1113.06825,717.23252
1115.21584,717.23252
1117.36344,717.23252
1119.51104,717.23252
1121.65863,718.55303
1123.80623,717.23252
1125.95383,717.23252
1128.10142,717.23252
1130.24902,717.23252
1132.39662,717.23252
1134.54421,717.23252
1136.69181,715.91201
1138.83941,715.91201
1140.987,715.91201
1143.1346,715.91201
1145.2822,715.91201
1147.42979,717.23252
1149.57739,718.55303
1151.72499,719.87354
1153.87258,721.19405
1156.02018,721.19405
1158.16778,721.19405
1160.31537,721.19405
1162.46297,721.19405
1164.61057,722.51456
1166.75816,722.51456
1168.90576,722.51456
1171.05336,722.51456
1173.20095,722.51456
1175.34855,722.51456
1177.49615,722.51456
1179.64374,722.51456
1181.79134,722.51456
1183.93894,722.51456
1186.08653,723.83507
1188.23413,723.83507
1190.38173,723.83507
1192.52932,723.83507
1194.67692,723.83507
1196.82452,723.83507
1198.97211,723.83507
1201.11971,723.83507
1203.26731,723.83507
1205.4149,723.83507
1207.5625,723.83507
1209.7101,723.83507
1211.85769,723.83507
1214.00529,723.83507
1216.15289,723.83507
1218.30048,723.83507
1220.44808,723.83507
1222.59568,723.83507
1224.74327,723.83507
1226.89087,723.83507
1229.03847,723.83507
1231.18606,723.83507
1233.33366,723.83507
1235.48126,723.83507
1237.62885,723.83507
1239.77645,723.83507
1241.92405,723.83507
1244.07164,723.83507
1246.21924,723.83507
1248.36684,723.83507
1250.51443,723.83507
1252.66203,723.83507
1254.80963,723.83507
1256.95722,723.83507
1259.10482,723.83507
1261.25242,723.83507
1263.40001,723.83507
1265.54761,723.83507
1267.69521,725.15558
1269.8428,726.47609
1271.9904,726.47609
1274.138,725.15558
1276.28559,726.47609
1278.43319,725.15558
1280.58079,723.83507
1282.72838,722.51456
1284.87598,723.83507
1287.02358,725.15558
1289.17117,726.47609
1291.31877,727.7966
1293.46637,727.7966
1295.61396,729.11711
1297.76156,729.11711
1299.90916,727.7966
1302.05675,729.11711
1304.20435,730.43762
1306.35195,730.43762
1308.49954,731.75812
1310.64714,731.75812
1312.79474,731.75812
1314.94233,730.43762
1317.08993,731.75812
1319.23753,731.75812
1321.38512,731.75812
1323.53272,730.43762
1325.68032,731.75812
1327.82791,733.07863
1329.97551,733.07863
1332.12311,733.07863
1334.2707,731.75812
1336.4183,731.75812
1338.5659,733.07863
1340.71349,734.39914
1342.86109,734.39914
1345.00869,735.71965
1347.15628,735.71965
1349.30388,735.71965
1351.45148,737.04016
1353.59907,735.71965
1355.74667,737.04016
1357.89427,737.04016
1360.04186,735.71965
1362.18946,737.04016
1364.33706,738.36067
1366.48465,738.36067
1368.63225,739.68118
1370.77985,739.68118
1372.92744,739.68118
1375.07504,738.36067
1377.22264,737.04016
1379.37023,735.71965
1381.51783,734.39914
1383.66543,734.39914
1385.81302,734.39914
1387.96062,734.39914
1390.10822,733.07863
1392.25581,733.07863
1394.40341,734.39914
1396.55101,733.07863
1398.6986,733.07863
1400.8462,733.07863
1402.9938,733.07863
1405.14139,731.75812
1407.28899,731.75812
1409.43659,731.75812
1411.58418,731.75812
1413.73178,730.43762
1415.87938,730.43762
1418.02697,731.75812
1420.17457,733.07863
1422.32217,734.39914
1424.46976,733.07863
1426.61736,731.75812
1428.76496,730.43762
1430.91255,729.11711
1433.06015,727.7966
1435.20775,726.47609
1437.35534,725.15558
1439.50294,725.15558
1441.65054,725.15558
1443.79813,725.15558
1445.94573,723.83507
1448.09333,723.83507
1450.24093,723.83507
1452.38852,723.83507
1454.53612,722.51456
1456.68372,722.51456
1458.83131,722.51456
1460.97891,722.51456
1463.12651,722.51456
1465.2741,722.51456
1467.4217,722.51456
1469.5693,722.51456
1471.71689,721.19405
1473.86449,721.19405
1476.01209,721.19405
1478.15968,721.19405
1480.30728,721.19405
1482.45488,721.19405
1484.60247,721.19405
1486.75007,721.19405
1488.89767,721.19405
1491.04526,721.19405
1493.19286,721.19405
1495.34046,721.19405
1497.48805,721.19405
1499.63565,721.19405
1501.78325,721.19405
1503.93084,721.19405
1506.07844,721.19405
1508.22604,721.19405
1510.37363,721.19405
1512.52123,721.19405
1514.66883,719.87354
1516.81642,719.87354
1518.96402,721.19405
1521.11162,722.51456
1523.25921,723.83507
1525.40681,725.15558
1527.55441,725.15558
1529.702,726.47609
1531.8496,726.47609
1533.9972,726.47609
1536.14479,726.47609
1538.29239,726.47609
1540.43999,725.15558
1542.58758,726.47609
1544.73518,726.47609
1546.88278,726.47609
1549.03037,726.47609
1551.17797,726.47609
1553.32557,727.7966
1555.47316,727.7966
1557.62076,727.7966
1559.76836,727.7966
1561.91595,727.7966
1564.06355,727.7966
1566.21115,727.7966
1568.35874,727.7966
1570.50634,727.7966
1572.65394,727.7966
1574.80153,727.7966
1576.94913,727.7966
1579.09673,726.47609
1581.24432,727.7966
1583.39192,729.11711
1585.53952,729.11711
1587.68711,729.11711
1589.83471,729.11711
1591.98231,730.43762
1594.1299,730.43762
1596.2775,729.11711
1598.4251,730.43762
1600.57269,731.75812
1602.72029,731.75812
1604.86789,731.75812
1607.01548,731.75812
1609.16308,731.75812
1611.31068,731.75812
1613.45827,730.43762
1615.60587,729.11711
1617.75347,727.7966
1619.90106,726.47609
1622.04866,726.47609
1624.19626,726.47609
1626.34385,726.47609
1628.49145,726.47609
1630.63905,726.47609
1632.78664,726.47609
1634.93424,725.15558
1637.08184,725.15558
1639.22943,725.15558
1641.37703,726.47609
1643.52463,725.15558
1645.67222,725.15558
1647.81982,725.15558
1649.96742,723.83507
1652.11501,723.83507
1654.26261,723.83507
1656.41021,725.15558
1658.5578,723.83507
1660.7054,723.83507
1662.853,722.51456
1665.00059,722.51456
1667.14819,722.51456
1669.29579,722.51456
1671.44338,722.51456
1673.59098,722.51456
1675.73858,722.51456
1677.88617,722.51456
1680.03377,721.19405
1682.18137,721.19405
1684.32896,721.19405
1686.47656,721.19405
1688.62416,721.19405
1690.77175,721.19405
1692.91935,721.19405
1695.06695,721.19405
1697.21454,721.19405
1699.36214,721.19405
1701.50974,721.19405
1703.65733,721.19405
1705.80493,721.19405
1707.95253,721.19405
1710.10012,721.19405
1712.24772,721.19405
1714.39532,719.87354
1716.54291,719.87354
1718.69051,719.87354
1720.83811,719.87354
1722.9857,719.87354
1725.1333,719.87354
1727.2809,719.87354
1729.42849,719.87354
1731.57609,719.87354
1733.72369,719.87354
1735.87128,719.87354
1738.01888,719.87354
1740.16648,719.87354
1742.31407,719.87354
1744.46167,718.55303
1746.60927,718.55303
1748.75686,718.55303
1750.90446,718.55303
1753.05206,718.55303
1755.19965,718.55303
1757.34725,718.55303
1759.49485,718.55303
1761.64244,718.55303
1763.79004,718.55303
1765.93764,718.55303
1768.08523,718.55303
1770.23283,718.55303
1772.38043,718.55303
1774.52802,718.55303
1776.67562,718.55303
1778.82322,718.55303
1780.97081,718.55303
1783.11841,718.55303
1785.26601,718.55303
1787.4136,718.55303
1789.5612,718.55303
1791.7088,718.55303
1793.85639,718.55303
1796.00399,718.55303
1798.15159,718.55303
1800.29918,718.55303
1802.44678,718.55303
1804.59438,718.55303
1806.74197,718.55303
1808.88957,718.55303
1811.03717,718.55303
1813.18476,718.55303
1815.33236,718.55303
1817.47996,718.55303
1819.62755,718.55303
1821.77515,718.55303
1823.92275,718.55303
1826.07034,718.55303
1828.21794,718.55303
1830.36554,718.55303
1832.51313,718.55303
1834.66073,718.55303
1836.80833,718.55303
1838.95592,718.55303
1841.10352,718.55303
1843.25112,718.55303
1845.39871,718.55303
1847.54631,718.55303
1849.69391,718.55303
1851.8415,718.55303
1853.9891,718.55303
1856.1367,718.55303
1858.28429,718.55303
1860.43189,718.55303
1862.57949,718.55303
1864.72708,718.55303
1866.87468,718.55303
1869.02228,718.55303
1871.16987,718.55303
1873.31747,718.55303
1875.46507,718.55303
1877.61266,718.55303
1879.76026,718.55303
1881.90786,718.55303
1884.05545,718.55303
1886.20305,718.55303
1888.35065,718.55303
1890.49824,718.55303
1892.64584,718.55303
1894.79344,718.55303
1896.94103,718.55303
1899.08863,718.55303
1901.23623,718.55303
1903.38382,718.55303
1905.53142,718.55303
1907.67902,718.55303
1909.82661,718.55303
1911.97421,718.55303
1914.12181,718.55303
1916.2694,718.55303
1918.417,718.55303
1920.5646,718.55303
1922.71219,718.55303
1924.85979,718.55303
1927.00739,718.55303
1929.15498,718.55303
1931.30258,718.55303
1933.45018,718.55303
1935.59777,718.55303
1937.74537,718.55303
1939.89297,718.55303
1942.04056,718.55303
1944.18816,718.55303
1946.33576,718.55303
1948.48335,718.55303
1950.63095,718.55303
1952.77855,718.55303
1954.92614,718.55303
1957.07374,718.55303
1959.22134,718.55303
1961.36893,718.55303
1963.51653,718.55303
1965.66413,718.55303
1967.81172,718.55303
1969.95932,718.55303
1972.10692,718.55303
1974.25451,718.55303
1976.40211,718.55303
1978.54971,718.55303
1980.6973,718.55303
1982.8449,718.55303
1984.9925,718.55303
1987.14009,718.55303
1989.28769,718.55303
1991.43529,718.55303
1993.58288,718.55303
1995.73048,718.55303
1997.87808,718.55303
2000.02567,718.55303
2002.17327,718.55303
2004.32087,718.55303
2006.46846,718.55303
2008.61606,718.55303
2010.76366,718.55303
2012.91125,718.55303
2015.05885,718.55303
2017.20645,718.55303
2019.35404,718.55303
2021.50164,718.55303
2023.64924,718.55303
2025.79683,718.55303
2027.94443,718.55303
2030.09203,718.55303
2032.23962,718.55303
2034.38722,718.55303
2036.53482,718.55303
2038.68241,718.55303
2040.83001,718.55303
2042.97761,718.55303
2045.1252,718.55303
2047.2728,718.55303
2049.4204,718.55303
2051.56799,718.55303
2053.71559,718.55303
2055.86319,718.55303
2058.01078,718.55303
2060.15838,718.55303
2062.30598,718.55303
2064.45357,718.55303
2066.60117,718.55303
2068.74877,718.55303
2070.89636,718.55303
2073.04396,718.55303
2075.19156,718.55303
2077.33915,718.55303
2079.48675,718.55303
2081.63435,718.55303
2083.78194,718.55303
2085.92954,718.55303
2088.07714,718.55303
2090.22473,718.55303
2092.37233,718.55303
2094.51993,718.55303
2096.66753,718.55303
2098.81512,718.55303
2100.96272,718.55303
2103.11032,718.55303
2105.25791,718.55303
2107.40551,718.55303
2109.55311,718.55303
2111.7007,718.55303
2113.8483,718.55303
2115.9959,718.55303
2118.14349,718.55303
2120.29109,718.55303
2122.43869,718.55303
2124.58628,718.55303
2126.73388,718.55303
2128.88148,718.55303
2131.02907,718.55303
2133.17667,718.55303
2135.32427,718.55303
2137.47186,718.55303
2139.61946,718.55303
2141.76706,718.55303
2143.91465,718.55303
2146.06225,719.87354
2148.20985,721.19405
2150.35744,722.51456
2152.50504,723.83507
2154.65264,722.51456
2156.80023,722.51456
2158.94783,722.51456
2161.09543,721.19405
2163.24302,722.51456
2165.39062,723.83507
2167.53822,723.83507
2169.68581,722.51456
2171.83341,721.19405
2173.98101,722.51456
2176.1286,721.19405
2178.2762,722.51456
2180.4238,723.83507
2182.57139,723.83507
2184.71899,723.83507
2186.86659,722.51456
2189.01418,721.19405
2191.16178,719.87354
2193.30938,718.55303
2195.45697,718.55303
2197.60457,718.55303
2199.75217,718.55303
2201.89976,718.55303
2204.04736,718.55303
2206.19496,718.55303
2208.34255,718.55303
2210.49015,717.23252
2212.63775,717.23252
2214.78534,717.23252
2216.93294,717.23252
2219.08054,717.23252
2221.22813,717.23252
2223.37573,717.23252
2225.52333,717.23252
2227.67092,717.23252
2229.81852,718.55303
2231.96612,719.87354
2234.11371,721.19405
2236.26131,722.51456
2238.40891,722.51456
2240.5565,722.51456
2242.7041,722.51456
2244.8517,722.51456
2246.99929,722.51456
2249.14689,722.51456
2251.29449,722.51456
2253.44208,722.51456
2255.58968,722.51456
2257.73728,722.51456
2259.88487,722.51456
2262.03247,722.51456
2264.18007,722.51456
2266.32766,722.51456
2268.47526,722.51456
2270.62286,722.51456
2272.77045,722.51456
2274.91805,722.51456
2277.06565,722.51456
2279.21324,722.51456
2281.36084,722.51456
2283.50844,722.51456
2285.65603,722.51456
2287.80363,722.51456
2289.95123,722.51456
2292.09882,722.51456
2294.24642,722.51456
2296.39402,722.51456
2298.54161,722.51456
2300.68921,722.51456
2302.83681,722.51456
2304.9844,722.51456
2307.132,722.51456
2309.2796,722.51456
2311.42719,722.51456
2313.57479,723.83507
2315.72239,723.83507
2317.86998,723.83507
2320.01758,723.83507
2322.16518,723.83507
2324.31277,723.83507
2326.46037,723.83507
2328.60797,722.51456
2330.75556,721.19405
2332.90316,719.87354
2335.05076,718.55303
2337.19835,718.55303
2339.34595,718.55303
2341.49355,718.55303
2343.64114,718.55303
2345.78874,718.55303
2347.93634,718.55303
2350.08393,718.55303
2352.23153,718.55303
2354.37913,718.55303
2356.52672,718.55303
2358.67432,718.55303
2360.82192,718.55303
2362.96951,718.55303
2365.11711,718.55303
2367.26471,718.55303
2369.4123,718.55303
2371.5599,719.87354
2373.7075,721.19405
2375.85509,722.51456
2378.00269,723.83507
2380.15029,723.83507
2382.29788,722.51456
2384.44548,722.51456
2386.59308,723.83507
2388.74067,723.83507
2390.88827,723.83507
2393.03587,723.83507
2395.18346,723.83507
2397.33106,723.83507
2399.47866,723.83507
2401.62625,723.83507
2403.77385,723.83507
2405.92145,723.83507
2408.06904,723.83507
2410.21664,723.83507
2412.36424,725.15558
2414.51183,725.15558
2416.65943,725.15558
2418.80703,725.15558
2420.95462,725.15558
2423.10222,725.15558
2425.24982,725.15558
2427.39741,725.15558
2429.54501,723.83507
2431.69261,725.15558
2433.8402,725.15558
2435.9878,725.15558
2438.1354,725.15558
2440.28299,725.15558
2442.43059,725.15558
2444.57819,725.15558
2446.72578,725.15558
2448.87338,726.47609
2451.02098,726.47609
2453.16857,726.47609
2455.31617,726.47609
2457.46377,726.47609
2459.61136,726.47609
2461.75896,726.47609
2463.90656,726.47609
2466.05415,727.7966
2468.20175,727.7966
2470.34935,727.7966
2472.49694,727.7966
2474.64454,727.7966
2476.79214,727.7966
2478.93973,727.7966
2481.08733,727.7966
2483.23493,729.11711
2485.38252,729.11711
2487.53012,729.11711
2489.67772,729.11711
2491.82531,729.11711
2493.97291,729.11711
2496.12051,727.7966
2498.2681,726.47609
2500.4157,725.15558
2502.5633,723.83507
2504.71089,723.83507
2506.85849,723.83507
2509.00609,723.83507
2511.15368,723.83507
2513.30128,722.51456
2515.44888,722.51456
2517.59647,722.51456
2519.74407,722.51456
2521.89167,722.51456
2524.03926,722.51456
2526.18686,722.51456
2528.33446,722.51456
2530.48205,722.51456
2532.62965,722.51456
2534.77725,722.51456
2536.92484,722.51456
2539.07244,722.51456
2541.22004,722.51456
2543.36763,721.19405
2545.51523,721.19405
2547.66283,722.51456
2549.81042,721.19405
2551.95802,721.19405
2554.10562,719.87354
2556.25321,719.87354
2558.40081,719.87354
2560.54841,719.87354
2562.696,719.87354
2564.8436,719.87354
2566.9912,718.55303
2569.13879,718.55303
2571.28639,718.55303
2573.43399,719.87354
2575.58158,718.55303
2577.72918,718.55303
2579.87678,717.23252
2582.02437,717.23252
2584.17197,717.23252
2586.31957,717.23252
2588.46716,717.23252
2590.61476,717.23252
2592.76236,717.23252
2594.90995,717.23252
2597.05755,718.55303
2599.20515,719.87354
2601.35274,721.19405
2603.50034,722.51456
2605.64794,722.51456
2607.79553,722.51456
2609.94313,722.51456
2612.09073,722.51456
2614.23832,722.51456
2616.38592,723.83507
2618.53352,723.83507
2620.68111,723.83507
2622.82871,723.83507
2624.97631,723.83507
2627.1239,723.83507
2629.2715,723.83507
2631.4191,723.83507
2633.56669,723.83507
2635.71429,723.83507
2637.86189,723.83507
2640.00948,723.83507
2642.15708,723.83507
2644.30468,723.83507
2646.45227,723.83507
2648.59987,723.83507
2650.74747,723.83507
2652.89506,723.83507
2655.04266,723.83507
2657.19026,723.83507
2659.33785,723.83507
2661.48545,723.83507
2663.63305,722.51456
2665.78064,721.19405
2667.92824,719.87354
2670.07584,718.55303
2672.22343,718.55303
2674.37103,718.55303
2676.51863,719.87354
2678.66622,719.87354
2680.81382,718.55303
2682.96142,718.55303
2685.10901,718.55303
2687.25661,718.55303
2689.40421,718.55303
2691.5518,718.55303
2693.6994,718.55303
2695.847,719.87354
2697.99459,721.19405
2700.14219,722.51456
2702.28979,723.83507
2704.43738,723.83507
2706.58498,723.83507
2708.73258,723.83507
2710.88017,723.83507
2713.02777,723.83507
2715.17537,723.83507
2717.32296,723.83507
2719.47056,723.83507
2721.61816,723.83507
2723.76575,723.83507
2725.91335,723.83507
2728.06095,723.83507
2730.20854,723.83507
2732.35614,723.83507
2734.50374,723.83507
2736.65133,723.83507
2738.79893,723.83507
2740.94653,723.83507
2743.09412,723.83507
2745.24172,723.83507
2747.38932,723.83507
2749.53692,723.83507
2751.68451,723.83507
2753.83211,725.15558
2755.97971,725.15558
2758.1273,725.15558
2760.2749,725.15558
2762.4225,725.15558
2764.57009,725.15558
2766.71769,725.15558
2768.86529,725.15558
2771.01288,726.47609
2773.16048,726.47609
2775.30808,726.47609
2777.45567,726.47609
2779.60327,726.47609
2781.75087,726.47609
2783.89846,726.47609
2786.04606,726.47609
2788.19366,727.7966
2790.34125,727.7966
2792.48885,726.47609
2794.63645,727.7966
2796.78404,727.7966
2798.93164,729.11711
2801.07924,729.11711
2803.22683,729.11711
2805.37443,727.7966
2807.52203,729.11711
2809.66962,729.11711
2811.81722,730.43762
2813.96482,730.43762
2816.11241,730.43762
2818.26001,729.11711
2820.40761,730.43762
2822.5552,730.43762
2824.7028,731.75812
2826.8504,731.75812
2828.99799,731.75812
2831.14559,731.75812
2833.29319,730.43762
2835.44078,731.75812
2837.58838,731.75812
2839.73598,731.75812
2841.88357,731.75812
2844.03117,733.07863
2846.17877,733.07863
2848.32636,733.07863
2850.47396,733.07863
2852.62156,733.07863
2854.76915,733.07863
2856.91675,733.07863
2859.06435,733.07863
2861.21194,733.07863
2863.35954,733.07863
2865.50714,733.07863
2867.65473,733.07863
2869.80233,733.07863
2871.94993,734.39914
2874.09752,734.39914
2876.24512,734.39914
2878.39272,733.07863
2880.54031,734.39914
2882.68791,734.39914
2884.83551,735.71965
2886.9831,735.71965
2889.1307,735.71965
2891.2783,734.39914
2893.42589,735.71965
2895.57349,735.71965
2897.72109,735.71965
2899.86868,737.04016
2902.01628,737.04016
2904.16388,737.04016
2906.31147,737.04016
2908.45907,737.04016
2910.60667,737.04016
2912.75426,737.04016
2914.90186,737.04016
2917.04946,738.36067
2919.19705,738.36067
2921.34465,738.36067
2923.49225,738.36067
2925.63984,738.36067
2927.78744,738.36067
2929.93504,738.36067
2932.08263,738.36067
2934.23023,738.36067
2936.37783,738.36067
2938.52542,737.04016
2940.67302,738.36067
2942.82062,738.36067
2944.96821,738.36067
2947.11581,738.36067
2949.26341,738.36067
2951.411,738.36067
2953.5586,738.36067
2955.7062,738.36067
2957.85379,738.36067
2960.00139,739.68118
2962.14899,739.68118
2964.29658,739.68118
2966.44418,739.68118
2968.59178,739.68118
2970.73937,739.68118
2972.88697,739.68118
2975.03457,739.68118
2977.18216,739.68118
2979.32976,739.68118
2981.47736,739.68118
2983.62495,741.00169
2985.77255,741.00169
2987.92015,741.00169
2990.06774,741.00169
2992.21534,741.00169
2994.36294,741.00169
2996.51053,741.00169
2998.65813,741.00169
3000.80573,742.3222
3002.95332,742.3222
3005.10092,742.3222
3007.24852,742.3222
3009.39611,742.3222
3011.54371,742.3222
3013.69131,742.3222
3015.8389,742.3222
3017.9865,742.3222
3020.1341,742.3222
3022.28169,742.3222
3024.42929,742.3222
3026.57689,743.64271
3028.72448,743.64271
3030.87208,743.64271
3033.01968,743.64271
3035.16727,744.96322
3037.31487,744.96322
3039.46247,744.96322
3041.61006,746.28373
3043.75766,746.28373
3045.90526,746.28373
3048.05285,744.96322
3050.20045,743.64271
3052.34805,743.64271
3054.49564,744.96322
3054.49564,743.64271
3056.64324,744.96322
3058.79084,744.96322
3058.79084,746.28373
3060.93843,746.28373
3063.08603,747.60424
3063.08603,746.28373
3065.23363,748.92475
3065.23363,747.60424
3067.38122,750.24526
3067.38122,748.92475
3069.52882,751.56576
3069.52882,750.24526
3071.67642,752.88627
3071.67642,751.56576
3071.67642,755.52729
3071.67642,756.8478
3071.67642,758.16831
3071.67642,754.20678
3073.82401,759.48882
3073.82401,758.16831
3075.97161,760.80933
3075.97161,759.48882
3078.11921,760.80933
3078.11921,763.45035
3078.11921,762.12984
3080.2668,763.45035
3080.2668,764.77086
3082.4144,764.77086
3082.4144,767.41188
3082.4144,766.09137
3084.562,767.41188
3086.70959,768.73239
3086.70959,767.41188
3086.70959,770.0529
3086.70959,771.3734
3088.85719,774.01442
3088.85719,772.69391
3091.00479,775.33493
3091.00479,776.65544
3091.00479,774.01442
3093.15238,779.29646
3093.15238,777.97595
3095.29998,780.61697
3095.29998,781.93748
3095.29998,779.29646
3097.44758,783.25799
3097.44758,781.93748
3099.59517,784.5785
3099.59517,783.25799
3101.74277,787.21952
3101.74277,785.89901
3101.74277,789.86054
3101.74277,788.54003
3103.89037,791.18104
3106.03796,791.18104
3108.18556,791.18104
3110.33316,791.18104
3112.48075,792.50155
3112.48075,793.82206
3112.48075,791.18104
3114.62835,795.14257
3114.62835,793.82206
3114.62835,796.46308
3116.77595,797.78359
3116.77595,799.1041
3116.77595,796.46308
3118.92354,799.1041
3118.92354,800.42461
3118.92354,801.74512
3121.07114,803.06563
3121.07114,804.38614
3121.07114,801.74512
3123.21874,805.70665
3123.21874,804.38614
3125.36633,805.70665
3125.36633,808.34767
3125.36633,809.66818
3125.36633,810.98868
3125.36633,812.30919
3125.36633,813.6297
3125.36633,807.02716
3125.36633,814.95021
3127.51393,814.95021
3129.66153,816.27072
3129.66153,814.95021
3131.80912,816.27072
3131.80912,817.59123
3133.95672,817.59123
3136.10432,817.59123
3138.25191,816.27072
3140.39951,817.59123
3142.54711,818.91174
3144.6947,817.59123
3146.8423,816.27072
3148.9899,814.95021
3151.13749,813.6297
3153.28509,813.6297
3155.43269,813.6297
3157.58028,813.6297
3159.72788,813.6297
3161.87548,813.6297
3164.02307,813.6297
3166.17067,814.95021
3168.31827,814.95021
3170.46586,814.95021
3172.61346,814.95021
3174.76106,816.27072
3174.76106,818.91174
3174.76106,820.23225
3174.76106,821.55276
3174.76106,822.87327
3174.76106,817.59123
3176.90865,824.19378
3176.90865,822.87327
3179.05625,824.19378
3181.20385,825.51429
3181.20385,824.19378
3183.35144,826.8348
3183.35144,825.51429
3185.49904,828.15531
3185.49904,826.8348
3187.64664,829.47582
3187.64664,828.15531
3189.79423,830.79632
3189.79423,829.47582
3191.94183,830.79632
3194.08943,832.11683
3194.08943,830.79632
3196.23702,833.43734
3196.23702,832.11683
3198.38462,834.75785
3198.38462,833.43734
3200.53222,837.39887
3200.53222,836.07836
3202.67981,838.71938
3202.67981,837.39887
3204.82741,838.71938
3204.82741,840.03989
3206.97501,841.3604
3206.97501,840.03989
3209.1226,842.68091
3209.1226,841.3604
3211.2702,842.68091
3213.4178,844.00142
3213.4178,842.68091
3215.56539,845.32193
3215.56539,844.00142
3217.71299,846.64244
3217.71299,845.32193
3219.86059,847.96295
3219.86059,846.64244
3222.00818,849.28346
3222.00818,847.96295
3224.15578,849.28346
3226.30338,850.60396
3226.30338,849.28346
3228.45097,850.60396
3230.59857,850.60396
3230.59857,851.92447
3232.74617,853.24498
3232.74617,851.92447
3234.89376,853.24498
3237.04136,855.886
3237.04136,854.56549
3239.18896,857.20651
3241.33655,858.52702
3241.33655,857.20651
3243.48415,858.52702
3245.63175,858.52702
3245.63175,859.84753
3247.77934,861.16804
3247.77934,859.84753
3249.92694,862.48855
3249.92694,861.16804
3252.07454,863.80906
3252.07454,862.48855
3254.22213,863.80906
3256.36973,865.12957
3256.36973,863.80906
3258.51733,865.12957
3258.51733,866.45008
3260.66492,866.45008
3262.81252,866.45008
3264.96012,867.77059
3267.10771,867.77059
3269.25531,869.0911
3269.25531,867.77059
3271.40291,870.4116
3271.40291,869.0911
3273.5505,871.73211
3273.5505,870.4116
3275.6981,873.05262
3277.8457,874.37313
3277.8457,875.69364
3277.8457,873.05262
3279.99329,875.69364
3282.14089,877.01415
3282.14089,879.65517
3282.14089,880.97568
3282.14089,878.33466
3284.28849,880.97568
3286.43608,880.97568
3288.58368,882.29619
3288.58368,884.93721
3288.58368,883.6167
3290.73128,886.25772
3290.73128,884.93721
3292.87887,887.57823
3292.87887,886.25772
3295.02647,887.57823
3295.02647,890.21924
3295.02647,891.53975
3295.02647,892.86026
3295.02647,894.18077
3295.02647,895.50128
3295.02647,888.89874
3297.17407,895.50128
3299.32166,896.82179
3299.32166,895.50128
3301.46926,896.82179
3303.61686,895.50128
3305.76445,894.18077
3307.91205,892.86026
3310.05965,892.86026
3312.20724,892.86026
3314.35484,894.18077
3316.50244,895.50128
3318.65003,894.18077
3320.79763,895.50128
3322.94523,896.82179
3325.09282,895.50128
3327.24042,894.18077
3329.38802,892.86026
3331.53561,891.53975
3333.68321,892.86026
3335.83081,892.86026
3337.9784,892.86026
3340.126,895.50128
3340.126,896.82179
3340.126,898.1423
3340.126,899.46281
3340.126,900.78332
3340.126,894.18077
3342.2736,902.10383
3342.2736,900.78332
3344.42119,902.10383
3346.56879,902.10383
3348.71639,902.10383
3350.86398,902.10383
3350.86398,903.42434
3353.01158,903.42434
3355.15918,904.74485
3355.15918,903.42434
3357.30677,906.06536
3357.30677,904.74485
3359.45437,906.06536
3359.45437,907.38587
3359.45437,910.02688
3359.45437,908.70638
3361.60197,911.34739
3361.60197,910.02688
3363.74956,912.6679
3365.89716,913.98841
3365.89716,912.6679
3368.04476,915.30892
3368.04476,913.98841
3370.19235,915.30892
3372.33995,916.62943
3372.33995,917.94994
3372.33995,919.27045
3374.48755,920.59096
3374.48755,921.91147
3374.48755,919.27045
3376.63514,923.23198
3378.78274,923.23198
3378.78274,924.55249
3380.93034,925.873
3380.93034,924.55249
3383.07793,928.51402
3383.07793,929.83452
3383.07793,927.19351
3385.22553,931.15503
3385.22553,929.83452
3387.37313,933.79605
3387.37313,932.47554
3389.52072,935.11656
3389.52072,933.79605
3391.66832,936.43707
3391.66832,935.11656
3393.81592,937.75758
3393.81592,936.43707
3395.96352,939.07809
3398.11111,941.71911
3398.11111,940.3986
3400.25871,943.03962
3400.25871,944.36013
3400.25871,941.71911
3402.40631,944.36013
3402.40631,947.00115
3402.40631,948.32166
3402.40631,949.64216
3402.40631,945.68064
3402.40631,952.28318
3402.40631,950.96267
3404.5539,952.28318
3406.7015,953.60369
3406.7015,952.28318
3408.8491,954.9242
3408.8491,953.60369
3410.99669,953.60369
3413.14429,952.28318
3415.29189,953.60369
3417.43948,954.9242
3419.58708,954.9242
3421.73468,953.60369
3421.73468,952.28318
3421.73468,950.96267
3421.73468,949.64216
3421.73468,948.32166
3421.73468,954.9242
3423.88227,948.32166
3423.88227,945.68064
3423.88227,947.00115
3426.02987,945.68064
3428.17747,945.68064
3430.32506,945.68064
3432.47266,945.68064
3434.62026,945.68064
3434.62026,943.03962
3434.62026,941.71911
3434.62026,944.36013
3436.76785,941.71911
3438.91545,941.71911
3438.91545,940.3986
3441.06305,939.07809
3441.06305,937.75758
3441.06305,940.3986
3443.21064,937.75758
3443.21064,935.11656
3443.21064,936.43707
3443.21064,933.79605
3445.35824,933.79605
3447.50584,932.47554
3447.50584,931.15503
3449.65343,928.51402
3449.65343,929.83452
3449.65343,925.873
3449.65343,927.19351
3451.80103,924.55249
3451.80103,923.23198
3451.80103,925.873
3453.94863,921.91147
3453.94863,919.27045
3456.09622,920.59096
3456.09622,919.27045
3458.24382,916.62943
3458.24382,915.30892
3458.24382,917.94994
3460.39142,913.98841
3460.39142,912.6679
3462.53901,910.02688
3462.53901,908.70638
3462.53901,907.38587
3462.53901,906.06536
3462.53901,904.74485
3462.53901,911.34739
3464.68661,904.74485
3466.83421,903.42434
3466.83421,904.74485
3468.9818,900.78332
3468.9818,902.10383
3468.9818,899.46281
3468.9818,898.1423
3468.9818,892.86026
3471.1294,898.1423
3471.1294,896.82179
3471.1294,894.18077
3471.1294,892.86026
3471.1294,895.50128
3473.277,892.86026
3475.42459,891.53975
3475.42459,892.86026
3477.57219,888.89874
3477.57219,887.57823
3477.57219,890.21924
3479.71979,886.25772
3479.71979,884.93721
3479.71979,887.57823
3481.86738,884.93721
3484.01498,883.6167
3484.01498,880.97568
3484.01498,882.29619
3486.16258,879.65517
3486.16258,878.33466
3486.16258,880.97568
3488.31017,877.01415
3488.31017,878.33466
3490.45777,875.69364
3490.45777,877.01415
3492.60537,874.37313
3492.60537,875.69364
3494.75296,873.05262
3494.75296,871.73211
3494.75296,874.37313
3496.90056,873.05262
3496.90056,871.73211
3496.90056,870.4116
3499.04816,870.4116
3499.04816,869.0911
3499.04816,871.73211
3501.19575,869.0911
3501.19575,870.4116
3501.19575,867.77059
3503.34335,866.45008
3503.34335,869.0911
3505.49095,865.12957
3505.49095,866.45008
3505.49095,867.77059
3507.63854,863.80906
3507.63854,865.12957
3507.63854,867.77059
3509.78614,866.45008
3509.78614,863.80906
3509.78614,862.48855
3511.93374,862.48855
3511.93374,857.20651
3511.93374,858.52702
3511.93374,859.84753
3511.93374,861.16804
3511.93374,865.12957
3514.08133,863.80906
3514.08133,862.48855
3514.08133,861.16804
3514.08133,859.84753
3514.08133,857.20651
3514.08133,855.886
3516.22893,855.886
3516.22893,859.84753
3516.22893,854.56549
3516.22893,858.52702
3518.37653,854.56549
3518.37653,858.52702
3518.37653,853.24498
3520.52412,853.24498
3520.52412,857.20651
3520.52412,858.52702
3522.67172,855.886
3522.67172,853.24498
3522.67172,857.20651
3524.81932,853.24498
3524.81932,850.60396
3524.81932,849.28346
3524.81932,846.64244
3524.81932,847.96295
3524.81932,855.886
3524.81932,851.92447
3526.96691,845.32193
3526.96691,846.64244
3526.96691,854.56549
3529.11451,853.24498
3529.11451,845.32193
3529.11451,851.92447
3531.26211,846.64244
3531.26211,847.96295
3531.26211,844.00142
3531.26211,845.32193
3531.26211,849.28346
3531.26211,850.60396
3533.4097,846.64244
3533.4097,844.00142
3535.5573,842.68091
3535.5573,845.32193
3537.7049,842.68091
3537.7049,844.00142
3539.85249,844.00142
3539.85249,841.3604
3542.00009,844.00142
3544.14769,844.00142
3546.29528,851.92447
3546.29528,853.24498
3546.29528,846.64244
3546.29528,845.32193
3546.29528,850.60396
3546.29528,847.96295
3546.29528,849.28346
3548.44288,853.24498
3550.59048,853.24498
3552.73807,853.24498
3552.73807,854.56549
3554.88567,877.01415
3554.88567,865.12957
3554.88567,880.97568
3554.88567,882.29619
3554.88567,862.48855
3554.88567,857.20651
3554.88567,855.886
3554.88567,858.52702
3554.88567,859.84753
3554.88567,861.16804
3554.88567,878.33466
3554.88567,874.37313
3557.03327,873.05262
3557.03327,875.69364
3557.03327,863.80906
3557.03327,866.45008
3557.03327,879.65517
3557.03327,883.6167
3559.18086,867.77059
3559.18086,871.73211
3559.18086,884.93721
3559.18086,886.25772
3559.18086,887.57823
3559.18086,892.86026
3559.18086,869.0911
3561.32846,895.50128
3561.32846,894.18077
3561.32846,891.53975
3561.32846,888.89874
3561.32846,870.4116
3561.32846,896.82179
3563.47606,899.46281
3563.47606,890.21924
3563.47606,898.1423
3563.47606,896.82179
3565.62365,903.42434
3565.62365,902.10383
3565.62365,899.46281
3565.62365,900.78332
3567.77125,903.42434
3569.91885,906.06536
3569.91885,903.42434
3572.06644,904.74485
3572.06644,908.70638
3572.06644,910.02688
3572.06644,903.42434
3572.06644,907.38587
3574.21404,910.02688
3574.21404,908.70638
3574.21404,906.06536
3576.36164,906.06536
3576.36164,907.38587
3576.36164,904.74485
3578.50923,904.74485
3580.65683,903.42434
3580.65683,887.57823
3580.65683,902.10383
3580.65683,900.78332
3580.65683,899.46281
3580.65683,898.1423
3580.65683,896.82179
3580.65683,895.50128
3580.65683,894.18077
3580.65683,892.86026
3580.65683,891.53975
3580.65683,890.21924
3580.65683,888.89874
3580.65683,886.25772
3582.80443,884.93721
3582.80443,880.97568
3582.80443,879.65517
3582.80443,883.6167
3584.95202,878.33466
3584.95202,882.29619
3584.95202,871.73211
3584.95202,877.01415
3584.95202,873.05262
3584.95202,874.37313
3587.09962,875.69364
3587.09962,863.80906
3587.09962,870.4116
3587.09962,869.0911
3587.09962,865.12957
3587.09962,866.45008
3589.24722,867.77059
3589.24722,854.56549
3589.24722,862.48855
3589.24722,861.16804
3589.24722,859.84753
3589.24722,855.886
3589.24722,857.20651
3591.39481,858.52702
3591.39481,845.32193
3591.39481,853.24498
3591.39481,851.92447
3591.39481,850.60396
3591.39481,846.64244
3591.39481,847.96295
3593.54241,849.28346
3593.54241,840.03989
3593.54241,844.00142
3593.54241,842.68091
3593.54241,838.71938
3595.69001,830.79632
3595.69001,841.3604
3595.69001,837.39887
3595.69001,836.07836
3595.69001,833.43734
3595.69001,832.11683
3597.8376,834.75785
3597.8376,820.23225
3597.8376,825.51429
3597.8376,826.8348
3597.8376,828.15531
3597.8376,829.47582
3597.8376,821.55276
3597.8376,822.87327
3597.8376,824.19378
3599.9852,813.6297
3599.9852,814.95021
3599.9852,818.91174
3599.9852,812.30919
3599.9852,817.59123
3602.1328,807.02716
3602.1328,810.98868
3602.1328,816.27072
3602.1328,809.66818
3602.1328,805.70665
3604.28039,803.06563
3604.28039,808.34767
3604.28039,804.38614
3606.42799,792.50155
3606.42799,791.18104
3606.42799,801.74512
3606.42799,800.42461
3606.42799,799.1041
3606.42799,796.46308
3606.42799,795.14257
3606.42799,793.82206
3606.42799,797.78359
3608.57559,789.86054
3608.57559,788.54003
3608.57559,784.5785
3608.57559,785.89901
3608.57559,787.21952
3610.72318,783.25799
3610.72318,781.93748
3612.87078,780.61697
3615.01838,771.3734
3615.01838,772.69391
3615.01838,777.97595
3615.01838,776.65544
3615.01838,775.33493
3615.01838,779.29646
3617.16597,767.41188
3617.16597,770.0529
3617.16597,774.01442
3617.16597,768.73239
3619.31357,766.09137
3619.31357,764.77086
3621.46117,763.45035
3621.46117,762.12984
3623.60876,763.45035
3623.60876,760.80933
3625.75636,759.48882
3625.75636,763.45035
3625.75636,758.16831
3625.75636,756.8478
3625.75636,755.52729
3627.90396,763.45035
3627.90396,754.20678
3627.90396,755.52729
3630.05155,754.20678
3630.05155,752.88627
3630.05155,760.80933
3630.05155,763.45035
3630.05155,762.12984
3632.19915,751.56576
3632.19915,759.48882
3632.19915,760.80933
3632.19915,750.24526
3632.19915,752.88627
3634.34675,759.48882
3634.34675,748.92475
3634.34675,750.24526
3634.34675,758.16831
3634.34675,756.8478
3636.49434,756.8478
3636.49434,748.92475
3636.49434,747.60424
3638.64194,755.52729
3638.64194,747.60424
3640.78954,754.20678
3640.78954,747.60424
3642.93713,747.60424
3642.93713,752.88627
3642.93713,754.20678
3645.08473,747.60424
3645.08473,746.28373
3645.08473,752.88627
3647.23233,746.28373
3647.23233,752.88627
3647.23233,751.56576
3649.37992,751.56576
3649.37992,750.24526
3649.37992,746.28373
3649.37992,744.96322
3651.52752,750.24526
3651.52752,748.92475
3651.52752,744.96322
3651.52752,743.64271
3651.52752,747.60424
3653.67512,743.64271
3655.82271,743.64271
3657.97031,742.3222
3660.11791,741.00169
3662.2655,741.00169
3664.4131,738.36067
3664.4131,739.68118
3666.5607,738.36067
3668.70829,738.36067
3668.70829,737.04016
3670.85589,737.04016
3670.85589,735.71965
3670.85589,734.39914
3670.85589,733.07863
3670.85589,730.43762
3670.85589,731.75812
3673.00349,730.43762
3675.15108,730.43762
3677.29868,730.43762
3679.44628,730.43762
3681.59387,729.11711
3683.74147,729.11711
3685.88907,727.7966
3688.03666,727.7966
3690.18426,726.47609
3692.33186,726.47609
3694.47945,725.15558
3696.62705,725.15558
3698.77465,725.15558
3700.92224,725.15558
3703.06984,723.83507
3705.21744,723.83507
3707.36503,723.83507
3709.51263,723.83507
3711.66023,722.51456
3713.80782,722.51456
3715.95542,722.51456
3718.10302,722.51456
3720.25061,722.51456
3722.39821,722.51456
3724.54581,721.19405
3726.6934,721.19405
3728.841,721.19405
3730.9886,721.19405
3733.13619,721.19405
3735.28379,721.19405
3737.43139,721.19405
3739.57898,721.19405
3741.72658,721.19405
3743.87418,719.87354
3746.02177,719.87354
3748.16937,719.87354
3750.31697,719.87354
3752.46456,719.87354
3754.61216,719.87354
3756.75976,719.87354
3758.90735,719.87354
3761.05495,719.87354
3763.20255,719.87354
3765.35014,719.87354
3767.49774,719.87354
3769.64534,718.55303
3771.79293,718.55303
3773.94053,718.55303
3776.08813,718.55303
3778.23572,718.55303
3780.38332,718.55303
3782.53092,718.55303
3784.67851,718.55303
3786.82611,719.87354
3788.97371,721.19405
3791.1213,722.51456
3793.2689,723.83507
3795.4165,723.83507
3797.56409,723.83507
3799.71169,723.83507
3801.85929,723.83507
3804.00688,723.83507
3806.15448,723.83507
3808.30208,723.83507
3810.44967,723.83507
3812.59727,723.83507
3814.74487,723.83507
3816.89246,723.83507
3819.04006,723.83507
3821.18766,723.83507
3823.33525,723.83507
3825.48285,723.83507
3827.63045,723.83507
3829.77804,722.51456
3831.92564,721.19405
3834.07324,719.87354
3836.22083,718.55303
3838.36843,718.55303
3840.51603,718.55303
3842.66362,718.55303
3844.81122,718.55303
3846.95882,718.55303
3849.10641,718.55303
3851.25401,718.55303
3853.40161,719.87354
3855.5492,719.87354
3857.6968,719.87354
3859.8444,719.87354
3861.99199,719.87354
3864.13959,719.87354
3866.28719,719.87354
3868.43478,719.87354
3870.58238,719.87354
3872.72998,719.87354
3874.87757,719.87354
3877.02517,719.87354
3879.17277,719.87354
3881.32036,719.87354
3883.46796,719.87354
3885.61556,719.87354
3887.76315,719.87354
3889.91075,719.87354
3892.05835,719.87354
3894.20594,719.87354
3896.35354,719.87354
3898.50114,719.87354
3900.64873,719.87354
3902.79633,719.87354
3904.94393,719.87354
3907.09152,719.87354
3909.23912,719.87354
3911.38672,719.87354
3913.53431,719.87354
3915.68191,719.87354
3917.82951,719.87354
3919.9771,719.87354
3922.1247,719.87354
3924.2723,719.87354
3926.41989,719.87354
3928.56749,719.87354
3930.71509,719.87354
3932.86268,719.87354
3935.01028,719.87354
3937.15788,721.19405
3939.30547,722.51456
3941.45307,721.19405
3943.60067,719.87354
3945.74826,719.87354
3947.89586,719.87354
3950.04346,719.87354
3952.19105,721.19405
3954.33865,721.19405
3956.48625,721.19405
3958.63384,721.19405
3960.78144,721.19405
3962.92904,721.19405
3965.07663,721.19405
3967.22423,721.19405
3969.37183,721.19405
3971.51942,721.19405
3973.66702,721.19405
3975.81462,721.19405
3977.96221,721.19405
3980.10981,721.19405
3982.25741,722.51456
3984.405,723.83507
3986.5526,723.83507
3988.7002,723.83507
3990.84779,723.83507
3992.99539,723.83507
3995.14299,723.83507
3997.29058,723.83507
3999.43818,723.83507
4001.58578,723.83507
