Raman Shift,Intensity
214.3785040343428,-125.059
224.78145843945092,-78.162
235.01908334044856,99.005
245.41130867789616,112.032
255.63837774522108,-148.507
265.8602158678186,-54.713
276.23642015571386,-80.767
286.44772684514464,2.605
296.8132434111685,-46.897
307.0140349346475,10.422
317.209615658554,184.983
327.399989574551,369.965
337.7442627077253,-96.399
347.9241537664129,54.713
358.09885002992814,52.108
368.2683554736213,234.485
378.5914504125685,44.292
388.7505051753542,39.081
398.90438108190574,31.265
409.0530820913264,-200.615
419.196612158652,-114.637
429.3349752349313,216.247
439.626465572117,99.005
449.75442592354375,156.323
459.8772311743669,265.75
469.994885259468,263.144
480.1073921097559,221.458
490.2147556521086,380.387
500.31697980943136,338.7
510.41406850063504,385.597
520.5060256406359,406.441
530.5928551403995,161.534
540.6745609068894,521.078
550.7511468431039,364.754
560.8226168481124,244.907
570.888974816975,143.296
580.9502246408374,419.468
590.8492821665859,359.544
600.9004070215597,338.7
610.9464353206786,781.617
620.9873709393651,445.521
631.0232177491416,1409.515
641.0539796175653,1865.458
650.9230482019848,2540.254
660.9437310766662,1894.117
670.9593405290361,872.805
680.9698804110958,416.862
690.8190579752118,742.536
700.8195493193562,442.916
710.8149825658329,484.602
720.805361551138,487.208
730.6347081696804,627.899
740.6150689503047,403.835
750.4345613154874,224.063
760.404918953056,349.122
770.3702413346182,328.279
780.174941402227,330.884
790.1302832356378,411.651
799.925166080895,135.48
809.8705423523497,505.445
819.6556227125038,325.674
829.5910483782136,294.409
839.3663409610526,396.019
849.2918309472952,398.624
859.0573504311833,333.49
868.972919634427,461.154
878.7286806683987,59.924
888.6343439553166,403.835
898.3803611591502,247.512
908.12155022542,317.857
918.0124213310264,218.853
927.743888384779,187.588
937.4705381077074,265.75
947.3466501411676,588.818
957.0635996041163,382.992
966.7757425107702,-7.816
976.6371284824854,437.705
986.3395928168538,812.881
996.0372613373548,1474.65
1005.7301375988682,2170.288
1015.5719657306544,2245.845
1025.255192198514,1539.785
1034.9336371072422,797.249
1044.6073039976543,526.288
1054.2761964070742,666.979
1063.9403178693246,450.732
1073.5996719147442,466.365
1083.4074711432768,432.494
1093.057225399156,416.862
1102.70222286418,747.746
1112.3424670547538,450.732
1121.9779614837898,463.759
1131.6087096607444,565.369
1141.2347150916105,463.759
1150.855981278939,237.09
1160.4725117218331,633.109
1170.0843099159465,476.786
1179.6913793534914,122.453
1189.293723523253,557.553
1198.739039559725,440.311
1208.3320185130287,343.911
1217.9202825891407,531.499
1227.5038352631818,508.051
1237.0826800068826,411.651
1246.6568202885535,385.597
1256.226259573108,294.409
1265.639216696829,333.49
1275.1993388504195,294.409
1284.7547703264208,229.274
1294.3055145761757,356.938
1303.7000868433097,562.764
1313.241541245312,257.933
1322.778318700337,255.328
1332.310422646282,255.328
1341.686663866676,283.987
1351.2095051416618,351.727
1360.727683146746,346.517
1370.0902294598782,119.848
1379.5991650801443,169.35
1388.9526223370776,226.669
1398.4523290278594,114.637
1407.7967104575073,257.933
1417.287201648047,145.902
1426.7730533080105,659.163
1436.1038095471376,-7.816
1445.5804658554116,359.544
1454.9021792800197,88.583
1464.369653600741,148.507
1473.6823373500883,208.431
1482.9905472474493,289.198
1492.444310209452,192.799
1501.7435100404182,187.588
1511.1881242589734,135.48
1520.4783270994303,359.544
1529.764072276041,661.769
1539.1950247490097,169.35
1548.4717924494323,242.301
1557.7441121511074,148.507
1567.1614324998736,255.328
1576.4247941832873,234.485
1585.6837175051332,255.328
1594.9382056544855,151.113
1604.3374199708342,205.826
1613.5829759239496,158.929
1622.8241063047317,208.431
1632.0608142900164,310.041
1641.2931030535765,239.696
1650.6697762525291,57.319
1659.8931649322622,281.382
1669.1121439444323,200.615
1678.3267164506542,-195.404
1687.53688560953,119.848
1696.7426545766284,260.539
1705.9440265045123,44.292
1715.1410045427183,242.301
1724.3335918377925,132.875
1733.5217915332687,218.853
1742.705606769683,-112.032
1751.8850406845886,127.664
1761.0600964125188,257.933
1770.230777085024,198.01
1779.397085830693,72.951
1788.55902577511,164.139
1797.7166000408906,182.377
1806.8698117476447,437.705
1816.0186640120735,20.843
1825.163159947857,119.848
1834.1559155330324,336.095
1843.29177827917,132.875
1852.4232939699289,200.615
1861.550465707216,109.426
1870.673296589972,166.745
1879.644751645923,-135.48
1888.758979994156,330.884
1897.8688767172423,72.951
1906.974444902422,424.678
1915.9289277003045,138.086
1925.025917750907,132.875
1934.118588458099,234.485
1943.060390766601,132.875
1952.144501554074,-310.041
1961.2243021666216,59.924
1970.153450902042,112.032
1979.224709758193,20.843
1988.1454604369865,112.032
1997.208189584475,156.323
2006.120554048888,156.323
2015.1747655127983,132.875
2024.0787555828572,151.113
2033.12446136566,93.794
2042.0200888391555,80.767
2051.057300920809,-151.113
2059.9445775734057,263.144
2068.9733079113576,96.399
2077.852245496608,65.135
2086.8725060258803,138.086
2095.743116275291,283.987
2104.6096010526526,237.09
2113.6172135316083,351.727
2122.4753884816528,166.745
2131.329446630596,184.983
2140.324437642892,164.139
2149.170203423979,-31.265
2158.011861050589,83.372
2166.994257105456,257.933
2175.8276397748195,127.664
2184.656922912145,195.404
2193.48210937062,78.162
2202.303202000803,166.745
2211.2647105948345,85.978
2220.077557114586,132.875
2228.886318388424,85.978
2237.6909972563008,229.274
2246.4915965555265,65.135
2255.2881191208,169.35
2264.0805677841927,195.404
2272.8689453751285,200.615
2281.6532547204406,286.593
2290.5774032157133,169.35
2299.353517963282,46.897
2308.125572976198,171.956
2316.893571070781,213.642
2325.6575150607823,161.534
2334.273835606975,96.399
2343.029746164546,-52.108
2351.781610997117,330.884
2360.5294329081007,0.0
2369.273214698267,88.583
2378.0129591658333,158.929
2386.7486691064114,164.139
2395.48034731306,208.431
2404.2079965762314,440.311
2412.788641914361,101.61
2421.5083075861257,145.902
2430.2239526247795,216.247
2438.9355798105607,281.382
2447.64319192111,117.242
2456.204142101211,184.983
2464.9037980916983,273.566
2473.5994472792227,179.772
2482.148638712344,119.848
2490.836348166158,286.593
2499.5200590665554,-96.399
2508.0575159626023,216.247
2516.7333034706826,260.539
2525.405100652257,31.265
2533.930847154741,83.372
2542.5947372405863,145.902
2551.112711590584,153.718
2559.768705390503,403.835
2568.2789182109263,156.323
2576.927026515033,203.22
2585.5711635713087,187.588
2594.069721988235,140.691
2602.5644435408976,75.556
2611.196813145194,106.821
2619.683804921093,231.88
2628.3083212822166,140.691
2636.7875938271245,65.135
2645.404267656864,26.054
2653.875831497382,-281.382
2662.343576738021,117.242
2670.948539131641,174.561
2679.408591378582,-182.377
2687.8648328054915,2.605
2696.4581076233444,255.328
2704.906671724595,91.189
2713.351432764532,101.61
2721.792393310454,213.642
2730.370143142005,80.767
2738.8034471581705,192.799
2747.232958411034,0.0
2755.658679458633,122.453
2764.220946338093,41.686
2772.639031576786,5.211
2781.053334313052,158.929
2789.463857095703,135.48
2797.8706024712737,52.108
2806.2735729839987,226.669
2814.672771175843,169.35
2823.0681995864725,75.556
2831.459860753297,44.292
2839.847757211428,166.745
2848.231891493713,164.139
2856.612266130724,302.225
2864.988883650767,156.323
2873.3617465798743,96.399
2881.7308574418275,187.588
2890.096218758139,156.323
2898.457833048058,122.453
2906.815702828586,187.588
2915.169830614461,177.166
2923.5202189181878,49.502
2931.8668702499926,114.637
2940.209787117892,166.745
2948.41001618022,104.216
2956.7455337723804,109.426
2965.077324369493,112.032
2973.405390470638,132.875
2981.7297345726547,65.135
2989.9117125592966,231.88
2998.2286820744484,341.306
3006.5419370261297,336.095
3014.8514799023105,187.588
3023.0189130185245,200.615
3031.3211009634906,234.485
3039.619584242202,255.328
3047.776149306213,278.777
3056.067292329164,263.144
3064.2166442633534,239.696
3072.500456765243,325.674
3080.780576892153,299.62
3088.919096831967,239.696
3097.1919010483834,328.279
3105.3232317767324,539.315
3113.588729774354,588.818
3121.712880813,406.441
3129.9710822664056,601.845
3138.0880631202745,729.509
3146.338977686973,760.773
3154.448797844241,771.195
3162.692435164703,891.043
3170.7951040967964,911.886
3178.894230970407,763.379
3187.127000956163,1081.236
3195.218990740796,807.67
3203.3074454664093,862.384
3211.5293695924192,833.724
3219.610701328027,732.114
3227.688504985643,963.994
3235.899604670318,805.065
3243.9702993997853,857.173
3252.03747301393,750.352
3260.1011278165533,1000.469
3268.297848330192,1021.312
3276.354412870096,846.751
3284.407465536773,799.854
3292.4570086259846,690.428
3300.5030444314834,708.666
3308.545575245,810.276
3316.720827896272,536.71
3324.756296283769,531.499
3332.788266581294,664.374
3340.816741072602,893.648
3348.8417220394404,862.384
3356.8632117615925,1274.035
3364.8812125168406,1029.128
3372.895726580995,1003.075
3380.906756227865,930.124
3388.91430372934,1026.523
3396.918371355256,1214.111
3404.9189613735507,919.702
3412.9160760501472,601.845
3420.909717649003,747.746
3428.8998884321263,849.357
3436.886590659553,677.401
3444.734546370892,515.867
3452.714376952972,591.423
3460.690745709508,685.217
3468.663654892749,560.158
3476.633106752961,257.933
3484.5991035384795,445.521
3492.4267178764712,685.217
3500.385869715596,534.105
3508.341573175334,369.965
3516.293830496281,312.647
3524.1079469444667,541.921
3532.0533770164475,411.651
3539.9953676218797,375.176
3547.7993978646555,310.041
3555.734574435446,317.857
3563.666318194715,281.382
3571.460281747888,250.117
3579.385224652753,278.777
3587.30674138396,281.382
3595.090657713052,312.647
3603.00538673612,299.62
3610.782634691175,117.242
3618.6905847266535,148.507
3626.461172873067,231.88
3634.362352626544,151.113
3642.1262895150494,62.529
3650.020707677235,273.566
3657.778001843908,117.242
3665.665667090652,224.063
3673.416327056992,203.22
3681.163701429177,119.848
3689.041282322214,-104.216
3696.782035212709,278.777
3704.6528847781447,247.512
3712.3870246721344,83.372
3720.117889469839,57.319
3727.845481251112,179.772
3735.702951367959,182.377
3743.4239470074463,138.086
3751.141675895298,187.588
3758.989119491133,390.808
3766.700264858686,166.745
3774.408149723422,91.189
3782.1127761528696,138.086
3789.814146212797,177.166
3797.644959575024,-169.35
3805.339767031168,177.166
3813.03132434014,75.556
3820.7196335607214,132.875
3828.404696749953,184.983
3836.086515963114,18.238
3843.76509325378,59.924
3851.4404306737633,156.323
3859.112530273167,46.897
3866.7813941003615,151.113
3874.4470242019815,33.87
3882.109422622947,169.35
3889.7685914064414,49.502
3897.4245325939337,10.422
3905.0772482251705,99.005
3912.7267403381848,10.422
3920.373010969284,20.843
3928.016062153074,109.426
3935.655895922435,158.929
3943.292514308545,1023.918
3950.925919340858,52.108
3958.424585178429,257.933
3966.051624900327,57.319
3973.675457311714,143.296
3981.296084435249,237.09
3988.913508291902,166.745
3996.396478310664,88.583
4004.007556831755,23.448
4011.615438103967,114.637
4019.220124141517,-13.027
4026.690583777876,99.005
4034.288940385857,57.319
4041.8841077570687,422.073
4049.3452186808136,177.166
4056.934068499933,104.216
4064.519735065173,78.162
4071.971514814119,-54.713
4079.550875675057,39.081
4086.996462302253,39.081
4094.5695253181984,122.453
4102.008926541021,-7.816
4109.575699558212,54.713
4117.008923081237,607.055
4124.569413932906,59.924
4131.996467447912,216.247
4139.550683954272,135.48
4146.971575140262,208.431
4154.519525108568,338.7
4161.93426163181,151.113
4169.475952856366,72.951
4228.011654085007,179.772
4235.396210255021,112.032
4242.907210725418,-10.422
4250.415076793586,268.355
4257.7904449892885,380.387
4265.292102093408,190.193
4272.790630641473,132.875
4280.156827999919,104.216
4287.649159161061,96.399
4295.138367597785,216.247
4302.4954112134365,93.794
4309.978433811593,78.162
4317.329402006981,221.458
4324.8062464273535,15.632
4332.151146724958,67.74
4339.621820615692,130.269
4346.960660525576,114.637
4354.425171522191,130.269
4361.757958542046,28.659
4369.216314267462,161.534
4376.543055882612,15.632
4383.9952639471885,156.323
4391.315967630617,372.571
4398.762035632179,46.897
4406.07670884455,234.485
4413.516644368407,145.902
4420.825294558097,229.274
4428.130962180556,28.659
4435.561739780205,41.686
4442.861395497304,36.475
4450.1580741507205,-5.211
4457.579710724684,54.713
4464.870388562711,132.875
4472.158094827057,140.691
4479.570607232323,192.799
4486.852323743988,-28.659
4494.131074158497,109.426
4501.534479210626,-96.399
4508.807250907994,166.745
4516.077061971264,72.951
4523.3439142079005,119.848
4530.735219799091,182.377
4537.996107969229,2.605
4545.254042757973,325.674
4552.509025966887,132.875
4559.888261734326,-36.475
4567.13729547953,216.247
4574.383383072374,-15.632
4581.626526308552,80.767
4588.866726982291,67.74
4596.103986886381,109.426
4603.338307812148,91.189
4610.69653172473,125.059
4617.92492857972,244.907
4625.150391852971,195.404
4632.372923329975,-5.211
4639.592524794789,26.054
4646.809198030001,5.211
4654.022944816745,59.924
4661.233766934747,39.081
4668.441666162253,104.216
4675.646644276094,216.247
4682.8487030516335,127.664
4690.047844262837,239.696
4697.244069682201,104.216
4704.437381080781,99.005
4711.627780228235,33.87
4718.815268892759,91.189
4725.999848841122,109.426
4733.181521838655,156.323
4740.3602896492885,-36.475
4747.536154035501,278.777
4754.583300303697,229.274
4761.753413983191,88.583
4768.9206294863325,195.404
4776.084948569973,59.924
4783.246372989488,161.534
4790.404904498872,255.328
4797.435032206777,-221.458
4804.5878338284165,-26.054
4811.73774776268,52.108
4818.884775757928,283.987
4826.028919561082,213.642
4833.044920461813,112.032
4840.183351639585,179.772
4847.3189038270575,49.502
4854.451578765569,226.669
4861.456318765864,-36.475
4868.58329482688,169.35
4875.707398824052,5.211
4882.703723295803,208.431
4889.822138682386,257.933
4896.937687177771,75.556
4903.925611277555,200.615
4911.035481404608,406.441
4918.142489800703,203.22
4925.122028648751,99.005
4932.223368894192,109.426
4939.197342363797,260.539
4946.293021236786,65.135
4953.385846941688,145.902
4960.35146024984,-2.605
4967.43863475923,114.637
4974.398699333346,127.664
4981.480229398396,15.632
4988.43475186592,143.296
4995.510644227063,281.382
5002.459631204903,-169.35
5009.529892591847,106.821
5016.473350686378,158.929
5023.537987818112,182.377
5030.475923625207,52.108
5037.534943210041,442.916
5044.467363315067,255.328
5051.397052412052,-78.162
5058.447683028528,1086.447
5065.371866252855,104.216
5072.416896017057,101.61
5079.335579928018,117.242
5086.251540943114,117.242
5093.288206657562,169.35
5100.198678149784,-70.345
5107.106431592307,72.951
5114.134748143202,88.583
5121.037021830118,80.767
5127.93658230202,130.269
5134.833431158368,190.193
5141.85065500065,161.534
5148.742037069234,23.448
5155.630712341699,62.529
5162.516682412504,-54.713
5169.522839786696,143.296
5176.403355996677,36.475
5183.281171809234,85.978
5190.156288813778,101.61
5197.028708598496,-75.556
5204.021081907653,171.956
5210.888063918697,75.556
5217.752353495271,291.803
5224.613952220541,99.005
5231.472861676462,138.086
5238.329083443728,164.139
5245.182619101804,138.086
5252.033470228904,119.848
5258.881638402017,151.113
5265.727125196914,119.848
5272.569932188097,-20.843
5279.532181775125,15.632
5286.369586094326,28.659
5293.204315354014,52.108
5300.036371123795,28.659
5306.865754971979,65.135
5313.692468465706,140.691
5320.516513170878,93.794
5327.216103720151,49.502
5334.034863128356,28.659
5340.850958410447,-18.238
5347.664391127459,-109.426
5354.475162839211,148.507
5361.283275104273,119.848
5368.088729480027,130.269
5374.891527522632,135.48
5381.6916707870405,91.189
5388.489160826968,65.135
5395.162686039381,119.848
5401.954921596684,49.502
5408.744508555763,130.269
5415.531448465517,78.162
5422.31574287366,205.826
5428.976315601984,270.96
5435.7553708175255,104.216
5442.531785139763,158.929
5449.305560111599,59.924
5456.076697274744,119.848
5462.724355191152,0.0
5469.490268392445,96.399
5476.253548375513,20.843
5482.893493883399,-104.216
5489.651558992991,5.211
5496.406995464167,184.983
5503.039241977291,-41.686
5509.789472642318,125.059
5516.5370792381145,-7.816
5523.161640139158,211.036
5529.904049975114,39.081
5536.643840300443,96.399
5543.260728941095,88.583
5549.995331531944,-273.566
5556.607128017575,54.713
5563.336548861262,182.377
5569.943259067753,62.529
5576.667504142417,20.843
5583.269133936614,570.58
5589.988209211173,218.853
5596.58476445092,200.615
5603.298675885118,39.081
5609.890162419251,119.848
5616.598915963696,184.983
5623.185339632037,-80.767
5629.888941228186,65.135
5636.470307861637,-85.978
5643.16876344182,205.826
5649.745078862296,44.292
5656.438394349752,67.74
5663.009664370256,130.269
5669.578436568787,166.745
5676.264076103718,96.399
5682.827811578958,184.983
5689.3890535265455,59.924
5696.067030305661,75.556
5702.623244186747,216.247
5709.176968824671,88.583
5715.847296014435,91.189
5722.39600122282,59.924
5728.942221462719,36.475
5735.4859581482815,36.475
5742.146121627004,140.691
5748.684850350968,88.583
5755.221099782248,93.794
5761.754871330697,104.216
5768.404894310675,52.108
5774.933669330552,278.777
5781.459970716278,239.696
5787.983799873429,49.502
5794.505158206499,54.713
5801.142549523138,52.108
5807.658925557145,13.027
5814.172834999641,145.902
5820.684279250832,226.669
5827.193259709879,-122.453
5833.699777774898,33.87
5840.203834842934,59.924
5846.7054323099655,122.453
5853.204571570954,148.507
5859.701254019747,0.0
5866.195481049195,132.875
5872.687254051074,33.87
5879.176574416102,-26.054
5885.663443533944,164.139
5892.14786279323,65.135
5898.629833581537,229.274
5905.109357285379,99.005
5911.586435290243,-36.475
5918.061068980562,276.171
5924.533259739736,67.74
5931.003008950094,224.063
5937.470317992949,-127.664
5943.935188248557,96.399
5950.397621096134,18.238
5956.857617913869,263.144
5963.315180078898,75.556
5969.7703089673305,-10.422
5976.105705888956,70.345
5982.556016527509,218.853
5989.003897986593,65.135
5995.449351638199,-83.372
6001.8923788532775,166.745
6008.215900781644,31.265
6014.654123287393,-7.816
6021.089923438405,52.108
6027.523302601519,-20.843
6033.954262142564,304.83
6040.265942433929,211.036
6046.692110755517,2.605
6053.115863521547,80.767
6059.420472023492,148.507
6065.839441620141,57.319
6072.255999718647,218.853
6078.553548309683,179.772
6084.965331270854,20.843
6091.374706782226,99.005
6097.665207314269,59.924
6104.06981570238,169.35
6110.472020679961,166.745
6116.755484978421,57.319
6123.152930828903,-323.068
6129.431725134898,-156.323
6135.824417162912,148.507
6142.098546680769,-26.054
6148.486490183052,49.502
6154.872039648391,140.691
6161.139160374798,67.74
6167.519969269015,138.086
6173.782438208022,161.534
6180.158511808193,224.063
6186.416334137088,93.794
6192.787677712448,177.166
6199.040858600842,2.605
6205.291741972564,-10.422
6211.656022022646,41.686
6217.902271670246,205.826
6224.261834810408,-15.632
6230.503455884398,33.87
6236.742785809074,-393.414
6243.095304999864,106.821
6249.330014038809,78.162
6255.677829386121,46.897
6261.907922670827,36.475
6268.1357311500615,96.399
6274.476522051649,93.794
6280.699722436162,-5.211
6286.920641805642,36.475
6293.139281413962,26.054
6299.470738832184,208.431
6305.684780516531,-5.211
6311.896546218988,205.826
6318.106037189755,130.269
6324.428181717434,213.642
6330.633084905065,57.319
6336.835717129172,15.632
6343.036079636258,-46.897
6349.234173671932,52.108
6355.544716640681,127.664
6361.738235515753,67.74
6367.929489673777,99.005
6374.118480356665,260.539
6380.305208805476,216.247
6386.489676260331,179.772
6392.671883960451,20.843
6398.851833144166,62.529
6405.143905470883,166.745
6411.319299566196,106.821
6417.492438877496,54.713
6423.663324639478,7.816
6429.831958085924,229.274
6435.998340449718,57.319
6442.162472962846,479.391
6448.324356856407,65.135
6454.483993360576,2.605
6460.641383704664,72.951
6466.79652911704,156.323
6472.949430825232,198.01
6479.100090055821,117.242
6485.248508034543,96.399
6491.280888225534,151.113
6497.424868822251,85.978
6503.5666118162335,15.632
6509.706118429633,85.978
6515.843389883739,54.713
6521.978427398899,44.292
6528.111232194642,177.166
6534.241805489546,211.036
6540.256680928833,31.265
6546.382836142315,203.22
6552.506763482961,145.902
6558.628464165849,49.502
6564.747939405184,46.897
6570.751928194237,78.162
6576.866997341494,164.139
6582.979844660076,-106.821
6589.090471360658,46.897
6595.0857801617385,93.794
6601.192010321647,41.686
6607.296023467985,132.875
6613.39782080795,200.615
6619.384468430493,117.242
6625.481878753591,39.081
6631.577076864334,59.924
6637.5572509579,156.323
6643.64806916556,-36.475
6649.623946782151,91.189
6655.71038980603,166.745
6661.794626582923,198.01
6667.764048126817,218.853
6673.843916808139,184.983
6679.809053455574,-67.74
6685.884558743659,130.269
6691.957863728712,91.189
6697.916561697035,169.35
6703.985510351609,145.902
6709.939934962422,-130.269
6716.004531971987,-15.632
6721.954687820689,39.081
6728.014937863976,127.664
6733.960829539363,67.74
6739.904610751524,101.61
6745.95836937274,315.252
6751.897893261092,117.242
6757.947316561804,31.265
6763.8825876987685,148.507
6769.927680334353,-36.475
6775.858703285812,59.924
6781.787623684751,85.978
6787.826249230238,-62.529
6793.750928258974,15.632
6799.673508107371,-93.794
6805.705676935038,99.005
6811.624022213946,239.696
6817.540271677499,492.418
6823.5659941374615,177.166
6829.478015817709,2.605
6835.387945040406,23.448
6841.407231460638,52.108
6847.312939671727,78.162
6853.216558775894,237.09
6859.118089881435,46.897
6865.017534095896,208.431
6871.026143398485,78.162
6876.921377827312,138.086
6882.814528703813,114.637
6888.705597132364,156.323
6894.594584216582,187.588
6900.592544785228,231.88
6906.477333270021,-31.265
6912.360043737404,62.529
6918.240677287846,99.005
6924.119235021055,104.216
6929.995718035963,7.816
6935.870127430717,203.22
6941.742464302697,54.713
6947.6127297485,7.816
6953.480924863958,112.032
6959.347050744116,93.794
6965.21110848328,125.059
6971.073099174937,91.189
6976.93302391185,-15.632
6982.79088378598,99.005
6988.64667988853,44.292
6994.500413309928,-153.718
7000.35208513985,-304.83
7006.201696467178,96.399
7012.049248380063,26.054
7017.894741965851,13.027
7023.738178311156,166.745
7029.579558501813,320.463
7035.418883622879,49.502
7041.2561547586665,41.686
7047.091372992727,-31.265
7052.924539407839,112.032
7058.645653010426,78.162
7064.474757695687,5.211
7070.301813785409,75.556
7076.126822359336,125.059
7081.949784496486,15.632
7087.660891581778,15.632
7093.479802640664,114.637
7099.296670474898,72.951
7105.111496160462,31.265
7110.814624476749,125.059
7116.625407570507,190.193
7122.434151718757,161.534
7128.2408579944895,20.843
7133.936024250346,20.843
7139.73869639702,13.027
7145.53933386541,52.108
7151.22854892195,104.216
7157.025158582874,52.108
7162.819736753059,46.897
7168.503009933542,-49.502
7174.293566604632,20.843
7180.082094965896,-7.816
7185.759435574095,117.242
7191.54394873148,177.166
7197.2173519438,18.238
7202.997854073568,96.399
7208.667323984642,187.588
7214.443819257263,171.956
7220.109359956041,15.632
7225.881852536215,117.242
7231.54346810597,187.588
7237.311962152613,49.502
7242.969656670975,132.875
7248.734156337254,26.054
7254.387933876205,216.247
7260.148443309525,70.345
7265.798307935409,93.794
7271.554831277448,-10.422
7277.20078705097,78.162
7282.953328437674,-10.422
7288.59537941395,20.843
7294.235498085545,161.534
7299.982093204053,143.296
7305.618313131272,216.247
7311.252603748333,91.189
7316.993261813666,15.632
7322.623659726734,216.247
7328.252131317968,106.821
7333.9868615261075,13.027
7339.611446441268,57.319
7345.234108016753,299.62
7350.962919544712,234.485
7356.581700459581,52.108
7362.198561010817,164.139
7367.813502182726,-57.319
7373.426524958988,85.978
7379.145517410223,-80.767
7384.7546694986595,-237.09
7390.361906157261,182.377
7395.967228366993,179.772
7401.570637108154,143.296
7407.279835705631,132.875
7412.879383697611,72.951
7418.477021176703,52.108
7424.072749120482,88.583
7429.666568505905,-26.054
7435.258480309247,52.108
7440.848485506111,205.826
7446.436585071431,46.897
7452.022779979503,57.319
7457.607071203925,49.502
7463.296794702215,127.664
7468.877244915177,72.951
7474.455794380043,-171.956
7480.032444067743,114.637
7485.607194948596,36.475
7491.18004799222,65.135
7496.751004167574,57.319
7502.2129850032,54.713
7507.7801867781745,67.74
7513.345494569261,148.507
7518.908909342786,23.448
7524.470432064445,104.216
7530.03006369928,346.517
7535.587805211653,177.166
7541.1436575652915,101.61
7546.697621723266,127.664
7552.249698647978,15.632
7557.693172648,182.377
7563.241514237732,127.664
7568.787971459049,114.637
7574.332545271769,36.475
7579.87523663506,62.529
7585.416046507413,127.664
7590.848475703144,54.713
7596.385561603231,104.216
7601.920768865631,184.983
7607.454098446255,52.108
7612.879194899509,-161.534
7618.4088080453,2.605
7623.936546354853,104.216
7629.462410781522,-59.924
7634.880189328982,226.669
7640.402344837916,153.718
7645.9226293018255,20.843
7651.334937948188,101.61
7656.851519109852,195.404
7662.260197498763,-106.821
7667.773079083498,127.664
7673.284094334183,-33.87
7678.687316594296,-20.843
7684.194637864675,31.265
7689.7000956236625,57.319
7695.097870006797,177.166
7700.599639370841,57.319
7705.993798107356,20.843
7711.491882781789,-13.027
7716.882429503323,96.399
7722.376833188511,83.372
7727.763771521855,-26.054
7733.254497913214,177.166
7738.637831480286,-130.269
7744.124884268305,7.816
7749.504616686187,-5.211
7754.987999556393,62.529
7760.364134437317,65.135
7765.738489349154,62.529
7771.216392021717,171.956
7776.587154788423,65.135
7782.061396717661,169.35
7787.428570939446,36.475
7792.793969640064,145.902
7798.262745065967,362.149
7803.624560595526,7.816
7808.984603262106,112.032
7814.447920368751,-57.319
7819.804385227417,148.507
7825.159079875983,18.238
7830.616946831127,143.296
7835.968069024231,328.279
7841.317423654822,-148.507
7846.665011598543,-20.843
7852.115636126822,132.875
7857.459658723532,281.382
7862.801917273948,101.61
7868.142412651388,83.372
7873.481145728587,104.216
7878.922746278997,23.448
7884.257922859626,67.74
7889.59133977185,20.843
7894.922997886111,96.399
7900.252898072242,112.032
7905.581041199541,72.951
7910.907428136696,-5.211
7916.336446752692,216.247
7921.65928952102,-13.027
7926.980378718883,-80.767
7932.29971521271,101.61
7937.617299868325,57.319
7942.933133550996,179.772
7948.247217125423,31.265
7953.559551455743,54.713
7958.870137405502,-72.951
7964.178975837705,88.583
7969.486067614758,18.238
7974.791413598527,96.399
7980.0950146503055,0.0
7985.396871630804,169.35
7990.696985400187,52.108
7995.995356818043,5.211
8001.291986743403,-75.556
8006.586876034729,62.529
8011.880025549901,260.539
8017.067699705829,-13.027
8022.357406311574,166.745
8027.645375694708,-158.929
8032.931608710882,-46.897
8038.216106215201,234.485
8043.498869062179,75.556
8048.779898105804,-2.605
8053.955695240969,125.059
8059.233293192043,-62.529
8064.509159881611,26.054
8069.783296161415,101.61
8074.952338977277,184.55
8080.223050878609,268.164
8085.492034905405,338.958
8090.759291907168,383.438
8095.921593616502,388.112
8101.185432936367,339.485
8106.447547759821,224.063
8111.604810570996,72.951
8116.863512715307,65.135
8122.120492886879,302.225
8127.272724173963,23.448
8132.526296659391,33.87
8137.778149690843,67.74
8142.925356813517,184.983
8148.173807142077,135.48
8153.4205405305,-106.821
8158.562730834117,2.605
8163.806066493191,174.561
8168.944927307508,198.01
8174.184868536668,36.475
8179.32040309432,31.265
8184.55695318873,13.027
8189.689164718173,195.404
8194.922326968728,10.422
8200.051218694258,125.059
8205.280996387602,15.632
8210.406571529322,31.265
8215.632967947844,104.216
8220.7552297217,182.377
8225.978248143558,-226.669
8231.097199761349,-174.561
8236.316843460441,83.372
8241.43248812982,273.566
8246.546496881761,46.897
8251.76110130029,135.48
8256.871807891675,0.0
8261.98088093357,62.529
8267.190453365733,20.843
8272.296229025691,26.054
8277.400373499535,44.292
8282.604921225458,-62.529
8287.705773086778,65.135
8292.804996120794,158.929
8298.004526406577,171.956
8303.100461588281,-286.593
8308.194770296956,-31.265
8313.28745331115,138.086
8318.48031600209,-218.853
8323.569717486189,-278.777
8328.657495624051,70.345
8333.743651192239,31.265
8338.828184966831,122.453
8344.012739449463,106.821
8349.093999566121,-20.843
8354.17364022991,119.848
8359.251662214898,-13.027
8364.328066294685,192.799
8369.402853242376,138.086
8374.476023830553,-130.269
8379.547578831349,13.027
8384.718901354245,13.027
8389.787195221597,26.054
8394.853875830348,-99.005
8399.91894395064,-99.005
8404.98240035212,49.502
8410.044245803958,54.713
8415.104481074803,-153.718
8420.163106932847,57.319
8425.220124145773,20.843
8430.275533480788,-169.35
8435.32933570461,-15.632
8440.381531583458,-36.475
8445.432121883085,-20.843
8450.48110736873,-83.372
8455.528488805172,101.61
8460.473367100913,125.059
8465.51757477424,96.399
8470.560180674485,143.296
8475.601185564497,-7.816
8480.64059020661,184.983
8485.67839536271,91.189
8490.714601794163,265.75
8495.749210261878,-208.431
8500.681576948675,-265.75
8505.713023691114,-96.399
8510.742874734438,158.929
8515.771130837642,106.821
8520.797792759218,-190.193
8525.722375497866,-31.265
8530.745883175656,-93.794
8535.7677989293,351.727
8540.788123515384,75.556
8545.706498587671,78.162
8550.723674892208,247.512
8555.739262280982,-109.426
8560.652997083213,-96.399
8565.665440644778,-171.956
8570.676297538128,49.502
8575.585398634048,44.292
8580.593116146138,-161.534
8585.599249233324,-75.556
8590.503723174297,-20.843
8595.506721317797,15.632
8600.508137275468,52.108
8605.40799060051,20.843
8610.406276043708,187.588
8615.303062904772,39.081
8620.298220771765,-112.032
8625.191944046568,270.96
8630.18397727198,31.265
8635.074639834631,-208.431
8640.063551349394,20.843
8644.951156070434,-49.502
8649.936948801806,0.0
8654.821498548154,28.659
8659.804175419777,112.032
8664.685673054784,226.669
8669.665236986599,148.507
8674.543685370048,-80.767
8679.520139278378,-148.507
8684.395541266465,26.054
8689.2694364983,54.713
8694.241246509358,-88.583
8699.112099609058,-39.081
8703.981448060618,-26.054
8708.948620671701,-26.054
8713.81493124642,-125.059
8718.779005433622,104.216
8723.642280973501,-83.372
8728.504055374753,-75.556
8733.364329332315,211.036
8738.32224658698,5.211
8743.179491154478,52.108
8748.035237374625,265.75
8752.889485940628,-78.162
8757.8412577103,237.09
8762.692482517024,-242.301
8767.542211760752,-65.135
8772.39044613298,-148.507
8777.336083836857,-23.448
8782.18130006664,-166.745
8787.02502351089,46.897
8791.867254859393,-31.265
8796.707994801498,-39.081
8801.547244026118,80.767
8806.385003221756,-39.081
8811.319956958603,-192.799
8816.154707786565,-65.135
8820.987970662514,91.189
8825.819746273257,-41.686
8830.650035305174,18.238
8835.478838444196,31.265
8840.306156375878,-72.951
8845.131989785303,-169.35
8849.956339357173,2.605
8854.779205775758,-52.108
8859.60058972489,-132.875
8864.420491888006,171.956
8869.238912948098,26.054
8874.055853587757,-26.054
8878.871314489159,33.87
8883.685296334032,-158.929
8888.497799803714,-49.502
8893.308825579123,10.422
8898.118374340735,31.265
8902.926446768637,-41.686
8907.634964476681,-28.659
8912.440116370435,-91.189
8917.243793954342,-138.086
8922.045997906822,33.87
8926.846728905857,-26.054
8931.645987629043,99.005
8936.443774753548,72.951
8941.142221650607,7.816
8945.937097605834,158.929
8950.73050397759,59.924
8955.522441441404,-114.637
8960.215160665939,-65.135
8965.004192282166,-31.265
8969.791757000756,44.292
8974.577855495572,72.951
8979.26485751475,-26.054
8984.048055470721,33.87
8988.829789208343,36.475
8993.51251749025,-15.632
8998.291354655303,-93.794
9003.068729603765,112.032
9007.747189991118,-67.74
9012.521672326067,-13.027
9017.294694442531,-23.448
9021.968892767374,-83.372
9026.739026222178,41.686
9031.41039612206,229.274
9036.17764353675,-44.292
9040.943434050514,-5.211
9045.610551571128,-2.605
9050.373459984672,-54.713
9055.037755503963,-177.166
9059.797784430888,20.843
9064.45926050758,-200.615
9069.216412558366,-67.74
9073.87507174812,-2.605
9078.629349530078,80.767
9083.285194385431,-161.534
9088.036600502714,93.794
9092.689633573158,57.319
9097.438170626783,156.323
9102.088394458704,138.086
9106.73722909284,-171.956
9111.481482183284,-41.686
9116.12751137963,31.265
9120.868901881862,-18.238
9125.512128179163,31.265
9130.153968412898,-31.265
9134.891084617178,231.88
9139.53012574118,158.929
9144.167782675046,-192.799
9148.9006303586,351.727
9153.535491965213,177.166
9158.168971251744,93.794
9162.801068836525,31.265
9167.528243916331,-85.978
9172.157551197888,-78.162
9176.785478643267,-169.35
9181.412026869286,54.713
9186.13353953768,117.242
9190.757302472506,57.319
9195.37968804908,-67.74
9200.000696882766,-104.216
9204.620329588544,-7.816
9209.334785850184,2.605
9213.951639506451,-177.166
9218.567118890363,-130.269
9223.181224615444,-5.211
9227.79395729483,-96.399
9232.40531754132,62.529
9237.015305967328,-211.036
9241.623923184923,15.632
9246.23116980579,-252.723
9250.932987640888,78.162
9255.537466379788,-72.951
9260.140576367572,-83.372
9264.742318214474,203.22
9269.342692530376,-330.884
9273.941699924766,-231.88
9278.539341006806,78.162
9283.135616385269,-112.032
9287.730526668583,-229.274
9292.324072464791,396.019
9296.91625438162,-91.189
9301.411444872112,28.659
9306.00092923447,-28.659
9310.589051525738,20.843
9315.175812352172,119.848
9319.761212319692,83.372
9324.345252033823,-36.475
9328.927932099774,-130.269
9333.509253122353,-106.821
9338.08921570604,15.632
9342.572446701386,65.135
9347.149722488744,78.162
9351.7256416359,-122.453
9356.300204745894,20.843
9360.873412421412,5.211
9365.350032145325,-57.319
9369.920558965528,-13.027
9374.489732144635,-65.135
9379.05755228394,-39.081
9383.528899030936,138.086
9388.09404305015,-31.265
9392.657835818722,65.135
9397.125240831178,70.345
9401.6863610176,54.713
9406.246131739394,-15.632
9410.80455359534,-65.135
9415.266701898625,-15.632
9419.822455888205,-7.816
9424.281993052333,7.816
9428.835081516963,-83.372
9433.38682407955,-299.62
9437.84243511156,-20.843
9442.391515668474,36.475
9446.84452129656,20.843
9451.390942182352,-41.686
9455.93602012123,-70.345
9460.385108237591,33.87
9464.927530014324,-10.422
9469.374018445214,39.081
9473.913786387537,-93.794
9478.35767741084,-52.108
9482.894793843763,-57.319
9487.33608973474,2.605
9491.87055698055,-33.87
9496.30926001177,-18.238
9500.74668109923,-70.345
9505.277192831463,-62.529
9509.71202445114,112.032
9514.23989277796,-85.978
9518.672137195834,5.211
9523.103102466685,49.502
9527.62702390948,13.027
9532.05540536064,-33.87
9536.57668916292,-20.843
9541.002489053764,57.319
9545.42701258622,195.404
9549.850260312329,-18.238
9554.36630345335,401.23
9558.78697410632,-2.605
9563.206370618926,-2.605
9567.718482324255,-75.556
9572.13530512818,-2.605
9576.550855454823,91.189
9580.965133854,-411.651
9585.47202083257,125.059
9589.883729992052,-208.431
9594.294168883298,-33.87
9598.703338054846,20.843
9603.111238054931,62.529
9607.611613766734,-101.61
9612.016950092931,-2.605
9616.421018902103,-171.956
9620.823820741218,-135.48
9625.225356156909,-13.027
9629.625625695517,140.691
9634.02462990307,-117.242
9638.422369325252,75.556
9642.81884450748,-145.902
9647.21405599481,-15.632
9651.701478874824,72.951
9656.094137748323,49.502
9660.485534571855,-20.843
9664.875669889248,85.978
9669.264544244,-112.032
9673.65215817932,-57.319
9678.03851223808,-109.426
9682.423606962846,20.843
9686.807442895892,125.059
9691.19002057915,-130.269
9695.478134071804,44.292
9699.858223622705,23.448
9704.23705653629,44.292
9708.614633353289,-65.135
9712.990954614088,67.74
9717.36602085878,85.978
9721.739832627154,28.659
9726.112390458671,257.933
9730.483694892511,7.816
9734.760779687776,-5.211
9739.129605581998,104.216
9743.497179682729,281.382
9747.863502527893,46.897
9752.228574655115,20.843
9756.499562339395,-41.686
9760.862161224974,49.502
9765.223510992222,-78.162
9769.583612177565,13.027
9773.849736751828,-59.924
9778.207368918504,-65.135
9782.563754099236,-83.372
9786.918892829211,-18.238
9791.18016259473,-85.978
9795.532836519418,52.108
9799.884265585692,-44.292
9804.14190615754,44.292
9808.490873566669,5.211
9812.83859770701,0.0
9817.09261371952,-99.005
9821.437879345483,-49.502
9825.689490172908,-10.422
9830.032299369228,-13.027
9834.373867936378,-52.108
9838.621861899856,-148.507
9842.960977171238,23.448
9847.206571054325,-169.35
9851.543235108787,127.664
9855.786430944943,-96.399
9860.12064585897,-28.659
9864.361445679362,28.659
9868.693213527116,-119.848
9872.931619360628,-85.978
9877.26094221391,140.691
9881.49695608711,104.216
9885.823836015392,57.319
9890.057459952584,-171.956
9894.289902518456,-7.816
9898.613135046206,112.032
9902.843190697367,138.086
9907.163985452502,-33.87
9911.391656207565,75.556
9915.61814808206,-52.108
9919.935303126713,-70.345
9924.15941311792,91.189
9928.38234571751,2.605
9932.695865648708,125.059
9936.91641937277,33.87
9941.135797191648,-33.87
9945.445686598703,-26.054
9949.662688544726,177.166
9953.878516069532,-33.87
9958.09316966365,91.189
9962.398234183594,93.794
9966.61051589339,54.713
9970.821625153134,46.897
9975.031562452265,70.345
9979.240328279942,28.659
9983.53937957713,112.032
9987.745778488254,218.853
9991.95100740443,7.816
9996.155066813732,44.292
10000.357957203963,-140.691
10004.55967906266,36.475
10008.760232877092,-28.659
10013.050897176752,33.87
10017.249090997648,26.054
10021.446118245014,117.242
10025.641979405023,-80.767
10029.83667496358,-13.027
10034.03020540632,114.637
10038.222571218605,52.108
10042.413772885537,54.713
10046.603810891938,-190.193
10050.79268572236,-171.956
10054.980397861098,-28.659
10059.16694779218,211.036
10063.352335999334,28.659
10067.536562966066,18.238
10071.719629175575,-13.027
10075.90153511081,72.951
10080.082281254454,78.162
10084.26186808891,28.659
10088.440296096323,-36.475
10092.52676786215,-2.605
10096.702904826674,-41.686
10100.877884398516,0.0
10105.051707058765,-119.848
10109.224373288234,-15.632
10113.395883567471,65.135
10117.475590772649,-41.686
10121.64481569536,-117.242
10125.812886097472,-114.637
10129.979802458443,-13.027
10134.145565257517,-151.113
10138.219652237512,31.265
10142.383134400929,41.686
10146.545464428116,20.843
10150.706642797257,403.835
10154.776246850048,-57.319
10158.935148346747,-67.74
10163.092899607942,-114.637
10167.159152430871,-46.897
10171.314629631466,31.265
10175.468958016776,244.907
10179.531863747628,-31.265
10183.683920879565,200.615
10187.834830614069,198.01
10191.894393383842,119.848
10196.043034667582,-67.74
10200.190529969435,-70.345
10204.246753902304,-187.588
10208.391983551395,109.426
10212.44599199288,231.88
10216.588957845182,-54.713
10220.640752609928,-23.448
10224.781456519388,49.502
10228.831039420063,31.265
10232.969483238625,67.74
10237.016856085897,-52.108
10241.15304166346,52.108
10245.19820626604,-41.686
10249.332135450502,20.843
10253.375093615126,-39.081
10257.506768252357,-161.534
10261.547521783785,-403.835
10265.58718577827,33.87
10269.715494418666,-153.718
10273.752956473523,67.74
10277.87901516247,-13.027
10281.91427707755,75.556
10285.948451675904,41.686
10290.0711512271,44.292
10294.10312837192,-62.529
10298.13401952729,-125.059
10302.253364041218,-179.772
10306.282060424935,119.848
10310.309672144327,-65.135
10314.425665714796,-28.659
10318.451085340042,138.086
10322.475421623927,101.61
10326.498675003731,101.61
10330.610215200984,65.135
10334.631280043344,-59.924
10338.651263301725,41.686
10342.670165412448,-15.632
10346.687986811625,18.238
10350.704727935088,-20.843
10354.80961387438,70.345
10358.824171771252,-52.108
10362.837650708272,20.843
10366.850051120337,-33.87
10370.86137344214,36.475
10374.871618108127,-75.556
10378.880785552512,39.081
10382.888876209276,130.269
10386.984923052532,65.135
10390.990837530662,75.556
10394.995676531347,-184.983
10398.999440487634,184.983
10403.00212983234,-96.399
10407.003744998048,44.292
10411.004286417105,-44.292
10415.003754521616,33.87
10419.002149743475,-41.686
10422.999472514348,13.027
10426.995723265634,46.897
10430.990902428544,65.135
10434.985010434026,46.897
10438.889325180557,7.816
10442.881315942828,54.713
10446.872236829608,0.0
10450.86208827093,57.319
10454.85087069661,-13.027
10458.838584536235,-26.054
10462.82523021915,72.951
10466.810808174472,174.561
10470.706785742112,-140.691
10474.690253232264,135.48
10478.672654271297,104.216
10482.653989287404,-41.686
10486.634258708573,67.74
10490.525047770485,2.605
10494.50321094102,-13.027
10498.480309789697,-67.74
10502.45634474356,171.956
10506.342995080442,0.0
10510.316927143493,-179.772
10514.2897965821,-54.713
10518.261603822417,-31.265
10522.144122034457,44.292
10526.113829736623,28.659
10530.082476508169,-132.875
10533.961905709137,-127.664
10537.92845544769,-211.036
10541.89394552126,-117.242
10545.770289396216,0.0
10549.733684937964,41.686
10553.607981637546,-171.956
10557.569284306495,41.686
10561.52952941227,174.561
10565.400746905443,-127.664
10569.35890163298,-72.951
10573.22807600992,-23.448
10577.184142013864,-49.502
10581.05127489159,-166.745
10585.005253824836,91.189
10588.87034681866,-20.843
10592.822240332363,93.794
10596.685295055897,15.632
10600.635104799476,39.081
10604.496122864624,-28.659
10608.443850485746,72.951
10612.302833502728,127.664
10616.160811022752,-49.502
10620.10543022464,15.632
10623.9613750996,10.422
10627.903916281392,-75.556
10631.757830117263,-224.063
10635.61074043666,-83.372
10639.550179321655,104.216
10643.401060998756,119.848
10647.250940343372,143.296
10651.187280591832,-117.242
10655.035133687184,41.686
10658.881985632182,-41.686
10662.815230898605,-13.027
10666.660058983602,-20.843
10670.50388709854,-28.659
10674.346715633475,-117.242
10678.275847672114,-119.848
10682.116655520924,-109.426
10685.956464967534,-2.605
10689.795276401208,-145.902
10693.633090210977,0.0
10697.557095575656,-33.87
10701.39289265285,-18.238
10705.227693280882,132.875
10709.061497847986,65.135
10712.894306742182,0.0
10716.726120351308,-57.319
10720.55693906298,13.027
10724.386763264632,112.032
10728.302600658342,-44.292
10732.130414421008,-36.475
10735.957234843503,20.843
10739.783062312445,-62.529
10743.60789721425,41.686
10747.431739935131,39.081
10751.254590861114,93.794
10755.076450378,138.086
10758.897318871408,-184.983
10762.717196726757,-78.162
10766.536084329256,67.74
10770.353982063916,65.135
10774.170890315563,-93.794
10777.98680946881,-13.027
10781.801739908076,-85.978
10785.615682017564,28.659
10789.341989100834,41.686
10793.153978142976,52.108
10796.964979998098,-91.189
10800.774995049622,78.162
10804.58402368077,91.189
10808.392066274577,-41.686
10812.199123213884,10.422
10816.005194881312,-125.059
10819.723813349112,-52.108
10823.52793799081,59.924
10827.331078498672,-252.723
10831.133235254529,46.897
10834.848029253728,-62.529
10838.64824198676,-36.475
10842.447472103491,-5.211
10846.24571998498,-44.292
10849.956695412544,-10.422
10853.753002267928,-39.081
10857.548328021428,26.054
10861.342673053316,10.422
10865.049835794096,-205.826
10868.842242790466,281.382
10872.63367019626,-23.448
10876.337982712816,-18.238
10880.12747431772,-156.323
10883.82989575329,-54.713
10887.617453039476,15.632
10891.404032613404,-2.605
10895.103609289945,49.502
10898.88825677408,99.005
10902.585945994537,-114.637
10906.368662867266,88.583
10910.150403901262,-18.238
10913.845253813895,-7.816
10917.62506645972,-28.659
10921.318032531915,-18.238
10925.095918264182,96.399
10928.787001936307,-26.054
10932.562962228116,-36.475
10936.252164939066,-49.502
10939.940438510435,114.637
10943.713524449233,41.686
10947.399919206764,41.686
10951.171083372872,28.659
10954.855600751816,49.502
10958.62484461311,-112.032
10962.307486047235,-26.054
10965.989200819247,-85.978
10969.755577991731,-192.799
10973.435418958636,-72.951
10977.114334320191,54.713
10980.877848072992,304.83
10984.554891765896,57.319
10988.231010908596,59.924
10991.991664505884,-138.086
10995.665914113146,-59.924
10999.33924022374,-7.816
11003.011643185791,-49.502
11006.768495629847,-109.426
11010.439031890255,-62.529
11014.108646053544,10.422
11017.777338467138,78.162
11021.530395518184,-117.242
11025.197224058184,72.951
11028.863131897786,239.696
11032.528119383707,-18.238
11036.192186862492,125.059
11039.855334680517,-67.74
11043.602720353196,-52.108
11047.264008520897,414.257
11050.924378073953,-70.345
11054.58382935806,-182.377
11058.242362718707,5.211
11061.899978501227,-229.274
11065.556677050785,-75.556
11069.21245871235,7.816
11072.867323830738,20.843
11076.521272750586,57.319
11080.174305816368,-23.448
11083.826423372368,-23.448
11087.477625762698,10.422
11091.127913331318,161.534
11094.777286422,-33.87
11098.425745378345,179.772
11102.073290543767,13.027
11105.719922261547,-39.081
11109.36564087477,112.032
11113.010446726335,190.193
11116.654340159006,49.502
11120.29732151534,-112.032
11123.93939113774,-10.422
11127.580549368427,153.718
11131.22079654947,72.951
11134.77550763161,148.507
11138.413954906267,15.632
11142.051492148485,-7.816
11145.688119699626,33.87
11149.323837900913,-65.135
11152.958647093375,65.135
11156.508048620988,-72.951
11160.141061938251,-23.448
11163.773167260852,125.059
11167.40436492916,-13.027
11170.950240228543,127.664
11174.579644697213,-15.632
11178.208142523734,278.777
11181.751381744987,148.507
11185.378088371155,-195.404
11189.003889365817,20.843
11192.628785068173,122.453
11196.16850723805,59.924
11199.79161440632,-18.238
11203.413817290922,145.902
11206.950910239968,148.507
11210.571326582844,-10.422
11214.10667518314,-36.475
11217.725306305692,62.529
11221.343034819707,-72.951
11224.875759069631,-15.632
11228.49170435076,75.556
11232.022687482247,-23.448
11235.636850848638,-72.951
11239.166094148528,83.372
11242.778476917028,36.475
11246.305981670925,-49.502
11249.91658515709,218.853
11253.442352649325,28.659
11257.05117816741,179.772
11260.575209681025,15.632
11264.182258544,59.924
11267.704555360804,-93.794
11271.309828880325,-104.216
11274.83039228086,125.059
11278.350099642112,23.448
11281.952723030843,138.086
11285.470698886753,-177.166
11288.987819646914,-70.345
11292.587795825824,91.189
11296.103186988752,213.642
11299.70139304264,-31.265
11303.215055883851,-67.74
11306.727865201254,33.87
11310.23982130582,-151.113
11313.834511810855,2.605
11317.34474212601,72.951
11320.8541201677,18.238
11324.446172200132,-52.108
11327.953826352135,36.475
11331.460629168672,-122.453
11334.96658095964,-190.193
11338.471682034791,-7.816
11342.059356881087,-41.686
11345.562737216636,130.269
11349.06526777208,-62.529
11352.566948856567,2.605
11356.067780779093,-72.951
11359.56776384851,46.897
11363.1502007606,80.767
11366.648466857394,-72.951
11370.145885034064,-2.605
11373.642455598843,57.319
11377.138178859836,31.265
11380.633055125,-187.588
11384.1270847021,-93.794
11387.620267898808,354.333
11391.112605022612,106.821
11394.60409638087,44.292
11398.094742280777,-70.345
11401.584543029392,-156.323
11405.073498933603,-91.189
11408.561610300185,-10.422
11412.048877435727,-156.323
11415.5353006467,-49.502
11419.020880239405,28.659
11422.505616520008,-409.046
11425.989509794525,-28.659
11429.472560368817,36.475
11432.954768548592,-179.772
11436.43613463944,-23.448
11439.916658946764,-46.897
11443.313501961433,-20.843
11446.79236364179,-195.404
11450.270384446749,117.242
11453.74756468115,59.924
11457.22390464968,15.632
11460.699404656869,-15.632
11464.091344754375,31.265
11467.565185732994,23.448
11471.038187655771,-33.87
11474.51035082668,49.502
11477.981675549512,-70.345
11481.369541233144,-26.054
11484.839209915755,15.632
11488.30804105362,-7.816
11491.693473394258,-26.054
11495.16065027576,54.713
11498.626990514544,-26.054
11502.092494413417,36.475
11505.474679896604,70.345
11508.938531918346,-112.032
11512.401548500471,-138.086
11515.78130675673,26.054
11519.242673239612,20.843
11522.620821260369,72.951
11526.080538823127,-7.816
11529.5394224415,-78.162
11532.915147579475,-52.108
11536.372384051368,83.372
11539.74650183491,-5.211
11543.202092336618,31.265
11546.574603913472,62.529
11550.028549620163,-140.691
11553.399456136987,-59.924
11556.85175822272,-57.319
11560.221060825072,72.951
11563.67172046279,33.87
11567.039420295116,-213.642
11570.488438656655,18.238
11573.854536862347,-52.108
11577.301915118398,-158.929
11580.666412839755,-36.475
11584.030120381583,119.848
11587.475050538147,99.005
11590.837159300165,117.242
11594.280452266124,-93.794
11597.64096338792,-31.265
11601.000685734118,-10.422
11604.441534950183,0.0
11607.79966135666,135.48
11611.156999826935,33.87
11614.59540789372,41.686
11617.951152122365,289.198
11621.306109253032,-114.637
11624.66027956261,33.87
11628.09544335218,-31.265
11631.44802167594,-65.135
11634.799814015252,-83.372
11638.15082064648,-10.422
11641.58274474832,7.816
11644.932161645294,-117.242
11648.280793669244,-5.211
11651.62864109602,-15.632
11654.975704201344,93.794
11658.403590030808,13.027
11661.749066206958,-7.816
11665.093758894744,49.502
11668.43766836938,-33.87
11671.780794905935,-54.713
11675.12313877933,65.135
11678.4647002644,-205.826
11681.805479635816,-161.534
11685.145477168146,-62.529
11688.484693135812,83.372
11691.904543291126,-26.054
11695.24217790648,135.48
11698.579031786354,-158.929
11701.915105204676,-91.189
11705.25039843522,-31.265
11708.584911751648,-148.507
11711.918645427471,20.843
11715.251599736104,-26.054
11718.502511651865,-39.081
11721.83392703817,0.0
11725.164563870054,-70.345
11728.4944224204,130.269
11731.823502961994,-85.978
11735.15180576744,-80.767
11738.479331109273,7.816
11741.806079259855,2.605
11745.132050491462,278.777
11748.457245076206,-41.686
11751.70058915004,18.238
11755.024250183047,26.054
11758.34713537819,-26.054
11761.669245007088,-7.816
11764.990579341233,362.149
11768.230158619372,-239.696
11771.549962071174,-216.247
11774.86899103535,-112.032
11778.187245782876,10.422
11781.423821624776,-65.135
11784.740547618409,148.507
11788.05650020102,187.588
11791.371679643096,20.843
11794.605256223578,23.448
11797.91890903626,36.475
11801.231789512534,-78.162
11804.46312397414,-125.059
11807.774479408556,46.897
11811.085063309589,164.139
11814.314157983485,7.816
11817.623218427994,-15.632
11820.850827315822,-161.534
11824.158365355152,-31.265
11827.4651331948,-109.426
11830.690506166697,-26.054
11833.995753182851,-67.74
11837.219642936305,117.242
11840.52337017791,83.372
11843.745777735792,-72.951
11847.047986250807,-5.211
11850.26891263506,-65.135
11853.569603470474,-28.659
11856.789049702087,-62.529
11860.088223903953,310.041
11863.30619100298,471.575
11866.603849616356,88.583
11869.820338601929,54.713
11873.11648267094,-325.674
11876.331494561222,-62.529
11879.545777396996,-2.605
11882.839660941268,-88.583
11886.052468201013,78.162
11889.26454715598,57.319
11892.55617250015,59.924
11895.766777396242,31.265
11899.056892350098,114.637
11902.26602420178,-49.502
11905.474428998024,20.843
11908.682106985869,213.642
11911.969222890988,-208.431
11915.17542984806,158.929
11918.380910743392,75.556
11921.66577540321,135.48
11924.869786778698,54.713
11928.07307283808,127.664
11931.27563382762,-138.086
11934.477469993468,-26.054
11937.758600089848,117.242
11940.95896924119,-85.978
11944.158614312782,-135.48
11947.35753555032,145.902
11950.55573319941,-7.816
11953.753207505528,-44.292
11957.029868231695,164.139
11960.225878519712,-13.027
11963.42116620667,143.296
11966.615731537608,0.0
11969.809574757444,-52.108
11973.002696111003,-23.448
11976.195095842992,-112.032
11979.386774197992,-70.345
11982.577731420495,52.108
11985.767967754866,-20.843
11988.957483445382,-13.027
11992.146278736183,-31.265
11995.334353871312,-541.921
11998.521709094712,-83.372
12001.708344650193,-23.448
12004.894260781464,80.767
12008.079457732136,-36.475
12011.2639357457,-41.686
12014.44769506553,18.238
12017.630735934905,-62.529
12020.81305859698,-226.669
12023.994663294816,-36.475
12027.175550271351,2.605
12030.27622427429,-49.502
12033.455694464548,39.081
12036.634447655608,-117.242
12039.812484089987,26.054
12042.989804010074,49.502
12046.166407658158,-28.659
12049.26290681064,143.296
12052.4380965329,-70.345
12055.612570703324,13.027
12058.786329563762,-62.529
12061.880055974125,-28.659
12065.052402807443,-20.843
12068.224035049663,-65.135
12071.394952942192,-132.875
12074.485910333004,33.87
12077.655418093736,-5.211
12080.824212222367,91.189
12083.913099633974,-13.027
12087.080485047096,-70.345
12090.247157544738,-26.054
12093.333977055809,-26.054
