Raman Shift,Intensity
214.3785040343428,-211.213
224.78145843945092,122.555
235.01908334044856,-59.974
245.41130867789616,-26.076
255.63837774522108,52.151
265.8602158678186,-41.721
276.23642015571386,198.175
286.44772684514464,83.442
296.8132434111685,44.329
307.0140349346475,-146.023
317.209615658554,179.922
327.399989574551,239.896
337.7442627077253,210.647
347.9241537664129,180.102
358.09885002992814,148.571
368.2683554736213,116.365
378.5914504125685,83.791
388.7505051753542,51.16
398.90438108190574,18.783
409.0530820913264,-13.038
419.196612158652,-54.759
429.3349752349313,-101.695
439.626465572117,73.012
449.75442592354375,75.619
459.8772311743669,5.215
469.994885259468,18.253
480.1073921097559,203.39
490.2147556521086,148.631
500.31697980943136,70.404
510.41406850063504,7.823
520.5060256406359,44.329
530.5928551403995,65.189
540.6745609068894,122.555
550.7511468431039,33.898
560.8226168481124,-20.86
570.888974816975,18.253
580.9502246408374,140.808
590.8492821665859,23.468
600.9004070215597,49.544
610.9464353206786,187.744
620.9873709393651,252.934
631.0232177491416,500.652
641.0539796175653,461.538
650.9230482019848,485.007
660.9437310766662,344.198
670.9593405290361,292.047
680.9698804110958,224.25
690.8190579752118,349.413
700.8195493193562,372.881
710.8149825658329,239.896
720.805361551138,132.986
730.6347081696804,245.111
740.6150689503047,192.96
750.4345613154874,7.823
760.404918953056,161.669
770.3702413346182,114.733
780.174941402227,297.262
790.1302832356378,245.111
799.925166080895,88.657
809.8705423523497,185.137
819.6556227125038,252.934
829.5910483782136,281.617
839.3663409610526,106.91
849.2918309472952,-57.366
859.0573504311833,117.34
868.972919634427,146.023
878.7286806683987,151.239
888.6343439553166,86.05
898.3803611591502,125.163
908.12155022542,104.302
918.0124213310264,-101.695
927.743888384779,106.91
937.4705381077074,80.834
947.3466501411676,273.794
957.0635996041163,99.087
966.7757425107702,769.231
976.6371284824854,555.411
986.3395928168538,187.744
996.0372613373548,213.82
1005.7301375988682,821.382
1015.5719657306544,1066.493
1025.255192198514,584.094
1034.9336371072422,203.39
1044.6073039976543,338.983
1054.2761964070742,179.922
1063.9403178693246,451.108
1073.5996719147442,219.035
1083.4074711432768,216.428
1093.057225399156,367.666
1102.70222286418,130.378
1112.3424670547538,143.416
1121.9779614837898,440.678
1131.6087096607444,268.579
1141.2347150916105,166.884
1150.855981278939,346.806
1160.4725117218331,143.416
1170.0843099159465,365.059
1179.6913793534914,297.262
1189.293723523253,190.352
1198.739039559725,179.922
1208.3320185130287,112.125
1217.9202825891407,5.215
1227.5038352631818,106.91
1237.0826800068826,109.518
1246.6568202885535,195.567
1256.226259573108,80.834
1265.639216696829,148.631
1275.1993388504195,-78.227
1284.7547703264208,174.707
1294.3055145761757,135.593
1303.7000868433097,730.117
1313.241541245312,70.404
1322.778318700337,258.149
1332.310422646282,44.329
1341.686663866676,195.567
1351.2095051416618,36.506
1360.727683146746,135.593
1370.0902294598782,216.428
1379.5991650801443,221.643
1388.9526223370776,159.061
1398.4523290278594,101.695
1407.7967104575073,67.797
1417.287201648047,125.163
1426.7730533080105,237.288
1436.1038095471376,-5.215
1445.5804658554116,57.366
1454.9021792800197,91.265
1464.369653600741,104.302
1473.6823373500883,232.073
1482.9905472474493,119.948
1492.444310209452,52.151
1501.7435100404182,67.797
1511.1881242589734,211.213
1520.4783270994303,-36.506
1529.764072276041,-7.823
1539.1950247490097,83.442
1548.4717924494323,18.253
1557.7441121511074,-13.038
1567.1614324998736,10.43
1576.4247941832873,-106.91
1585.6837175051332,59.974
1594.9382056544855,143.416
1604.3374199708342,130.378
1613.5829759239496,187.744
1622.8241063047317,138.201
1632.0608142900164,271.186
1641.2931030535765,161.669
1650.6697762525291,200.782
1659.8931649322622,88.657
1669.1121439444323,78.227
1678.3267164506542,117.34
1687.53688560953,-70.404
1696.7426545766284,148.631
1705.9440265045123,-70.404
1715.1410045427183,44.329
1724.3335918377925,54.759
1733.5217915332687,2.608
1742.705606769683,-203.39
1751.8850406845886,-62.581
1761.0600964125188,10.43
1770.230777085024,49.544
1779.397085830693,187.744
1788.55902577511,122.555
1797.7166000408906,135.593
1806.8698117476447,-195.567
1816.0186640120735,28.683
1825.163159947857,138.201
1834.1559155330324,185.137
1843.29177827917,-18.253
1852.4232939699289,-28.683
1861.550465707216,-401.565
1870.673296589972,258.149
1879.644751645923,258.149
1888.758979994156,57.366
1897.8688767172423,127.771
1906.974444902422,-33.898
1915.9289277003045,109.518
1925.025917750907,39.113
1934.118588458099,75.619
1943.060390766601,263.364
1952.144501554074,-166.884
1961.2243021666216,96.48
1970.153450902042,192.96
1979.224709758193,132.986
1988.1454604369865,177.314
1997.208189584475,187.744
2006.120554048888,15.645
2015.1747655127983,135.593
2024.0787555828572,-13.038
2033.12446136566,88.657
2042.0200888391555,174.707
2051.057300920809,31.291
2059.9445775734057,96.48
2068.9733079113576,20.86
2077.852245496608,138.201
2086.8725060258803,203.39
2095.743116275291,114.733
2104.6096010526526,117.34
2113.6172135316083,101.695
2122.4753884816528,15.645
2131.329446630596,237.288
2140.324437642892,119.948
2149.170203423979,31.291
2158.011861050589,33.898
2166.994257105456,78.227
2175.8276397748195,-73.012
2184.656922912145,148.631
2193.48210937062,104.302
2202.303202000803,258.149
2211.2647105948345,91.265
2220.077557114586,-26.076
2228.886318388424,88.657
2237.6909972563008,132.986
2246.4915965555265,112.125
2255.2881191208,28.683
2264.0805677841927,99.087
2272.8689453751285,177.314
2281.6532547204406,224.25
2290.5774032157133,44.329
2299.353517963282,205.997
2308.125572976198,205.997
2316.893571070781,83.442
2325.6575150607823,112.125
2334.273835606975,156.454
2343.029746164546,179.922
2351.781610997117,203.39
2360.5294329081007,195.442
2369.273214698267,157.629
2378.0129591658333,103.786
2386.7486691064114,47.748
2395.48034731306,3.338
2404.2079965762314,-15.607
2412.788641914361,4.746
2421.5083075861257,78.227
2430.2239526247795,127.771
2438.9355798105607,-57.366
2447.64319192111,140.808
2456.204142101211,161.669
2464.9037980916983,70.404
2473.5994472792227,-49.544
2482.148638712344,-44.329
2490.836348166158,49.544
2499.5200590665554,312.907
2508.0575159626023,190.352
2516.7333034706826,36.506
2525.405100652257,28.683
2533.930847154741,135.593
2542.5947372405863,101.695
2551.112711590584,73.012
2559.768705390503,-62.581
2568.2789182109263,18.253
2576.927026515033,70.404
2585.5711635713087,78.227
2594.069721988235,276.402
2602.5644435408976,73.012
2611.196813145194,104.302
2619.683804921093,-26.076
2628.3083212822166,70.404
2636.7875938271245,65.189
2645.404267656864,20.86
2653.875831497382,-57.366
2662.343576738021,73.012
2670.948539131641,-117.34
2679.408591378582,106.91
2687.8648328054915,349.413
2696.4581076233444,44.329
2704.906671724595,132.986
2713.351432764532,-31.291
2721.792393310454,70.404
2730.370143142005,234.681
2738.8034471581705,122.555
2747.232958411034,75.619
2755.658679458633,80.834
2764.220946338093,-146.023
2772.639031576786,130.378
2781.053334313052,33.898
2789.463857095703,46.936
2797.8706024712737,169.492
2806.2735729839987,96.48
2814.672771175843,39.113
2823.0681995864725,166.884
2831.459860753297,13.038
2839.847757211428,13.038
2848.231891493713,-104.302
2856.612266130724,151.239
2864.988883650767,33.898
2873.3617465798743,91.265
2881.7308574418275,146.023
2890.096218758139,203.39
2898.457833048058,41.721
2906.815702828586,143.416
2915.169830614461,221.643
2923.5202189181878,151.239
2931.8668702499926,-13.038
2940.209787117892,-39.113
2948.41001618022,73.012
2956.7455337723804,-10.43
2965.077324369493,67.797
2973.405390470638,192.96
2981.7297345726547,-41.721
2989.9117125592966,83.442
2998.2286820744484,13.038
3006.5419370261297,36.506
3014.8514799023105,41.721
3023.0189130185245,185.137
3031.3211009634906,-13.038
3039.619584242202,104.302
3047.776149306213,151.239
3056.067292329164,112.125
3064.2166442633534,226.858
3072.500456765243,221.643
3080.780576892153,161.669
3088.919096831967,59.974
3097.1919010483834,122.555
3105.3232317767324,75.619
3113.588729774354,-80.834
3121.712880813,93.872
3129.9710822664056,153.846
3138.0880631202745,83.442
3146.338977686973,65.189
3154.448797844241,117.34
3162.692435164703,114.733
3170.7951040967964,192.96
3178.894230970407,179.922
3187.127000956163,7.823
3195.218990740796,49.544
3203.3074454664093,122.555
3211.5293695924192,117.34
3219.610701328027,62.581
3227.688504985643,-31.291
3235.899604670318,67.797
3243.9702993997853,93.872
3252.03747301393,52.151
3260.1011278165533,-26.076
3268.297848330192,226.858
3276.354412870096,67.797
3284.407465536773,78.227
3292.4570086259846,83.442
3300.5030444314834,242.503
3308.545575245,119.948
3316.720827896272,-93.872
3324.756296283769,44.329
3332.788266581294,49.544
3340.816741072602,99.087
3348.8417220394404,52.151
3356.8632117615925,380.704
3364.8812125168406,112.125
3372.895726580995,93.872
3380.906756227865,75.619
3388.91430372934,93.872
3396.918371355256,104.302
3404.9189613735507,114.733
3412.9160760501472,73.012
3420.909717649003,52.151
3428.8998884321263,31.291
3436.886590659553,190.352
3444.734546370892,39.113
3452.714376952972,-20.86
3460.690745709508,104.302
3468.663654892749,73.012
3476.633106752961,62.581
3484.5991035384795,109.518
3492.4267178764712,52.151
3500.385869715596,-31.291
3508.341573175334,138.201
3516.293830496281,119.948
3524.1079469444667,15.645
3532.0533770164475,-104.302
3539.9953676218797,127.771
3547.7993978646555,44.329
3555.734574435446,151.239
3563.666318194715,41.721
3571.460281747888,52.151
3579.385224652753,-7.823
3587.30674138396,62.581
3595.090657713052,140.808
3603.00538673612,166.884
3610.782634691175,143.416
3618.6905847266535,114.733
3626.461172873067,93.872
3634.362352626544,166.884
3642.1262895150494,91.265
3650.020707677235,151.239
3657.778001843908,57.366
3665.665667090652,104.302
3673.416327056992,-54.759
3681.163701429177,70.404
3689.041282322214,250.326
3696.782035212709,-7.823
3704.6528847781447,31.291
3712.3870246721344,-2.608
3720.117889469839,13.038
3727.845481251112,15.645
3735.702951367959,187.744
3743.4239470074463,-59.974
3751.141675895298,187.744
3758.989119491133,216.428
3766.700264858686,54.759
3774.408149723422,62.581
3782.1127761528696,83.442
3789.814146212797,143.416
3797.644959575024,-83.442
3805.339767031168,93.872
3813.03132434014,-88.657
3820.7196335607214,-255.541
3828.404696749953,18.253
3836.086515963114,80.834
3843.76509325378,166.884
3851.4404306737633,-13.038
3859.112530273167,-26.076
3866.7813941003615,23.468
3874.4470242019815,91.265
3882.109422622947,161.669
3889.7685914064414,13.038
3897.4245325939337,383.312
3905.0772482251705,59.974
3912.7267403381848,31.291
3920.373010969284,39.113
3928.016062153074,140.808
3935.655895922435,86.05
3943.292514308545,192.96
3950.925919340858,88.657
3958.424585178429,80.834
3966.051624900327,112.125
3973.675457311714,75.619
3981.296084435249,159.061
3988.913508291902,109.518
3996.396478310664,-192.96
4004.007556831755,179.922
4011.615438103967,117.34
4019.220124141517,46.936
4026.690583777876,200.782
4034.288940385857,99.087
4041.8841077570687,148.631
4049.3452186808136,143.416
4056.934068499933,122.555
4064.519735065173,205.997
4071.971514814119,33.898
4079.550875675057,36.506
4086.996462302253,54.759
4094.5695253181984,93.872
4102.008926541021,67.797
4109.575699558212,46.936
4117.008923081237,109.518
4124.569413932906,127.771
4131.996467447912,33.898
4139.550683954272,101.695
4146.971575140262,57.366
4154.519525108568,164.276
4161.93426163181,-44.329
4169.475952856366,-224.25
4228.011654085007,70.404
4235.396210255021,39.113
4242.907210725418,39.113
4250.415076793586,203.39
4257.7904449892885,138.201
4265.292102093408,101.695
4272.790630641473,52.151
4280.156827999919,52.151
4287.649159161061,159.061
4295.138367597785,-13.038
4302.4954112134365,-2.608
4309.978433811593,143.416
4317.329402006981,130.378
4324.8062464273535,182.529
4332.151146724958,156.454
4339.621820615692,36.506
4346.960660525576,135.593
4354.425171522191,242.503
4361.757958542046,279.009
4369.216314267462,151.239
4376.543055882612,466.754
4383.9952639471885,234.681
4391.315967630617,28.683
4398.762035632179,234.681
4406.07670884455,-7.823
4413.516644368407,138.201
4420.825294558097,156.454
4428.130962180556,164.276
4435.561739780205,125.163
4442.861395497304,31.291
4450.1580741507205,78.227
4457.579710724684,187.744
4464.870388562711,112.125
4472.158094827057,190.352
4479.570607232323,224.25
4486.852323743988,159.061
4494.131074158497,96.48
4501.534479210626,-127.771
4508.807250907994,91.265
4516.077061971264,-5.215
4523.3439142079005,26.076
4530.735219799091,7.823
4537.996107969229,-169.492
4545.254042757973,260.756
4552.509025966887,46.936
4559.888261734326,130.378
4567.13729547953,117.34
4574.383383072374,221.643
4581.626526308552,36.506
4588.866726982291,93.872
4596.103986886381,315.515
4603.338307812148,49.544
4610.69653172473,39.113
4617.92492857972,39.113
4625.150391852971,205.997
4632.372923329975,114.733
4639.592524794789,140.808
4646.809198030001,112.125
4654.022944816745,-93.872
4661.233766934747,70.404
4668.441666162253,242.503
4675.646644276094,-57.366
4682.8487030516335,132.986
4690.047844262837,185.137
4697.244069682201,10.43
4704.437381080781,106.91
4711.627780228235,130.378
4718.815268892759,117.34
4725.999848841122,132.986
4733.181521838655,166.884
4740.3602896492885,151.239
4747.536154035501,106.91
4754.583300303697,99.087
4761.753413983191,122.555
4768.9206294863325,250.326
4776.084948569973,96.48
4783.246372989488,99.087
4790.404904498872,7.823
4797.435032206777,226.858
4804.5878338284165,70.404
4811.73774776268,153.846
4818.884775757928,229.465
4826.028919561082,135.593
4833.044920461813,33.898
4840.183351639585,59.974
4847.3189038270575,80.834
4854.451578765569,65.189
4861.456318765864,99.087
4868.58329482688,127.771
4875.707398824052,73.012
4882.703723295803,106.91
4889.822138682386,28.683
4896.937687177771,185.137
4903.925611277555,125.163
4911.035481404608,106.91
4918.142489800703,-33.898
4925.122028648751,198.175
4932.223368894192,-112.125
4939.197342363797,-26.076
4946.293021236786,166.884
4953.385846941688,169.492
4960.35146024984,211.213
4967.43863475923,205.997
4974.398699333346,86.05
4981.480229398396,93.872
4988.43475186592,18.253
4995.510644227063,46.936
5002.459631204903,52.151
5009.529892591847,75.619
5016.473350686378,185.137
5023.537987818112,104.302
5030.475923625207,65.189
5037.534943210041,-7.823
5044.467363315067,78.227
5051.397052412052,203.39
5058.447683028528,432.855
5065.371866252855,153.846
5072.416896017057,65.189
5079.335579928018,224.25
5086.251540943114,151.239
5093.288206657562,166.884
5100.198678149784,96.48
5107.106431592307,177.314
5114.134748143202,93.872
5121.037021830118,13.038
5127.93658230202,33.898
5134.833431158368,-49.544
5141.85065500065,135.593
5148.742037069234,153.846
5155.630712341699,67.797
5162.516682412504,28.683
5169.522839786696,104.302
5176.403355996677,192.96
5183.281171809234,28.683
5190.156288813778,65.189
5197.028708598496,5.215
5204.021081907653,-10.43
5210.888063918697,41.721
5217.752353495271,26.076
5224.613952220541,182.529
5231.472861676462,112.125
5238.329083443728,234.681
5245.182619101804,-39.113
5252.033470228904,0.0
5258.881638402017,-161.669
5265.727125196914,23.468
5272.569932188097,-36.506
5279.532181775125,73.012
5286.369586094326,26.076
5293.204315354014,41.721
5300.036371123795,-44.329
5306.865754971979,91.265
5313.692468465706,86.05
5320.516513170878,-83.442
5327.216103720151,-182.529
5334.034863128356,91.265
5340.850958410447,-18.253
5347.664391127459,10.43
5354.475162839211,-93.872
5361.283275104273,73.012
5368.088729480027,80.834
5374.891527522632,172.099
5381.6916707870405,36.506
5388.489160826968,284.224
5395.162686039381,-15.645
5401.954921596684,80.834
5408.744508555763,153.846
5415.531448465517,57.366
5422.31574287366,132.986
5428.976315601984,44.329
5435.7553708175255,36.506
5442.531785139763,127.771
5449.305560111599,-78.227
5456.076697274744,2.608
5462.724355191152,54.759
5469.490268392445,73.012
5476.253548375513,-36.506
5482.893493883399,-39.113
5489.651558992991,-205.997
5496.406995464167,73.012
5503.039241977291,-62.581
5509.789472642318,20.86
5516.5370792381145,-73.012
5523.161640139158,26.076
5529.904049975114,192.96
5536.643840300443,-67.797
5543.260728941095,281.617
5549.995331531944,62.581
5556.607128017575,354.628
5563.336548861262,88.657
5569.943259067753,-2.608
5576.667504142417,127.771
5583.269133936614,127.771
5589.988209211173,23.468
5596.58476445092,-73.012
5603.298675885118,161.669
5609.890162419251,-62.581
5616.598915963696,109.518
5623.185339632037,-179.922
5629.888941228186,26.076
5636.470307861637,2.608
5643.16876344182,0.0
5649.745078862296,78.227
5656.438394349752,13.038
5663.009664370256,96.48
5669.578436568787,91.265
5676.264076103718,-20.86
5682.827811578958,-26.076
5689.3890535265455,57.366
5696.067030305661,10.43
5702.623244186747,78.227
5709.176968824671,15.645
5715.847296014435,153.846
5722.39600122282,99.087
5728.942221462719,23.468
5735.4859581482815,2.608
5742.146121627004,-62.581
5748.684850350968,104.302
5755.221099782248,117.34
5761.754871330697,224.25
5768.404894310675,57.366
5774.933669330552,86.05
5781.459970716278,-46.936
5787.983799873429,80.834
5794.505158206499,67.797
5801.142549523138,23.468
5807.658925557145,36.506
5814.172834999641,26.076
5820.684279250832,52.151
5827.193259709879,109.518
5833.699777774898,31.291
5840.203834842934,59.974
5846.7054323099655,-83.442
5853.204571570954,-140.808
5859.701254019747,198.175
5866.195481049195,31.291
5872.687254051074,-153.846
5879.176574416102,-2.608
5885.663443533944,78.227
5892.14786279323,70.404
5898.629833581537,122.555
5905.109357285379,-18.253
5911.586435290243,341.591
5918.061068980562,130.378
5924.533259739736,-49.544
5931.003008950094,44.329
5937.470317992949,88.657
5943.935188248557,88.657
5950.397621096134,26.076
5956.857617913869,93.872
5963.315180078898,13.038
5969.7703089673305,46.936
5976.105705888956,153.846
5982.556016527509,419.817
5989.003897986593,18.253
5995.449351638199,148.631
6001.8923788532775,153.846
6008.215900781644,36.506
6014.654123287393,104.302
6021.089923438405,106.91
6027.523302601519,-49.544
6033.954262142564,-10.43
6040.265942433929,-323.338
6046.692110755517,33.898
6053.115863521547,164.276
6059.420472023492,93.872
6065.839441620141,-57.366
6072.255999718647,-39.113
6078.553548309683,-31.291
6084.965331270854,-39.113
6091.374706782226,-49.544
6097.665207314269,5.215
6104.06981570238,-67.797
6110.472020679961,-39.113
6116.755484978421,78.227
6123.152930828903,59.974
6129.431725134898,633.638
6135.824417162912,39.113
6142.098546680769,33.898
6148.486490183052,33.898
6154.872039648391,127.771
6161.139160374798,52.151
6167.519969269015,0.0
6173.782438208022,177.314
6180.158511808193,106.91
6186.416334137088,-13.038
6192.787677712448,179.922
6199.040858600842,23.468
6205.291741972564,31.291
6211.656022022646,99.087
6217.902271670246,135.593
6224.261834810408,114.733
6230.503455884398,31.291
6236.742785809074,23.468
6243.095304999864,83.442
6249.330014038809,-39.113
6255.677829386121,-10.43
6261.907922670827,36.506
6268.1357311500615,39.113
6274.476522051649,96.48
6280.699722436162,91.265
6286.920641805642,-15.645
6293.139281413962,-365.059
6299.470738832184,-65.189
6305.684780516531,130.378
6311.896546218988,88.657
6318.106037189755,13.038
6324.428181717434,-44.329
6330.633084905065,-78.227
6336.835717129172,122.555
6343.036079636258,-117.34
6349.234173671932,104.302
6355.544716640681,99.087
6361.738235515753,106.91
6367.929489673777,127.771
6374.118480356665,104.302
6380.305208805476,54.759
6386.489676260331,-28.683
6392.671883960451,-33.898
6398.851833144166,-59.974
6405.143905470883,-49.544
6411.319299566196,140.808
6417.492438877496,65.189
6423.663324639478,-39.113
6429.831958085924,122.555
6435.998340449718,-10.43
6442.162472962846,49.544
6448.324356856407,-52.151
6454.483993360576,0.0
6460.641383704664,-59.974
6466.79652911704,127.771
6472.949430825232,57.366
6479.100090055821,20.86
6485.248508034543,-122.555
6491.280888225534,10.43
6497.424868822251,101.695
6503.5666118162335,-59.974
6509.706118429633,5.215
6515.843389883739,-54.759
6521.978427398899,73.012
6528.111232194642,-36.506
6534.241805489546,195.567
6540.256680928833,417.21
6546.382836142315,73.012
6552.506763482961,44.329
6558.628464165849,135.593
6564.747939405184,117.34
6570.751928194237,75.619
6576.866997341494,39.113
6582.979844660076,-88.657
6589.090471360658,78.227
6595.0857801617385,46.936
6601.192010321647,36.506
6607.296023467985,-91.265
6613.39782080795,96.48
6619.384468430493,-20.86
6625.481878753591,73.012
6631.577076864334,93.872
6637.5572509579,127.771
6643.64806916556,-88.657
6649.623946782151,65.189
6655.71038980603,13.038
6661.794626582923,-83.442
6667.764048126817,73.012
6673.843916808139,-166.884
6679.809053455574,-258.149
6685.884558743659,20.86
6691.957863728712,-91.265
6697.916561697035,122.555
6703.985510351609,73.012
6709.939934962422,-26.076
6716.004531971987,114.733
6721.954687820689,7.823
6728.014937863976,-153.846
6733.960829539363,5.215
6739.904610751524,23.468
6745.95836937274,-99.087
6751.897893261092,-190.352
6757.947316561804,-44.329
6763.8825876987685,174.707
6769.927680334353,-15.645
6775.858703285812,187.744
6781.787623684751,70.404
6787.826249230238,156.454
6793.750928258974,65.189
6799.673508107371,96.48
6805.705676935038,-2.608
6811.624022213946,67.797
6817.540271677499,-7.823
6823.5659941374615,-237.288
6829.478015817709,65.189
6835.387945040406,93.872
6841.407231460638,67.797
6847.312939671727,78.227
6853.216558775894,-28.683
6859.118089881435,132.986
6865.017534095896,20.86
6871.026143398485,52.151
6876.921377827312,-153.846
6882.814528703813,26.076
6888.705597132364,-2.608
6894.594584216582,-18.253
6900.592544785228,140.808
6906.477333270021,125.163
6912.360043737404,119.948
6918.240677287846,-91.265
6924.119235021055,7.823
6929.995718035963,-18.253
6935.870127430717,-104.302
6941.742464302697,-13.038
6947.6127297485,28.683
6953.480924863958,23.468
6959.347050744116,132.986
6965.21110848328,-526.728
6971.073099174937,127.771
6976.93302391185,96.48
6982.79088378598,49.544
6988.64667988853,78.227
6994.500413309928,211.213
7000.35208513985,-106.91
7006.201696467178,59.974
7012.049248380063,-237.288
7017.894741965851,-99.087
7023.738178311156,80.834
7029.579558501813,5.215
7035.418883622879,2.608
7041.2561547586665,255.541
7047.091372992727,114.733
7052.924539407839,44.329
7058.645653010426,213.82
7064.474757695687,49.544
7070.301813785409,112.125
7076.126822359336,54.759
7081.949784496486,33.898
7087.660891581778,-57.366
7093.479802640664,-57.366
7099.296670474898,93.872
7105.111496160462,96.48
7110.814624476749,114.733
7116.625407570507,106.91
7122.434151718757,46.936
7128.2408579944895,237.288
7133.936024250346,39.113
7139.73869639702,135.593
7145.53933386541,39.113
7151.22854892195,132.986
7157.025158582874,5.215
7162.819736753059,33.898
7168.503009933542,-109.518
7174.293566604632,52.151
7180.082094965896,15.645
7185.759435574095,59.974
7191.54394873148,26.076
7197.2173519438,226.858
7202.997854073568,59.974
7208.667323984642,99.087
7214.443819257263,26.076
7220.109359956041,46.936
7225.881852536215,117.34
7231.54346810597,31.291
7237.311962152613,15.645
7242.969656670975,88.657
7248.734156337254,59.974
7254.387933876205,73.012
7260.148443309525,-5.215
7265.798307935409,96.48
7271.554831277448,148.631
7277.20078705097,106.91
7282.953328437674,80.834
7288.59537941395,41.721
7294.235498085545,54.759
7299.982093204053,5.215
7305.618313131272,-190.352
7311.252603748333,33.898
7316.993261813666,-36.506
7322.623659726734,57.366
7328.252131317968,-143.416
7333.9868615261075,-104.302
7339.611446441268,-23.468
7345.234108016753,-10.43
7350.962919544712,205.997
7356.581700459581,65.189
7362.198561010817,106.91
7367.813502182726,132.986
7373.426524958988,83.442
7379.145517410223,44.329
7384.7546694986595,-46.936
7390.361906157261,106.91
7395.967228366993,297.262
7401.570637108154,46.936
7407.279835705631,83.442
7412.879383697611,-57.366
7418.477021176703,151.239
7424.072749120482,179.922
7429.666568505905,-101.695
7435.258480309247,57.366
7440.848485506111,148.631
7446.436585071431,28.683
7452.022779979503,41.721
7457.607071203925,36.506
7463.296794702215,54.759
7468.877244915177,75.619
7474.455794380043,132.986
7480.032444067743,-15.645
7485.607194948596,-13.038
7491.18004799222,135.593
7496.751004167574,73.012
7502.2129850032,216.428
7507.7801867781745,70.404
7513.345494569261,80.834
7518.908909342786,73.012
7524.470432064445,151.239
7530.03006369928,0.0
7535.587805211653,18.253
7541.1436575652915,83.442
7546.697621723266,52.151
7552.249698647978,88.657
7557.693172648,13.038
7563.241514237732,59.974
7568.787971459049,57.366
7574.332545271769,26.076
7579.87523663506,93.872
7585.416046507413,78.227
7590.848475703144,26.076
7596.385561603231,59.974
7601.920768865631,216.428
7607.454098446255,-41.721
7612.879194899509,20.86
7618.4088080453,39.113
7623.936546354853,-18.253
7629.462410781522,104.302
7634.880189328982,65.189
7640.402344837916,106.91
7645.9226293018255,104.302
7651.334937948188,78.227
7656.851519109852,138.201
7662.260197498763,10.43
7667.773079083498,-10.43
7673.284094334183,75.619
7678.687316594296,294.654
7684.194637864675,96.48
7689.7000956236625,-41.721
7695.097870006797,-260.756
7700.599639370841,146.023
7705.993798107356,114.733
7711.491882781789,54.759
7716.882429503323,-28.683
7722.376833188511,62.581
7727.763771521855,229.465
7733.254497913214,62.581
7738.637831480286,-33.898
7744.124884268305,62.581
7749.504616686187,143.416
7754.987999556393,-23.468
7760.364134437317,-138.201
7765.738489349154,-33.898
7771.216392021717,-10.43
7776.587154788423,104.302
7782.061396717661,88.657
7787.428570939446,41.721
7792.793969640064,-86.05
7798.262745065967,-10.43
7803.624560595526,93.872
7808.984603262106,75.619
7814.447920368751,5.215
7819.804385227417,-52.151
7825.159079875983,86.05
7830.616946831127,46.936
7835.968069024231,-2.608
7841.317423654822,-65.189
7846.665011598543,-57.366
7852.115636126822,119.948
7857.459658723532,36.506
7862.801917273948,41.721
7868.142412651388,-2.608
7873.481145728587,109.518
7878.922746278997,70.404
7884.257922859626,-28.683
7889.59133977185,96.48
7894.922997886111,59.974
7900.252898072242,-88.657
7905.581041199541,226.858
7910.907428136696,70.404
7916.336446752692,-13.038
7921.65928952102,31.291
7926.980378718883,86.05
7932.29971521271,101.695
7937.617299868325,41.721
7942.933133550996,46.936
7948.247217125423,57.366
7953.559551455743,80.834
7958.870137405502,18.253
7964.178975837705,-130.378
7969.486067614758,132.986
7974.791413598527,23.468
7980.0950146503055,0.0
7985.396871630804,117.34
7990.696985400187,7.823
7995.995356818043,99.087
8001.291986743403,54.759
8006.586876034729,31.291
8011.880025549901,-83.442
8017.067699705829,36.506
8022.357406311574,-18.253
8027.645375694708,-182.529
8032.931608710882,-39.113
8038.216106215201,-179.922
8043.498869062179,78.227
8048.779898105804,75.619
8053.955695240969,-65.189
8059.233293192043,151.239
8064.509159881611,101.695
8069.783296161415,2.608
8074.952338977277,44.329
8080.223050878609,33.898
8085.492034905405,-52.151
8090.759291907168,-52.151
8095.921593616502,174.707
8101.185432936367,153.846
8106.447547759821,36.506
8111.604810570996,-302.477
8116.863512715307,-83.442
8122.120492886879,2.608
8127.272724173963,187.744
8132.526296659391,-132.986
8137.778149690843,-83.442
8142.925356813517,-96.48
8148.173807142077,135.593
8153.4205405305,208.605
8158.562730834117,-33.898
8163.806066493191,5.215
8168.944927307508,187.744
8174.184868536668,-216.428
8179.32040309432,-112.125
8184.55695318873,23.468
8189.689164718173,15.645
8194.922326968728,-78.227
8200.051218694258,88.657
8205.280996387602,52.151
8210.406571529322,23.468
8215.632967947844,211.213
8220.7552297217,187.744
8225.978248143558,-106.91
8231.097199761349,396.349
8236.316843460441,-57.366
8241.43248812982,-86.05
8246.546496881761,101.695
8251.76110130029,117.34
8256.871807891675,-73.012
8261.98088093357,26.076
8267.190453365733,88.657
8272.296229025691,78.227
8277.400373499535,36.506
8282.604921225458,46.936
8287.705773086778,59.974
8292.804996120794,39.113
8298.004526406577,93.872
8303.100461588281,7.823
8308.194770296956,156.454
8313.28745331115,52.151
8318.48031600209,46.936
8323.569717486189,-7.823
8328.657495624051,-31.291
8333.743651192239,-96.48
8338.828184966831,57.366
8344.012739449463,57.366
8349.093999566121,28.683
8354.17364022991,-31.291
8359.251662214898,70.404
8364.328066294685,-15.645
8369.402853242376,294.654
8374.476023830553,0.0
8379.547578831349,-18.253
8384.718901354245,-91.265
8389.787195221597,46.936
8394.853875830348,132.986
8399.91894395064,10.43
8404.98240035212,41.721
8410.044245803958,-2.608
8415.104481074803,-161.669
8420.163106932847,46.936
8425.220124145773,122.555
8430.275533480788,18.253
8435.32933570461,-10.43
8440.381531583458,-159.061
8445.432121883085,44.329
8450.48110736873,-62.581
8455.528488805172,54.759
8460.473367100913,78.227
8465.51757477424,41.721
8470.560180674485,73.012
8475.601185564497,2.608
8480.64059020661,156.454
8485.67839536271,307.692
8490.714601794163,-57.366
8495.749210261878,44.329
8500.681576948675,-65.189
8505.713023691114,-239.896
8510.742874734438,-13.038
8515.771130837642,70.404
8520.797792759218,-190.352
8525.722375497866,-52.151
8530.745883175656,80.834
8535.7677989293,73.012
8540.788123515384,219.035
8545.706498587671,-15.645
8550.723674892208,-346.806
8555.739262280982,62.581
8560.652997083213,28.683
8565.665440644778,13.038
8570.676297538128,-114.733
8575.585398634048,-7.823
8580.593116146138,-2.608
8585.599249233324,-62.581
8590.503723174297,15.645
8595.506721317797,28.683
8600.508137275468,-148.631
8605.40799060051,-2.608
8610.406276043708,-54.759
8615.303062904772,-93.872
8620.298220771765,182.529
8625.191944046568,109.518
8630.18397727198,101.695
8635.074639834631,169.492
8640.063551349394,49.544
8644.951156070434,18.253
8649.936948801806,49.544
8654.821498548154,0.0
8659.804175419777,-7.823
8664.685673054784,23.468
8669.665236986599,-146.023
8674.543685370048,-86.05
8679.520139278378,26.076
8684.395541266465,-65.189
8689.2694364983,2.608
8694.241246509358,13.038
8699.112099609058,271.186
8703.981448060618,-41.721
8708.948620671701,151.239
8713.81493124642,-75.619
8718.779005433622,75.619
8723.642280973501,-52.151
8728.504055374753,15.645
8733.364329332315,-7.823
8738.32224658698,31.291
8743.179491154478,-73.012
8748.035237374625,-80.834
8752.889485940628,49.544
8757.8412577103,-132.986
8762.692482517024,138.201
8767.542211760752,-106.91
8772.39044613298,354.628
8777.336083836857,-93.872
8782.18130006664,52.151
8787.02502351089,-187.744
8791.867254859393,179.922
8796.707994801498,2.608
8801.547244026118,0.0
8806.385003221756,-49.544
8811.319956958603,-54.759
8816.154707786565,-305.085
8820.987970662514,-138.201
8825.819746273257,75.619
8830.650035305174,-39.113
8835.478838444196,-18.253
8840.306156375878,93.872
8845.131989785303,36.506
8849.956339357173,-78.227
8854.779205775758,7.823
8859.60058972489,-44.329
8864.420491888006,73.012
8869.238912948098,-2.608
8874.055853587757,-31.291
8878.871314489159,-5.215
8883.685296334032,70.404
8888.497799803714,-18.253
8893.308825579123,-52.151
8898.118374340735,39.113
8902.926446768637,33.898
8907.634964476681,13.038
8912.440116370435,57.366
8917.243793954342,13.038
8922.045997906822,-46.936
8926.846728905857,-78.227
8931.645987629043,-36.506
8936.443774753548,20.86
8941.142221650607,125.163
8945.937097605834,91.265
8950.73050397759,-88.657
8955.522441441404,-112.125
8960.215160665939,-44.329
8965.004192282166,93.872
8969.791757000756,-26.076
8974.577855495572,192.96
8979.26485751475,57.366
8984.048055470721,-13.038
8988.829789208343,153.846
8993.51251749025,-78.227
8998.291354655303,18.253
9003.068729603765,127.771
9007.747189991118,-59.974
9012.521672326067,-7.823
9017.294694442531,-5.215
9021.968892767374,49.544
9026.739026222178,146.023
9031.41039612206,140.808
9036.17764353675,-7.823
9040.943434050514,-33.898
9045.610551571128,-146.023
9050.373459984672,106.91
9055.037755503963,-5.215
9059.797784430888,36.506
9064.45926050758,297.262
9069.216412558366,-62.581
9073.87507174812,54.759
9078.629349530078,20.86
9083.285194385431,-36.506
9088.036600502714,153.846
9092.689633573158,294.654
9097.438170626783,-26.076
9102.088394458704,80.834
9106.73722909284,239.896
9111.481482183284,67.797
9116.12751137963,-26.076
9120.868901881862,-39.113
9125.512128179163,36.506
9130.153968412898,67.797
9134.891084617178,-101.695
9139.53012574118,73.012
9144.167782675046,-26.076
9148.9006303586,-312.907
9153.535491965213,-172.099
9158.168971251744,36.506
9162.801068836525,101.695
9167.528243916331,5.215
9172.157551197888,52.151
9176.785478643267,57.366
9181.412026869286,-20.86
9186.13353953768,26.076
9190.757302472506,57.366
9195.37968804908,52.151
9200.000696882766,119.948
9204.620329588544,132.986
9209.334785850184,88.657
9213.951639506451,99.087
9218.567118890363,-114.733
9223.181224615444,33.898
9227.79395729483,104.302
9232.40531754132,-18.253
9237.015305967328,-2.608
9241.623923184923,114.733
9246.23116980579,80.834
9250.932987640888,132.986
9255.537466379788,148.631
9260.140576367572,-83.442
9264.742318214474,164.276
9269.342692530376,99.087
9273.941699924766,-315.515
9278.539341006806,10.43
9283.135616385269,-161.669
9287.730526668583,205.997
9292.324072464791,-159.061
9296.91625438162,-13.038
9301.411444872112,99.087
9306.00092923447,130.378
9310.589051525738,-18.253
9315.175812352172,-75.619
9319.761212319692,70.404
9324.345252033823,26.076
9328.927932099774,-67.797
9333.509253122353,26.076
9338.08921570604,-15.645
9342.572446701386,62.581
9347.149722488744,-39.113
9351.7256416359,-31.291
9356.300204745894,10.43
9360.873412421412,104.302
9365.350032145325,-36.506
9369.920558965528,7.823
9374.489732144635,39.113
9379.05755228394,62.581
9383.528899030936,57.366
9388.09404305015,-33.898
9392.657835818722,-166.884
9397.125240831178,49.544
9401.6863610176,70.404
9406.246131739394,-15.645
9410.80455359534,-117.34
9415.266701898625,169.492
9419.822455888205,229.465
9424.281993052333,65.189
9428.835081516963,-370.274
9433.38682407955,26.076
9437.84243511156,-33.898
9442.391515668474,161.669
9446.84452129656,49.544
9451.390942182352,96.48
9455.93602012123,-78.227
9460.385108237591,20.86
9464.927530014324,23.468
9469.374018445214,-2.608
9473.913786387537,5.215
9478.35767741084,127.771
9482.894793843763,-83.442
9487.33608973474,-86.05
9491.87055698055,130.378
9496.30926001177,0.0
9500.74668109923,-41.721
9505.277192831463,15.645
9509.71202445114,-62.581
9514.23989277796,65.189
9518.672137195834,106.91
9523.103102466685,36.506
9527.62702390948,44.329
9532.05540536064,-44.329
9536.57668916292,-28.683
9541.002489053764,-70.404
9545.42701258622,117.34
9549.850260312329,23.468
9554.36630345335,148.631
9558.78697410632,83.442
9563.206370618926,-112.125
9567.718482324255,0.0
9572.13530512818,216.428
9576.550855454823,5.215
9580.965133854,91.265
9585.47202083257,-65.189
9589.883729992052,-39.113
9594.294168883298,-10.43
9598.703338054846,-177.314
9603.111238054931,-7.823
9607.611613766734,39.113
9612.016950092931,132.986
9616.421018902103,54.759
9620.823820741218,-59.974
9625.225356156909,-28.683
9629.625625695517,-5.215
9634.02462990307,-24.907
9638.422369325252,-74.088
9642.81884450748,-140.428
9647.21405599481,-211.595
9651.701478874824,-275.262
9656.094137748323,-319.098
9660.485534571855,-330.774
9664.875669889248,-297.961
9669.264544244,-208.326
9673.65215817932,-49.544
9678.03851223808,99.087
9682.423606962846,7.823
9686.807442895892,23.468
9691.19002057915,-75.619
9695.478134071804,-125.163
9699.858223622705,49.544
9704.23705653629,49.544
9708.614633353289,-18.253
9712.990954614088,18.253
9717.36602085878,-106.91
9721.739832627154,83.442
9726.112390458671,0.0
9730.483694892511,20.86
9734.760779687776,-26.076
9739.129605581998,23.468
9743.497179682729,54.759
9747.863502527893,-130.378
9752.228574655115,-271.186
9756.499562339395,39.113
9760.862161224974,104.302
9765.223510992222,46.936
9769.583612177565,-13.038
9773.849736751828,0.0
9778.207368918504,-114.733
9782.563754099236,26.076
9786.918892829211,182.529
9791.18016259473,151.239
9795.532836519418,101.695
9799.884265585692,18.253
9804.14190615754,65.189
9808.490873566669,-99.087
9812.83859770701,-99.087
9817.09261371952,-67.797
9821.437879345483,-104.302
9825.689490172908,106.91
9830.032299369228,-57.366
9834.373867936378,-86.05
9838.621861899856,187.744
9842.960977171238,26.076
9847.206571054325,-62.581
9851.543235108787,109.518
9855.786430944943,-54.759
9860.12064585897,-122.555
9864.361445679362,7.823
9868.693213527116,289.439
9872.931619360628,-31.291
9877.26094221391,-7.823
9881.49695608711,-7.823
9885.823836015392,39.113
9890.057459952584,-7.823
9894.289902518456,-49.544
9898.613135046206,20.86
9902.843190697367,-146.023
9907.163985452502,-146.023
9911.391656207565,13.038
9915.61814808206,101.695
9919.935303126713,-125.163
9924.15941311792,-5.215
9928.38234571751,-26.076
9932.695865648708,13.038
9936.91641937277,52.151
9941.135797191648,-112.125
9945.445686598703,-39.113
9949.662688544726,46.936
9953.878516069532,-65.189
9958.09316966365,172.099
9962.398234183594,-13.038
9966.61051589339,5.215
9970.821625153134,2.608
9975.031562452265,-59.974
9979.240328279942,54.759
9983.53937957713,-362.451
9987.745778488254,13.038
9991.95100740443,143.416
9996.155066813732,-10.43
10000.357957203963,-83.442
10004.55967906266,106.91
10008.760232877092,172.099
10013.050897176752,-46.936
10017.249090997648,-307.692
10021.446118245014,-39.113
10025.641979405023,125.163
10029.83667496358,41.721
10034.03020540632,112.125
10038.222571218605,2.608
10042.413772885537,-130.378
10046.603810891938,-33.898
10050.79268572236,-99.087
10054.980397861098,54.759
10059.16694779218,-28.683
10063.352335999334,-46.936
10067.536562966066,-18.253
10071.719629175575,-73.012
10075.90153511081,-31.291
10080.082281254454,101.695
10084.26186808891,-36.506
10088.440296096323,-73.012
10092.52676786215,75.619
10096.702904826674,70.404
10100.877884398516,44.329
10105.051707058765,-156.454
10109.224373288234,-179.922
10113.395883567471,122.555
10117.475590772649,52.151
10121.64481569536,-13.038
10125.812886097472,65.189
10129.979802458443,-2.608
10134.145565257517,-70.404
10138.219652237512,-5.215
10142.383134400929,18.253
10146.545464428116,28.683
10150.706642797257,-169.492
10154.776246850048,-5.215
10158.935148346747,-93.872
10163.092899607942,-106.91
10167.159152430871,-39.113
10171.314629631466,36.506
10175.468958016776,-93.872
10179.531863747628,-49.544
10183.683920879565,-138.201
10187.834830614069,10.43
10191.894393383842,-31.291
10196.043034667582,-166.884
10200.190529969435,99.087
10204.246753902304,57.366
10208.391983551395,-41.721
10212.44599199288,31.291
10216.588957845182,39.113
10220.640752609928,88.657
10224.781456519388,73.012
10228.831039420063,33.898
10232.969483238625,-195.567
10237.016856085897,-112.125
10241.15304166346,-99.087
10245.19820626604,20.86
10249.332135450502,-73.012
10253.375093615126,-5.215
10257.506768252357,2.608
10261.547521783785,205.997
10265.58718577827,345.514
10269.715494418666,387.948
10273.752956473523,356.639
10277.87901516247,274.934
10281.91427707755,166.177
10285.948451675904,53.714
10290.0711512271,-39.113
10294.10312837192,-70.404
10298.13401952729,10.43
10302.253364041218,10.43
10306.282060424935,182.529
10310.309672144327,78.227
10314.425665714796,-153.846
10318.451085340042,10.43
10322.475421623927,0.0
10326.498675003731,114.733
10330.610215200984,-54.759
10334.631280043344,-20.86
10338.651263301725,-57.366
10342.670165412448,65.189
10346.687986811625,23.468
10350.704727935088,28.683
10354.80961387438,52.151
10358.824171771252,-39.113
10362.837650708272,41.721
10366.850051120337,-7.823
10370.86137344214,-36.506
10374.871618108127,-59.974
10378.880785552512,-83.442
10382.888876209276,-2.608
10386.984923052532,54.759
10390.990837530662,-96.48
10394.995676531347,13.038
10398.999440487634,242.503
10403.00212983234,-26.076
10407.003744998048,28.683
10411.004286417105,73.012
10415.003754521616,31.291
10419.002149743475,-13.038
10422.999472514348,-7.823
10426.995723265634,-39.113
10430.990902428544,-101.695
10434.985010434026,36.506
10438.889325180557,-265.971
10442.881315942828,-159.061
10446.872236829608,-106.91
10450.86208827093,44.329
10454.85087069661,-67.797
10458.838584536235,5.215
10462.82523021915,18.253
10466.810808174472,127.771
10470.706785742112,-73.012
10474.690253232264,-83.442
10478.672654271297,44.329
10482.653989287404,5.215
10486.634258708573,135.593
10490.525047770485,109.518
10494.50321094102,-67.797
10498.480309789697,-5.215
10502.45634474356,-146.023
10506.342995080442,26.076
10510.316927143493,-65.189
10514.2897965821,174.707
10518.261603822417,185.137
10522.144122034457,44.329
10526.113829736623,62.581
10530.082476508169,-91.265
10533.961905709137,-59.974
10537.92845544769,99.087
10541.89394552126,-117.34
10545.770289396216,15.645
10549.733684937964,-18.253
10553.607981637546,52.151
10557.569284306495,-91.265
10561.52952941227,-83.442
10565.400746905443,59.974
10569.35890163298,-26.076
10573.22807600992,-44.329
10577.184142013864,0.0
10581.05127489159,49.544
10585.005253824836,-78.227
10588.87034681866,70.404
10592.822240332363,-20.86
10596.685295055897,67.797
10600.635104799476,-18.253
10604.496122864624,13.038
10608.443850485746,-156.454
10612.302833502728,23.468
10616.160811022752,15.645
10620.10543022464,91.265
10623.9613750996,-49.544
10627.903916281392,13.038
10631.757830117263,-114.733
10635.61074043666,-67.797
10639.550179321655,-39.113
10643.401060998756,-177.314
10647.250940343372,-213.82
10651.187280591832,78.227
10655.035133687184,109.518
10658.881985632182,65.189
10662.815230898605,-49.544
10666.660058983602,-7.823
10670.50388709854,10.43
10674.346715633475,-62.581
10678.275847672114,-44.329
10682.116655520924,36.506
10685.956464967534,-96.48
10689.795276401208,104.302
10693.633090210977,-26.076
10697.557095575656,91.265
10701.39289265285,-15.645
10705.227693280882,164.276
10709.061497847986,130.378
10712.894306742182,23.468
10716.726120351308,59.974
10720.55693906298,20.86
10724.386763264632,-23.468
10728.302600658342,54.759
10732.130414421008,28.683
10735.957234843503,88.657
10739.783062312445,-187.744
10743.60789721425,7.823
10747.431739935131,153.846
10751.254590861114,54.759
10755.076450378,-10.43
10758.897318871408,-7.823
10762.717196726757,75.619
10766.536084329256,62.581
10770.353982063916,-36.506
10774.170890315563,59.974
10777.98680946881,-41.721
10781.801739908076,276.402
10785.615682017564,23.468
10789.341989100834,-88.657
10793.153978142976,36.506
10796.964979998098,7.823
10800.774995049622,-49.544
10804.58402368077,-31.291
10808.392066274577,88.657
10812.199123213884,-122.555
10816.005194881312,-18.253
10819.723813349112,-13.038
10823.52793799081,-109.518
10827.331078498672,23.468
10831.133235254529,-5.215
10834.848029253728,-169.492
10838.64824198676,-31.291
10842.447472103491,-67.797
10846.24571998498,-54.759
10849.956695412544,46.936
10853.753002267928,-78.227
10857.548328021428,-18.253
10861.342673053316,41.721
10865.049835794096,-13.038
10868.842242790466,96.48
10872.63367019626,57.366
10876.337982712816,93.872
10880.12747431772,86.05
10883.82989575329,-36.506
10887.617453039476,-78.227
10891.404032613404,33.898
10895.103609289945,-39.113
10898.88825677408,-41.721
10902.585945994537,-49.544
10906.368662867266,-31.291
10910.150403901262,62.581
10913.845253813895,-15.645
10917.62506645972,-31.291
10921.318032531915,-15.645
10925.095918264182,49.544
10928.787001936307,-52.151
10932.562962228116,39.113
10936.252164939066,-91.265
10939.940438510435,-31.291
10943.713524449233,-86.05
10947.399919206764,99.087
10951.171083372872,13.038
10954.855600751816,-49.544
10958.62484461311,-192.96
10962.307486047235,-33.898
10965.989200819247,104.302
10969.755577991731,41.721
10973.435418958636,-7.823
10977.114334320191,-5.215
10980.877848072992,-18.253
10984.554891765896,-86.05
10988.231010908596,-78.227
10991.991664505884,-148.631
10995.665914113146,65.189
10999.33924022374,-57.366
11003.011643185791,-49.544
11006.768495629847,-57.366
11010.439031890255,26.076
11014.108646053544,-57.366
11017.777338467138,2.608
11021.530395518184,-182.529
11025.197224058184,226.858
11028.863131897786,216.428
11032.528119383707,106.91
11036.192186862492,-67.797
11039.855334680517,78.227
11043.602720353196,-54.759
11047.264008520897,41.721
11050.924378073953,28.683
11054.58382935806,-62.581
11058.242362718707,15.645
11061.899978501227,-73.012
11065.556677050785,-119.948
11069.21245871235,-10.43
11072.867323830738,-13.038
11076.521272750586,96.48
11080.174305816368,-41.721
11083.826423372368,216.428
11087.477625762698,18.253
11091.127913331318,15.645
11094.777286422,13.038
11098.425745378345,-344.198
11102.073290543767,425.033
11105.719922261547,-114.733
11109.36564087477,-18.253
11113.010446726335,190.352
11116.654340159006,2.608
11120.29732151534,-10.43
11123.93939113774,2.608
11127.580549368427,-83.442
11131.22079654947,-148.631
11134.77550763161,93.872
11138.413954906267,-119.948
11142.051492148485,-88.657
11145.688119699626,15.645
11149.323837900913,-18.253
11152.958647093375,-67.797
11156.508048620988,224.25
11160.141061938251,5.215
11163.773167260852,26.076
11167.40436492916,-44.329
11170.950240228543,-65.189
11174.579644697213,146.023
11178.208142523734,33.898
11181.751381744987,28.683
11185.378088371155,-138.201
11189.003889365817,75.619
11192.628785068173,-73.012
11196.16850723805,132.986
11199.79161440632,-57.366
11203.413817290922,13.038
11206.950910239968,-78.227
11210.571326582844,2.608
11214.10667518314,-18.253
11217.725306305692,-20.86
11221.343034819707,86.05
11224.875759069631,13.038
11228.49170435076,-125.163
11232.022687482247,-36.506
11235.636850848638,-93.872
11239.166094148528,7.823
11242.778476917028,-54.759
11246.305981670925,-7.823
11249.91658515709,138.201
11253.442352649325,44.329
11257.05117816741,143.416
11260.575209681025,91.265
11264.182258544,-93.872
11267.704555360804,23.468
11271.309828880325,-289.439
11274.83039228086,114.733
11278.350099642112,122.555
11281.952723030843,33.898
11285.470698886753,192.96
11288.987819646914,-23.468
11292.587795825824,13.038
11296.103186988752,-234.681
11299.70139304264,-143.416
11303.215055883851,57.366
11306.727865201254,-33.898
11310.23982130582,-164.276
11313.834511810855,65.189
11317.34474212601,28.683
11320.8541201677,62.581
11324.446172200132,15.645
11327.953826352135,10.43
11331.460629168672,86.05
11334.96658095964,-140.808
11338.471682034791,-13.038
11342.059356881087,-28.683
11345.562737216636,-39.113
11349.06526777208,-216.428
11352.566948856567,-83.442
11356.067780779093,31.291
11359.56776384851,5.215
11363.1502007606,0.0
11366.648466857394,132.986
11370.145885034064,-41.721
11373.642455598843,41.721
11377.138178859836,-91.265
11380.633055125,-479.791
11384.1270847021,138.201
11387.620267898808,83.442
11391.112605022612,2.608
11394.60409638087,148.631
11398.094742280777,-143.416
11401.584543029392,140.808
11405.073498933603,2.608
11408.561610300185,59.974
11412.048877435727,-148.631
11415.5353006467,-33.898
11419.020880239405,70.404
11422.505616520008,-62.581
11425.989509794525,10.43
11429.472560368817,-41.721
11432.954768548592,-41.721
11436.43613463944,-44.329
11439.916658946764,2.608
11443.313501961433,36.506
11446.79236364179,-99.087
11450.270384446749,-31.291
11453.74756468115,-54.759
11457.22390464968,-23.468
11460.699404656869,208.605
11464.091344754375,-31.291
11467.565185732994,7.823
11471.038187655771,31.291
11474.51035082668,-117.34
11477.981675549512,23.468
11481.369541233144,-28.683
11484.839209915755,93.872
11488.30804105362,-44.329
11491.693473394258,-15.645
11495.16065027576,-7.823
11498.626990514544,65.189
11502.092494413417,132.986
11505.474679896604,49.544
11508.938531918346,31.291
11512.401548500471,-39.113
11515.78130675673,7.823
11519.242673239612,-117.34
11522.620821260369,36.506
11526.080538823127,-23.468
11529.5394224415,-101.695
11532.915147579475,39.113
11536.372384051368,7.823
11539.74650183491,-31.291
11543.202092336618,15.645
11546.574603913472,7.823
11550.028549620163,-39.113
11553.399456136987,-31.291
11556.85175822272,33.898
11560.221060825072,-57.366
11563.67172046279,41.721
11567.039420295116,-122.555
11570.488438656655,62.581
11573.854536862347,-185.137
11577.301915118398,2.608
11580.666412839755,-52.151
11584.030120381583,-36.506
11587.475050538147,15.645
11590.837159300165,-13.038
11594.280452266124,-83.442
11597.64096338792,161.669
11601.000685734118,-148.631
11604.441534950183,216.428
11607.79966135666,99.087
11611.156999826935,-39.113
11614.59540789372,-39.113
11617.951152122365,-5.215
11621.306109253032,-73.012
11624.66027956261,-57.366
11628.09544335218,-28.683
11631.44802167594,130.378
11634.799814015252,20.86
11638.15082064648,-28.683
11641.58274474832,112.125
11644.932161645294,109.518
11648.280793669244,-70.404
11651.62864109602,-26.076
11654.975704201344,28.683
11658.403590030808,-15.645
11661.749066206958,67.797
11665.093758894744,-143.416
11668.43766836938,-13.038
11671.780794905935,28.683
11675.12313877933,-59.974
11678.4647002644,15.645
11681.805479635816,114.733
11685.145477168146,33.898
11688.484693135812,13.038
11691.904543291126,-18.253
11695.24217790648,-91.265
11698.579031786354,101.695
11701.915105204676,172.099
11705.25039843522,93.872
11708.584911751648,73.012
11711.918645427471,-148.631
11715.251599736104,-91.265
11718.502511651865,-70.404
11721.83392703817,59.974
11725.164563870054,93.872
11728.4944224204,2.608
11731.823502961994,-151.239
11735.15180576744,36.506
11738.479331109273,44.329
11741.806079259855,20.86
11745.132050491462,-122.555
11748.457245076206,-39.113
11751.70058915004,164.276
11755.024250183047,-49.544
11758.34713537819,-187.744
11761.669245007088,18.253
11764.990579341233,130.378
11768.230158619372,-10.43
11771.549962071174,-70.404
11774.86899103535,179.922
11778.187245782876,-59.974
11781.423821624776,-78.227
11784.740547618409,7.823
11788.05650020102,-153.846
11791.371679643096,-65.189
11794.605256223578,-135.593
11797.91890903626,-7.823
11801.231789512534,-109.518
11804.46312397414,62.581
11807.774479408556,-99.087
11811.085063309589,109.518
11814.314157983485,26.076
11817.623218427994,86.05
11820.850827315822,39.113
11824.158365355152,130.378
11827.4651331948,-5.215
11830.690506166697,15.645
11833.995753182851,-57.366
11837.219642936305,7.823
11840.52337017791,140.808
11843.745777735792,-93.872
11847.047986250807,-65.189
11850.26891263506,73.012
11853.569603470474,151.239
11856.789049702087,-26.076
11860.088223903953,70.404
11863.30619100298,-62.581
11866.603849616356,-164.276
11869.820338601929,26.076
11873.11648267094,-54.759
11876.331494561222,-70.404
11879.545777396996,88.657
11882.839660941268,54.759
11886.052468201013,-31.291
11889.26454715598,-93.872
11892.55617250015,-5.215
11895.766777396242,130.378
11899.056892350098,46.936
11902.26602420178,-39.113
11905.474428998024,26.076
11908.682106985869,13.038
11911.969222890988,44.329
11915.17542984806,-80.834
11918.380910743392,-15.645
11921.66577540321,-13.038
11924.869786778698,41.721
11928.07307283808,-86.05
11931.27563382762,39.113
11934.477469993468,-33.898
11937.758600089848,23.468
11940.95896924119,91.265
11944.158614312782,-78.227
11947.35753555032,67.797
11950.55573319941,52.151
11953.753207505528,-5.215
11957.029868231695,-5.215
11960.225878519712,127.771
11963.42116620667,406.78
11966.615731537608,28.683
11969.809574757444,36.506
11973.002696111003,20.86
11976.195095842992,73.012
11979.386774197992,-75.619
11982.577731420495,-93.872
11985.767967754866,-18.253
11988.957483445382,-54.759
11992.146278736183,-62.581
11995.334353871312,-44.329
11998.521709094712,70.404
12001.708344650193,-54.759
12004.894260781464,-492.829
12008.079457732136,-41.721
12011.2639357457,10.43
12014.44769506553,75.619
12017.630735934905,73.012
12020.81305859698,179.922
12023.994663294816,75.619
12027.175550271351,28.683
12030.27622427429,-28.683
12033.455694464548,-49.544
12036.634447655608,-44.329
12039.812484089987,125.163
12042.989804010074,-130.378
12046.166407658158,-44.329
12049.26290681064,46.936
12052.4380965329,33.898
12055.612570703324,299.87
12058.786329563762,5.215
12061.880055974125,57.366
12065.052402807443,182.529
12068.224035049663,148.631
12071.394952942192,73.012
12074.485910333004,-122.555
12077.655418093736,39.113
12080.824212222367,-26.076
12083.913099633974,-99.087
12087.080485047096,57.366
12090.247157544738,-41.721
12093.333977055809,36.506
