Wavenumber (cm⁻¹),Intensity
200.0,355.8235352965577
201.00097751710655,415.27330180924764
202.0019550342131,475.6084602253938
203.00293255131965,512.3985220921908
204.0039100684262,486.6220510294548
205.00488758553274,414.59469342687237
206.0058651026393,337.4286331243269
207.00684261974584,279.9808340835334
208.0078201368524,238.51783101125886
209.00879765395894,205.87748592892436
210.00977517106548,188.30739955112492
211.01075268817203,181.60233820650245
212.01173020527858,177.4614347736608
213.01270772238513,174.48600191742185
214.01368523949168,172.82540502323354
215.01466275659823,173.49927186496151
216.01564027370478,175.24459849029265
217.01661779081132,175.31742835000344
218.01759530791787,177.0675102724456
219.01857282502445,180.10971920234115
220.019550342131,185.77464913247147
221.02052785923755,195.06226224052776
222.0215053763441,203.32298580337374
223.02248289345064,205.24090448593367
224.0234604105572,196.30230509608342
225.02443792766374,178.37393260872147
226.0254154447703,164.7951385486638
227.02639296187684,157.32817298561943
228.02737047898339,153.77564446441653
229.02834799608993,151.79871472401106
230.02932551319648,150.13094372980146
231.03030303030303,149.73689835127882
232.03128054740958,149.31127541247432
233.03225806451613,150.10933394388624
234.03323558162268,151.9518415458558
235.03421309872923,152.68653015598707
236.03519061583577,152.74777964185282
237.03616813294232,153.22823718508732
238.03714565004887,153.3323279360439
239.03812316715542,152.38288776090187
240.03910068426197,152.10381962581025
241.04007820136852,153.25491617593116
242.04105571847506,153.5161899206855
243.0420332355816,153.04843361738307
244.0430107526882,154.46334505066324
245.04398826979474,156.3419142775285
246.0449657869013,156.3075254704339
247.04594330400784,156.71964742908543
248.04692082111438,158.88462842117303
249.04789833822093,158.91798317784506
250.04887585532748,160.4751657030562
251.04985337243403,161.61050185758666
252.05083088954058,163.21333720974326
253.05180840664713,167.29637402841246
254.05278592375367,171.01488993972492
255.05376344086022,172.5676732717301
256.05474095796677,171.88534812984472
257.0557184750733,169.04413380767537
258.05669599217987,163.73340783524253
259.0576735092864,160.25428929572146
260.05865102639297,156.88172956840225
261.0596285434995,154.46974982364742
262.06060606060606,154.6505138692463
263.0615835777126,153.50314857232013
264.06256109481916,155.0229050014568
265.0635386119257,156.05825553738805
266.06451612903226,155.86809800068247
267.0654936461388,157.78841218498087
268.06647116324535,156.72842726072375
269.0674486803519,158.7706667356464
270.06842619745845,162.28095597148186
271.069403714565,164.5490123515704
272.07038123167155,168.6823326137299
273.0713587487781,170.51113446164476
274.07233626588464,172.7013003299146
275.0733137829912,175.5471491112624
276.07429130009774,177.26229480480674
277.0752688172043,177.38245487573403
278.07624633431084,180.31074137038536
279.0772238514174,184.151354237117
280.07820136852393,187.4548134274271
281.0791788856305,190.72430493898563
282.08015640273703,196.04092764431334
283.0811339198436,199.71950724773876
284.08211143695013,203.83752015802062
285.0830889540567,210.03382446407844
286.0840664711632,216.32348192039416
287.0850439882698,225.62833282510934
288.0860215053764,235.56334610744707
289.0869990224829,244.1243163643382
290.0879765395895,250.2896751899226
291.088954056696,255.81869480873755
292.0899315738026,257.5663702375948
293.0909090909091,254.08904976711705
294.09188660801567,246.95887951664707
295.0928641251222,240.05687678152503
296.09384164222877,232.91243057177113
297.0948191593353,225.70216853242457
298.09579667644186,220.5115284604075
299.0967741935484,217.71917676295243
300.09775171065496,215.94996975266847
301.0987292277615,216.09710327205653
302.09970674486806,215.89472944653718
303.1006842619746,218.11412479136277
304.10166177908116,223.33690623569137
305.1026392961877,227.2320519809622
306.10361681329425,233.83405632783686
307.1045943304008,241.9529322859445
308.10557184750735,249.7357622129027
309.1065493646139,254.9208266852641
310.10752688172045,253.85700339308528
311.108504398827,249.07894509031797
312.10948191593354,239.3468517863863
313.1104594330401,227.4669930436505
314.11143695014664,218.38473786312454
315.1124144672532,210.1057558709524
316.11339198435974,204.09657883308546
317.1143695014663,200.85489362539624
318.11534701857283,199.77424333813272
319.1163245356794,199.33415826074935
320.11730205278593,200.43964444503249
321.1182795698925,201.38889778522727
322.119257086999,204.9485047502629
323.1202346041056,211.06812144704168
324.1212121212121,214.74078495282635
325.1221896383187,218.59457009801127
326.1231671554252,224.6215596296994
327.12414467253177,229.86110475627672
328.1251221896383,231.41577578916616
329.12609970674487,228.6031185393082
330.1270772238514,218.6056625335392
331.12805474095796,206.625764057562
332.1290322580645,194.45248845976303
333.13000977517106,183.7519565144796
334.1309872922776,178.43099890265043
335.13196480938416,173.14837521723456
336.1329423264907,169.78633783528528
337.13391984359725,168.7883323918268
338.1348973607038,168.7240079240931
339.13587487781035,167.107829941789
340.1368523949169,166.31372033856036
341.13782991202345,166.1699275653741
342.13880742913,166.96900836471585
343.13978494623655,169.22750340085537
344.1407624633431,170.56778628811756
345.14173998044964,171.85182451163175
346.1427174975562,173.2542170315834
347.14369501466274,175.2754044041191
348.1446725317693,178.59803476414586
349.14565004887584,182.97760265415548
350.1466275659824,186.81675644987914
351.14760508308893,191.80889521454588
352.1485826001955,199.93854993778487
353.14956011730203,210.87273873114952
354.1505376344086,221.78575212165362
355.1515151515151,233.64537999031978
356.1524926686217,247.48594468390624
357.1534701857282,261.5829330893895
358.1544477028348,273.6220778361123
359.1554252199413,283.4394212116343
360.15640273704787,295.5190289998562
361.1573802541544,309.6965486596902
362.15835777126097,325.7546113316553
363.1593352883675,344.2879035476708
364.16031280547406,365.67301768535447
365.1612903225806,389.50690319770325
366.16226783968716,414.4072752942836
367.1632453567937,440.3680956281591
368.16422287390026,468.8504340574378
369.1652003910068,505.4681587318299
370.16617790811335,544.0292406301588
371.1671554252199,583.2841646728822
372.16813294232645,620.7076149832554
373.169110459433,648.5267370682143
374.17008797653955,657.2962027194077
375.1710654936461,638.849029946163
376.1720430107527,599.2279457813368
377.17302052785925,550.1754920352729
378.1739980449658,502.57354588129084
379.17497556207235,463.02756546497477
380.1759530791789,434.4089549264243
381.17693059628544,418.60834280488785
382.177908113392,411.86332403631627
383.17888563049854,407.5605762414071
384.1798631476051,402.0162062468434
385.18084066471164,390.7047486288903
386.1818181818182,367.2520778789756
387.18279569892474,336.6033368464138
388.1837732160313,306.94386987497523
389.18475073313783,278.33225541323736
390.1857282502444,253.18737470870673
391.18670576735093,235.31580892004146
392.1876832844575,222.04540807300197
393.188660801564,210.41539221921929
394.1896383186706,203.7858357367156
395.1906158357771,199.01080839687603
396.1915933528837,194.6738252905026
397.1925708699902,191.6759088404976
398.19354838709677,190.2699673244939
399.1945259042033,188.6380565814923
400.19550342130987,190.47557913006048
401.1964809384164,189.91224387320582
402.19745845552296,188.4174050181442
403.1984359726295,188.45669129387295
404.19941348973606,188.3704077111139
405.2003910068426,190.19678293724724
406.20136852394916,190.3489896059781
407.2023460410557,191.6008741564428
408.20332355816225,195.5824025274727
409.20430107526886,198.3671356941964
410.2052785923754,202.4501142918234
411.20625610948196,206.34710619361826
412.2072336265885,209.55645544417828
413.20821114369505,213.58541751629176
414.2091886608016,219.725370227315
415.21016617790815,224.02580596007667
416.2111436950147,229.13862530066135
417.21212121212125,234.36254699766826
418.2130987292278,237.36703458893902
419.21407624633434,238.51927603592796
420.2150537634409,242.06249312639844
421.21603128054744,247.4640959491629
422.217008797654,253.387602898244
423.21798631476054,257.8485365144915
424.2189638318671,261.8096793127421
425.21994134897363,270.52200008120644
426.2209188660802,279.46719629212623
427.22189638318673,286.0672970789633
428.2228739002933,291.97802467193577
429.2238514173998,299.3226398770613
430.2248289345064,308.11189076949796
431.2258064516129,315.43613373346466
432.2267839687195,315.4073703231605
433.227761485826,310.66011850333814
434.22873900293257,303.0910587237163
435.2297165200391,292.0024827785043
436.23069403714567,277.9264850413523
437.2316715542522,261.2569901655811
438.23264907135876,246.8613690582883
439.2336265884653,235.00260348897172
440.23460410557186,224.13308012927325
441.2355816226784,216.92892308769274
442.23655913978496,208.45239014504196
443.2375366568915,202.34083643079126
444.23851417399806,198.65389708415634
445.2394916911046,195.68021868505394
446.24046920821115,192.79102964176158
447.2414467253177,191.04773255717828
448.24242424242425,190.35521470586383
449.2434017595308,189.10056437506728
450.24437927663735,188.1385493365574
451.2453567937439,187.0945751818119
452.24633431085044,186.62547010154134
453.247311827957,185.57647564901907
454.24828934506354,185.10189912489813
455.2492668621701,184.148037795483
456.25024437927664,182.73067479943873
457.2512218963832,182.13290610081387
458.25219941348973,181.8818292494165
459.2531769305963,181.2097457182784
460.25415444770283,179.80385479471028
461.2551319648094,178.45963179826046
462.2561094819159,177.02627388536993
463.2570869990225,179.29196389650767
464.258064516129,180.47278260433185
465.2590420332356,179.666996391723
466.2600195503421,178.56134225734877
467.26099706744867,179.10584721097396
468.2619745845552,181.0500252584459
469.26295210166177,179.9461633785919
470.2639296187683,178.34790480230373
471.26490713587486,179.1214285800373
472.2658846529814,181.39915023509278
473.26686217008796,182.39846776042356
474.2678396871945,181.64387290890724
475.26881720430106,181.92885314718535
476.2697947214076,181.72012185541342
477.27077223851416,181.50592173622118
478.2717497556207,182.80418136983377
479.27272727272725,182.54933589608237
480.2737047898338,183.75575862685707
481.27468230694035,183.885316039533
482.2756598240469,183.77808060672552
483.27663734115345,184.2412675624503
484.27761485826,183.0874515414498
485.27859237536654,183.68189182194027
486.2795698924731,183.7103703077709
487.28054740957964,184.55444237432232
488.2815249266862,185.91021301946944
489.2825024437928,186.17502196842463
490.28347996089934,186.1501084915437
491.2844574780059,186.86347157499478
492.28543499511244,187.75284459475216
493.286412512219,188.0486189671369
494.28739002932554,188.2495366700305
495.2883675464321,189.88869014810368
496.28934506353863,191.57686233775212
497.2903225806452,191.61354048818674
498.29130009775173,192.43005536216089
499.2922776148583,194.4936439837694
500.2932551319648,196.69005800715473
501.2942326490714,199.84134096117043
502.2952101661779,202.5149606405231
503.2961876832845,206.52896710019292
504.297165200391,211.26250558776445
505.29814271749757,216.5855475766559
506.2991202346041,223.3038274771119
507.30009775171067,228.80236422796338
508.3010752688172,235.14871279683655
509.30205278592376,240.16641560791277
510.3030303030303,244.05955038059514
511.30400782013686,248.6114153866182
512.3049853372434,255.30910672886955
513.3059628543499,263.3705368858907
514.3069403714564,270.2145568849258
515.307917888563,278.43736970165304
516.3088954056695,288.5238713493402
517.3098729227761,298.5608191662487
518.3108504398826,310.9257883520956
519.3118279569892,326.6714492986879
520.3128054740957,340.5237850919608
521.3137829912023,355.76396608289207
522.3147605083088,370.45644014319254
523.3157380254154,374.853838811099
524.3167155425219,369.6540966072196
525.3176930596285,350.3707872135876
526.318670576735,323.7994711382268
527.3196480938416,295.35211630659364
528.3206256109481,269.23648337241707
529.3216031280547,250.11615917413394
530.3225806451612,234.9648021438473
531.3235581622678,225.30401657853633
532.3245356793743,219.11040700343077
533.3255131964809,213.05551486622892
534.3264907135874,208.42367817213034
535.327468230694,209.38568438292228
536.3284457478005,206.0427648342632
537.3294232649071,203.24572680205537
538.3304007820136,201.17613305216307
539.3313782991202,199.98391603598355
540.3323558162267,200.5053813165479
541.3333333333333,200.15244005393075
542.3343108504398,200.06025702845344
543.3352883675464,199.90027878747327
544.3362658846529,199.37003581313678
545.3372434017595,199.04763729120316
546.338220918866,200.28679822887105
547.3391984359725,202.80965453929045
548.3401759530791,201.39964827805366
549.3411534701856,201.07342857381244
550.3421309872922,202.09165668865214
551.3431085043987,203.13207999703135
552.3440860215054,204.4370547220605
553.345063538612,204.78373651420767
554.3460410557185,205.20887686240732
555.347018572825,206.1682327440452
556.3479960899316,207.83899428048068
557.3489736070381,210.46355641952584
558.3499511241447,213.38728600491945
559.3509286412512,214.15069131869106
560.3519061583578,215.51399414018954
561.3528836754643,215.64747571667857
562.3538611925709,216.28618716463882
563.3548387096774,218.61013183049974
564.355816226784,220.46441346376227
565.3567937438905,221.07747322063307
566.3577712609971,222.75115850199623
567.3587487781036,225.01772405040842
568.3597262952102,226.73161766471938
569.3607038123167,228.91947967050305
570.3616813294233,234.1294396990158
571.3626588465298,239.72792374010388
572.3636363636364,242.28742503818523
573.3646138807429,244.55735357874465
574.3655913978495,246.52460575944485
575.366568914956,245.86109445260558
576.3675464320626,242.25115182959524
577.3685239491691,237.632510515963
578.3695014662757,232.71599900934376
579.3704789833822,228.45545357481103
580.3714565004888,225.3942397920023
581.3724340175953,223.4358296556305
582.3734115347019,222.7724722822703
583.3743890518084,225.14233729678912
584.375366568915,225.47514812042377
585.3763440860215,224.98160786835373
586.377321603128,225.19741475890646
587.3782991202346,226.2829772370512
588.3792766373411,227.4942000614978
589.3802541544477,227.3595395531281
590.3812316715542,225.35463643667651
591.3822091886608,223.4493002753715
592.3831867057673,221.5644117835926
593.3841642228739,219.55312577300282
594.3851417399804,217.85802599954218
595.386119257087,216.57474380541876
596.3870967741935,216.6759079380795
597.3880742913001,218.04301093726266
598.3890518084066,218.098269410568
599.3900293255132,216.27982846739837
600.3910068426197,215.6634032765984
601.3919843597263,217.98877544217888
602.3929618768328,219.2721801062092
603.3939393939394,216.83967367640324
604.3949169110459,217.8286708502613
605.3958944281525,219.94747404330155
606.396871945259,218.75932697760678
607.3978494623656,218.2640793874469
608.3988269794721,220.03931956761747
609.3998044965787,220.41781630500967
610.4007820136852,219.0720452146371
611.4017595307918,219.92073404721867
612.4027370478983,222.96462530455398
613.4037145650049,222.88891620638606
614.4046920821114,221.8213838578288
615.405669599218,221.7496105490945
616.4066471163245,221.12054901507202
617.4076246334312,221.1335089578768
618.4086021505377,223.1450852861475
619.4095796676443,225.6005130182695
620.4105571847508,224.14103565291379
621.4115347018574,222.87438312478218
622.4125122189639,225.11816889188674
623.4134897360705,226.71935140711966
624.414467253177,225.83576131578945
625.4154447702836,225.15933717784196
626.4164222873901,224.83167189896838
627.4173998044967,225.40595807656032
628.4183773216032,226.748600485434
629.4193548387098,227.75681797244584
630.4203323558163,228.6470159391455
631.4213098729228,229.3702558219041
632.4222873900294,229.06676091573954
633.423264907136,230.46388392098925
634.4242424242425,231.49335460265382
635.425219941349,231.1596268781923
636.4261974584556,231.63690042454385
637.4271749755621,232.95312652076296
638.4281524926687,231.99308028189216
639.4291300097752,230.0495993011999
640.4301075268818,232.48625839840514
641.4310850439883,233.96034662835683
642.4320625610949,234.24302574963764
643.4330400782014,235.04668987861248
644.434017595308,236.6842229793774
645.4349951124145,237.74499945233086
646.4359726295211,237.02034514847574
647.4369501466276,238.8664606067299
648.4379276637342,239.486943414247
649.4389051808407,238.65872915975498
650.4398826979473,239.19482969243197
651.4408602150538,241.56455583459334
652.4418377321604,243.02337967370684
653.4428152492669,243.1592622693604
654.4437927663735,242.6024020755311
655.44477028348,243.7266631967751
656.4457478005866,244.94390576297124
657.4467253176931,245.0032641578279
658.4477028347997,247.01400583801376
659.4486803519062,249.25751886212646
660.4496578690128,251.7981568379057
661.4506353861193,254.17805767614533
662.4516129032259,255.46799067386638
663.4525904203324,256.66322514923814
664.453567937439,258.66336297702117
665.4545454545455,259.77706271426155
666.455522971652,261.2083636388171
667.4565004887586,262.1809203384185
668.4574780058651,266.00992353693323
669.4584555229717,269.87093355760885
670.4594330400782,272.24804381365107
671.4604105571848,275.97943197800663
672.4613880742913,279.19242724160347
673.4623655913979,283.6967726195656
674.4633431085044,288.49691180099546
675.464320625611,299.36925599147486
676.4652981427175,309.2607762864815
677.4662756598241,314.2127388499803
678.4672531769306,322.7926576544703
679.4682306940372,337.63640556469045
680.4692082111437,351.763228065283
681.4701857282503,374.51931818958457
682.4711632453568,398.4649870932068
683.4721407624634,422.70367284023257
684.4731182795699,450.82387912091656
685.4740957966765,478.19830007839244
686.475073313783,502.4391624918116
687.4760508308896,530.3028316112939
688.4770283479961,560.544943355702
689.4780058651027,593.788232096565
690.4789833822092,631.3967594930175
691.4799608993158,674.9604290334954
692.4809384164223,726.2007625932739
693.4819159335289,782.5101216978385
694.4828934506354,843.1318820222815
695.483870967742,903.8562508936043
696.4848484848485,965.9000419905341
697.485826001955,1016.115911797178
698.4868035190616,1035.0084585242591
699.4877810361681,1016.5286988963435
700.4887585532747,962.0527146923191
701.4897360703812,878.756134312676
702.4907135874878,777.0991758011513
703.4916911045943,679.035159130884
704.4926686217009,594.992672626785
705.4936461388074,524.7590409894979
706.494623655914,474.2266386916118
707.4956011730205,436.2758638615522
708.4965786901271,406.04422957187035
709.4975562072336,380.93945151379324
710.4985337243402,363.18178617850435
711.4995112414467,350.23324127177784
712.5004887585533,336.970170920113
713.5014662756598,328.3439239707632
714.5024437927664,320.60941799839713
715.5034213098729,314.0175255087967
716.5043988269795,308.24228811151835
717.505376344086,302.0156837987185
718.5063538611926,297.8307717672946
719.5073313782991,296.84081809714473
720.5083088954057,293.41795862522025
721.5092864125122,292.024815112159
722.5102639296188,290.08289084376094
723.5112414467253,288.5578214314898
724.5122189638319,287.47039759422523
725.5131964809384,286.15248337046927
726.514173998045,284.7838257161007
727.5151515151515,284.090316065446
728.516129032258,281.72454074713454
729.5171065493646,282.0748066519624
730.5180840664711,280.0530123374784
731.5190615835777,280.85477695042647
732.5200391006842,282.45041053526614
733.5210166177908,280.6570924368441
734.5219941348973,279.8193277230421
735.5229716520039,279.00713470625715
736.5239491691104,279.784283175493
737.524926686217,279.1611676839778
738.5259042033235,279.03963911343794
739.5268817204301,280.8619549288171
740.5278592375366,281.3882859284974
741.5288367546432,278.79224011593544
742.5298142717497,279.6606243159458
