Wavenumber (cm⁻¹),Intensity
200.0,14.758999999999993
201.00097751710655,15.306534701857275
202.0019550342131,15.854069403714558
203.00293255131965,16.401604105571842
204.0039100684262,16.949138807429122
205.00488758553274,17.496673509286406
206.0058651026393,18.04420821114369
207.00684261974584,18.59174291300097
208.0078201368524,19.139277614858255
209.00879765395894,19.686812316715535
210.00977517106548,20.228081133919844
211.01075268817203,20.13545161290323
212.01173020527858,20.196718475073297
213.01270772238513,21.89805474095793
214.01368523949168,25.043460410557156
215.01466275659823,27.471568914955995
216.01564027370478,28.605911045943287
217.01661779081132,29.913242424242434
218.01759530791787,29.343234604105618
219.01857282502445,26.396167155425186
220.019550342131,23.303967741935438
221.02052785923755,18.73631964809379
222.0215053763441,13.811838709677408
223.02248289345064,12.633815249266851
224.0234604105572,11.14823167155424
225.02443792766374,9.318073313782978
226.0254154447703,7.259885630498521
227.02639296187684,4.6856686217008665
228.02737047898339,1.816960899315736
229.02834799608993,1.2215718475073292
230.02932551319648,0.350791788856305
231.03030303030303,0.375060606060606
232.03128054740958,0.30962170087976537
233.03225806451613,0.20009677419354852
234.03323558162268,0.11737732160312456
235.03421309872923,2.0621212121212062
236.03519061583577,4.2042404692082
237.03616813294232,7.243660801564012
238.03714565004887,10.71301564027369
239.03812316715542,13.216029325513187
240.03910068426197,14.982293255131946
241.04007820136852,17.59340566959919
242.04105571847506,21.213847507331355
243.0420332355816,23.871318670576738
244.0430107526882,23.797602150537617
245.04398826979474,23.03700879765397
246.0449657869013,23.744463343108546
247.04594330400784,26.394610948191623
248.04692082111438,28.27396187683284
249.04789833822093,27.77711730205278
250.04887585532748,27.121768328445725
251.04985337243403,25.435510263929594
252.05083088954058,23.326032258064497
253.05180840664713,21.401012707722373
254.05278592375367,19.908598240469196
255.05376344086022,18.389849462365586
256.05474095796677,17.973614858260017
257.0557184750733,17.47136363636363
258.05669599217987,16.62039198435972
259.0576735092864,15.527796676441831
260.05865102639297,14.02660410557184
261.0596285434995,11.88764711632453
262.06060606060606,9.768393939393935
263.0615835777126,7.679014662756597
264.06256109481916,5.6479687194525905
265.0635386119257,4.1344692082111445
266.06451612903226,2.9610967741935506
267.0654936461388,1.7994203323558193
268.06647116324535,0.7014574780058661
269.0674486803519,0.45317008797653785
270.06842619745845,0.8353225806451596
271.069403714565,1.1331681329423247
272.07038123167155,1.4388885630498511
273.0713587487781,1.7627517106549324
274.07233626588464,2.30035679374388
275.0733137829912,3.4819501466275544
276.07429130009774,4.562204301075272
277.0752688172043,4.290139784946243
278.07624633431084,3.770941348973616
279.0772238514174,3.045494623655926
280.07820136852393,2.142941348973618
281.0791788856305,1.4316744868035198
282.08015640273703,1.390354838709678
283.0811339198436,1.3297370478983446
284.08211143695013,0.9507067448680431
285.0830889540567,0.5258895405669642
286.0840664711632,0.3153362658846529
287.0850439882698,0.29578299120235163
288.0860215053764,0.21993548387103945
289.0869990224829,2.2508719452591146
290.0879765395895,4.204662756598253
291.088954056696,4.558662756598238
292.0899315738026,4.532418377321613
293.0909090909091,4.8897272727272965
294.09188660801567,5.651228739002954
295.0928641251222,6.314416422287398
296.09384164222877,6.6193079178885705
297.0948191593353,6.973173020527885
298.09579667644186,7.941867057673539
299.0967741935484,9.031032258064537
300.09775171065496,9.71882893450636
301.0987292277615,9.991835777126111
302.09970674486806,10.587225806451658
303.1006842619746,12.546636363636406
304.10166177908116,14.398968719452611
305.1026392961877,15.314741935483884
306.10361681329425,15.995177908113408
307.1045943304008,16.871380254154467
308.10557184750735,17.95622873900295
309.1065493646139,19.03907331378301
310.10752688172045,20.12002150537636
311.108504398827,21.3848592375367
312.10948191593354,24.217969696969742
313.1104594330401,27.553260997067504
314.11143695014664,31.705431085044037
315.1124144672532,35.40062170087981
316.11339198435974,38.86084848484852
317.1143695014663,41.616712609970705
318.11534701857283,44.32159237536659
319.1163245356794,46.97625806451615
320.11730205278593,49.50545454545456
321.1182795698925,51.34488172043011
322.119257086999,52.59079374389052
323.1202346041056,54.31772434017597
324.1212121212121,57.572727272727285
325.1221896383187,60.597500488758556
326.1231671554252,62.250601173020534
327.12414467253177,63.56563343108505
328.1251221896383,64.37392277614859
329.12609970674487,64.76870967741935
330.1270772238514,65.22536852394917
331.12805474095796,65.93969305962854
332.1290322580645,66.46354838709678
333.13000977517106,65.92269305962854
334.1309872922776,65.13982502443794
335.13196480938416,63.820187683284466
336.1329423264907,62.176105571847515
337.13391984359725,61.10093450635386
338.1348973607038,61.44548387096774
339.13587487781035,61.62812023460411
340.1368523949169,60.712589442815265
341.13782991202345,59.68365689149561
342.13880742913,58.64722091886609
343.13978494623655,57.755258064516134
344.1407624633431,57.828360703812294
345.14173998044964,59.42809090909088
346.1427174975562,60.640855327468245
347.14369501466274,59.62713782991204
348.1446725317693,58.72531182795699
349.14565004887584,58.63766471163245
350.1466275659824,58.849357771261
351.14760508308893,58.86449364613881
352.1485826001955,58.62895112414468
353.14956011730203,58.2846539589443
354.1505376344086,57.593279569892495
355.1515151515151,56.90390909090911
356.1524926686217,56.215017595307934
357.1534701857282,55.51795698924733
358.1544477028348,54.8114154447703
359.1554252199413,54.1040410557185
360.15640273704787,53.50214076246335
361.1573802541544,53.1942678396872
362.15835777126097,52.81588269794723
363.1593352883675,52.09747116324538
364.16031280547406,51.28748093841646
365.1612903225806,50.234709677419396
366.16226783968716,49.05254349951127
367.1632453567937,48.15892570869992
368.16422287390026,47.7876099706745
369.1652003910068,47.60641153470183
370.16617790811335,48.46723655913975
371.1671554252199,49.295108504398804
372.16813294232645,49.830748778103604
373.169110459433,50.169624633431084
374.17008797653955,50.123214076246356
375.1710654936461,49.599164222873924
376.1720430107527,49.12510752688172
377.17302052785925,48.924281524926684
378.1739980449658,48.703284457478006
379.17497556207235,48.466606060606054
380.1759530791789,48.29068035190616
381.17693059628544,48.52744281524927
382.177908113392,49.10896578690127
383.17888563049854,49.74837829912024
384.1798631476051,50.61653861192572
385.18084066471164,51.5118201368524
386.1818181818182,52.45090909090909
387.18279569892474,53.54755913978495
388.1837732160313,55.216708699902256
389.18475073313783,57.130319648093845
390.1857282502444,58.53645259042033
391.18670576735093,59.222184750733135
392.1876832844575,59.470302052785925
393.188660801564,58.05206353861193
394.1896383186706,56.65283382209189
395.1906158357771,55.263237536656895
396.1915933528837,53.6643714565005
397.1925708699902,50.83473704789836
398.19354838709677,47.07129032258066
399.1945259042033,44.67603812316715
400.19550342130987,45.14547311827957
401.1964809384164,44.60411143695019
402.19745845552296,39.80603128054746
403.1984359726295,35.30534310850442
404.19941348973606,34.10270381231671
405.2003910068426,34.39658455522972
406.20136852394916,33.444523949169145
407.2023460410557,30.94028445747804
408.20332355816225,29.086145650048877
409.20430107526886,29.19106451612904
410.2052785923754,29.01650146627561
411.20625610948196,27.67283382209182
412.2072336265885,26.141158357771214
413.20821114369505,25.062340175953054
414.2091886608016,24.347257086999
415.21016617790815,23.792892473118272
416.2111436950147,23.508302052785915
417.21212121212125,23.592333333333386
418.2130987292278,25.037795698924782
419.21407624633434,26.27665395894429
420.2150537634409,26.452892473118272
421.21603128054744,26.262870967741932
422.217008797654,26.287346041055724
423.21798631476054,26.535049853372442
424.2189638318671,26.91914369501468
425.21994134897363,27.59048093841644
426.2209188660802,27.825898338220885
427.22189638318673,26.48050439882694
428.2228739002933,25.29360703812317
429.2238514173998,25.598998044965814
430.2248289345064,26.550894428152503
431.2258064516129,26.761774193548373
432.2267839687195,26.128225806451603
433.227761485826,26.217412512219006
434.22873900293257,28.178870967741975
435.2297165200391,29.63961094819159
436.23069403714567,29.31320625610947
437.2316715542522,28.672052785923746
438.23264907135876,28.263743890518082
439.2336265884653,28.03462854349951
440.23460410557186,27.977463343108507
441.2355816226784,28.16523655913979
442.23655913978496,28.576698924731197
443.2375366568915,29.64150146627567
444.23851417399806,30.3787761485826
445.2394916911046,29.975679374389046
446.24046920821115,29.37788269794721
447.2414467253177,29.231218963831868
448.24242424242425,29.35512121212121
449.2434017595308,29.145914956011726
450.24437927663735,28.43895698924731
451.2453567937439,27.9511642228739
452.24633431085044,28.13158651026393
453.247311827957,28.23090322580645
454.24828934506354,28.05294819159335
455.2492668621701,27.73610263929619
456.25024437927664,27.19857771260997
457.2512218963832,26.546650048875858
458.25219941348973,26.22540469208211
459.2531769305963,26.409837732160312
460.25415444770283,26.483190615835777
461.2551319648094,26.22717595307918
462.2561094819159,25.800659824046924
463.2570869990225,24.825378299120242
464.258064516129,23.73503225806452
465.2590420332356,22.866670576735096
466.2600195503421,22.222670576735098
467.26099706744867,21.916111436950146
468.2619745845552,22.10856109481916
469.26295210166177,21.952023460410572
470.2639296187683,20.81312023460412
471.26490713587486,19.938237536656892
472.2658846529814,19.89164516129032
473.26686217008796,19.969483870967746
474.2678396871945,19.599726295210175
475.26881720430106,19.00675268817205
476.2697947214076,18.940445747800574
477.27077223851416,19.588315738025404
478.2717497556207,19.863568914956026
479.27272727272725,19.18818181818183
480.2737047898338,18.89616226783967
481.27468230694035,19.72827077223849
482.2756598240469,20.712319648093825
483.27663734115345,21.23745650048875
484.27761485826,21.471239491691097
485.27859237536654,21.70786217008797
486.2795698924731,21.94809677419354
487.28054740957964,22.189173020527853
488.2815249266862,22.433818181818175
489.2825024437928,22.683755620723367
490.28347996089934,22.940271749755627
491.2844574780059,22.825337243401734
492.28543499511244,21.51396676441833
493.286412512219,19.88782111436948
494.28739002932554,19.523064516129054
495.2883675464321,20.35293646138809
496.28934506353863,20.67891104594329
497.2903225806452,20.12554838709676
498.29130009775173,19.524850439882687
499.2922776148583,18.91509481915932
500.2932551319648,18.159982404692062
501.2942326490714,16.938366568914933
502.2952101661779,15.640542521994119
503.2961876832845,14.781387096774187
504.297165200391,14.204479960899304
505.29814271749757,13.121976539589419
506.2991202346041,11.306387096774172
507.30009775171067,10.032396871945258
508.3010752688172,10.003978494623656
509.30205278592376,9.568032258064504
510.3030303030303,8.042696969696953
511.30400782013686,6.374797653958934
512.3049853372434,5.164873900293302
513.3059628543499,4.246543499511285
514.3069403714564,3.4812023460410852
515.307917888563,2.9006363636363943
516.3088954056695,2.312605083088985
517.3098729227761,1.74476735092867
518.3108504398826,1.4582668621700738
519.3118279569892,1.7331612903225626
520.3128054740957,2.141872922776114
521.3137829912023,2.7987302052785483
522.3147605083088,3.563162267839642
523.3157380254154,4.326276637341108
524.3167155425219,4.995539589442787
525.3176930596285,5.126019550342168
526.318670576735,4.526797653958982
527.3196480938416,4.213574780058632
528.3206256109481,4.5135083088953865
529.3216031280547,4.815445747800567
530.3225806451612,5.119064516129012
531.3235581622678,5.5071632453567565
532.3245356793743,6.133998044965735
533.3255131964809,6.840331378299079
534.3264907135874,7.343559139784925
535.327468230694,7.695086021505345
536.3284457478005,8.390061583577626
537.3294232649071,9.605919843597174
538.3304007820136,10.121978494623722
539.3313782991202,9.171378299120313
540.3323558162267,8.343045943304036
541.3333333333333,8.037666666666677
542.3343108504398,7.8988651026393075
543.3352883675464,7.7614007820136965
544.3362658846529,7.482691104594374
545.3372434017595,6.60715835777138
546.338220918866,5.176974584555334
547.3391984359725,4.424882697947187
548.3401759530791,4.746536656891469
549.3411534701856,5.069533724340149
550.3421309872922,5.394192570869963
551.3431085043987,5.611087976539588
552.3440860215054,5.573645161290319
553.345063538612,5.447521994134894
554.3460410557185,5.322090909090906
555.347018572825,5.151122189638312
556.3479960899316,4.780858260019536
557.3489736070381,4.217648093841629
558.3499511241447,3.8269560117302026
559.3509286412512,3.703835777126097
560.3519061583578,3.868574780058666
561.3528836754643,4.5967194525904365
562.3538611925709,5.159433040078204
563.3548387096774,5.213709677419352
564.355816226784,5.173072336265887
565.3567937438905,5.361169110459438
566.3577712609971,5.5946041055718485
567.3587487781036,5.421001955034205
568.3597262952102,4.899555229716515
569.3607038123167,4.915316715542533
570.3616813294233,5.706728250244389
571.3626588465298,6.192504398826979
572.3636363636364,6.115999999999999
573.3646138807429,5.872736070381228
574.3655913978495,5.371688172043006
575.366568914956,4.883299120234602
576.3675464320626,4.628526881720429
577.3685239491691,4.624967741935484
578.3695014662757,5.042645161290326
579.3704789833822,5.697230694037147
580.3714565004888,5.40604398826979
581.3724340175953,3.910583577712606
582.3734115347019,2.91474780058651
583.3743890518084,2.770950146627566
584.375366568915,2.5119472140762467
585.3763440860215,1.9899677419354846
586.377321603128,1.6171896383186706
587.3782991202346,1.726973607038122
588.3792766373411,1.913898338220919
589.3802541544477,1.6589315738025443
590.3812316715542,1.1166774193548412
591.3822091886608,0.7758416422287397
592.3831867057673,0.6596813294232656
593.3841642228739,0.7255425219941322
594.3851417399804,1.0574819159335258
595.386119257087,1.0772072336265932
596.3870967741935,0.5573870967742001
597.3880742913001,0.1477145650048891
598.3890518084066,0.1209657869012691
599.3900293255132,0.5333049853372317
600.3910068426197,1.6434203323557943
601.3919843597263,2.844444770283469
602.3929618768328,2.9733108504398955
603.3939393939394,2.1596060606060754
604.3949169110459,1.1496979472140987
605.3958944281525,0.5734017595307834
606.396871945259,0.5919393939394062
607.3978494623656,0.6385268817204082
608.3988269794721,1.3962434017595242
609.3998044965787,1.637771260997064
610.4007820136852,1.7861173020527823
611.4017595307918,1.935460410557181
612.4027370478983,2.084007820136849
613.4037145650049,2.2351720430107487
614.4046920821114,2.3322609970674484
615.405669599218,2.214648093841651
616.4066471163245,1.9317781036168205
617.4076246334312,1.8493665689149688
618.4086021505377,2.003741935483884
619.4095796676443,1.7900439882697334
620.4105571847508,1.0328709677418728
621.4115347018574,0.41808993157377106
622.4125122189639,0.5023343108505005
623.4134897360705,0.7721994134897022
624.414467253177,0.5390654936461424
625.4154447702836,0.5564447702834782
626.4164222873901,0.6000498533724444
627.4173998044967,1.0665122189639016
628.4183773216032,1.7273294232649288
629.4193548387098,2.049064516129059
630.4203323558163,2.584235581622734
631.4213098729228,3.3683118279570468
632.4222873900294,4.177586510263987
633.423264907136,5.005812316715601
634.4242424242425,6.53181818181835
635.425219941349,9.131064516129221
636.4261974584556,11.521629521016742
637.4271749755621,13.171346041055811
638.4281524926687,14.454665689149635
639.4291300097752,15.495650048875914
640.4301075268818,16.59464516129041
641.4310850439883,18.303334310850577
642.4320625610949,20.61753958944297
643.4330400782014,23.59024340175975
644.434017595308,27.17159237536678
645.4349951124145,30.33813196480954
646.4359726295211,33.024305962854505
647.4369501466276,36.68013196480966
648.4379276637342,41.66193450635415
649.4389051808407,46.46506060606085
650.4398826979473,50.761392961877064
651.4408602150538,55.52231182795729
652.4418377321604,61.45334213098763
653.4428152492669,67.9054721407628
654.4437927663735,74.3808895405673
655.44477028348,81.24994819159372
656.4457478005866,89.46353958944327
657.4467253176931,98.59491691104638
658.4477028347997,106.6652336265888
659.4486803519062,113.66068621700913
660.4496578690128,121.25295210166216
661.4506353861193,129.56796480938453
662.4516129032259,136.55690322580668
663.4525904203324,141.74953372434038
664.453567937439,144.66689833822093
665.4545454545455,144.3997272727272
666.455522971652,142.35988954056683
667.4565004887586,138.65250733137813
668.4574780058651,133.7303607038121
669.4584555229717,127.64558846529788
670.4594330400782,120.46079667644155
671.4604105571848,111.9069794721404
672.4613880742913,102.48046138807396
673.4623655913979,94.160139784946
674.4633431085044,86.9051994134895
675.464320625611,80.30536656891476
676.4652981427175,74.42790811339181
677.4662756598241,68.73920234604088
678.4672531769306,63.293356793743726
679.4682306940372,57.86925317693044
680.4692082111437,52.4405454545453
681.4701857282503,47.70235581622668
682.4711632453568,44.15493255131957
683.4721407624634,41.06602932551312
684.4731182795699,37.97311827956982
685.4740957966765,34.95869208211137
686.475073313783,32.174457478005806
687.4760508308896,29.754400782013636
688.4770283479961,28.248320625610933
689.4780058651027,27.468249266862152
690.4789833822092,26.457371456500464
691.4799608993158,25.223728250244356
692.4809384164223,23.986117302052765
693.4819159335289,22.743496578690106
694.4828934506354,22.0758211143695
695.483870967742,22.13035483870968
696.4848484848485,21.797545454545443
697.485826001955,20.744288367546417
698.4868035190616,19.760184750733128
699.4877810361681,19.245934506353855
700.4887585532747,19.03212414467253
701.4897360703812,19.05250146627566
702.4907135874878,19.034255131964805
703.4916911045943,18.544155425219934
704.4926686217009,17.685222873900287
705.4936461388074,16.585664711632447
706.494623655914,15.374096774193543
707.4956011730205,14.842630498533724
708.4965786901271,14.885496578690127
709.4975562072336,14.163548387096771
710.4985337243402,12.725583577712607
711.4995112414467,11.738768328445747
712.5004887585533,11.276316715542523
713.5014662756598,10.55192961876833
714.5024437927664,9.355276637341156
715.5034213098729,8.927049853372433
716.5043988269795,9.879343108504392
717.505376344086,10.557612903225806
718.5063538611926,9.802977517106559
719.5073313782991,8.774263929618773
720.5083088954057,8.683722385141737
721.5092864125122,8.831681329423267
722.5102639296188,8.013953079178899
723.5112414467253,6.694780058651038
724.5122189638319,6.110267839687195
725.5131964809384,6.044035190615837
726.514173998045,5.478396871945272
727.5151515151515,4.504060606060619
728.516129032258,4.286645161290315
729.5171065493646,4.798857282502436
730.5180840664711,4.925707722385146
731.5190615835777,4.591932551319655
732.5200391006842,4.1654222873900375
733.5210166177908,3.7109374389051895
734.5219941348973,3.7717448680351797
735.5229716520039,4.5640918866079945
736.5239491691104,4.768447702834812
737.524926686217,3.5504838709677835
738.5259042033235,2.059277614858288
739.5268817204301,1.287301075268827
740.5278592375366,0.802343108504413
741.5288367546432,0.4301749755620777
742.5298142717497,0.6724916911045771
743.5307917888563,0.9316598240469229
744.5317693059628,0.8566490713587509
