Raman shift,Intensity
770.26295,2126.75115
797.95917,2128.17528
797.95917,2126.81893
799.51351,2129.53163
801.06785,2130.88797
802.62219,2132.24432
804.17652,2133.60067
805.73086,2134.95702
807.2852,2136.31336
807.2852,2141.73876
807.2852,2143.0951
807.2852,2140.38241
808.83954,2126.81893
808.83954,2139.02606
808.83954,2137.66971
808.83954,2144.45145
810.39388,2152.58954
810.39388,2151.23319
810.39388,2147.16415
810.39388,2128.17528
810.39388,2145.8078
810.39388,2153.94589
811.94822,2155.30223
811.94822,2149.87684
811.94822,2148.52049
811.94822,2129.53163
813.50256,2129.53163
813.50256,2128.17528
813.50256,2156.65858
815.0569,2158.01493
815.0569,2159.37128
815.0569,2160.72762
815.0569,2162.08397
815.0569,2164.79667
815.0569,2166.15302
815.0569,2167.50936
815.0569,2126.81893
816.61123,2168.86571
816.61123,2163.44032
818.16557,2170.22206
818.16557,2171.57841
819.71991,2175.64745
819.71991,2182.42919
819.71991,2177.0038
819.71991,2172.93475
819.71991,2174.2911
819.71991,2181.07284
819.71991,2216.33788
819.71991,2213.62519
821.27425,2179.71649
821.27425,2183.78554
821.27425,2217.69423
821.27425,2212.26884
821.27425,2214.98153
821.27425,2178.36014
822.82859,2210.91249
822.82859,2219.05058
822.82859,2197.34901
822.82859,2227.18866
822.82859,2228.54501
822.82859,2185.14188
822.82859,2200.06171
822.82859,2198.70536
822.82859,2195.99267
824.38293,2220.40693
824.38293,2194.63632
824.38293,2193.27997
824.38293,2191.92362
824.38293,2190.56727
824.38293,2189.21093
824.38293,2187.85458
824.38293,2186.49823
824.38293,2229.90136
824.38293,2225.83232
824.38293,2204.13075
824.38293,2223.11962
824.38293,2206.84345
824.38293,2232.61405
824.38293,2209.55614
824.38293,2201.41806
824.38293,2221.76327
824.38293,2231.25771
824.38293,2224.47597
825.93727,2202.7744
825.93727,2233.9704
825.93727,2205.4871
825.93727,2208.1998
827.49161,2235.32675
829.04594,2246.17753
829.04594,2236.6831
829.04594,2244.82118
829.04594,2243.46484
830.60028,2238.03945
830.60028,2252.95927
830.60028,2242.10849
830.60028,2247.53388
832.15462,2248.89023
832.15462,2240.75214
832.15462,2251.60292
832.15462,2239.39579
832.15462,2254.31562
832.15462,2255.67197
833.70896,2250.24658
833.70896,2255.67197
835.2633,2255.67197
836.81764,2257.02831
836.81764,2255.67197
836.81764,2258.38466
836.81764,2261.09736
836.81764,2259.74101
838.37198,2261.09736
838.37198,2262.45371
839.92632,2263.81005
839.92632,2265.1664
839.92632,2262.45371
839.92632,2267.8791
839.92632,2266.52275
841.48066,2269.23544
841.48066,2267.8791
843.03499,2270.59179
844.58933,2271.94814
846.14367,2273.30449
847.69801,2274.66084
861.96291,2241.82278
873.29662,2246.31777
873.29662,2266.9947
875.67611,2186.49823
875.67611,2189.21093
877.23045,2185.14188
877.23045,2221.76327
877.23045,2187.85458
877.23045,2190.56727
878.78479,2224.47597
878.78479,2202.7744
878.78479,2182.42919
878.78479,2183.78554
878.78479,2219.05058
878.78479,2220.40693
878.78479,2223.11962
878.78479,2206.84345
878.78479,2225.83232
878.78479,2201.41806
878.78479,2200.06171
878.78479,2198.70536
878.78479,2179.71649
878.78479,2178.36014
878.78479,2214.98153
878.78479,2177.0038
878.78479,2191.92362
878.78479,2204.13075
878.78479,2181.07284
878.78479,2174.2911
878.78479,2172.93475
880.33912,2209.55614
880.33912,2175.64745
880.33912,2193.27997
880.33912,2166.15302
880.33912,2195.99267
880.33912,2217.69423
880.33912,2208.1998
880.33912,2197.34901
880.33912,2216.33788
880.33912,2213.62519
880.33912,2170.22206
880.33912,2205.4871
880.33912,2210.91249
880.33912,2171.57841
880.33912,2164.79667
880.33912,2168.86571
881.89346,2167.50936
881.89346,2194.63632
881.89346,2212.26884
881.89346,2163.44032
881.89346,2159.37128
883.4478,2160.72762
883.4478,2162.08397
883.4478,2158.01493
885.00214,2156.65858
885.00214,2155.30223
885.00214,2153.94589
885.00214,2152.58954
885.00214,2151.23319
885.00214,2149.87684
885.00214,2148.52049
885.00214,2147.16415
885.00214,2145.8078
886.55648,2144.45145
886.55648,2141.73876
888.11082,2143.0951
888.11082,2140.38241
889.66516,2139.02606
891.2195,2137.66971
891.2195,2136.31336
891.2195,2121.39354
892.77384,2134.95702
892.77384,2120.03719
892.77384,2126.81893
892.77384,2122.74989
894.32817,2124.10623
894.32817,2125.46258
894.32817,2128.17528
894.32817,2133.60067
894.32817,2118.68084
894.32817,2117.3245
894.32817,2115.96815
894.32817,2114.6118
895.88251,2113.25545
895.88251,2132.24432
895.88251,2114.6118
895.88251,2129.53163
897.43685,2130.88797
897.43685,2114.6118
897.43685,2113.25545
898.99119,2113.25545
898.99119,2110.54276
898.99119,2111.89911
898.99119,2109.18641
898.99119,2107.83006
900.54553,2107.83006
900.54553,2111.89911
900.54553,2106.47371
902.09987,2110.54276
902.09987,2103.76102
902.09987,2105.11737
903.65421,2109.18641
903.65421,2103.76102
903.65421,2102.40467
905.20855,2102.40467
905.20855,2107.83006
906.76288,2102.40467
906.76288,2107.83006
908.31722,2102.40467
908.31722,2107.83006
909.87156,2102.40467
909.87156,2107.83006
909.87156,2106.47371
911.4259,2102.40467
911.4259,2105.11737
911.4259,2106.47371
912.98024,2103.76102
912.98024,2105.11737
912.98024,2102.40467
914.53458,2102.40467
914.53458,2103.76102
916.08892,2102.40467
916.08892,2101.04832
916.08892,2103.76102
917.64326,2092.91024
917.64326,2103.76102
917.64326,2101.04832
917.64326,2099.69198
917.64326,2098.33563
917.64326,2096.97928
917.64326,2095.62293
917.64326,2094.26658
919.19759,2102.40467
919.19759,2091.55389
920.75193,2091.55389
922.30627,2091.55389
923.86061,2091.55389
925.41495,2091.55389
926.96929,2090.19754
928.52363,2090.19754
930.07797,2090.19754
931.6323,2090.19754
933.18664,2090.19754
934.74098,2090.19754
934.74098,2088.84119
934.74098,2087.48485
934.74098,2086.1285
936.29532,2084.77215
937.84966,2084.77215
939.404,2084.77215
940.95834,2084.77215
942.51268,2086.1285
942.51268,2087.48485
942.51268,2088.84119
942.51268,2090.19754
942.51268,2091.55389
944.06701,2091.55389
945.62135,2091.55389
947.17569,2091.55389
947.17569,2092.91024
948.73003,2092.91024
948.73003,2094.26658
950.28437,2092.91024
951.83871,2092.91024
953.39305,2094.26658
954.94739,2095.62293
956.50173,2096.97928
958.05606,2098.33563
959.6104,2098.33563
961.16474,2098.33563
962.71908,2098.33563
964.27342,2098.33563
965.82776,2099.69198
967.3821,2098.33563
968.93644,2096.97928
970.49077,2095.62293
972.04511,2096.97928
973.59945,2095.62293
975.15379,2095.62293
975.15379,2094.26658
975.15379,2092.91024
975.15379,2091.55389
975.15379,2090.19754
976.70813,2090.19754
976.70813,2088.84119
976.70813,2087.48485
976.70813,2086.1285
976.70813,2084.77215
978.26247,2084.77215
978.26247,2083.4158
978.26247,2082.05945
978.26247,2080.70311
978.26247,2079.34676
978.26247,2077.99041
979.81681,2076.63406
981.37115,2075.27772
981.37115,2065.78328
982.92548,2073.92137
982.92548,2072.56502
982.92548,2069.85232
982.92548,2068.49598
982.92548,2067.13963
982.92548,2071.20867
982.92548,2064.42693
982.92548,2063.07059
982.92548,2061.71424
982.92548,2060.35789
982.92548,2059.00154
982.92548,2057.64519
982.92548,2056.28885
982.92548,2052.2198
982.92548,2053.57615
982.92548,2050.86346
984.47982,2054.9325
984.47982,2049.50711
984.47982,2046.79441
984.47982,2045.43807
986.03416,2048.15076
986.03416,2044.08172
986.03416,2042.72537
986.03416,2041.36902
987.5885,2040.01267
987.5885,2038.65633
987.5885,2037.29998
987.5885,2034.58728
987.5885,2033.23094
989.14284,2035.94363
989.14284,2031.87459
989.14284,2030.51824
990.69718,2029.16189
990.69718,2023.7365
990.69718,2022.38015
992.25152,2026.4492
992.25152,2027.80554
992.25152,2025.09285
992.25152,2021.02381
992.25152,2019.66746
992.25152,2018.31111
993.80586,2016.95476
995.36019,2015.59841
995.36019,2014.24207
996.91453,2012.88572
996.91453,2011.52937
998.46887,2010.17302
998.46887,2008.81668
1038.88168,2040.01267
1038.88168,2041.36902
1038.88168,2042.72537
1040.43602,2045.43807
1040.43602,2044.08172
1041.99036,2061.71424
1041.99036,2046.79441
1041.99036,2048.15076
1041.99036,2049.50711
1041.99036,2060.35789
1041.99036,2059.00154
1043.5447,2050.86346
1043.5447,2061.71424
1043.5447,2057.64519
1045.09904,2053.57615
1045.09904,2054.9325
1045.09904,2056.28885
1045.09904,2052.2198
1045.09904,2061.71424
1046.65337,2061.71424
1048.20771,2061.71424
1049.76205,2061.71424
1051.31639,2065.78328
1051.31639,2069.85232
1051.31639,2068.49598
1051.31639,2067.13963
1051.31639,2061.71424
1051.31639,2063.07059
1051.31639,2064.42693
1052.87073,2069.85232
1054.42507,2068.49598
1055.97941,2067.13963
1057.53375,2067.13963
1059.08808,2068.49598
1060.64242,2069.85232
1062.19676,2082.05945
1062.19676,2069.85232
1063.7511,2080.70311
1063.7511,2083.4158
1063.7511,2094.26658
1063.7511,2071.20867
1065.30544,2069.85232
1065.30544,2068.49598
1065.30544,2067.13963
1065.30544,2065.78328
1065.30544,2064.42693
1065.30544,2063.07059
1065.30544,2095.62293
1065.30544,2084.77215
1065.30544,2079.34676
1065.30544,2077.99041
1065.30544,2076.63406
1065.30544,2075.27772
1065.30544,2073.92137
1065.30544,2072.56502
1065.30544,2092.91024
1065.30544,2091.55389
1066.85978,2053.57615
1066.85978,2054.9325
1066.85978,2056.28885
1066.85978,2090.19754
1066.85978,2096.97928
1066.85978,2098.33563
1066.85978,2088.84119
1066.85978,2086.1285
1066.85978,2071.20867
1066.85978,2072.56502
1066.85978,2063.07059
1066.85978,2052.2198
1066.85978,2059.00154
1066.85978,2057.64519
1066.85978,2050.86346
1066.85978,2087.48485
1068.41412,2046.79441
1068.41412,2044.08172
1068.41412,2042.72537
1068.41412,2071.20867
1068.41412,2063.07059
1068.41412,2049.50711
1068.41412,2048.15076
1068.41412,2060.35789
1068.41412,2045.43807
1069.96846,2061.71424
1069.96846,2071.20867
1069.96846,2063.07059
1069.96846,2041.36902
1071.5228,2071.20867
1071.5228,2040.01267
1071.5228,2063.07059
1073.07713,2071.20867
1073.07713,2069.85232
1073.07713,2068.49598
1073.07713,2067.13963
1073.07713,2038.65633
1074.63147,2037.29998
1074.63147,2065.78328
1076.18581,2064.42693
1076.18581,2063.07059
1077.74015,2061.71424
1079.29449,2061.71424
1080.84883,2061.71424
1082.40317,2061.71424
1083.95751,2060.35789
1085.51184,2059.00154
1087.06618,2060.35789
1088.62052,2061.71424
1090.17486,2061.71424
1091.7292,2061.71424
1093.28354,2060.35789
1094.83788,2060.35789
1096.39222,2060.35789
1097.94655,2060.35789
1099.50089,2060.35789
1101.05523,2060.35789
1102.60957,2060.35789
1104.16391,2060.35789
1105.71825,2060.35789
1107.27259,2059.00154
1108.82693,2057.64519
1110.38126,2056.28885
1111.9356,2056.28885
1113.48994,2056.28885
1115.04428,2057.64519
1116.59862,2059.00154
1118.15296,2060.35789
1119.7073,2061.71424
1121.26164,2061.71424
1122.81598,2063.07059
1124.37031,2061.71424
1125.92465,2061.71424
1127.47899,2060.35789
1129.03333,2059.00154
1130.58767,2059.00154
1132.14201,2060.35789
1133.69635,2059.00154
1135.25069,2057.64519
1136.80502,2059.00154
1138.35936,2057.64519
1139.9137,2057.64519
1141.46804,2057.64519
1143.02238,2059.00154
1144.57672,2060.35789
1146.13106,2061.71424
1147.6854,2060.35789
1149.23973,2060.35789
1150.79407,2059.00154
1152.34841,2059.00154
1153.90275,2059.00154
1155.45709,2059.00154
1157.01143,2060.35789
1158.56577,2061.71424
1160.12011,2060.35789
1161.67444,2059.00154
1163.22878,2057.64519
1164.78312,2057.64519
1166.33746,2059.00154
1167.8918,2060.35789
1169.44614,2060.35789
1171.00048,2060.35789
1172.55482,2060.35789
1174.10915,2060.35789
1175.66349,2060.35789
1177.21783,2060.35789
1178.77217,2060.35789
1180.32651,2059.00154
1181.88085,2057.64519
1183.43519,2057.64519
1184.98953,2057.64519
1186.54387,2057.64519
1188.0982,2059.00154
1189.65254,2059.00154
1191.20688,2059.00154
1192.76122,2059.00154
1194.31556,2053.57615
1194.31556,2057.64519
1194.31556,2054.9325
1194.31556,2056.28885
1195.8699,2053.57615
1197.42424,2054.9325
1198.97858,2056.28885
1200.53291,2057.64519
1202.08725,2056.28885
1203.64159,2057.64519
1205.19593,2059.00154
1206.75027,2057.64519
1208.30461,2056.28885
1209.85895,2054.9325
1211.41329,2056.28885
1212.96762,2057.64519
1214.52196,2059.00154
1216.0763,2060.35789
1217.63064,2061.71424
1219.18498,2061.71424
1220.73932,2061.71424
1222.29366,2061.71424
1223.848,2061.71424
1225.40233,2061.71424
1226.95667,2061.71424
1228.51101,2063.07059
1230.06535,2064.42693
1231.61969,2065.78328
1233.17403,2065.78328
1234.72837,2065.78328
1236.28271,2064.42693
1237.83705,2064.42693
1239.39138,2065.78328
1240.94572,2067.13963
1242.50006,2068.49598
1244.0544,2068.49598
1245.60874,2067.13963
1245.60874,2065.78328
1245.60874,2064.42693
1245.60874,2068.49598
1247.16308,2064.42693
1248.71742,2064.42693
1250.27176,2065.78328
1251.82609,2065.78328
1253.38043,2065.78328
1254.93477,2065.78328
1256.48911,2065.78328
1258.04345,2067.13963
1259.59779,2065.78328
1261.15213,2064.42693
1262.70647,2063.07059
1264.2608,2061.71424
1265.81514,2061.71424
1267.36948,2064.42693
1267.36948,2063.07059
1268.92382,2064.42693
1270.47816,2065.78328
1272.0325,2065.78328
1273.58684,2065.78328
1275.14118,2065.78328
1276.69551,2067.13963
1278.24985,2067.13963
1279.80419,2067.13963
1281.35853,2067.13963
1282.91287,2067.13963
1284.46721,2067.13963
1286.02155,2065.78328
1287.57589,2065.78328
1289.13022,2067.13963
1290.68456,2067.13963
1292.2389,2067.13963
1293.79324,2067.13963
1295.34758,2067.13963
1296.90192,2067.13963
1298.45626,2067.13963
1300.0106,2067.13963
1301.56494,2065.78328
1303.11927,2065.78328
1304.67361,2067.13963
1306.22795,2067.13963
1307.78229,2067.13963
1309.33663,2068.49598
1310.89097,2068.49598
1312.44531,2068.49598
1313.99965,2068.49598
1315.55398,2068.49598
1317.10832,2068.49598
1318.66266,2068.49598
1320.217,2067.13963
1321.77134,2068.49598
1321.77134,2071.20867
1321.77134,2072.56502
1321.77134,2069.85232
1321.77134,2073.92137
1321.77134,2067.13963
1321.77134,2075.27772
1323.32568,2075.27772
1323.32568,2076.63406
1324.88002,2076.63406
1324.88002,2077.99041
1326.43436,2079.34676
1326.43436,2080.70311
1373.00991,2086.29628
1425.55708,2080.9023
1481.86823,2057.64519
1483.42257,2068.49598
1483.42257,2067.13963
1483.42257,2065.78328
1483.42257,2064.42693
1483.42257,2063.07059
1483.42257,2069.85232
1483.42257,2060.35789
1483.42257,2071.20867
1483.42257,2072.56502
1483.42257,2059.00154
1484.97691,2061.71424
1484.97691,2073.92137
1484.97691,2072.56502
1486.53125,2075.27772
1488.08559,2075.27772
1489.63993,2076.63406
1489.63993,2075.27772
1491.19427,2076.63406
1492.74861,2076.63406
1494.30294,2077.99041
1495.85728,2079.34676
1497.41162,2082.05945
1497.41162,2080.70311
1497.41162,2086.1285
1497.41162,2087.48485
1497.41162,2088.84119
1497.41162,2084.77215
1497.41162,2083.4158
1498.96596,2090.19754
1500.5203,2091.55389
1502.07464,2091.55389
1503.62898,2091.55389
1505.18332,2091.55389
1506.73765,2092.91024
1508.29199,2092.91024
1509.84633,2091.55389
1511.40067,2090.19754
1512.95501,2088.84119
1514.50935,2087.48485
1516.06369,2086.1285
1517.61803,2084.77215
1519.17236,2084.77215
1520.7267,2087.48485
1520.7267,2084.77215
1520.7267,2086.1285
1522.28104,2087.48485
1522.28104,2088.84119
1522.28104,2092.91024
1522.28104,2094.26658
1522.28104,2095.62293
1522.28104,2091.55389
1522.28104,2106.47371
1522.28104,2090.19754
1523.83538,2106.47371
1523.83538,2105.11737
1523.83538,2096.97928
1525.38972,2103.76102
1525.38972,2098.33563
1525.38972,2113.25545
1525.38972,2107.83006
1525.38972,2109.18641
1525.38972,2110.54276
1525.38972,2111.89911
1526.94406,2099.69198
1526.94406,2113.25545
1526.94406,2114.6118
1526.94406,2101.04832
1526.94406,2117.3245
1526.94406,2118.68084
1526.94406,2120.03719
1526.94406,2121.39354
1526.94406,2115.96815
1526.94406,2124.10623
1526.94406,2125.46258
1526.94406,2126.81893
1526.94406,2122.74989
1526.94406,2102.40467
1528.4984,2128.17528
1530.05274,2129.53163
1531.60708,2130.88797
1531.60708,2140.38241
1531.60708,2132.24432
1533.16141,2136.31336
1533.16141,2139.02606
1533.16141,2133.60067
1533.16141,2141.73876
1533.16141,2143.0951
1533.16141,2137.66971
1533.16141,2145.8078
1533.16141,2144.45145
1533.16141,2174.2911
1533.16141,2134.95702
1533.16141,2151.23319
1533.16141,2179.71649
1533.16141,2155.30223
1533.16141,2158.01493
1533.16141,2156.65858
1534.71575,2153.94589
1534.71575,2149.87684
1534.71575,2177.0038
1534.71575,2175.64745
1534.71575,2148.52049
1534.71575,2172.93475
1534.71575,2171.57841
1534.71575,2170.22206
1534.71575,2168.86571
1534.71575,2159.37128
1534.71575,2147.16415
1534.71575,2183.78554
1534.71575,2178.36014
1534.71575,2181.07284
1534.71575,2152.58954
1536.27009,2163.44032
1536.27009,2160.72762
1536.27009,2162.08397
1536.27009,2182.42919
1536.27009,2206.84345
1536.27009,2185.14188
1536.27009,2202.7744
1536.27009,2204.13075
1536.27009,2205.4871
1536.27009,2167.50936
1536.27009,2201.41806
1537.82443,2208.1998
1537.82443,2209.55614
1537.82443,2210.91249
1537.82443,2166.15302
1537.82443,2198.70536
1537.82443,2164.79667
1537.82443,2200.06171
1537.82443,2186.49823
1537.82443,2197.34901
1537.82443,2195.99267
1539.37877,2187.85458
1539.37877,2191.92362
1539.37877,2194.63632
1539.37877,2212.26884
1540.93311,2189.21093
1540.93311,2212.26884
1540.93311,2213.62519
1540.93311,2214.98153
1540.93311,2193.27997
1540.93311,2190.56727
1542.48745,2216.33788
1542.48745,2214.98153
1542.48745,2217.69423
1544.04179,2217.69423
1544.04179,2219.05058
1545.59612,2220.40693
1547.15046,2221.76327
1548.7048,2221.76327
1548.7048,2223.11962
1550.25914,2223.11962
1550.25914,2225.83232
1550.25914,2224.47597
1551.81348,2227.18866
1551.81348,2228.54501
1551.81348,2229.90136
1551.81348,2225.83232
1553.36782,2231.25771
1554.92216,2232.61405
1554.92216,2235.32675
1554.92216,2233.9704
1568.77388,2226.53983
1591.44129,2226.53983
1598.44364,2193.27997
1598.44364,2190.56727
1598.44364,2189.21093
1599.99798,2194.63632
1599.99798,2187.85458
1599.99798,2186.49823
1599.99798,2191.92362
1601.55232,2182.42919
1601.55232,2185.14188
1601.55232,2195.99267
1601.55232,2183.78554
1603.10666,2179.71649
1603.10666,2198.70536
1603.10666,2175.64745
1603.10666,2181.07284
1603.10666,2197.34901
1603.10666,2178.36014
1604.661,2200.06171
1604.661,2177.0038
1604.661,2174.2911
1606.21534,2162.08397
1606.21534,2170.22206
1606.21534,2172.93475
1606.21534,2167.50936
1606.21534,2166.15302
1606.21534,2164.79667
1606.21534,2160.72762
1606.21534,2168.86571
1607.76968,2163.44032
1607.76968,2171.57841
1607.76968,2159.37128
1607.76968,2158.01493
1609.32401,2156.65858
1609.32401,2155.30223
1610.87835,2148.52049
1610.87835,2147.16415
1610.87835,2145.8078
1610.87835,2153.94589
1612.43269,2139.02606
1612.43269,2149.87684
1612.43269,2136.31336
1612.43269,2134.95702
1612.43269,2143.0951
1612.43269,2140.38241
1612.43269,2144.45145
1612.43269,2152.58954
1613.98703,2151.23319
1613.98703,2137.66971
1613.98703,2141.73876
1613.98703,2133.60067
1613.98703,2130.88797
1615.54137,2129.53163
1615.54137,2128.17528
1615.54137,2126.81893
1615.54137,2132.24432
1617.09571,2125.46258
1617.09571,2122.74989
1617.09571,2121.39354
1617.09571,2120.03719
1617.09571,2124.10623
1618.65005,2118.68084
1620.20439,2117.3245
1621.75872,2115.96815
1623.31306,2114.6118
1624.8674,2113.25545
1624.8674,2111.89911
1626.42174,2110.54276
1626.42174,2109.18641
1626.42174,2107.83006
1626.42174,2106.47371
1626.42174,2105.11737
1627.97608,2103.76102
1627.97608,2106.47371
1627.97608,2107.83006
1627.97608,2109.18641
1627.97608,2105.11737
1629.53042,2110.54276
1629.53042,2105.11737
1629.53042,2103.76102
1629.53042,2102.40467
1631.08476,2102.40467
1631.08476,2103.76102
1631.08476,2111.89911
1632.6391,2113.25545
1632.6391,2102.40467
1632.6391,2103.76102
1634.19343,2103.76102
1634.19343,2102.40467
1634.19343,2114.6118
1635.74777,2140.38241
1635.74777,2103.76102
1635.74777,2139.02606
1635.74777,2133.60067
1635.74777,2134.95702
1635.74777,2115.96815
1635.74777,2137.66971
1635.74777,2102.40467
1635.74777,2101.04832
1637.30211,2141.73876
1637.30211,2122.74989
1637.30211,2132.24432
1637.30211,2136.31336
1637.30211,2117.3245
1637.30211,2118.68084
1637.30211,2120.03719
1637.30211,2121.39354
1637.30211,2101.04832
1637.30211,2103.76102
1637.30211,2102.40467
1638.85645,2103.76102
1638.85645,2143.0951
1638.85645,2147.16415
1638.85645,2130.88797
1638.85645,2102.40467
1638.85645,2124.10623
1638.85645,2125.46258
1638.85645,2126.81893
1638.85645,2144.45145
1640.41079,2129.53163
1640.41079,2128.17528
1640.41079,2156.65858
1640.41079,2155.30223
1640.41079,2102.40467
1640.41079,2152.58954
1640.41079,2151.23319
1640.41079,2149.87684
1640.41079,2148.52049
1640.41079,2103.76102
1640.41079,2145.8078
1641.96513,2159.37128
1641.96513,2158.01493
1641.96513,2153.94589
1641.96513,2103.76102
1641.96513,2160.72762
1641.96513,2102.40467
1643.51947,2103.76102
1643.51947,2162.08397
1643.51947,2166.15302
1643.51947,2101.04832
1645.07381,2164.79667
1645.07381,2163.44032
1645.07381,2102.40467
1645.07381,2103.76102
1646.62815,2103.76102
1646.62815,2102.40467
1648.18248,2102.40467
1648.18248,2103.76102
1649.73682,2102.40467
1649.73682,2103.76102
1651.29116,2103.76102
1651.29116,2102.40467
1652.8455,2103.76102
1652.8455,2102.40467
1654.39984,2102.40467
1654.39984,2101.04832
1655.95418,2101.04832
1655.95418,2099.69198
1657.50852,2098.33563
1657.50852,2099.69198
1659.06286,2098.33563
1659.06286,2096.97928
1660.61719,2096.97928
1660.61719,2095.62293
1662.17153,2096.97928
1662.17153,2095.62293
1663.72587,2096.97928
1663.72587,2098.33563
1665.28021,2094.26658
1665.28021,2092.91024
1665.28021,2098.33563
1665.28021,2096.97928
1665.28021,2095.62293
1665.28021,2091.55389
1665.28021,2090.19754
1665.28021,2099.69198
1666.83455,2092.91024
1666.83455,2094.26658
1666.83455,2095.62293
1666.83455,2096.97928
1666.83455,2098.33563
1666.83455,2099.69198
1666.83455,2091.55389
1666.83455,2088.84119
1668.38889,2090.19754
1668.38889,2088.84119
1669.94323,2090.19754
1669.94323,2088.84119
1671.49757,2090.19754
1671.49757,2088.84119
1671.49757,2087.48485
1673.0519,2086.1285
1673.0519,2090.19754
1673.0519,2087.48485
1673.0519,2088.84119
1674.60624,2087.48485
1674.60624,2086.1285
1674.60624,2084.77215
1676.16058,2087.48485
1676.16058,2086.1285
1677.71492,2088.84119
1677.71492,2087.48485
1679.26926,2090.19754
1679.26926,2088.84119
1680.8236,2090.19754
1680.8236,2091.55389
1682.37794,2090.19754
1683.93228,2088.84119
1685.48661,2087.48485
1687.04095,2086.1285
1688.59529,2084.77215
1690.14963,2084.77215
1691.70397,2086.1285
1693.25831,2084.77215
1694.81265,2084.77215
1696.36699,2084.77215
1697.92133,2084.77215
1699.47566,2086.1285
1701.03,2087.48485
1702.58434,2088.84119
1704.13868,2090.19754
1705.69302,2090.19754
1707.24736,2090.19754
1708.8017,2090.19754
1710.35604,2088.84119
1711.91037,2087.48485
1713.46471,2086.1285
1715.01905,2084.77215
1716.57339,2084.77215
1718.12773,2086.1285
1719.68207,2084.77215
1721.23641,2086.1285
1722.79075,2086.1285
1724.34508,2086.1285
1725.89942,2086.1285
1727.45376,2086.1285
1729.0081,2086.1285
1730.56244,2084.77215
1732.11678,2086.1285
1733.67112,2086.1285
1735.22546,2086.1285
1736.77979,2086.1285
1738.33413,2086.1285
1739.88847,2087.48485
1741.44281,2087.48485
1742.99715,2087.48485
1744.55149,2088.84119
1744.55149,2087.48485
1744.55149,2086.1285
1744.55149,2084.77215
1744.55149,2083.4158
1746.10583,2083.4158
1746.10583,2082.05945
1747.66017,2082.05945
1749.2145,2080.70311
1750.76884,2080.70311
1750.76884,2079.34676
1752.32318,2079.34676
1752.32318,2077.99041
1753.87752,2077.99041
1753.87752,2076.63406
1755.43186,2077.99041
1756.9862,2079.34676
1758.54054,2080.70311
1760.09488,2082.05945
1761.64922,2080.70311
1763.20355,2082.05945
1764.75789,2080.70311
1766.31223,2079.34676
1767.86657,2077.99041
1769.42091,2076.63406
1770.97525,2076.63406
1772.52959,2075.27772
1774.08393,2073.92137
1775.63826,2072.56502
1777.1926,2071.20867
1778.74694,2071.20867
1780.30128,2071.20867
1781.85562,2071.20867
1783.40996,2071.20867
1784.9643,2072.56502
1786.51864,2071.20867
1788.07297,2071.20867
1789.62731,2071.20867
1791.18165,2072.56502
1792.73599,2072.56502
1794.29033,2073.92137
1795.84467,2073.92137
1797.39901,2075.27772
1798.95335,2073.92137
1800.50768,2073.92137
1802.06202,2072.56502
1803.61636,2071.20867
1805.1707,2071.20867
1806.72504,2071.20867
1808.27938,2071.20867
1809.83372,2071.20867
1811.38806,2071.20867
1812.9424,2069.85232
1814.49673,2071.20867
1816.05107,2071.20867
1817.60541,2069.85232
1819.15975,2071.20867
1820.71409,2072.56502
1822.26843,2071.20867
1823.82277,2072.56502
1825.37711,2073.92137
1826.93144,2072.56502
1828.48578,2072.56502
1830.04012,2073.92137
1831.59446,2075.27772
1833.1488,2073.92137
1834.70314,2072.56502
1836.25748,2072.56502
1837.81182,2073.92137
1839.36615,2073.92137
1840.92049,2075.27772
1842.47483,2076.63406
1844.02917,2077.99041
1845.58351,2079.34676
1847.13785,2077.99041
1848.69219,2077.99041
1848.69219,2071.20867
1848.69219,2076.63406
1848.69219,2075.27772
1848.69219,2073.92137
1848.69219,2072.56502
1848.69219,2069.85232
1850.24653,2069.85232
1851.80086,2068.49598
1851.80086,2069.85232
1853.3552,2068.49598
1854.90954,2067.13963
1854.90954,2068.49598
1856.46388,2067.13963
1858.01822,2065.78328
1859.57256,2065.78328
1861.1269,2067.13963
1862.68124,2068.49598
1864.23557,2068.49598
1865.78991,2068.49598
1867.34425,2068.49598
1868.89859,2068.49598
1870.45293,2068.49598
1872.00727,2069.85232
1873.56161,2071.20867
1875.11595,2071.20867
1876.67029,2072.56502
1878.22462,2072.56502
1879.77896,2073.92137
1881.3333,2073.92137
1882.88764,2075.27772
1884.44198,2073.92137
1885.99632,2073.92137
1887.55066,2073.92137
1889.105,2073.92137
1890.65933,2073.92137
1892.21367,2073.92137
1893.76801,2073.92137
1895.32235,2075.27772
1896.87669,2076.63406
1898.43103,2076.63406
1899.98537,2075.27772
1901.53971,2073.92137
1903.09404,2072.56502
1904.64838,2072.56502
1906.20272,2071.20867
1907.75706,2069.85232
1909.3114,2069.85232
1910.86574,2069.85232
1912.42008,2069.85232
1913.97442,2069.85232
1915.52875,2069.85232
1917.08309,2071.20867
1918.63743,2072.56502
1920.19177,2073.92137
1921.74611,2075.27772
1923.30045,2076.63406
1924.85479,2077.99041
1926.40913,2076.63406
1927.96346,2075.27772
1927.96346,2073.92137
1929.5178,2073.92137
1931.07214,2073.92137
1932.62648,2072.56502
1934.18082,2067.13963
1934.18082,2071.20867
1934.18082,2069.85232
1934.18082,2068.49598
1934.18082,2065.78328
1935.73516,2067.13963
1937.2895,2068.49598
1938.84384,2067.13963
1940.39818,2068.49598
1941.95251,2069.85232
1943.50685,2071.20867
1945.06119,2071.20867
1946.61553,2071.20867
1948.16987,2069.85232
1949.72421,2069.85232
1951.27855,2069.85232
1952.83289,2068.49598
1954.38722,2068.49598
1955.94156,2068.49598
1957.4959,2069.85232
1959.05024,2069.85232
1960.60458,2069.85232
1962.15892,2069.85232
1963.71326,2069.85232
1965.2676,2069.85232
1966.82193,2069.85232
1968.37627,2071.20867
1969.93061,2069.85232
1971.48495,2069.85232
1973.03929,2069.85232
1974.59363,2069.85232
1976.14797,2069.85232
1977.70231,2069.85232
1979.25664,2069.85232
1980.81098,2069.85232
1982.36532,2069.85232
1983.91966,2068.49598
1985.474,2067.13963
1987.02834,2065.78328
1988.58268,2064.42693
1990.13702,2064.42693
1991.69136,2064.42693
1993.24569,2064.42693
1994.80003,2065.78328
1996.35437,2064.42693
1997.90871,2064.42693
1999.46305,2064.42693
2001.01739,2065.78328
2002.57173,2067.13963
2004.12607,2068.49598
2005.6804,2069.85232
2007.23474,2071.20867
2008.78908,2071.20867
2010.34342,2071.20867
2011.89776,2072.56502
2013.4521,2073.92137
2015.00644,2075.27772
2016.56078,2076.63406
2018.11511,2076.63406
2019.66945,2076.63406
2021.22379,2075.27772
2022.77813,2075.27772
2024.33247,2073.92137
2025.88681,2072.56502
2027.44115,2072.56502
2028.99549,2072.56502
2030.54982,2073.92137
2032.10416,2073.92137
2033.6585,2073.92137
2035.21284,2073.92137
2035.21284,2056.28885
2036.76718,2073.92137
2038.32152,2073.92137
2039.87586,2072.56502
2041.4302,2073.92137
2042.98453,2073.92137
2044.53887,2073.92137
2046.09321,2072.56502
2047.64755,2072.56502
2049.20189,2072.56502
2050.75623,2072.56502
2052.31057,2071.20867
2053.86491,2069.85232
2055.41925,2068.49598
2056.97358,2069.85232
2058.52792,2071.20867
2060.08226,2072.56502
2061.6366,2072.56502
2063.19094,2073.92137
2064.74528,2073.92137
2066.29962,2073.92137
2067.85396,2072.56502
2069.40829,2072.56502
2070.96263,2071.20867
2072.51697,2069.85232
2074.07131,2071.20867
2075.62565,2071.20867
2077.17999,2069.85232
2078.73433,2069.85232
2080.28867,2068.49598
2081.843,2068.49598
2083.39734,2069.85232
2084.95168,2069.85232
2086.50602,2071.20867
2088.06036,2071.20867
2089.6147,2069.85232
2091.16904,2068.49598
2092.72338,2068.49598
2094.27771,2069.85232
2095.83205,2068.49598
2097.38639,2068.49598
2098.94073,2069.85232
2100.49507,2071.20867
2102.04941,2071.20867
2103.60375,2071.20867
2105.15809,2069.85232
2106.71243,2068.49598
2108.26676,2067.13963
2109.8211,2065.78328
2109.8211,2052.2198
2111.37544,2061.71424
2111.37544,2059.00154
2111.37544,2057.64519
2111.37544,2056.28885
2111.37544,2054.9325
2111.37544,2053.57615
2111.37544,2063.07059
2111.37544,2060.35789
2111.37544,2065.78328
2112.92978,2064.42693
2112.92978,2063.07059
2112.92978,2065.78328
2112.92978,2067.13963
2112.92978,2068.49598
2112.92978,2069.85232
2112.92978,2071.20867
2112.92978,2072.56502
2112.92978,2073.92137
2112.92978,2075.27772
2112.92978,2076.63406
2114.48412,2077.99041
2114.48412,2079.34676
2114.48412,2064.42693
2114.48412,2076.63406
2116.03846,2083.4158
2116.03846,2080.70311
2116.03846,2065.78328
2116.03846,2064.42693
2116.03846,2082.05945
2117.5928,2065.78328
2117.5928,2084.77215
2119.14714,2086.1285
2119.14714,2067.13963
2119.14714,2068.49598
2119.14714,2069.85232
2119.14714,2065.78328
2119.14714,2084.77215
2119.14714,2087.48485
2119.14714,2088.84119
2120.70147,2069.85232
2120.70147,2088.84119
2122.25581,2090.19754
2122.25581,2069.85232
2123.81015,2091.55389
2123.81015,2094.26658
2123.81015,2069.85232
2123.81015,2092.91024
2125.36449,2069.85232
2125.36449,2094.26658
2125.36449,2095.62293
2126.91883,2096.97928
2126.91883,2098.33563
2126.91883,2069.85232
2126.91883,2099.69198
2128.47317,2069.85232
2130.02751,2068.49598
2131.58185,2067.13963
2133.13618,2068.49598
2134.69052,2069.85232
2136.24486,2071.20867
2137.7992,2071.20867
2139.35354,2071.20867
2140.90788,2071.20867
2142.46222,2071.20867
2144.01656,2071.20867
2145.57089,2069.85232
2147.12523,2068.49598
2148.67957,2067.13963
2150.23391,2065.78328
2151.78825,2067.13963
2153.34259,2068.49598
2154.89693,2068.49598
2156.45127,2069.85232
2158.0056,2069.85232
2159.55994,2069.85232
2161.11428,2071.20867
2162.66862,2071.20867
2164.22296,2071.20867
2165.7773,2069.85232
2167.33164,2068.49598
2168.88598,2068.49598
2170.44032,2068.49598
2171.99465,2067.13963
2173.54899,2067.13963
2175.10333,2068.49598
2176.65767,2069.85232
2178.21201,2071.20867
2179.76635,2072.56502
2181.32069,2072.56502
2182.87503,2072.56502
2184.42936,2072.56502
2185.9837,2073.92137
2187.53804,2073.92137
2189.09238,2072.56502
2190.64672,2072.56502
2192.20106,2072.56502
2193.7554,2072.56502
2195.30974,2072.56502
2196.86407,2072.56502
2198.41841,2072.56502
2199.97275,2071.20867
2201.52709,2071.20867
2203.08143,2069.85232
2204.63577,2071.20867
2206.19011,2071.20867
2207.74445,2071.20867
2209.29878,2072.56502
2210.85312,2072.56502
2210.85312,2073.92137
2212.40746,2072.56502
2213.9618,2072.56502
2215.51614,2072.56502
2217.07048,2071.20867
2218.62482,2069.85232
2220.17916,2069.85232
2221.7335,2069.85232
2223.28783,2069.85232
2224.84217,2069.85232
2226.39651,2069.85232
2227.95085,2069.85232
2229.50519,2069.85232
2231.05953,2068.49598
2232.61387,2068.49598
2234.16821,2069.85232
2235.72254,2069.85232
2237.27688,2071.20867
2238.83122,2069.85232
2240.38556,2068.49598
2241.9399,2069.85232
2243.49424,2071.20867
2245.04858,2071.20867
2246.60292,2071.20867
2248.15725,2071.20867
2249.71159,2071.20867
2251.26593,2071.20867
2252.82027,2069.85232
2254.37461,2068.49598
2255.92895,2068.49598
2257.48329,2068.49598
2259.03763,2069.85232
2260.59196,2071.20867
2262.1463,2072.56502
2263.70064,2072.56502
2265.25498,2072.56502
2266.80932,2071.20867
2268.36366,2069.85232
2269.918,2068.49598
2271.47234,2069.85232
2273.02667,2069.85232
2274.58101,2068.49598
2276.13535,2068.49598
2277.68969,2068.49598
2279.24403,2068.49598
2280.79837,2068.49598
2282.35271,2067.13963
2283.90705,2068.49598
2285.46139,2068.49598
2287.01572,2068.49598
2288.57006,2069.85232
2290.1244,2071.20867
2291.67874,2069.85232
2293.23308,2068.49598
2294.78742,2067.13963
2296.34176,2065.78328
2297.8961,2064.42693
2299.45043,2065.78328
2299.45043,2067.13963
2299.45043,2064.42693
2301.00477,2068.49598
2301.00477,2067.13963
2302.55911,2068.49598
2304.11345,2071.20867
2304.11345,2072.56502
2304.11345,2073.92137
2304.11345,2075.27772
2304.11345,2076.63406
2304.11345,2077.99041
2304.11345,2079.34676
2304.11345,2069.85232
2305.66779,2080.70311
2305.66779,2079.34676
2307.22213,2080.70311
2308.77647,2080.70311
2310.33081,2080.70311
2310.33081,2113.25545
2310.33081,2111.89911
2310.33081,2110.54276
2311.88514,2080.70311
2311.88514,2109.18641
2311.88514,2118.68084
2311.88514,2114.6118
2313.43948,2120.03719
2313.43948,2080.70311
2313.43948,2117.3245
2313.43948,2115.96815
2313.43948,2145.8078
2313.43948,2136.31336
2313.43948,2137.66971
2313.43948,2139.02606
2313.43948,2082.05945
2313.43948,2107.83006
2313.43948,2140.38241
2313.43948,2144.45145
2313.43948,2143.0951
2313.43948,2141.73876
2314.99382,2083.4158
2314.99382,2084.77215
2314.99382,2158.01493
2314.99382,2159.37128
2314.99382,2160.72762
2314.99382,2162.08397
2314.99382,2163.44032
2314.99382,2164.79667
2314.99382,2128.17528
2314.99382,2126.81893
2314.99382,2121.39354
2314.99382,2122.74989
2314.99382,2124.10623
2314.99382,2125.46258
2314.99382,2106.47371
2314.99382,2086.1285
2314.99382,2129.53163
2314.99382,2148.52049
2314.99382,2147.16415
2314.99382,2149.87684
2314.99382,2134.95702
2314.99382,2087.48485
2314.99382,2151.23319
2316.54816,2156.65858
2316.54816,2102.40467
2316.54816,2167.50936
2316.54816,2166.15302
2316.54816,2088.84119
2316.54816,2133.60067
2316.54816,2132.24432
2316.54816,2130.88797
2316.54816,2105.11737
2316.54816,2103.76102
2316.54816,2152.58954
2316.54816,2168.86571
2318.1025,2155.30223
2318.1025,2101.04832
2318.1025,2191.92362
2318.1025,2174.2911
2318.1025,2170.22206
2318.1025,2153.94589
2318.1025,2090.19754
2318.1025,2193.27997
2318.1025,2194.63632
2318.1025,2195.99267
2319.65684,2091.55389
2319.65684,2092.91024
2319.65684,2171.57841
2319.65684,2172.93475
2319.65684,2098.33563
2319.65684,2175.64745
2319.65684,2177.0038
2319.65684,2178.36014
2319.65684,2179.71649
2319.65684,2209.55614
2319.65684,2208.1998
2319.65684,2099.69198
2319.65684,2096.97928
2319.65684,2095.62293
2319.65684,2094.26658
2319.65684,2201.41806
2319.65684,2200.06171
2319.65684,2198.70536
2319.65684,2197.34901
2319.65684,2202.7744
2319.65684,2204.13075
2319.65684,2205.4871
2319.65684,2206.84345
2319.65684,2190.56727
2319.65684,2182.42919
2321.21118,2187.85458
2321.21118,2189.21093
2321.21118,2185.14188
2321.21118,2183.78554
2321.21118,2186.49823
2321.21118,2181.07284
2321.21118,2210.91249
2322.76552,2212.26884
2322.76552,2229.90136
2322.76552,2228.54501
2322.76552,2225.83232
2322.76552,2224.47597
2322.76552,2219.05058
2322.76552,2221.76327
2322.76552,2231.25771
2322.76552,2223.11962
2324.31985,2220.40693
2324.31985,2216.33788
2324.31985,2227.18866
2324.31985,2214.98153
2324.31985,2213.62519
2324.31985,2217.69423
2324.31985,2232.61405
2324.31985,2233.9704
2324.31985,2235.32675
2324.31985,2236.6831
2324.31985,2238.03945
2324.31985,2239.39579
2324.31985,2240.75214
2324.31985,2242.10849
2324.31985,2243.46484
2325.87419,2244.82118
2325.87419,2246.17753
2325.87419,2247.53388
2325.87419,2248.89023
2327.42853,2250.24658
2327.42853,2251.60292
2327.42853,2252.95927
2328.98287,2254.31562
2328.98287,2274.66084
2328.98287,2257.02831
2328.98287,2258.38466
2328.98287,2259.74101
2328.98287,2261.09736
2328.98287,2262.45371
2328.98287,2263.81005
2328.98287,2265.1664
2328.98287,2266.52275
2328.98287,2267.8791
2328.98287,2269.23544
2328.98287,2270.59179
2328.98287,2271.94814
2328.98287,2273.30449
2328.98287,2282.79892
2330.53721,2276.01718
2330.53721,2277.37353
2330.53721,2255.67197
2330.53721,2282.79892
2330.53721,2281.44257
2332.09155,2280.08623
2332.09155,2278.72988
2332.09155,2282.79892
2332.09155,2281.44257
2333.64589,2280.08623
2333.64589,2277.37353
2335.20023,2278.72988
2335.20023,2277.37353
2335.20023,2276.01718
2335.20023,2274.66084
2335.20023,2273.30449
2336.75457,2271.94814
2338.3089,2271.94814
2338.3089,2257.02831
2339.86324,2271.94814
2339.86324,2255.67197
2339.86324,2258.38466
2339.86324,2259.74101
2341.41758,2267.8791
2341.41758,2269.23544
2341.41758,2270.59179
2341.41758,2261.09736
2341.41758,2254.31562
2342.97192,2266.52275
2342.97192,2262.45371
2342.97192,2263.81005
2342.97192,2252.95927
2344.52626,2265.1664
2344.52626,2251.60292
2344.52626,2250.24658
2344.52626,2244.82118
2344.52626,2246.17753
2344.52626,2238.03945
2344.52626,2223.11962
2344.52626,2239.39579
2346.0806,2242.10849
2346.0806,2240.75214
2346.0806,2243.46484
2346.0806,2247.53388
2346.0806,2206.84345
2346.0806,2201.41806
2346.0806,2220.40693
2346.0806,2221.76327
2346.0806,2248.89023
2346.0806,2236.6831
2346.0806,2224.47597
2346.0806,2210.91249
2346.0806,2209.55614
2346.0806,2208.1998
2346.0806,2219.05058
2347.63494,2195.99267
2347.63494,2200.06171
2347.63494,2225.83232
2347.63494,2197.34901
2347.63494,2217.69423
2347.63494,2194.63632
2347.63494,2193.27997
2347.63494,2233.9704
2347.63494,2235.32675
2347.63494,2212.26884
2347.63494,2213.62519
2347.63494,2214.98153
2347.63494,2216.33788
2347.63494,2205.4871
2347.63494,2190.56727
2347.63494,2202.7744
2349.18928,2227.18866
2349.18928,2204.13075
2349.18928,2228.54501
2349.18928,2229.90136
2349.18928,2231.25771
2349.18928,2232.61405
2349.18928,2198.70536
2349.18928,2191.92362
2349.18928,2189.21093
2349.18928,2178.36014
2349.18928,2179.71649
2349.18928,2181.07284
2349.18928,2183.78554
2349.18928,2182.42919
2349.18928,2175.64745
2350.74361,2185.14188
2350.74361,2187.85458
2350.74361,2177.0038
2350.74361,2186.49823
2350.74361,2164.79667
2350.74361,2166.15302
2350.74361,2167.50936
2350.74361,2168.86571
2350.74361,2174.2911
2350.74361,2159.37128
2350.74361,2160.72762
2350.74361,2163.44032
2352.29795,2170.22206
2352.29795,2162.08397
2352.29795,2172.93475
2352.29795,2171.57841
2352.29795,2158.01493
2352.29795,2153.94589
2353.85229,2155.30223
2353.85229,2156.65858
2353.85229,2152.58954
2355.40663,2151.23319
2356.96097,2149.87684
2356.96097,2148.52049
2356.96097,2147.16415
2356.96097,2145.8078
2356.96097,2105.11737
2356.96097,2136.31336
2356.96097,2137.66971
2356.96097,2106.47371
2356.96097,2134.95702
2356.96097,2122.74989
2356.96097,2124.10623
2356.96097,2125.46258
2358.51531,2139.02606
2358.51531,2102.40467
2358.51531,2133.60067
2358.51531,2140.38241
2358.51531,2107.83006
2358.51531,2128.17528
2358.51531,2126.81893
2358.51531,2143.0951
2358.51531,2141.73876
2358.51531,2103.76102
2358.51531,2121.39354
2358.51531,2144.45145
2360.06965,2132.24432
2360.06965,2130.88797
2360.06965,2129.53163
2360.06965,2120.03719
2360.06965,2095.62293
2360.06965,2094.26658
2360.06965,2109.18641
2360.06965,2101.04832
2361.62399,2088.84119
2361.62399,2092.91024
2361.62399,2096.97928
2361.62399,2118.68084
2361.62399,2090.19754
2361.62399,2099.69198
2361.62399,2110.54276
2363.17832,2117.3245
2363.17832,2113.25545
2363.17832,2098.33563
2363.17832,2111.89911
2363.17832,2091.55389
2363.17832,2114.6118
2363.17832,2115.96815
2363.17832,2087.48485
2364.73266,2086.1285
2366.287,2084.77215
2366.287,2083.4158
2367.84134,2082.05945
2367.84134,2080.70311
2369.39568,2080.70311
2370.95002,2080.70311
2372.50436,2080.70311
2372.50436,2079.34676
2374.0587,2079.34676
2374.0587,2077.99041
2374.0587,2076.63406
2374.0587,2075.27772
2374.0587,2073.92137
2374.0587,2072.56502
2375.61303,2071.20867
2377.16737,2069.85232
2378.72171,2068.49598
2378.72171,2067.13963
2378.72171,2065.78328
2378.72171,2064.42693
2378.72171,2063.07059
2378.72171,2061.71424
2380.27605,2060.35789
2381.83039,2059.00154
2383.38473,2057.64519
2384.93907,2056.28885
2384.93907,2054.9325
2386.49341,2049.50711
2386.49341,2050.86346
2386.49341,2052.2198
2386.49341,2053.57615
2386.49341,2046.79441
2386.49341,2048.15076
2413.64997,2066.51835
2431.16569,2066.51835
2476.5005,2071.01333
2529.04767,2080.9023
2551.71508,2076.40732
2569.23081,2041.34643
2591.89821,2021.56849
2603.23192,2061.12437
2614.56562,2086.29628
2654.74875,2076.40732
2694.93188,2076.40732
2752.63074,2071.01333
2798.99589,2061.12437
2815.48127,2061.12437
2848.13202,2031.87459
2848.13202,2029.16189
2848.13202,2030.51824
2848.13202,2027.80554
2849.68636,2033.23094
2849.68636,2034.58728
2851.2407,2048.15076
2851.2407,2037.29998
2851.2407,2035.94363
2851.2407,2046.79441
2852.79504,2041.36902
2852.79504,2040.01267
2852.79504,2045.43807
2852.79504,2038.65633
2852.79504,2042.72537
2852.79504,2050.86346
2852.79504,2049.50711
2854.34938,2044.08172
2854.34938,2052.2198
2854.34938,2053.57615
2855.90372,2054.9325
2855.90372,2056.28885
2855.90372,2057.64519
2855.90372,2059.00154
2855.90372,2060.35789
2857.45806,2060.35789
2857.45806,2061.71424
2857.45806,2063.07059
2857.45806,2064.42693
2857.45806,2065.78328
2857.45806,2067.13963
2857.45806,2068.49598
2857.45806,2069.85232
2859.0124,2069.85232
2860.56674,2068.49598
2862.12107,2067.13963
2863.67541,2065.78328
2865.22975,2067.13963
2866.78409,2068.49598
2868.33843,2069.85232
2868.33843,2068.49598
2869.89277,2068.49598
2869.89277,2067.13963
2871.44711,2067.13963
2871.44711,2065.78328
2873.00145,2064.42693
2873.00145,2065.78328
2874.55578,2064.42693
2876.11012,2064.42693
2877.66446,2064.42693
2877.66446,2063.07059
2877.66446,2060.35789
2877.66446,2061.71424
2877.66446,2059.00154
2877.66446,2057.64519
2879.2188,2056.28885
2880.77314,2054.9325
2882.32748,2053.57615
2883.88182,2052.2198
2885.43616,2050.86346
2885.43616,2049.50711
2886.99049,2048.15076
2886.99049,2046.79441
2886.99049,2045.43807
2886.99049,2044.08172
2886.99049,2040.01267
2888.54483,2041.36902
2888.54483,2018.31111
2888.54483,2038.65633
2888.54483,2037.29998
2888.54483,2035.94363
2888.54483,2034.58728
2888.54483,2033.23094
2888.54483,2030.51824
2888.54483,2042.72537
2888.54483,2016.95476
2890.09917,2031.87459
2890.09917,2016.95476
2890.09917,2029.16189
2890.09917,2019.66746
2891.65351,2016.95476
2891.65351,2021.02381
2891.65351,2027.80554
2893.20785,2026.4492
2893.20785,2022.38015
2893.20785,2016.95476
2894.76219,2025.09285
2894.76219,2023.7365
2894.76219,2016.95476
2896.31653,2016.95476
2896.31653,2015.59841
2897.87087,2015.59841
2897.87087,2014.24207
2897.87087,2012.88572
2899.4252,2012.88572
2899.4252,2011.52937
2899.4252,2010.17302
2900.97954,2011.52937
2902.53388,2011.52937
2904.08822,2010.17302
2905.64256,2008.81668
2907.1969,2007.46033
2908.75124,2008.81668
2908.75124,2007.46033
2910.30558,2008.81668
2911.85992,2010.17302
2913.41425,2011.52937
2913.41425,2012.88572
2913.41425,2014.24207
2913.41425,2015.59841
2913.41425,2016.95476
2913.41425,2018.31111
2913.41425,2019.66746
2914.96859,2021.02381
2914.96859,2022.38015
2914.96859,2023.7365
2916.52293,2025.09285
2916.52293,2026.4492
2916.52293,2027.80554
2918.07727,2027.80554
2918.07727,2029.16189
2918.07727,2030.51824
2918.07727,2031.87459
2918.07727,2033.23094
2918.07727,2034.58728
2918.07727,2035.94363
2918.07727,2037.29998
2918.07727,2038.65633
2919.63161,2037.29998
2921.18595,2035.94363
2922.74029,2034.58728
2924.29463,2033.23094
2925.84896,2034.58728
2925.84896,2035.94363
2925.84896,2037.29998
2925.84896,2038.65633
2925.84896,2040.01267
2925.84896,2041.36902
2925.84896,2042.72537
2927.4033,2042.72537
2927.4033,2044.08172
2928.95764,2044.08172
2928.95764,2045.43807
2928.95764,2046.79441
2928.95764,2048.15076
2930.51198,2048.15076
2932.06632,2048.15076
2932.06632,2049.50711
2933.62066,2049.50711
2933.62066,2050.86346
2933.62066,2052.2198
2935.175,2052.2198
2935.175,2053.57615
2936.72934,2054.9325
2936.72934,2068.49598
2936.72934,2056.28885
2938.28367,2059.00154
2938.28367,2057.64519
2938.28367,2068.49598
2938.28367,2056.28885
2939.83801,2068.49598
2939.83801,2060.35789
2941.39235,2068.49598
2941.39235,2061.71424
2942.94669,2068.49598
2942.94669,2063.07059
2944.50103,2064.42693
2944.50103,2068.49598
2946.05537,2067.13963
2946.05537,2065.78328
2946.05537,2068.49598
2964.88009,2066.51835
3022.57895,2071.01333
3074.09578,2076.40732
3106.15226,2077.99041
3106.15226,2076.63406
3107.7066,2087.48485
3107.7066,2088.84119
3107.7066,2079.34676
3107.7066,2076.63406
3107.7066,2090.19754
3109.26094,2076.63406
3109.26094,2080.70311
3109.26094,2086.1285
3110.81528,2084.77215
3110.81528,2083.4158
3110.81528,2082.05945
3110.81528,2076.63406
3112.36962,2076.63406
3113.92396,2076.63406
3113.92396,2073.92137
3113.92396,2072.56502
3113.92396,2075.27772
3115.4783,2072.56502
3117.03263,2073.92137
3118.58697,2075.27772
3120.14131,2075.27772
3121.69565,2076.63406
3121.69565,2073.92137
3121.69565,2075.27772
3123.24999,2076.63406
3123.24999,2077.99041
3123.24999,2079.34676
3124.80433,2082.05945
3124.80433,2080.70311
3124.80433,2079.34676
3126.35867,2083.4158
3127.91301,2084.77215
3127.91301,2083.4158
3129.46734,2086.1285
3129.46734,2084.77215
3131.02168,2087.48485
3131.02168,2086.1285
3132.57602,2087.48485
3134.13036,2088.84119
3135.6847,2088.84119
3135.6847,2090.19754
3137.23904,2090.19754
3138.79338,2090.19754
3140.34772,2090.19754
3140.34772,2091.55389
3141.90206,2094.26658
3141.90206,2092.91024
3178.15979,2116.86219
3212.1609,2131.24614
3263.67773,2101.57924
3298.70918,2086.29628
3321.37659,2116.86219
3379.71589,2105.11737
3379.71589,2106.47371
3379.71589,2107.83006
3381.27023,2109.18641
3382.82457,2110.54276
3382.82457,2111.89911
3384.37891,2113.25545
3384.37891,2114.6118
3384.37891,2115.96815
3384.37891,2117.3245
3384.37891,2118.68084
3385.93324,2139.02606
3385.93324,2126.81893
3385.93324,2128.17528
3385.93324,2129.53163
3385.93324,2130.88797
3385.93324,2124.10623
3385.93324,2132.24432
3385.93324,2120.03719
3385.93324,2133.60067
3385.93324,2125.46258
3385.93324,2136.31336
3385.93324,2122.74989
3385.93324,2118.68084
3385.93324,2121.39354
3387.48758,2137.66971
3387.48758,2134.95702
3419.25857,2141.13511
3419.25857,2116.86219
3459.4417,2091.69027
3488.29113,2116.86219
3499.62483,2141.13511
3505.80685,2116.86219
3561.57353,2048.15076
3561.57353,2049.50711
3561.57353,2050.86346
3561.57353,2068.49598
3561.57353,2069.85232
3563.12787,2052.2198
3563.12787,2067.13963
3563.12787,2053.57615
3563.12787,2069.85232
3564.6822,2069.85232
3564.6822,2054.9325
3564.6822,2065.78328
3566.23654,2059.00154
3566.23654,2057.64519
3566.23654,2056.28885
3566.23654,2064.42693
3566.23654,2069.85232
3566.23654,2060.35789
3567.79088,2061.71424
3567.79088,2063.07059
3567.79088,2069.85232
3567.79088,2075.27772
3567.79088,2073.92137
3567.79088,2072.56502
3567.79088,2071.20867
3569.34522,2075.27772
3570.89956,2076.63406
3572.4539,2075.27772
3574.00824,2073.92137
3575.56258,2072.56502
3577.11691,2071.20867
3578.67125,2069.85232
3580.22559,2069.85232
3581.77993,2069.85232
3583.33427,2071.20867
3584.88861,2072.56502
3586.44295,2071.20867
3587.99729,2071.20867
3589.55162,2071.20867
3591.10596,2069.85232
3592.6603,2069.85232
3594.21464,2069.85232
3595.76898,2069.85232
3597.32332,2071.20867
3598.87766,2072.56502
3600.432,2073.92137
3601.98634,2073.92137
3603.54067,2075.27772
3605.09501,2075.27772
3606.64935,2075.27772
3608.20369,2075.27772
3609.75803,2075.27772
3611.31237,2073.92137
3612.86671,2075.27772
3614.42105,2077.99041
3614.42105,2076.63406
3615.97538,2077.99041
3615.97538,2080.70311
3615.97538,2082.05945
3615.97538,2079.34676
3615.97538,2083.4158
3615.97538,2086.1285
3615.97538,2087.48485
3615.97538,2088.84119
3615.97538,2084.77215
3617.52972,2090.19754
3619.08406,2091.55389
3619.08406,2092.91024
3619.08406,2094.26658
3619.08406,2090.19754
3620.6384,2094.26658
3620.6384,2096.97928
3620.6384,2095.62293
3622.19274,2098.33563
3622.19274,2096.97928
3623.74708,2098.33563
3625.30142,2098.33563
3625.30142,2099.69198
3626.85576,2101.04832
3626.85576,2099.69198
3628.41009,2103.76102
3628.41009,2102.40467
3643.87197,2086.29628
3666.53938,2080.9023
3671.69106,2106.07422
3695.38881,2116.86219
3724.23823,2086.29628
3746.90564,2071.01333
3775.75507,2116.86219
3775.75507,2086.29628
3793.27079,2086.29628
3798.42247,2061.12437
3856.12133,2056.62938
3936.48759,2071.01333
3971.51904,2066.51835
3994.18644,2071.01333
