Raman Shift,Intensity
92.56775,20980.36
93.04987,21651.56
93.53198,22458.09
94.0141,22961.98
94.49622,23180.34
94.97833,23242.66
95.46045,23253.83
95.94257,23213.96
96.42468,23134.96
96.9068,23021.5
97.38892,22903.96
97.87103,22791.85
98.35315,22659.87
98.83527,22493.7
99.31738,22341.49
99.7995,22209.59
100.2816,22101.45
100.7637,22014.22
101.2458,21940.03
101.728,21870.18
102.2101,21799.81
102.6922,21738.86
103.1743,21709.03
103.6564,21708.82
104.1385,21704.77
104.6207,21680.27
105.1028,21640.24
105.5849,21601.81
106.067,21564.76
106.5491,21528.19
107.0313,21491.69
107.5134,21454.29
107.9955,21417.17
108.4776,21381.02
108.9597,21344.8
109.4418,21310.56
109.924,21278.4
110.4061,21247.66
110.8882,21216.62
111.3703,21184.06
111.8524,21153.81
112.3345,21137.16
112.8167,21146.99
113.2988,21154.5
113.7809,21154.26
114.263,21149.32
114.7451,21144.48
115.2272,21143.12
115.7094,21144.56
116.1915,21136.99
116.6736,21116.69
117.1557,21092.28
117.6378,21061.07
118.1199,21026.28
118.6021,20997.61
119.0842,20984.03
119.5663,20987.1
120.0484,20988.98
120.5305,20988.48
121.0126,20987.17
121.4948,20986.5
121.9769,20986.61
122.459,20986.46
122.9411,20985.59
123.4232,20983.82
123.9053,20979.38
124.3875,20969.71
124.8696,20956.73
125.3517,20945.43
125.8338,20935.24
126.3159,20929.0
126.798,20928.89
127.2802,20934.11
127.7623,20940.72
128.2444,20945.89
128.7265,20949.51
129.2086,20952.86
129.6907,20956.92
130.1729,20960.11
130.655,20964.12
131.1371,20968.03
131.6192,20967.11
132.1013,20952.74
132.5834,20911.35
133.0656,20883.6
133.5477,20875.26
134.0298,20875.18
134.5119,20875.79
134.994,20874.36
135.4761,20872.18
135.9583,20872.11
136.4404,20875.06
136.9225,20879.45
137.4046,20886.86
137.8867,20895.42
138.3688,20902.89
138.851,20908.65
139.3331,20911.85
139.8152,20909.26
140.2973,20896.03
140.7794,20885.04
141.2615,20883.24
141.7437,20888.89
142.2258,20894.13
142.7079,20894.24
143.19,20891.49
143.6721,20890.88
144.1542,20892.92
144.6364,20896.72
145.1185,20903.16
145.6006,20913.28
146.0827,20919.43
146.5648,20911.64
147.0469,20899.63
147.5291,20894.08
148.0112,20900.94
148.4933,20914.21
148.9754,20919.58
149.4575,20911.42
149.9396,20905.04
150.4218,20907.25
150.9039,20913.6
151.386,20917.8
151.8681,20915.56
152.3502,20908.02
152.8323,20905.54
153.3145,20915.14
153.7966,20923.18
154.2787,20926.13
154.7608,20925.24
155.2429,20923.37
155.725,20922.56
156.2072,20922.76
156.6893,20923.95
157.1714,20925.71
157.6535,20928.38
158.1356,20933.24
158.6177,20939.55
159.0999,20944.83
159.582,20946.99
160.0641,20945.57
160.5462,20940.9
161.0283,20923.49
161.5104,20909.33
161.9926,20913.45
162.4747,20937.62
162.9568,20967.53
163.4389,20989.6
163.921,21004.16
164.4031,21013.68
164.8853,21016.82
165.3674,21015.71
165.8495,21012.14
166.3316,21004.98
166.8137,20999.46
167.2958,21002.16
167.778,21011.16
168.2601,21019.67
168.7422,21024.07
169.2243,21025.29
169.7064,21026.32
170.1885,21024.57
170.6707,21026.96
171.1528,21037.7
171.6349,21055.91
172.117,21077.76
172.5991,21102.25
173.0812,21129.7
173.5634,21152.7
174.0455,21165.8
174.5276,21178.18
175.0097,21190.79
175.4918,21205.18
175.9739,21224.99
176.4561,21256.68
176.9382,21307.26
177.4203,21346.05
177.9024,21362.21
178.3845,21376.21
178.8666,21396.95
179.3488,21426.28
179.8309,21462.66
180.313,21504.38
180.7951,21556.29
181.2772,21602.26
181.7593,21637.51
182.2415,21670.68
182.7236,21709.53
183.2057,21755.43
183.6878,21802.14
184.1699,21840.29
184.652,21866.82
185.1342,21889.31
185.6163,21911.16
186.0984,21927.76
186.5805,21934.26
187.0626,21929.25
187.5447,21914.37
188.0269,21890.21
188.509,21855.94
188.9911,21818.68
189.4732,21778.12
189.9553,21735.75
190.4374,21695.26
190.9196,21658.06
191.4017,21620.9
191.8838,21576.77
192.3659,21524.9
192.848,21476.48
193.3301,21440.54
193.8123,21413.06
194.2944,21377.88
194.7765,21324.82
195.2586,21270.25
195.7407,21232.22
196.2228,21211.06
196.705,21192.02
197.1871,21163.29
197.6692,21125.47
198.1513,21091.53
198.6334,21065.31
199.1155,21043.33
199.5977,21023.05
200.0798,21004.4
200.5619,20988.93
201.044,20978.48
201.5261,20973.54
202.0082,20970.71
202.4904,20970.71
202.9725,20972.22
203.4546,20975.3
203.9367,20979.7
204.4188,20984.45
204.9009,20987.55
205.3831,20986.92
205.8652,20991.19
206.3473,21008.92
206.8294,21025.02
207.3115,21031.3
207.7936,21026.16
208.2758,21012.45
208.7579,20992.79
209.24,20960.71
209.7221,20937.2
210.2042,20924.92
210.6863,20917.66
211.1685,20912.25
211.6506,20907.57
212.1327,20903.16
212.6148,20898.13
213.0969,20891.04
213.579,20886.75
214.0612,20884.85
214.5433,20885.69
215.0254,20891.82
215.5075,20903.19
215.9896,20914.03
216.4717,20915.9
216.9539,20904.42
217.436,20892.97
217.9181,20877.67
218.4002,20864.48
218.8823,20859.9
219.3644,20865.58
219.8466,20877.06
220.3287,20890.38
220.8108,20907.38
221.2929,20916.24
221.775,20909.69
222.2571,20896.35
222.7393,20886.48
223.2214,20882.25
223.7035,20881.49
224.1856,20882.66
224.6677,20885.61
225.1498,20888.86
225.632,20892.56
226.1141,20896.24
226.5962,20900.13
227.0783,20905.51
227.5604,20907.45
228.0425,20895.37
228.5247,20873.31
229.0068,20859.57
229.4889,20869.0
229.971,20891.07
230.4531,20901.75
230.9352,20895.9
231.4174,20883.98
231.8995,20870.88
232.3816,20857.86
232.8637,20849.12
233.3458,20849.69
233.8279,20856.38
234.3101,20857.64
234.7922,20848.21
235.2743,20842.03
235.7564,20846.46
236.2385,20859.31
236.7206,20877.15
237.2028,20903.39
237.6849,20933.37
238.167,20947.4
238.6491,20942.07
239.1312,20923.5
239.6133,20887.63
240.0955,20843.26
240.5776,20803.86
241.0597,20776.48
241.5418,20760.78
242.0239,20757.16
242.506,20779.0
242.9882,20794.7
243.4703,20789.81
243.9524,20774.56
244.4345,20764.02
244.9166,20767.24
245.3987,20781.3
245.8809,20792.74
246.363,20801.2
246.8451,20806.89
247.3272,20809.36
247.8093,20809.4
248.2914,20808.13
248.7736,20806.19
249.2557,20803.13
249.7378,20796.94
250.2199,20780.17
250.702,20769.79
251.1841,20774.2
251.6663,20784.08
252.1484,20788.53
252.6305,20782.28
253.1126,20767.97
253.5947,20753.43
254.0768,20733.65
254.559,20720.56
255.0411,20717.22
255.5232,20719.97
256.0053,20725.4
256.4874,20732.05
256.9695,20739.54
257.4517,20746.84
257.9338,20754.73
258.4159,20761.39
258.898,20766.34
259.3801,20770.18
259.8622,20772.88
260.3444,20774.49
260.8265,20776.45
261.3086,20781.83
261.7907,20797.84
262.2728,20805.08
262.7549,20796.28
263.2371,20781.89
263.7192,20773.35
264.2013,20773.51
264.6834,20775.28
265.1655,20767.29
265.6476,20741.96
266.1298,20725.83
266.6119,20725.16
267.094,20730.81
267.5761,20734.17
268.0582,20733.68
268.5403,20734.01
269.0225,20742.11
269.5046,20761.65
269.9867,20770.83
270.4688,20763.97
270.9509,20749.92
271.433,20733.11
271.9152,20714.8
272.3973,20700.57
272.8794,20696.58
273.3615,20703.95
273.8436,20711.03
274.3257,20716.48
274.8079,20722.34
275.29,20731.75
275.7721,20744.36
276.2542,20754.22
276.7363,20756.56
277.2184,20751.35
277.7006,20745.05
278.1827,20732.95
278.6648,20723.46
279.1469,20725.99
279.629,20738.83
280.1111,20747.45
280.5933,20740.31
281.0754,20723.28
281.5575,20717.5
282.0396,20732.75
282.5217,20747.4
283.0038,20746.07
283.486,20731.57
283.9681,20718.79
284.4502,20715.54
284.9323,20717.25
285.4144,20713.1
285.8965,20699.21
286.3787,20688.97
286.8608,20694.21
287.3429,20710.25
287.825,20719.18
288.3071,20712.15
288.7892,20699.52
289.2714,20697.2
289.7535,20706.19
290.2356,20714.77
290.7177,20717.96
291.1998,20716.57
291.6819,20712.52
292.1641,20705.72
292.6462,20697.16
293.1283,20687.96
293.6104,20678.17
294.0925,20667.18
294.5746,20652.86
295.0568,20637.51
295.5389,20625.54
296.021,20617.4
296.5031,20612.88
296.9852,20613.67
297.4673,20618.14
297.9495,20622.22
298.4316,20627.82
298.9137,20631.04
299.3958,20624.14
299.8779,20605.02
300.36,20585.11
300.8422,20571.36
301.3243,20562.14
301.8064,20555.54
302.2885,20551.9
302.7706,20549.9
303.2527,20548.01
303.7349,20546.18
304.217,20545.13
304.6991,20544.75
305.1812,20545.77
305.6633,20549.25
306.1454,20555.78
306.6276,20563.78
307.1097,20574.64
307.5918,20587.83
308.0739,20593.41
308.556,20584.06
309.0381,20568.79
309.5203,20558.3
310.0024,20553.21
310.4845,20548.72
310.9666,20540.37
311.4487,20529.34
311.9308,20521.91
312.413,20519.76
312.8951,20520.88
313.3772,20523.37
313.8593,20527.1
314.3414,20531.89
314.8235,20538.0
315.3057,20545.05
315.7878,20553.86
316.2699,20567.74
316.752,20575.3
317.2341,20563.43
317.7162,20539.19
318.1984,20517.04
318.6805,20500.24
319.1626,20489.55
319.6447,20487.68
320.1268,20496.11
320.6089,20506.41
321.0911,20516.52
321.5732,20524.91
322.0553,20529.02
322.5374,20528.08
323.0195,20523.2
323.5016,20514.69
323.9838,20502.47
324.4659,20489.24
324.948,20473.99
325.4301,20459.86
325.9122,20450.1
326.3943,20444.75
326.8765,20443.87
327.3586,20449.79
327.8407,20461.15
328.3228,20470.2
328.8049,20474.7
329.287,20476.87
329.7692,20480.51
330.2513,20485.25
330.7334,20485.15
331.2155,20475.69
331.6976,20459.46
332.1797,20440.26
332.6619,20415.4
333.144,20396.26
333.6261,20398.48
334.1082,20414.12
334.5903,20424.77
335.0724,20415.91
335.5546,20403.57
336.0367,20412.63
336.5188,20445.5
337.0009,20475.14
337.483,20485.44
337.9651,20482.01
338.4473,20475.47
338.9294,20465.4
339.4115,20454.94
339.8936,20446.56
340.3757,20440.07
340.8578,20434.27
341.34,20429.04
341.8221,20423.92
342.3042,20417.29
342.7863,20408.17
343.2684,20402.22
343.7505,20404.68
344.2327,20412.25
344.7148,20416.81
345.1969,20416.05
345.679,20413.5
346.1611,20411.11
346.6432,20409.08
347.1254,20412.91
347.6075,20430.29
348.0896,20451.3
348.5717,20463.12
349.0538,20464.54
349.5359,20462.38
350.0181,20460.66
350.5002,20459.45
350.9823,20458.79
351.4644,20457.33
351.9465,20457.63
352.4286,20462.16
352.9108,20470.25
353.3929,20478.85
353.875,20486.47
354.3571,20493.72
354.8392,20501.65
355.3214,20508.74
355.8035,20519.42
356.2856,20541.07
356.7677,20566.32
357.2498,20580.21
357.7319,20577.39
358.2141,20568.74
358.6962,20569.63
359.1783,20581.86
359.6604,20592.15
360.1425,20601.76
360.6246,20607.22
361.1068,20603.18
361.5889,20589.86
362.071,20575.97
362.5531,20570.71
363.0352,20573.33
363.5173,20560.58
363.9995,20517.35
364.4816,20475.18
364.9637,20448.41
365.4458,20434.73
365.9279,20427.61
366.41,20424.37
366.8922,20423.63
367.3743,20421.02
367.8564,20412.26
368.3385,20407.56
368.8206,20412.93
369.3027,20420.96
369.7849,20423.27
370.267,20417.48
370.7491,20406.34
371.2312,20393.6
371.7133,20379.91
372.1954,20361.97
372.6776,20334.49
373.1597,20307.57
373.6418,20286.56
374.1239,20271.86
374.606,20261.6
375.0881,20254.18
375.5703,20249.74
376.0524,20249.83
376.5345,20264.96
377.0166,20272.75
377.4987,20263.95
377.9808,20245.79
378.463,20227.71
378.9451,20214.08
379.4272,20204.99
379.9093,20201.25
380.3914,20208.99
380.8735,20211.81
381.3557,20205.69
381.8378,20197.34
382.3199,20190.59
382.802,20186.5
383.2841,20185.17
383.7662,20187.6
384.2484,20194.89
384.7305,20197.82
385.2126,20193.5
385.6947,20187.1
386.1768,20177.93
386.6589,20167.9
387.1411,20160.76
387.6232,20159.41
388.1053,20161.42
388.5874,20158.03
389.0695,20147.33
389.5516,20134.5
390.0338,20113.77
390.5159,20095.42
390.998,20092.01
391.4801,20106.82
391.9622,20125.6
392.4443,20129.88
392.9265,20118.05
393.4086,20108.3
393.8907,20109.49
394.3728,20106.73
394.8549,20087.34
395.337,20055.43
395.8192,20027.38
396.3013,20017.0
396.7834,20018.44
397.2655,20010.77
397.7476,19989.15
398.2297,19971.06
398.7119,19965.82
399.194,19969.44
399.6761,19979.64
400.1582,19999.69
400.6403,20017.38
401.1224,20018.07
401.6046,20002.65
402.0867,19987.18
402.5688,19975.72
403.0509,19966.97
403.533,19957.05
404.0151,19945.6
404.4973,19942.13
404.9794,19960.22
405.4615,19986.39
405.9436,19996.23
406.4257,19985.96
406.9078,19967.37
407.39,19946.87
407.8721,19925.62
408.3542,19908.41
408.8363,19897.38
409.3184,19889.1
409.8005,19881.45
410.2827,19874.81
410.7648,19870.94
411.2469,19870.98
411.729,19873.49
412.2111,19875.0
412.6932,19874.37
413.1754,19875.53
413.6575,19879.46
414.1396,19885.22
414.6217,19893.03
415.1038,19902.47
415.5859,19910.41
416.0681,19913.51
416.5502,19911.2
417.0323,19909.12
417.5144,19910.21
417.9965,19908.39
418.4786,19895.03
418.9608,19877.62
419.4429,19871.81
419.925,19886.2
420.4071,19913.0
420.8892,19930.9
421.3713,19938.08
421.8535,19937.88
422.3356,19927.32
422.8177,19912.34
423.2998,19895.39
423.7819,19878.02
424.264,19863.37
424.7462,19855.15
425.2283,19853.79
425.7104,19851.97
426.1925,19849.48
426.6746,19846.67
427.1567,19844.6
427.6389,19842.03
428.121,19836.35
428.6031,19825.7
429.0852,19813.77
429.5673,19807.88
430.0494,19808.6
430.5316,19813.34
431.0137,19826.97
431.4958,19840.92
431.9779,19851.36
432.46,19857.46
432.9421,19857.08
433.4243,19845.49
433.9064,19825.41
434.3885,19808.19
434.8706,19794.07
435.3527,19783.46
435.8348,19777.92
436.317,19775.72
436.7991,19774.8
437.2812,19777.69
437.7633,19777.3
438.2454,19763.42
438.7275,19738.26
439.2097,19718.13
439.6918,19709.42
440.1739,19707.05
440.656,19702.34
441.1381,19694.16
441.6202,19693.18
442.1024,19711.28
442.5845,19733.28
443.0666,19740.28
443.5487,19731.21
444.0308,19718.72
444.5129,19711.57
444.9951,19709.48
445.4772,19708.7
445.9593,19708.97
446.4414,19710.65
446.9235,19716.05
447.4056,19722.35
447.8878,19725.84
448.3699,19725.21
448.852,19720.46
449.3341,19711.02
449.8162,19694.35
450.2983,19680.16
450.7805,19666.79
451.2626,19657.02
451.7447,19654.55
452.2268,19657.04
452.7089,19658.73
453.191,19655.86
453.6732,19649.06
454.1553,19640.21
454.6374,19623.46
455.1195,19615.11
455.6016,19625.43
456.0837,19639.05
456.5659,19641.54
457.048,19630.92
457.5301,19617.98
458.0122,19614.64
458.4943,19620.67
458.9764,19624.29
459.4586,19625.96
459.9407,19623.66
460.4228,19613.22
460.9049,19599.14
461.387,19589.7
461.8691,19588.76
462.3513,19591.99
462.8334,19594.75
463.3155,19597.08
463.7976,19600.6
464.2797,19609.95
464.7618,19615.49
465.244,19601.06
465.7261,19566.15
466.2082,19539.43
466.6903,19535.23
467.1724,19541.77
467.6545,19546.97
468.1367,19549.53
468.6188,19547.88
469.1009,19540.38
469.583,19527.93
470.0651,19514.82
470.5472,19492.95
471.0294,19480.61
471.5115,19488.79
471.9936,19506.36
472.4757,19520.48
472.9578,19527.49
473.4399,19529.45
473.9221,19529.08
474.4042,19527.28
474.8863,19517.22
475.3684,19493.96
475.8505,19468.56
476.3326,19441.17
476.8148,19415.24
477.2969,19396.08
477.779,19386.44
478.2611,19383.6
478.7432,19382.53
479.2253,19383.94
479.7075,19385.31
480.1896,19391.39
480.6717,19393.34
481.1538,19381.72
481.6359,19360.0
482.118,19342.93
482.6002,19343.17
483.0823,19354.48
483.5644,19360.27
484.0465,19360.95
484.5286,19354.12
485.0107,19331.76
485.4929,19304.69
485.975,19285.52
486.4571,19276.27
486.9392,19271.54
487.4213,19270.19
487.9034,19270.72
488.3856,19270.08
488.8677,19267.8
489.3498,19263.92
489.8319,19258.36
490.314,19251.0
490.7961,19242.75
491.2783,19231.29
491.7604,19221.32
492.2425,19212.79
492.7246,19207.63
493.2067,19211.84
493.6888,19227.54
494.171,19245.38
494.6531,19250.04
495.1352,19235.22
495.6173,19227.12
496.0994,19234.59
496.5815,19239.21
497.0637,19231.05
497.5458,19213.03
498.0279,19191.86
498.51,19170.82
498.9921,19151.44
499.4742,19137.87
499.9564,19132.92
500.4385,19126.54
500.9206,19108.14
501.4027,19094.9
501.8848,19102.65
502.3669,19128.15
502.8491,19151.17
503.3312,19157.48
503.8133,19151.39
504.2954,19144.19
504.7775,19136.28
505.2596,19125.36
505.7418,19105.72
506.2239,19085.37
506.706,19076.13
507.1881,19080.82
507.6702,19087.81
508.1523,19094.39
508.6345,19098.54
509.1166,19094.96
509.5987,19082.8
510.0808,19070.83
510.5629,19066.68
511.045,19069.48
511.5272,19068.71
512.0093,19062.73
512.4914,19055.54
512.9735,19043.37
513.4556,19032.59
513.9377,19033.86
514.4199,19049.11
514.902,19068.15
515.3841,19079.0
515.8662,19081.82
516.3483,19075.45
516.8304,19054.66
517.3126,19029.9
517.7947,19000.73
518.2768,18970.4
518.7589,18942.28
519.241,18917.54
519.7231,18897.68
520.2053,18884.7
520.6874,18878.67
521.1695,18879.52
521.6516,18894.58
522.1337,18906.94
522.6158,18905.81
523.098,18893.32
523.5801,18874.76
524.0622,18843.05
524.5443,18815.02
525.0264,18812.3
525.5085,18831.17
525.9907,18851.27
526.4728,18868.32
526.9549,18877.64
527.437,18868.08
527.9191,18834.98
528.4012,18814.17
528.8834,18819.26
529.3655,18829.2
529.8476,18831.27
530.3297,18825.69
530.8118,18815.88
531.2939,18803.37
531.7761,18789.29
532.2582,18776.02
532.7403,18758.34
533.2224,18751.23
533.7045,18760.63
534.1866,18773.8
534.6688,18787.27
535.1509,18797.97
535.633,18799.74
536.1151,18785.99
536.5972,18763.97
537.0793,18754.67
537.5615,18762.18
538.0436,18766.14
538.5257,18758.87
539.0078,18747.29
539.4899,18736.48
539.972,18726.89
540.4542,18719.42
540.9363,18717.41
541.4184,18716.58
541.9005,18711.6
542.3826,18702.22
542.8647,18686.67
543.3469,18660.58
543.829,18631.11
544.3111,18618.52
544.7932,18631.28
545.2753,18638.13
545.7574,18627.0
546.2396,18613.53
546.7217,18613.27
547.2038,18624.64
547.6859,18634.47
548.168,18633.27
548.6501,18623.63
549.1323,18617.31
549.6144,18617.47
550.0965,18615.55
550.5786,18608.9
551.0607,18601.5
551.5428,18596.76
552.025,18594.51
552.5071,18591.69
552.9892,18585.08
553.4713,18576.59
553.9534,18572.71
554.4355,18574.79
554.9177,18574.14
555.3998,18563.32
555.8819,18550.86
556.364,18548.88
556.8461,18558.79
557.3282,18568.72
557.8104,18575.94
558.2925,18579.69
558.7746,18576.61
559.2567,18567.8
559.7388,18562.32
560.2209,18566.58
560.7031,18576.49
561.1852,18578.99
561.6673,18572.56
562.1494,18560.15
562.6315,18533.61
563.1136,18507.53
563.5958,18493.31
564.0779,18489.9
564.56,18490.06
565.0421,18489.46
565.5242,18487.2
566.0063,18478.67
566.4885,18459.29
566.9706,18447.01
567.4527,18451.14
567.9348,18460.25
568.4169,18468.95
568.899,18476.18
569.3812,18479.35
569.8633,18476.1
570.3454,18468.5
570.8275,18458.87
571.3096,18447.35
571.7917,18434.21
572.2739,18417.4
572.756,18402.39
573.2381,18401.34
573.7202,18420.22
574.2023,18429.13
574.6844,18418.82
575.1666,18403.41
575.6487,18390.09
576.1308,18379.89
576.6129,18373.31
577.095,18370.69
577.5771,18370.21
578.0593,18366.7
578.5414,18355.39
579.0235,18353.86
579.5056,18372.22
579.9877,18391.86
580.4698,18408.13
580.952,18418.78
581.4341,18420.29
581.9162,18410.01
582.3983,18391.97
582.8804,18364.78
583.3625,18330.64
583.8447,18316.82
584.3268,18334.73
584.8089,18363.24
585.291,18385.18
585.7731,18400.16
586.2552,18402.36
586.7374,18380.16
587.2195,18356.82
587.7016,18346.94
588.1837,18343.61
588.6658,18333.11
589.1479,18311.68
589.6301,18288.23
590.1122,18273.59
590.5943,18268.52
591.0764,18265.17
591.5585,18265.6
592.0406,18265.21
592.5228,18262.06
593.0049,18257.82
593.487,18254.59
593.9691,18252.85
594.4512,18251.29
594.9333,18248.9
595.4155,18245.65
595.8976,18240.58
596.3797,18232.75
596.8618,18227.7
597.3439,18232.54
597.826,18240.87
598.3082,18236.46
598.7903,18213.11
599.2724,18193.03
599.7545,18181.5
600.2366,18178.0
600.7188,18184.62
601.2009,18199.82
601.683,18218.43
602.1651,18238.64
602.6472,18255.76
603.1293,18250.54
603.6115,18202.8
604.0936,18169.72
604.5757,18160.3
605.0578,18160.36
605.5399,18166.74
606.022,18175.41
606.5042,18177.77
606.9863,18167.28
607.4684,18150.53
607.9505,18137.4
608.4326,18127.84
608.9147,18120.32
609.3969,18114.26
609.879,18110.59
610.3611,18112.17
610.8432,18118.41
611.3253,18120.79
611.8074,18118.82
612.2896,18112.4
612.7717,18097.84
613.2538,18079.79
613.7359,18066.04
614.218,18058.8
614.7001,18054.73
615.1823,18049.3
615.6644,18042.06
616.1465,18042.38
616.6286,18062.75
617.1107,18072.97
617.5928,18057.26
618.075,18032.94
618.5571,18018.16
619.0392,18016.27
619.5213,18016.91
620.0034,18014.1
620.4855,18007.89
620.9677,17995.43
621.4498,17976.3
621.9319,17964.71
622.414,17969.92
622.8961,17984.65
623.3782,17993.58
623.8604,17995.68
624.3425,17996.43
624.8246,17999.16
625.3067,17998.34
625.7888,17985.48
626.2709,17966.18
626.7531,17954.93
627.2352,17959.06
627.7173,17969.26
628.1994,17966.82
628.6815,17947.72
629.1636,17938.45
629.6458,17951.61
630.1279,17959.93
630.61,17941.38
631.0921,17911.22
631.5742,17897.85
632.0563,17912.16
632.5385,17932.39
633.0206,17945.51
633.5027,17952.81
633.9848,17957.2
634.4669,17959.1
634.949,17955.82
635.4312,17944.43
635.9133,17927.02
636.3954,17913.08
636.8775,17902.61
637.3596,17896.29
637.8417,17897.56
638.3239,17900.3
638.806,17900.48
639.2881,17898.11
639.7702,17895.49
640.2523,17894.65
640.7344,17892.59
641.2166,17881.86
641.6987,17861.84
642.1808,17845.17
642.6629,17834.01
643.145,17827.1
643.6271,17824.16
644.1093,17824.64
644.5914,17827.32
645.0735,17835.85
645.5556,17842.23
646.0377,17841.9
646.5198,17837.53
647.002,17831.22
647.4841,17824.26
647.9662,17820.37
648.4483,17823.04
648.9304,17831.63
649.4125,17842.84
649.8947,17864.46
650.3768,17873.46
650.8589,17855.82
651.341,17832.8
651.8231,17818.82
652.3052,17813.51
652.7874,17808.5
653.2695,17798.97
653.7516,17788.12
654.2337,17779.46
654.7158,17772.86
655.1979,17767.22
655.6801,17761.71
656.1622,17760.33
656.6443,17769.46
657.1264,17790.23
657.6085,17799.86
658.0906,17787.46
658.5728,17779.2
659.0549,17783.96
659.537,17794.35
660.0191,17804.15
660.5012,17811.49
660.9833,17814.82
661.4655,17809.26
661.9476,17800.79
662.4297,17811.07
662.9118,17843.0
663.3939,17871.49
663.876,17889.31
664.3582,17899.85
664.8403,17902.62
665.3224,17898.6
665.8045,17904.46
666.2866,17928.43
666.7687,17957.1
667.2509,17985.88
667.733,18013.36
668.2151,18036.88
668.6972,18056.19
669.1793,18074.49
669.6614,18095.22
670.1436,18118.3
670.6257,18143.63
671.1078,18176.24
671.5899,18200.78
672.072,18206.56
672.5541,18207.13
673.0363,18213.33
673.5184,18225.16
674.0005,18235.31
674.4826,18240.12
674.9647,18242.24
675.4468,18246.23
675.929,18249.77
676.4111,18244.15
676.8932,18226.49
677.3753,18206.42
677.8574,18196.43
678.3395,18197.34
678.8217,18187.7
679.3038,18163.98
679.7859,18133.58
680.268,18095.36
680.7501,18053.05
681.2322,18007.35
681.7144,17960.17
682.1965,17917.66
682.6786,17884.79
683.1607,17858.92
683.6428,17840.56
684.1249,17827.79
684.6071,17802.23
685.0892,17755.09
685.5713,17704.47
686.0534,17670.11
686.5355,17652.88
687.0176,17640.3
687.4998,17638.51
687.9819,17633.09
688.464,17620.5
688.9461,17602.45
689.4282,17576.05
689.9103,17544.31
690.3925,17520.83
690.8746,17519.81
691.3567,17530.64
691.8388,17529.14
692.3209,17515.27
692.803,17490.91
693.2852,17451.88
693.7673,17411.36
694.2494,17383.13
694.7315,17366.59
695.2136,17350.05
695.6957,17330.36
696.1779,17313.88
696.66,17307.22
697.1421,17302.28
697.6242,17286.37
698.1063,17260.8
698.5884,17241.13
699.0706,17240.29
699.5527,17251.81
700.0348,17258.21
700.5169,17259.39
700.999,17254.79
701.4811,17240.26
701.9633,17225.34
702.4454,17217.92
702.9275,17216.61
703.4096,17217.59
703.8917,17224.92
704.3738,17228.09
704.856,17217.34
705.3381,17203.03
705.8202,17199.11
706.3023,17205.42
706.7844,17211.42
707.2665,17210.01
707.7487,17202.78
708.2308,17193.21
708.7129,17180.19
709.195,17170.22
709.6771,17167.32
710.1592,17163.29
710.6414,17151.14
711.1235,17134.47
711.6056,17121.08
712.0877,17113.59
712.5698,17106.55
713.0519,17096.43
713.5341,17086.09
714.0162,17079.02
714.4983,17075.27
714.9804,17074.37
715.4625,17076.57
715.9446,17077.33
716.4268,17063.39
716.9089,17027.16
717.391,17010.9
717.8731,17027.96
718.3552,17048.54
718.8373,17062.05
719.3195,17068.94
719.8016,17068.3
720.2837,17058.71
720.7658,17049.21
721.2479,17044.94
721.73,17042.35
722.2122,17037.47
722.6943,17030.68
723.1764,17024.61
723.6585,17020.42
724.1406,17015.87
724.6227,17007.22
725.1049,16993.87
725.587,16981.18
726.0691,16965.55
726.5512,16956.65
727.0333,16963.89
727.5154,16975.39
727.9976,16976.96
728.4797,16967.77
728.9618,16965.06
729.4439,16979.81
729.926,17000.85
730.4081,17023.79
730.8903,17044.2
731.3724,17051.51
731.8545,17042.99
732.3366,17025.92
732.8187,17006.75
733.3008,16986.04
733.783,16970.12
734.2651,16961.78
734.7472,16952.38
735.2293,16935.93
735.7114,16921.36
736.1935,16917.11
736.6757,16921.05
737.1578,16922.54
737.6399,16915.47
738.122,16908.8
738.6041,16912.72
739.0862,16919.23
739.5684,16912.01
740.0505,16891.12
740.5326,16873.82
741.0147,16872.92
741.4968,16883.82
741.9789,16894.18
742.4611,16906.32
742.9432,16908.8
743.4253,16895.84
743.9074,16878.69
744.3895,16858.42
744.8716,16839.93
745.3538,16833.98
745.8359,16846.37
746.318,16857.81
746.8001,16857.7
747.2822,16853.84
747.7643,16855.24
748.2465,16860.4
748.7286,16862.2
749.2107,16857.43
749.6928,16849.58
750.1749,16844.49
750.657,16842.5
751.1392,16835.07
751.6213,16818.63
752.1034,16805.06
752.5855,16804.05
753.0676,16804.74
753.5497,16791.61
754.0319,16763.95
754.514,16742.17
754.9961,16734.83
755.4782,16730.72
755.9603,16721.79
756.4424,16712.12
756.9246,16708.73
757.4067,16712.68
757.8888,16720.05
758.3709,16729.29
758.853,16737.41
759.3351,16731.47
759.8173,16709.02
760.2994,16694.24
760.7815,16693.79
761.2636,16699.99
761.7457,16711.54
762.2278,16725.16
762.71,16725.13
763.1921,16697.66
763.6742,16677.73
764.1563,16679.19
764.6384,16686.77
765.1205,16687.07
765.6027,16682.61
766.0848,16684.12
766.5669,16696.85
767.049,16713.16
767.5311,16726.09
768.0132,16734.42
768.4954,16728.56
768.9775,16706.04
769.4596,16685.75
769.9417,16677.66
770.4238,16675.28
770.9059,16666.63
771.3881,16648.26
771.8702,16637.48
772.3523,16640.93
772.8344,16643.59
773.3165,16639.06
773.7986,16631.72
774.2808,16625.43
774.7629,16621.46
775.245,16621.34
775.7271,16627.79
776.2092,16637.12
776.6913,16646.51
777.1735,16654.39
777.6556,16651.6
778.1377,16635.58
778.6198,16620.07
779.1019,16616.92
779.584,16624.05
780.0662,16631.32
780.5483,16642.0
781.0304,16646.39
781.5125,16639.27
781.9946,16630.47
782.4767,16625.26
782.9589,16621.66
783.441,16615.81
783.9231,16606.81
784.4052,16595.27
784.8873,16579.42
785.3694,16562.7
785.8516,16547.93
786.3337,16536.23
786.8158,16531.37
787.2979,16534.78
787.78,16539.33
788.2621,16533.94
788.7443,16519.31
789.2264,16515.79
789.7085,16523.79
790.1906,16542.57
790.6727,16580.09
791.1548,16620.72
791.637,16653.73
792.1191,16678.0
792.6012,16682.8
793.0833,16647.45
793.5654,16616.04
794.0475,16611.96
794.5297,16615.2
795.0118,16604.58
795.4939,16580.76
795.976,16556.09
796.4581,16537.17
796.9402,16521.62
797.4224,16503.76
797.9045,16485.17
798.3866,16479.81
798.8687,16490.42
799.3508,16499.26
799.8329,16496.67
800.3151,16488.1
800.7972,16484.84
801.2793,16491.75
801.7614,16484.34
802.2435,16446.25
802.7256,16415.32
803.2078,16401.01
803.6899,16400.4
804.172,16415.48
804.6541,16442.9
805.1362,16465.86
805.6183,16474.82
806.1005,16476.13
806.5826,16474.6
807.0647,16470.88
807.5468,16464.42
808.0289,16455.99
808.511,16453.07
808.9932,16461.92
809.4753,16476.64
809.9574,16480.54
810.4395,16470.35
810.9216,16464.48
811.4037,16468.48
811.8859,16469.01
812.368,16455.93
812.8501,16436.88
813.3322,16422.12
813.8143,16412.14
814.2964,16406.06
814.7786,16402.54
815.2607,16403.99
815.7428,16414.7
816.2249,16429.86
816.707,16444.15
817.1891,16455.68
817.6713,16462.82
818.1534,16463.04
818.6355,16459.79
819.1176,16458.91
819.5997,16460.39
820.0818,16467.13
820.564,16480.84
821.0461,16487.55
821.5282,16475.32
822.0103,16451.06
822.4924,16436.63
822.9745,16440.65
823.4567,16434.88
823.9388,16410.11
824.4209,16386.22
824.903,16371.44
825.3851,16361.0
825.8672,16346.33
826.3494,16326.59
826.8315,16316.33
827.3136,16335.54
827.7957,16354.74
828.2778,16344.85
828.7599,16318.46
829.2421,16297.6
829.7242,16287.14
830.2063,16282.59
830.6884,16280.89
831.1705,16281.57
831.6526,16284.83
832.1348,16290.85
832.6169,16290.99
833.099,16282.51
833.5811,16272.55
834.0632,16262.63
834.5453,16255.71
835.0275,16260.04
835.5096,16282.8
835.9917,16294.52
836.4738,16287.08
836.9559,16277.79
837.438,16273.74
837.9202,16270.74
838.4023,16262.5
838.8844,16249.31
839.3665,16238.45
839.8486,16236.11
840.3307,16235.26
840.8129,16226.74
841.295,16215.24
841.7771,16211.73
842.2592,16216.52
842.7413,16219.46
843.2234,16213.85
843.7056,16204.45
844.1877,16201.68
844.6698,16206.36
845.1519,16207.48
845.634,16205.14
846.1161,16197.29
846.5983,16178.54
847.0804,16157.83
847.5625,16148.5
848.0446,16151.14
848.5267,16152.81
849.0089,16151.03
849.491,16150.61
849.9731,16154.27
850.4552,16158.8
850.9373,16162.35
851.4194,16164.16
851.9016,16163.24
852.3837,16159.05
852.8658,16152.42
853.3479,16141.36
853.83,16129.66
854.3121,16125.96
854.7943,16128.83
855.2764,16127.79
855.7585,16118.27
856.2406,16108.14
856.7227,16108.59
857.2048,16118.51
857.687,16123.04
858.1691,16120.63
858.6512,16119.12
859.1333,16124.21
859.6154,16124.32
860.0975,16103.68
860.5797,16067.92
861.0618,16049.13
861.5439,16057.4
862.026,16065.42
862.5081,16069.48
862.9902,16073.54
863.4724,16084.78
863.9545,16095.85
864.4366,16091.39
864.9187,16068.31
865.4008,16049.96
865.8829,16057.7
866.3651,16073.54
866.8472,16080.81
867.3293,16078.75
867.8114,16061.15
868.2935,16029.6
868.7756,16005.37
869.2578,16005.69
869.7399,16020.93
870.222,16027.28
870.7041,16024.16
871.1862,16021.86
871.6683,16020.63
872.1505,16022.41
872.6326,16030.42
873.1147,16039.29
873.5968,16039.27
874.0789,16028.03
874.561,16020.19
875.0432,16021.3
875.5253,16018.41
876.0074,16004.96
876.4895,15989.32
876.9716,15978.52
877.4537,15972.0
877.9359,15965.29
878.418,15957.39
878.9001,15947.88
879.3822,15930.83
879.8643,15916.22
880.3464,15919.64
880.8286,15935.25
881.3107,15944.77
881.7928,15941.84
882.2749,15935.93
882.757,15938.83
883.2391,15946.06
883.7213,15938.65
884.2034,15918.23
884.6855,15916.01
885.1676,15941.69
885.6497,15969.3
886.1318,15980.11
886.614,15975.51
887.0961,15958.93
887.5782,15923.94
888.0603,15892.85
888.5424,15860.6
889.0245,15839.36
889.5067,15841.38
889.9888,15852.29
890.4709,15854.82
890.953,15848.31
891.4351,15846.27
891.9172,15858.12
892.3994,15866.53
892.8815,15863.12
893.3636,15853.96
893.8457,15841.97
894.3278,15830.05
894.8099,15825.67
895.2921,15833.59
895.7742,15836.68
896.2563,15810.65
896.7384,15773.28
897.2205,15755.21
897.7026,15754.76
898.1848,15760.73
898.6669,15769.3
899.149,15779.14
899.6311,15790.4
900.1132,15800.06
900.5953,15793.97
901.0775,15770.29
901.5596,15751.96
902.0417,15742.8
902.5238,15736.62
903.0059,15728.75
903.488,15722.4
903.9702,15725.1
904.4523,15740.23
904.9344,15750.34
905.4165,15748.21
905.8986,15750.16
906.3807,15764.68
906.8629,15780.83
907.345,15790.75
907.8271,15793.85
908.3092,15790.81
908.7913,15781.81
909.2734,15766.68
909.7556,15733.97
910.2377,15704.96
910.7198,15701.88
911.2019,15716.54
911.684,15734.78
912.1661,15750.59
912.6483,15754.07
913.1304,15729.47
913.6125,15694.24
914.0946,15675.83
914.5767,15671.14
915.0588,15671.36
915.541,15674.61
916.0231,15680.87
916.5052,15690.51
916.9873,15700.83
917.4694,15705.97
917.9515,15705.61
918.4337,15709.91
918.9158,15722.15
919.3979,15722.57
919.88,15699.24
920.3621,15672.35
920.8442,15666.12
921.3264,15677.36
921.8085,15671.98
922.2906,15628.15
922.7727,15603.61
923.2548,15617.63
923.7369,15632.48
924.2191,15629.94
924.7012,15617.45
925.1833,15604.94
925.6654,15593.31
926.1475,15588.34
926.6296,15598.34
927.1118,15607.78
927.5939,15607.86
928.076,15603.91
928.5581,15602.26
929.0402,15602.36
929.5223,15598.4
930.0045,15586.67
930.4866,15577.91
930.9687,15581.97
931.4508,15595.08
931.9329,15618.85
932.415,15646.14
932.8972,15653.85
933.3793,15637.11
933.8614,15614.84
934.3435,15602.6
934.8256,15598.46
935.3077,15599.63
935.7899,15605.56
936.272,15610.14
936.7541,15613.44
937.2362,15604.38
937.7183,15573.96
938.2004,15539.72
938.6826,15529.51
939.1647,15544.04
939.6468,15549.7
940.1289,15542.72
940.611,15536.46
941.0931,15536.99
941.5753,15534.25
942.0574,15517.11
942.5395,15492.1
943.0216,15477.03
943.5037,15474.94
943.9858,15473.84
944.468,15477.08
944.9501,15476.09
945.4322,15460.83
945.9143,15444.7
946.3964,15444.37
946.8785,15457.14
947.3607,15464.25
947.8428,15456.71
948.3249,15448.38
948.807,15447.21
949.2891,15448.08
949.7712,15446.21
950.2534,15442.46
950.7355,15438.7
951.2176,15435.72
951.6997,15435.21
952.1818,15439.38
952.6639,15445.37
953.1461,15450.08
953.6282,15453.35
954.1103,15454.51
954.5924,15453.73
955.0745,15452.87
955.5566,15452.95
956.0388,15450.36
956.5209,15439.12
957.003,15421.05
957.4851,15403.02
957.9672,15385.08
958.4493,15378.3
958.9315,15386.31
959.4136,15398.06
959.8957,15407.43
960.3778,15410.79
960.8599,15395.29
961.342,15353.03
961.8242,15334.52
962.3063,15351.74
962.7884,15363.2
963.2705,15353.95
963.7526,15335.28
964.2347,15313.5
964.7169,15290.92
965.199,15284.63
965.6811,15306.49
966.1632,15326.71
966.6453,15351.14
967.1274,15367.21
967.6096,15368.95
968.0917,15359.88
968.5738,15341.01
969.0559,15313.5
969.538,15292.0
970.0201,15281.8
970.5023,15275.53
970.9844,15273.32
971.4665,15271.52
971.9486,15268.13
972.4307,15262.56
972.9128,15252.28
973.395,15236.92
973.8771,15227.01
974.3592,15235.45
974.8413,15245.27
975.3234,15240.78
975.8055,15228.43
976.2877,15215.87
976.7698,15205.22
977.2519,15198.65
977.734,15197.3
978.2161,15196.69
978.6982,15189.79
979.1804,15181.42
979.6625,15178.93
980.1446,15183.29
980.6267,15198.84
981.1088,15225.52
981.5909,15258.38
982.0731,15296.14
982.5552,15325.44
983.0373,15315.93
983.5194,15273.64
984.0015,15241.76
984.4836,15221.6
984.9658,15208.7
985.4479,15202.52
985.93,15195.04
986.4121,15177.59
986.8942,15155.04
987.3763,15145.28
987.8585,15149.51
988.3406,15160.5
988.8227,15181.4
989.3048,15197.55
989.7869,15204.55
990.269,15200.23
990.7512,15177.5
991.2333,15139.11
991.7154,15121.68
992.1975,15135.85
992.6796,15148.67
993.1617,15160.51
993.6439,15167.1
994.126,15163.89
994.6081,15155.74
995.0902,15149.33
995.5723,15144.77
996.0544,15140.19
996.5366,15138.97
997.0187,15132.89
997.5008,15112.61
997.9829,15095.38
998.465,15095.22
998.9471,15103.82
999.4293,15106.81
999.9114,15102.11
1000.393,15096.0
1000.876,15090.86
1001.358,15083.79
1001.84,15068.27
1002.322,15054.88
1002.804,15056.49
1003.286,15067.22
1003.768,15071.79
1004.25,15065.71
1004.733,15059.84
1005.215,15062.24
1005.697,15064.72
1006.179,15061.64
1006.661,15054.74
1007.143,15042.57
1007.625,15029.07
1008.107,15025.95
1008.589,15038.83
1009.072,15052.79
1009.554,15056.17
1010.036,15052.9
1010.518,15045.9
1011.0,15036.42
1011.482,15025.2
1011.964,15013.42
1012.446,15004.88
1012.929,15001.75
1013.411,15000.94
1013.893,14997.29
1014.375,14994.01
1014.857,14998.28
1015.339,15008.87
1015.821,15022.63
1016.303,15037.92
1016.785,15050.16
1017.268,15056.7
1017.75,15055.66
1018.232,15040.17
1018.714,15014.48
1019.196,14995.84
1019.678,14984.39
1020.16,14975.02
1020.642,14966.28
1021.125,14959.98
1021.607,14957.7
1022.089,14957.88
1022.571,14957.18
1023.053,14955.58
1023.535,14953.12
1024.017,14949.68
1024.499,14949.92
1024.981,14956.1
1025.464,14960.52
1025.946,14955.94
1026.428,14944.69
1026.91,14933.57
1027.392,14922.52
1027.874,14910.1
1028.356,14892.96
1028.838,14891.91
1029.321,14917.87
1029.803,14952.28
1030.285,14979.67
1030.767,14998.77
1031.249,15003.46
1031.731,14990.8
1032.213,14973.72
1032.695,14949.54
1033.177,14928.2
1033.66,14912.89
1034.142,14902.46
1034.624,14894.85
1035.106,14891.03
1035.588,14898.36
1036.07,14925.56
1036.552,14943.24
1037.034,14951.39
1037.516,14948.79
1037.999,14928.25
1038.481,14903.73
1038.963,14888.97
1039.445,14883.49
1039.927,14883.73
1040.409,14901.56
1040.891,14904.13
1041.373,14879.91
1041.855,14855.1
1042.338,14831.28
1042.82,14817.46
1043.302,14831.39
1043.784,14867.62
1044.266,14884.01
1044.748,14870.85
1045.23,14852.17
1045.712,14816.31
1046.195,14790.68
1046.677,14791.18
1047.159,14803.68
1047.641,14816.89
1048.123,14828.85
1048.605,14832.08
1049.087,14820.97
1049.569,14809.79
1050.052,14801.0
1050.534,14791.89
1051.016,14776.06
1051.498,14762.79
1051.98,14765.77
1052.462,14782.18
1052.944,14791.54
1053.426,14782.14
1053.908,14781.96
1054.391,14812.46
1054.873,14836.06
1055.355,14828.42
1055.837,14807.4
1056.319,14790.06
1056.801,14779.14
1057.283,14776.86
1057.765,14787.46
1058.248,14798.11
1058.73,14811.17
1059.212,14816.56
1059.694,14802.58
1060.176,14782.23
1060.658,14771.45
1061.14,14768.98
1061.622,14762.16
1062.104,14745.97
1062.587,14730.0
1063.069,14713.12
1063.551,14702.64
1064.033,14708.61
1064.515,14719.24
1064.997,14722.39
1065.479,14717.27
1065.961,14705.9
1066.443,14685.14
1066.926,14671.59
1067.408,14678.88
1067.89,14687.44
1068.372,14682.83
1068.854,14675.03
1069.336,14678.16
1069.818,14689.1
1070.3,14693.13
1070.782,14684.71
1071.265,14675.64
1071.747,14673.15
1072.229,14669.19
1072.711,14656.41
1073.193,14641.57
1073.675,14633.52
1074.157,14630.16
1074.639,14622.88
1075.122,14608.69
1075.604,14595.28
1076.086,14586.45
1076.568,14579.16
1077.05,14571.2
1077.532,14564.26
1078.014,14561.0
1078.496,14560.25
1078.979,14558.14
1079.461,14553.49
1079.943,14551.65
1080.425,14555.02
1080.907,14561.96
1081.389,14577.67
1081.871,14591.35
1082.353,14593.71
1082.835,14585.51
1083.318,14567.24
1083.8,14539.39
1084.282,14518.21
1084.764,14514.97
1085.246,14514.72
1085.728,14508.99
1086.21,14504.04
1086.692,14501.97
1087.175,14506.17
1087.657,14526.3
1088.139,14562.09
1088.621,14587.91
1089.103,14594.93
1089.585,14587.86
1090.067,14555.79
1090.549,14523.06
1091.031,14508.26
1091.514,14505.37
1091.996,14501.66
1092.478,14496.94
1092.96,14505.93
1093.442,14548.08
1093.924,14577.29
1094.406,14575.4
1094.888,14556.34
1095.37,14516.65
1095.853,14473.6
1096.335,14448.33
1096.817,14440.45
1097.299,14436.76
1097.781,14439.31
1098.263,14431.96
1098.745,14396.71
1099.227,14365.76
1099.709,14354.89
1100.192,14357.91
1100.674,14374.55
1101.156,14398.26
1101.638,14410.92
1102.12,14407.93
1102.602,14398.0
1103.084,14372.34
1103.566,14353.67
1104.049,14361.0
1104.531,14369.62
1105.013,14352.97
1105.495,14321.93
1105.977,14303.03
1106.459,14298.94
1106.941,14309.66
1107.423,14349.77
1107.906,14384.45
1108.388,14411.92
1108.87,14423.58
1109.352,14404.15
1109.834,14369.42
1110.316,14347.38
1110.798,14340.35
1111.28,14327.79
1111.762,14302.52
1112.245,14280.32
1112.727,14265.96
1113.209,14251.9
1113.691,14229.36
1114.173,14208.43
1114.655,14203.29
1115.137,14212.88
1115.619,14222.74
1116.102,14232.98
1116.584,14243.17
1117.066,14256.76
1117.548,14264.78
1118.03,14262.64
1118.512,14254.98
1118.994,14243.97
1119.476,14231.4
1119.958,14224.81
1120.441,14226.28
1120.923,14227.4
1121.405,14229.94
1121.887,14227.93
1122.369,14217.22
1122.851,14206.76
1123.333,14204.42
1123.815,14205.61
1124.297,14198.68
1124.78,14182.2
1125.262,14178.81
1125.744,14194.23
1126.226,14200.68
1126.708,14190.54
1127.19,14180.42
1127.672,14179.29
1128.154,14183.52
1128.636,14188.8
1129.119,14194.32
1129.601,14193.52
1130.083,14186.08
1130.565,14173.25
1131.047,14153.73
1131.529,14142.9
1132.011,14147.91
1132.493,14156.55
1132.976,14156.47
1133.458,14150.58
1133.94,14147.35
1134.422,14146.53
1134.904,14144.84
1135.386,14142.23
1135.868,14140.67
1136.35,14140.64
1136.833,14138.41
1137.315,14130.81
1137.797,14122.91
1138.279,14124.91
1138.761,14133.42
1139.243,14136.29
1139.725,14134.78
1140.207,14135.58
1140.689,14138.82
1141.172,14136.17
1141.654,14123.81
1142.136,14111.48
1142.618,14110.61
1143.1,14115.14
1143.582,14115.29
1144.064,14112.74
1144.546,14110.8
1145.029,14109.54
1145.511,14106.5
1145.993,14101.8
1146.475,14103.17
1146.957,14119.97
1147.439,14134.13
1147.921,14124.45
1148.403,14104.92
1148.885,14089.7
1149.368,14078.76
1149.85,14070.24
1150.332,14063.78
1150.814,14059.25
1151.296,14056.49
1151.778,14056.94
1152.26,14065.83
1152.742,14073.25
1153.224,14071.85
1153.707,14066.05
1154.189,14059.07
1154.671,14052.35
1155.153,14047.79
1155.635,14045.79
1156.117,14044.56
1156.599,14045.89
1157.081,14044.59
1157.563,14037.46
1158.046,14028.98
1158.528,14018.8
1159.01,14010.88
1159.492,14012.79
1159.974,14022.93
1160.456,14025.77
1160.938,14013.09
1161.42,14006.46
1161.903,14009.73
1162.385,14014.81
1162.867,14023.09
1163.349,14028.15
1163.831,14024.43
1164.313,14014.03
1164.795,14000.74
1165.277,13982.74
1165.76,13977.8
1166.242,13991.57
1166.724,13999.92
1167.206,13997.19
1167.688,13995.77
1168.17,14003.35
1168.652,14011.4
1169.134,14008.3
1169.616,13996.69
1170.099,13988.19
1170.581,13982.81
1171.063,13981.28
1171.545,13983.63
1172.027,13985.05
1172.509,13984.0
1172.991,13988.55
1173.473,14006.51
1173.956,14023.96
1174.438,14013.7
1174.92,13984.08
1175.402,13958.21
1175.884,13937.77
1176.366,13929.35
1176.848,13932.08
1177.33,13937.87
1177.813,13943.13
1178.295,13947.17
1178.777,13946.43
1179.259,13948.77
1179.741,13972.22
1180.223,13999.15
1180.705,14005.6
1181.187,13994.04
1181.669,13967.22
1182.151,13931.33
1182.634,13908.98
1183.116,13914.82
1183.598,13919.2
1184.08,13899.33
1184.562,13878.47
1185.044,13873.6
1185.526,13874.44
1186.008,13867.77
1186.49,13857.94
1186.973,13859.63
1187.455,13876.17
1187.937,13885.51
1188.419,13876.38
1188.901,13870.09
1189.383,13875.42
1189.865,13879.09
1190.347,13866.82
1190.83,13855.68
1191.312,13869.83
1191.794,13901.49
1192.276,13911.24
1192.758,13891.28
1193.24,13876.03
1193.722,13867.12
1194.204,13857.64
1194.687,13844.4
1195.169,13836.72
1195.651,13842.88
1196.133,13850.89
1196.615,13839.6
1197.097,13813.7
1197.579,13802.13
1198.061,13804.26
1198.543,13810.06
1199.026,13817.97
1199.508,13820.35
1199.99,13814.76
1200.472,13804.88
1200.954,13793.11
1201.436,13781.42
1201.918,13771.39
1202.4,13764.3
1202.883,13762.77
1203.365,13766.39
1203.847,13777.54
1204.329,13792.85
1204.811,13802.43
1205.293,13802.46
1205.775,13793.26
1206.257,13769.23
1206.74,13744.22
1207.222,13727.28
1207.704,13714.92
1208.186,13700.78
1208.668,13691.08
1209.15,13702.43
1209.632,13728.78
1210.114,13735.07
1210.596,13706.01
1211.078,13681.79
1211.561,13669.05
1212.043,13663.61
1212.525,13669.41
1213.007,13676.36
1213.489,13678.32
1213.971,13677.14
1214.453,13675.73
1214.935,13673.91
1215.417,13668.98
1215.9,13658.57
1216.382,13654.83
1216.864,13661.04
1217.346,13661.68
1217.828,13651.14
1218.31,13637.88
1218.792,13628.16
1219.274,13620.24
1219.757,13610.51
1220.239,13599.76
1220.721,13590.43
1221.203,13583.15
1221.685,13581.19
1222.167,13584.47
1222.649,13591.43
1223.131,13600.89
1223.614,13606.2
1224.096,13599.17
1224.578,13595.59
1225.06,13620.3
1225.542,13651.46
1226.024,13666.45
1226.506,13667.24
1226.988,13656.54
1227.47,13637.05
1227.953,13612.17
1228.435,13582.64
1228.917,13555.65
1229.399,13531.64
1229.881,13514.07
1230.363,13503.98
1230.845,13500.44
1231.327,13506.12
1231.81,13515.62
1232.292,13525.69
1232.774,13534.21
1233.256,13532.31
1233.738,13517.09
1234.22,13503.15
1234.702,13488.94
1235.184,13482.2
1235.667,13486.53
1236.149,13490.89
1236.631,13490.63
1237.113,13482.5
1237.595,13459.75
1238.077,13431.16
1238.559,13427.35
1239.041,13441.59
1239.523,13435.85
1240.005,13413.7
1240.488,13402.88
1240.97,13406.99
1241.452,13406.9
1241.934,13393.01
1242.416,13382.61
1242.898,13399.06
1243.38,13418.0
1243.862,13412.34
1244.344,13397.98
1244.827,13388.84
1245.309,13386.5
1245.791,13394.37
1246.273,13409.47
1246.755,13418.41
1247.237,13418.63
1247.719,13409.55
1248.201,13376.46
1248.684,13354.5
1249.166,13365.91
1249.648,13377.56
1250.13,13367.48
1250.612,13350.74
1251.094,13347.99
1251.576,13356.8
1252.058,13362.1
1252.541,13364.64
1253.023,13356.43
1253.505,13335.82
1253.987,13320.84
1254.469,13315.53
1254.951,13321.91
1255.433,13341.9
1255.915,13359.61
1256.397,13353.02
1256.88,13334.89
1257.362,13329.53
1257.844,13331.72
1258.326,13329.16
1258.808,13325.82
1259.29,13337.17
1259.772,13360.91
1260.254,13374.12
1260.737,13366.24
1261.219,13357.92
1261.701,13363.49
1262.183,13366.78
1262.665,13352.66
1263.147,13341.08
1263.629,13351.21
1264.111,13369.9
1264.594,13379.08
1265.076,13379.01
1265.558,13375.35
1266.04,13367.76
1266.522,13356.61
1267.004,13339.29
1267.486,13328.15
1267.968,13327.1
1268.45,13324.33
1268.932,13313.4
1269.415,13301.67
1269.897,13298.2
1270.379,13297.89
1270.861,13285.78
1271.343,13267.41
1271.825,13258.49
1272.307,13258.7
1272.789,13269.7
1273.271,13286.69
1273.754,13290.78
1274.236,13275.28
1274.718,13260.59
1275.2,13261.94
1275.682,13265.62
1276.164,13262.05
1276.646,13259.43
1277.128,13264.39
1277.611,13273.11
1278.093,13284.97
1278.575,13296.15
1279.057,13294.33
1279.539,13278.43
1280.021,13261.57
1280.503,13234.5
1280.985,13227.44
1281.468,13253.7
1281.95,13276.68
1282.432,13282.35
1282.914,13281.34
1283.396,13282.31
1283.878,13284.2
1284.36,13283.46
1284.842,13276.33
1285.324,13254.55
