Wavenumber (cm⁻¹),Intensity
200.0,10830.757267441859
201.00097751710655,10183.322681522654
202.0019550342131,9586.456647435778
203.00293255131965,9081.848683761853
204.0039100684262,8782.137392302619
205.00488758553274,8665.220877662598
206.0058651026393,8623.402222340708
207.00684261974584,8624.160246027415
208.0078201368524,8584.87769811771
209.00879765395894,8443.453223140497
210.00977517106548,8209.747452234962
211.01075268817203,7877.058924731185
212.01173020527858,7438.52836043722
213.01270772238513,6987.965253322067
214.01368523949168,6517.3988945170195
215.01466275659823,6000.530503865639
216.01564027370478,5704.670089399418
217.01661779081132,5445.695827126031
218.01759530791787,5204.938563690151
219.01857282502445,5113.874379091662
220.019550342131,4989.948751903594
221.02052785923755,4889.584483322048
222.0215053763441,4850.216103188214
223.02248289345064,4813.747891717019
224.0234604105572,4761.856755654185
225.02443792766374,4725.339646256993
226.0254154447703,4762.520894161169
227.02639296187684,4720.156934244163
228.02737047898339,4691.774054716751
229.02834799608993,4685.797626884855
230.02932551319648,4669.746966989561
231.03030303030303,4680.551333908008
232.03128054740958,4702.713834004486
233.03225806451613,4729.919319545423
234.03323558162268,4764.964484258124
235.03421309872923,4811.514473456239
236.03519061583577,4849.6284258552205
237.03616813294232,4851.8187486497645
238.03714565004887,4899.548024181961
239.03812316715542,5003.017980606629
240.03910068426197,5135.018426660905
241.04007820136852,5202.188325693584
242.04105571847506,5371.689609778024
243.0420332355816,5578.58010963329
244.0430107526882,5810.4079742563445
245.04398826979474,6145.041333989773
246.0449657869013,6567.903199387076
247.04594330400784,7112.939540280134
248.04692082111438,7825.742205976416
249.04789833822093,8668.443852134298
250.04887585532748,9615.782116581784
251.04985337243403,10671.26672293282
252.05083088954058,11862.349539124614
253.05180840664713,13171.40822343413
254.05278592375367,14553.528913927066
255.05376344086022,15946.641490599275
256.05474095796677,17052.25335342676
257.0557184750733,17532.944821731755
258.05669599217987,17521.040489373514
259.0576735092864,17053.682899028274
260.05865102639297,16538.915382915697
261.0596285434995,16332.294159710706
262.06060606060606,16390.40834829643
263.0615835777126,16706.00550255606
264.06256109481916,17171.80447083573
265.0635386119257,17306.126685072042
266.06451612903226,17070.969820053844
267.0654936461388,16401.941655252755
268.06647116324535,15441.193973456746
269.0674486803519,14297.984890705566
270.06842619745845,13120.042057584002
271.069403714565,12773.18318169287
272.07038123167155,12449.006813995535
273.0713587487781,12313.413696697564
274.07233626588464,12479.86455798165
275.0733137829912,13211.517479209835
276.07429130009774,14586.641254086395
277.0752688172043,16439.235582338766
278.07624633431084,18634.052951349666
279.0772238514174,21349.91373769859
280.07820136852393,24600.938245858382
281.0791788856305,28102.28933071981
282.08015640273703,31108.89384651894
283.0811339198436,34221.94113182713
284.08211143695013,36221.39366543095
285.0830889540567,36778.00860473241
286.0840664711632,35719.014048850055
287.0850439882698,33960.928302024855
288.0860215053764,31449.707847174435
289.0869990224829,28144.021187665247
290.0879765395895,25229.950176749044
291.088954056696,22784.816861237014
292.0899315738026,20486.499854305406
293.0909090909091,18007.57388866629
294.09188660801567,15954.970118981431
295.0928641251222,14041.992159034304
296.09384164222877,12317.414729933951
297.0948191593353,10948.971163963055
298.09579667644186,9897.644038689843
299.0967741935484,9005.186745988467
300.09775171065496,8245.843186432825
301.0987292277615,7633.930405953284
302.09970674486806,7167.196084181463
303.1006842619746,6768.856781893015
304.10166177908116,6421.467644183768
305.1026392961877,6221.27214076246
306.10361681329425,5986.3967037548155
307.1045943304008,5764.771837149534
308.10557184750735,5592.418092482179
309.1065493646139,5554.554398826979
310.10752688172045,5542.882345494394
311.108504398827,5482.650607765322
312.10948191593354,5260.94771398381
313.1104594330401,5188.899768891651
314.11143695014664,5154.240665719382
315.1124144672532,5135.836218771062
316.11339198435974,5106.374040195446
317.1143695014663,5054.297435853139
318.11534701857283,5092.751475993246
319.1163245356794,5221.324940218854
320.11730205278593,5310.513658606109
321.1182795698925,5498.331344442598
322.119257086999,5787.103996878864
323.1202346041056,6183.2550563279
324.1212121212121,6692.964315222971
325.1221896383187,7263.724420134981
326.1231671554252,7929.416930509793
327.12414467253177,8720.842309994674
328.1251221896383,9307.266131733575
329.12609970674487,9765.879458299809
330.1270772238514,10043.37747010499
331.12805474095796,10051.497494211311
332.1290322580645,9634.42149586069
333.13000977517106,8945.959131711053
334.1309872922776,8127.0461820923165
335.13196480938416,7454.064249926963
336.1329423264907,6783.021673466017
337.13391984359725,6287.898325235457
338.1348973607038,5951.1429916351935
339.13587487781035,5600.246814051722
340.1368523949169,5414.726583776105
341.13782991202345,5279.52343008876
342.13880742913,5154.801769060504
343.13978494623655,4995.118501929767
344.1407624633431,5006.793489043001
345.14173998044964,5038.37410677028
346.1427174975562,5015.538010098844
347.14369501466274,4965.970017751366
348.1446725317693,4984.048811554497
349.14565004887584,5028.313000399959
350.1466275659824,5066.755268412912
351.14760508308893,5109.6679695407975
352.1485826001955,5214.426111483186
353.14956011730203,5314.940858769022
354.1505376344086,5321.6041706432525
355.1515151515151,5379.757396582229
356.1524926686217,5383.199235627897
357.1534701857282,5326.602292971715
358.1544477028348,5207.403047221598
359.1554252199413,5158.489295427956
360.15640273704787,5043.557762867812
361.1573802541544,4894.655971819744
362.15835777126097,4876.887140155131
363.1593352883675,4863.4509993321635
364.16031280547406,4829.871510806997
365.1612903225806,4782.824813161099
366.16226783968716,4788.752141167652
367.1632453567937,4844.439124579122
368.16422287390026,4930.063773216028
369.1652003910068,5031.575871257376
370.16617790811335,5081.2540146989595
371.1671554252199,5133.137063104157
372.16813294232645,5144.496437388547
373.169110459433,5088.050421477269
374.17008797653955,4940.389542378525
375.1710654936461,4862.293142898522
376.1720430107527,4780.999808557481
377.17302052785925,4638.973176611762
378.1739980449658,4632.295046401266
379.17497556207235,4580.775569904074
380.1759530791789,4528.5404698603725
381.17693059628544,4527.056440924706
382.177908113392,4558.430235155229
383.17888563049854,4518.876049089211
384.1798631476051,4453.596681372933
385.18084066471164,4440.97307767055
386.1818181818182,4429.71249240737
387.18279569892474,4473.04240406798
388.1837732160313,4532.698344171654
389.18475073313783,4514.120439251339
390.1857282502444,4600.870314612465
391.18670576735093,4652.222269669808
392.1876832844575,4673.655700622867
393.188660801564,4743.508623123251
394.1896383186706,4841.844521764643
395.1906158357771,4985.7838866544935
396.1915933528837,5175.939478972479
397.1925708699902,5399.950060867704
398.19354838709677,5521.783012989505
399.1945259042033,5714.176829574073
400.19550342130987,5987.808944463218
401.1964809384164,6103.163230821225
402.19745845552296,6249.468668214705
403.1984359726295,6323.190474008518
404.19941348973606,6282.512363592758
405.2003910068426,6135.156565535441
406.20136852394916,5997.272542533636
407.2023460410557,5928.431373062421
408.20332355816225,5948.750458211145
409.20430107526886,5901.829637096773
410.2052785923754,5886.83386867498
411.20625610948196,5850.888781972954
412.2072336265885,5762.949618928456
413.20821114369505,5690.652657529098
414.2091886608016,5641.328370050272
415.21016617790815,5603.421154723038
416.2111436950147,5567.8246452224275
417.21212121212125,5502.980978812697
418.2130987292278,5319.536668545938
419.21407624633434,5128.946755182221
420.2150537634409,5036.457029309488
421.21603128054744,4974.39746923589
422.217008797654,4878.323140058823
423.21798631476054,4822.711910911091
424.2189638318671,4895.116697756232
425.21994134897363,4854.105488747618
426.2209188660802,4838.473466715944
427.22189638318673,4850.875022141747
428.2228739002933,4891.182841622549
429.2238514173998,4855.222128917083
430.2248289345064,4833.565966355904
431.2258064516129,4846.037481945114
432.2267839687195,4918.496302213276
433.227761485826,5023.881831312646
434.22873900293257,5084.902656803957
435.2297165200391,5120.035826001956
436.23069403714567,5170.084701857282
437.2316715542522,5265.646987838343
438.23264907135876,5355.902685580418
439.2336265884653,5461.547230721047
440.23460410557186,5634.232672432483
441.2355816226784,5747.1397849462355
442.23655913978496,5937.812069048654
443.2375366568915,6220.805141929799
444.23851417399806,6599.816046465289
445.2394916911046,7076.3427373693585
446.24046920821115,7746.3288709458375
447.2414467253177,8586.906811254414
448.24242424242425,9522.749665692067
449.2434017595308,10657.164968066325
450.24437927663735,11820.932155779847
451.2453567937439,12981.511303592568
452.24633431085044,14117.998866021653
453.247311827957,14563.1420609453
454.24828934506354,14356.205160880892
455.2492668621701,13657.381881398493
456.25024437927664,12866.19007146997
457.2512218963832,11763.5239930696
458.25219941348973,10817.089076246339
459.2531769305963,10081.183597614146
460.25415444770283,9493.783617515697
461.2551319648094,9323.21332115827
462.2561094819159,9254.160939587979
463.2570869990225,9251.907838076306
464.258064516129,9380.872731666059
465.2590420332356,9799.835188419162
466.2600195503421,10533.218935275188
467.26099706744867,11556.97237598211
468.2619745845552,12798.064439920812
469.26295210166177,14528.564539926234
470.2639296187683,16675.00502094986
471.26490713587486,19090.90568645288
472.2658846529814,21392.253546247317
473.26686217008796,24075.756776437454
474.2678396871945,25914.021828528537
475.26881720430106,26797.436205825645
476.2697947214076,27000.935761066357
477.27077223851416,26354.57907805399
478.2717497556207,25472.23148382406
479.27272727272725,24423.56768737644
480.2737047898338,23102.697880481872
481.27468230694035,21834.331147863417
482.2756598240469,20727.233000332213
483.27663734115345,19599.465402352558
484.27761485826,17927.41211739604
485.27859237536654,16302.7649948995
486.2795698924731,14576.362499596456
487.28054740957964,12890.915335423453
488.2815249266862,11650.214223754596
489.2825024437928,10778.568228270437
490.28347996089934,10148.172220006705
491.2844574780059,9727.80138189044
492.28543499511244,9495.418171683139
493.286412512219,9446.479633100345
494.28739002932554,9532.131883288428
495.2883675464321,9782.761338830958
496.28934506353863,10279.487024011656
497.2903225806452,10826.561993693935
498.29130009775173,11656.022673395322
499.2922776148583,12844.534400517468
500.2932551319648,14500.286684453062
501.2942326490714,16501.613287171633
502.2952101661779,19223.560497570303
503.2961876832845,22568.44496446307
504.297165200391,26350.166644968675
505.29814271749757,31303.85461547693
506.2991202346041,36108.43053119123
507.30009775171067,41072.385923459304
508.3010752688172,46736.0493749192
509.30205278592376,51123.90222326258
510.3030303030303,55091.55948795185
511.30400782013686,58427.235711173205
512.3049853372434,60839.22972829733
513.3059628543499,57329.751290035325
514.3069403714564,52528.366744234576
515.307917888563,46464.272000212215
516.3088954056695,39136.80855765772
517.3098729227761,33151.30999078472
518.3108504398826,27815.6497092863
519.3118279569892,23270.853143904424
520.3128054740957,19650.450995601608
521.3137829912023,17345.260873312523
522.3147605083088,15368.169019784846
523.3157380254154,13737.135172333541
524.3167155425219,12467.250172079965
525.3176930596285,11552.394494181026
526.318670576735,10686.801615630855
527.3196480938416,10010.083195927646
528.3206256109481,9575.318098821483
529.3216031280547,9088.049798041287
530.3225806451612,8782.649786975055
531.3235581622678,8469.100426593208
532.3245356793743,8087.829928253937
533.3255131964809,7826.442591711407
534.3264907135874,7722.31969091559
535.327468230694,7581.561273489214
536.3284457478005,7367.860194381206
537.3294232649071,7243.872042715437
538.3304007820136,7027.583489048934
539.3313782991202,6903.164921100406
540.3323558162267,6879.331502334531
541.3333333333333,6809.02114803626
542.3343108504398,6758.128054740961
543.3352883675464,6628.093263413513
544.3362658846529,6478.13552096194
545.3372434017595,6515.965359098998
546.338220918866,6405.009412853838
547.3391984359725,6350.433584293474
548.3401759530791,6341.653084946386
549.3411534701856,6304.551800272997
550.3421309872922,6236.426488791091
551.3431085043987,6182.631200037298
552.3440860215054,6145.521464439672
553.345063538612,6123.243278746914
554.3460410557185,6095.689968436779
555.347018572825,6089.449757766673
556.3479960899316,6086.731134660387
557.3489736070381,6068.172216906681
558.3499511241447,6082.569319726532
559.3509286412512,6029.780892502737
560.3519061583578,5970.635181729315
561.3528836754643,5953.787877306793
562.3538611925709,5986.395478242838
563.3548387096774,5991.092521994135
564.355816226784,5987.366465160298
565.3567937438905,5986.9835622976325
566.3577712609971,5996.849148137197
567.3587487781036,5979.416444520531
568.3597262952102,6005.4612168791045
569.3607038123167,6086.786657447322
570.3616813294233,6146.739063703137
571.3626588465298,6160.776899149605
572.3636363636364,6195.258391343305
573.3646138807429,6274.350428757698
574.3655913978495,6420.168094375636
575.366568914956,6563.4145451873455
576.3675464320626,6698.132281501195
577.3685239491691,6827.065390476142
578.3695014662757,6957.792902201522
579.3704789833822,7141.376562136113
580.3714565004888,7302.501697109231
581.3724340175953,7400.383780941091
582.3734115347019,7388.213841523381
583.3743890518084,7386.506622548506
584.375366568915,7246.542700264729
585.3763440860215,7022.445791592167
586.377321603128,6775.445999607806
587.3782991202346,6649.943499362687
588.3792766373411,6433.195006114131
589.3802541544477,6260.73323587874
590.3812316715542,6196.7345405483775
591.3822091886608,6065.04700407732
592.3831867057673,5913.780637727699
593.3841642228739,5862.613770725779
594.3851417399804,5913.669805871791
595.386119257087,5858.863432311587
596.3870967741935,5818.733276094691
597.3880742913001,5793.00800165449
598.3890518084066,5777.77242300751
599.3900293255132,5762.536844360529
600.3910068426197,5763.084262421683
601.3919843597263,5780.552270154037
602.3929618768328,5797.66154605535
603.3939393939394,5785.463800226177
604.3949169110459,5818.709420021395
605.3958944281525,5826.545278101011
606.396871945259,5817.110763929991
607.3978494623656,5803.6103071845655
608.3988269794721,5827.243439728589
609.3998044965787,5833.479696422079
610.4007820136852,5835.185475537485
611.4017595307918,5842.545231027823
612.4027370478983,5870.011077533796
613.4037145650049,5922.533335419497
614.4046920821114,5971.25702739432
615.405669599218,6006.531078636482
616.4066471163245,6034.759865323175
617.4076246334312,6057.16742161409
618.4086021505377,6093.390951666219
619.4095796676443,6156.150947729316
620.4105571847508,6265.334612829417
621.4115347018574,6316.175501229169
622.4125122189639,6448.833592263449
623.4134897360705,6607.93989165231
624.414467253177,6700.396593614055
625.4154447702836,6915.071316961802
626.4164222873901,7041.600989456251
627.4173998044967,7152.752947102153
628.4183773216032,7295.22791457292
629.4193548387098,7283.757583972004
630.4203323558163,7262.426995888457
631.4213098729228,7272.099894183216
632.4222873900294,7303.083336880466
633.423264907136,7212.850069486596
634.4242424242425,7229.966453526091
635.425219941349,7189.377470209616
636.4261974584556,7135.131129286357
637.4271749755621,7280.533062199388
638.4281524926687,7242.624633431083
639.4291300097752,7263.773670412324
640.4301075268818,7400.017312814455
641.4310850439883,7689.290631978276
642.4320625610949,7769.417325013596
643.4330400782014,7880.986696942027
644.434017595308,8021.419852946133
645.4349951124145,8187.670007576341
646.4359726295211,8391.388461708199
647.4369501466276,8550.8098531032
648.4379276637342,8677.519266667572
649.4389051808407,8780.15416327979
650.4398826979473,8874.426930970536
651.4408602150538,8757.437072897616
652.4418377321604,8702.943832435905
653.4428152492669,8663.792422071818
654.4437927663735,8427.727280212068
655.44477028348,8292.631871552
656.4457478005866,7976.023900517794
657.4467253176931,7641.575716377718
658.4477028347997,7486.8132882356085
659.4486803519062,7413.121691884205
660.4496578690128,7208.994561858848
661.4506353861193,6990.878024755769
662.4516129032259,6829.631887282162
663.4525904203324,6735.286879922691
664.453567937439,6595.11402167329
665.4545454545455,6469.914110429449
666.455522971652,6376.6885006327975
667.4565004887586,6313.695287737373
668.4574780058651,6255.633550276162
669.4584555229717,6254.911289009723
670.4594330400782,6253.746354191279
671.4604105571848,6167.9110061824385
672.4613880742913,6141.791869128238
673.4623655913979,6140.473415588921
674.4633431085044,6123.514929454473
675.464320625611,6068.95699450278
676.4652981427175,6028.210597877091
677.4662756598241,6051.308032758085
678.4672531769306,6018.572438372124
679.4682306940372,5940.670369360213
680.4692082111437,5974.523567479111
681.4701857282503,5931.0901462972215
682.4711632453568,5943.048234946727
683.4721407624634,5984.96912368334
684.4731182795699,5994.971204945741
685.4740957966765,6014.17939655412
686.475073313783,6016.899480527859
687.4760508308896,6015.164889003346
688.4770283479961,6012.846949754118
689.4780058651027,5967.966967800586
690.4789833822092,5971.938962327996
691.4799608993158,5963.782801714413
692.4809384164223,5926.907907955364
693.4819159335289,5872.197050592341
694.4828934506354,5935.290429355594
695.483870967742,5910.806749608879
696.4848484848485,5870.398278395967
697.485826001955,5938.9583294766935
698.4868035190616,5935.1054521976075
699.4877810361681,5921.902016336133
700.4887585532747,5944.403859800419
701.4897360703812,6013.274428513978
702.4907135874878,6015.587935872468
703.4916911045943,5983.0416506634
704.4926686217009,6012.19304004808
705.4936461388074,6096.397923322565
706.494623655914,6155.051964417473
707.4956011730205,6109.3709700012205
708.4965786901271,6072.330892178432
709.4975562072336,6090.7601148902895
710.4985337243402,6189.879686259964
711.4995112414467,6097.268042425898
712.5004887585533,6120.264738182301
713.5014662756598,6165.212737718669
714.5024437927664,6174.26342275805
715.5034213098729,6100.116940009413
716.5043988269795,6114.678052930741
717.505376344086,6127.878667197663
718.5063538611926,6160.778439520376
719.5073313782991,6276.721781270163
720.5083088954057,6269.156623734357
721.5092864125122,6277.658919749242
722.5102639296188,6284.970934906419
723.5112414467253,6277.317240910789
724.5122189638319,6270.360640405802
725.5131964809384,6271.489015397027
726.514173998045,6314.923122619897
727.5151515151515,6360.6240222940405
728.516129032258,6276.3067507603355
729.5171065493646,6375.206849116381
730.5180840664711,6488.429886943423
731.5190615835777,6549.323896097416
732.5200391006842,6515.6405622763
733.5210166177908,6612.334681007615
734.5219941348973,6714.3474200125665
735.5229716520039,6818.442515870479
736.5239491691104,6927.873362016241
737.524926686217,7061.027370478982
738.5259042033235,7254.271743702878
739.5268817204301,7424.13643356701
740.5278592375366,7628.977048019376
741.5288367546432,7968.211891208072
742.5298142717497,8292.057558507271
743.5307917888563,8822.286000926064
744.5317693059628,9503.79806813541
745.5327468230694,10239.456865922752
746.5337243401759,10722.1263652706
747.5347018572825,11053.134334777264
748.535679374389,11199.191064085295
749.5366568914956,11101.234719953844
