Raman Shift,Intensity 
400,10.77780247
401,10.78732221
402,10.82525131
403,10.7810658
404,10.79633228
405,10.83118518
406,10.81218951
407,10.78286134
408,10.77814142
409,10.78752385
410,10.80899207
411,10.80158995
412,10.81018249
413,10.79213751
414,10.76575184
415,10.80654432
416,10.80303872
417,10.80984128
418,10.77746096
419,10.80426057
420,10.81639447
421,10.78818048
422,10.8129729
423,10.80641732
424,10.80552918
425,10.82035089
426,10.81666172
427,10.80167097
428,10.8181562
429,10.78557322
430,10.79845644
431,10.79283029
432,10.80995946
433,10.81198367
434,10.76163997
435,10.8113827
436,10.79353696
437,10.7780216
438,10.7820356
439,10.80531896
440,10.77509123
441,10.8266513
442,10.7982586
443,10.77531139
444,10.78666172
445,10.80316092
446,10.78158746
447,10.79973048
448,10.84378951
449,10.80560477
450,10.81425716
451,10.8211655
452,10.82697834
453,10.79588295
454,10.75450604
455,10.79490811
456,10.79845105
457,10.81839353
458,10.79197649
459,10.84648838
460,10.79187201
461,10.80694974
462,10.76302163
463,10.77399756
464,10.81484852
465,10.788315
466,10.83486824
467,10.79454036
468,10.79348796
469,10.79984258
470,10.82362199
471,10.8068605
472,10.82218352
473,10.78154053
474,10.81900874
475,10.74820732
476,10.81657146
477,10.80971674
478,10.84198962
479,10.8133393
480,10.81781411
481,10.83452674
482,10.83590899
483,10.81828004
484,10.80426508
485,10.82168194
486,10.7950664
487,10.83181062
488,10.76355887
489,10.80641509
490,10.7870442
491,10.81398942
492,10.82656295
493,10.78425579
494,10.81054913
495,10.80088391
496,10.76397987
497,10.82419824
498,10.80122376
499,10.77827821
500,10.78243486
501,10.81544817
502,10.82382066
503,10.78421236
504,10.81010009
505,10.82142408
506,10.78203288
507,10.8157156
508,10.8094452
509,10.80218813
510,10.81400653
511,10.79070288
512,10.75938067
513,10.83096516
514,10.82905045
515,10.83895602
516,10.81683472
517,10.80740155
518,10.8402171
519,10.86618288
520,10.8669152
521,10.85609341
522,10.8966383
523,10.85889785
524,10.88156293
525,10.87410038
526,10.87100287
527,10.87240968
528,10.86564962
529,10.91126756
530,10.89465175
531,10.92337504
532,10.91432243
533,10.87721237
534,10.87178773
535,10.90336612
536,10.90074516
537,10.89008822
538,10.88849009
539,10.83704351
540,10.82865325
541,10.8544351
542,10.8591421
543,10.85665562
544,10.88933964
545,10.85010919
546,10.86223601
547,10.82549109
548,10.82610189
549,10.82342188
550,10.83140005
551,10.82880299
552,10.79054605
553,10.81027461
554,10.77195232
555,10.83137103
556,10.80894418
557,10.81991844
558,10.80906087
559,10.80064127
560,10.80481354
561,10.77831923
562,10.82617107
563,10.81307259
564,10.78963954
565,10.82637668
566,10.84845855
567,10.78933615
568,10.8058944
569,10.7538667
570,10.83542079
571,10.78984638
572,10.80355489
573,10.82739105
574,10.82748679
575,10.82157658
576,10.79183784
577,10.79029204
578,10.80590505
579,10.8140119
580,10.79749829
581,10.78194958
582,10.76982002
583,10.8241368
584,10.82122698
585,10.81100778
586,10.82279453
587,10.81917173
588,10.7595315
589,10.78959583
590,10.79967997
591,10.77442085
592,10.78125146
593,10.72786922
594,10.81481042
595,10.77057769
596,10.80412771
597,10.78988228
598,10.81320587
599,10.80692882
600,10.76698974
601,10.81549814
602,10.78713071
603,10.77538584
604,10.80193418
605,10.77827431
606,10.76257533
607,10.77327118
608,10.78036163
609,10.75475673
610,10.76812167
611,10.76967695
612,10.79775702
613,10.78251298
614,10.84894717
615,10.78902317
616,10.80053795
617,10.80393893
618,10.84176464
619,10.81582471
620,10.79971226
621,10.82494414
622,10.78257231
623,10.796627
624,10.78532511
625,10.83208924
626,10.78390354
627,10.78784923
628,10.81741125
629,10.81373121
630,10.79485024
631,10.81244754
632,10.78421127
633,10.78849577
634,10.75548631
635,10.82751929
636,10.79834907
637,10.79024166
638,10.79016449
639,10.85156808
640,10.75257665
641,10.83930459
642,10.83714871
643,10.81393591
644,10.82030176
645,10.82482999
646,10.83303201
647,10.79504042
648,10.7708708
649,10.7746472
650,10.78853082
651,10.82960861
652,10.83713157
653,10.76942475
654,10.81168762
655,10.78359964
656,10.82440002
657,10.81237283
658,10.809096
659,10.81673604
660,10.7945644
661,10.82938274
662,10.81471015
663,10.79580559
664,10.82366149
665,10.79413256
666,10.81859585
667,10.8122948
668,10.80003698
669,10.81104792
670,10.79904607
671,10.81462917
672,10.78973316
673,10.79970227
674,10.79588971
675,10.79705287
676,10.80245309
677,10.73736725
678,10.79639622
679,10.81386821
680,10.82360824
681,10.8335956
682,10.78408103
683,10.81658911
684,10.78287445
685,10.77942127
686,10.8218777
687,10.79546115
688,10.78895016
689,10.85568434
690,10.81378804
691,10.80000863
692,10.81943416
693,10.80978685
694,10.80870634
695,10.78353563
696,10.80477313
697,10.80590612
698,10.76511123
699,10.81902673
700,10.81265323
701,10.79660876
702,10.79571214
703,10.81851428
704,10.84542781
705,10.79151412
706,10.81609347
707,10.80233605
708,10.82172444
709,10.78238752
710,10.77663932
711,10.81783086
712,10.77292272
713,10.79543099
714,10.83635306
715,10.83287868
716,10.79666987
717,10.81459416
718,10.79259853
719,10.79708298
720,10.77023959
721,10.80291585
722,10.8214986
723,10.79122717
724,10.77223483
725,10.82429165
726,10.7709698
727,10.80933269
728,10.78446299
729,10.82617907
730,10.79868835
731,10.81717063
732,10.82137312
733,10.82489218
734,10.79565336
735,10.8051435
736,10.78216412
737,10.81751754
738,10.79449996
739,10.78426915
740,10.85177985
741,10.78809915
742,10.75460435
743,10.80598998
744,10.79989902
745,10.79510417
746,10.78947466
747,10.79358061
748,10.79695919
749,10.80203675
750,10.80897178
751,10.79158338
752,10.81275715
753,10.83921207
754,10.78511886
755,10.78609025
756,10.7544577
757,10.79546163
758,10.75646284
759,10.78098487
760,10.7528295
761,10.81859381
762,10.79619688
763,10.77591037
764,10.81516464
765,10.79808445
766,10.78136255
767,10.80536848
768,10.79194987
769,10.80841245
770,10.78804198
771,10.79378198
772,10.80790771
773,10.80407312
774,10.77388749
775,10.78016429
776,10.79952211
777,10.81837698
778,10.81400975
779,10.82252121
780,10.81517739
781,10.80614363
782,10.8293842
783,10.79702364
784,10.77445866
785,10.80018299
786,10.75774284
787,10.80845387
788,10.79351058
789,10.78737383
790,10.79811523
791,10.80527262
792,10.80692023
793,10.7739637
794,10.79715098
795,10.7949513
796,10.80080499
797,10.79250392
798,10.81133683
799,10.80891114
800,10.81585059
801,10.81466768
802,10.82335285
803,10.79328275
804,10.81226649
805,10.77987689
806,10.80953174
807,10.81031436
808,10.86124796
809,10.82024201
810,10.76264505
811,10.83001497
812,10.82635643
813,10.77314826
814,10.80123948
815,10.80964653
816,10.79941206
817,10.80895392
818,10.81214588
819,10.81379194
820,10.79792755
821,10.8081225
822,10.84385885
823,10.80574826
824,10.84080912
825,10.79855765
826,10.79829066
827,10.81490969
828,10.76774596
829,10.77806565
830,10.81652234
831,10.7751766
832,10.81331205
833,10.76406098
834,10.81748557
835,10.79737855
836,10.81265961
837,10.79316723
838,10.77952184
839,10.85816163
840,10.80765404
841,10.76553658
842,10.78655941
843,10.79560021
844,10.80262975
845,10.81553002
846,10.78416552
847,10.78358865
848,10.78307637
849,10.81785367
850,10.79125936
851,10.79622001
852,10.75283878
853,10.78863878
854,10.84852361
855,10.80655665
856,10.78729584
857,10.79721698
858,10.77754185
859,10.78350059
860,10.81044987
861,10.7889838
862,10.7803207
863,10.80393801
864,10.79254748
865,10.75187872
866,10.81430905
867,10.80992249
868,10.78199844
869,10.8109255
870,10.82384522
871,10.81127158
872,10.83075987
873,10.82423641
874,10.80488763
875,10.78869925
876,10.79967396
877,10.78282524
878,10.76968498
879,10.7946977
880,10.79954354
881,10.79897898
882,10.79940939
883,10.80318663
884,10.75038911
885,10.80088055
886,10.7714876
887,10.74689766
888,10.78206899
889,10.78023481
890,10.81281837
891,10.7935098
892,10.80453374
893,10.81304842
894,10.78530528
895,10.76726211
896,10.785058
897,10.75909541
898,10.8088397
899,10.78986326
900,10.78799625
901,10.82673828
902,10.80287505
903,10.76505706
904,10.79998991
905,10.82711153
906,10.77906947
907,10.78034879
908,10.79892249
909,10.81995006
910,10.76036265
911,10.79748792
912,10.79944006
913,10.78296076
914,10.79759179
915,10.81438866
916,10.81163667
917,10.82548642
918,10.77921848
919,10.7936354
920,10.77403445
921,10.77171741
922,10.78489937
923,10.82111359
924,10.79105923
925,10.76644759
926,10.83299731
927,10.7886007
928,10.8328483
929,10.79344773
930,10.76086774
931,10.82218795
932,10.80782289
933,10.76955074
934,10.78167111
935,10.80273205
936,10.75242829
937,10.79444728
938,10.80287358
939,10.78427493
940,10.79549877
941,10.78540948
942,10.78834032
943,10.78688196
944,10.79898257
945,10.7995676
946,10.80274893
947,10.78225126
948,10.82465248
949,10.79662458
950,10.77512476
951,10.76411809
952,10.79272093
953,10.80642353
954,10.80815551
955,10.81440035
956,10.83037146
957,10.80976269
958,10.83052085
959,10.80191485
960,10.81975674
961,10.80048431
962,10.79957897
963,10.80684728
964,10.81757669
965,10.84973135
966,10.84219641
967,10.83432137
968,10.8566669
969,10.830007
970,10.84515355
971,10.86411953
972,10.88320167
973,10.82988124
974,10.87336209
975,10.92835636
976,10.92631509
977,10.93445935
978,10.94863498
979,10.96663463
980,10.94587039
981,11.03661699
982,10.98467115
983,11.03838979
984,11.07448668
985,11.04585163
986,11.09554227
987,11.13932525
988,11.15096121
989,11.20063731
990,11.21943605
991,11.25314546
992,11.28695878
993,11.28198163
994,11.36515968
995,11.3894115
996,11.40851871
997,11.46284981
998,11.4843946
999,11.49896937
1000,11.53252504
1001,11.60028364
1002,11.62207721
1003,11.65740148
1004,11.65346927
1005,11.70474592
1006,11.72621841
1007,11.75436433
1008,11.75784624
1009,11.79409831
1010,11.80298887
1011,11.80465684
1012,11.81557387
1013,11.8224795
1014,11.89459625
1015,11.82833367
1016,11.83600111
1017,11.81953353
1018,11.85033452
1019,11.82587501
1020,11.75682604
1021,11.7522416
1022,11.72440312
1023,11.72472611
1024,11.74343467
1025,11.66430761
1026,11.65386301
1027,11.60638502
1028,11.57109453
1029,11.55086521
1030,11.55792252
1031,11.50959232
1032,11.45480478
1033,11.438265
1034,11.47305325
1035,11.42999384
1036,11.42122546
1037,11.31516609
1038,11.29080309
1039,11.30421478
1040,11.25929685
1041,11.26043225
1042,11.2187183
1043,11.17927838
1044,11.17411846
1045,11.15045764
1046,11.17651362
1047,11.12102996
1048,11.13069137
1049,11.09534176
1050,11.14385604
1051,11.08861029
1052,11.09948129
1053,11.0557431
1054,11.08405209
1055,11.07875656
1056,11.09468018
1057,11.09142928
1058,11.08004295
1059,11.06540201
1060,11.08760959
1061,11.07943188
1062,11.09106675
1063,11.09529281
1064,11.06788828
1065,11.07538067
1066,11.09368093
1067,11.09262852
1068,11.12065384
1069,11.11000774
1070,11.12483711
1071,11.08962988
1072,11.12778279
1073,11.10623274
1074,11.0961532
1075,11.12387785
1076,11.13621278
1077,11.13507478
1078,11.06466515
1079,11.1261258
1080,11.12370171
1081,11.12494614
1082,11.16721279
1083,11.14007492
1084,11.17109311
1085,11.14438845
1086,11.20183244
1087,11.11530104
1088,11.15717768
1089,11.13788317
1090,11.13441034
1091,11.14993906
1092,11.12575329
1093,11.1554593
1094,11.13276643
1095,11.13152367
1096,11.11953256
1097,11.08725794
1098,11.17273735
1099,11.15234064
1100,11.1431545
1101,11.15178465
1102,11.14390559
1103,11.13877776
1104,11.11529835
1105,11.0986764
1106,11.12156155
1107,11.0882396
1108,11.10935097
1109,11.1290625
1110,11.0799274
1111,11.09642983
1112,11.09179755
1113,11.11911342
1114,11.09473404
1115,11.08043922
1116,11.11998086
1117,11.09518827
1118,11.06045057
1119,11.11942945
1120,11.07307774
1121,11.05800836
1122,11.07642767
1123,11.05247708
1124,11.06753449
1125,11.06335335
1126,11.11104903
1127,11.07961861
1128,11.13817671
1129,11.04096584
1130,11.11208443
1131,11.04025267
1132,11.07090501
1133,11.07827962
1134,11.1203415
1135,11.07993533
1136,11.06136496
1137,11.06527456
1138,11.07384762
1139,11.07750765
1140,11.109392
1141,11.0982212
1142,11.06961161
1143,11.0982028
1144,11.11313727
1145,11.117958
1146,11.08282413
1147,11.11707215
1148,11.09720841
1149,11.10031145
1150,11.10231392
1151,11.1368838
1152,11.10435215
1153,11.13881362
1154,11.11646231
1155,11.11686257
1156,11.13293577
1157,11.14721773
1158,11.12239169
1159,11.13924059
1160,11.12129318
1161,11.14210641
1162,11.15103227
1163,11.15818646
1164,11.14271362
1165,11.15927313
1166,11.17209945
1167,11.19566176
1168,11.13553368
1169,11.13327927
1170,11.15891863
1171,11.20793163
1172,11.16897101
1173,11.18036159
1174,11.15534006
1175,11.18434431
1176,11.17409301
1177,11.19726247
1178,11.188937
1179,11.17120254
1180,11.19815367
1181,11.21242353
1182,11.19795215
1183,11.1837961
1184,11.17522759
1185,11.19535879
1186,11.21708346
1187,11.19886713
1188,11.18606133
1189,11.19731981
1190,11.18030214
1191,11.21408761
1192,11.24117698
1193,11.21189711
1194,11.22275268
1195,11.17438128
1196,11.23379811
1197,11.20042878
1198,11.18509936
1199,11.17179348
1200,11.18695826
1201,11.19922365
1202,11.21466862
1203,11.19154791
1204,11.18610328
1205,11.17620844
1206,11.16275555
1207,11.18530513
1208,11.18547342
1209,11.18217837
1210,11.17327927
1211,11.16188949
1212,11.18593555
1213,11.17265424
1214,11.17349885
1215,11.15846923
1216,11.19741437
1217,11.12057934
1218,11.16516647
1219,11.15339684
1220,11.16401396
1221,11.1647972
1222,11.15340344
1223,11.12826237
1224,11.13416634
1225,11.13133072
1226,11.15160788
1227,11.09329797
1228,11.1079092
1229,11.10367831
1230,11.09389851
1231,11.10309084
1232,11.1202465
1233,11.09646869
1234,11.0882807
1235,11.13254262
1236,11.08870168
1237,11.1201424
1238,11.08347108
1239,11.0724825
1240,11.1094162
1241,11.1302481
1242,11.06244957
1243,11.09496024
1244,11.09617746
1245,11.06821182
1246,11.1007513
1247,11.12732373
1248,11.11659401
1249,11.06938894
1250,11.07113487
1251,11.10579087
1252,11.09258383
1253,11.10939867
1254,11.07301971
1255,11.09629301
1256,11.05207977
1257,11.13017293
1258,11.10959839
1259,11.09621774
1260,11.1185171
1261,11.08999612
1262,11.09351639
1263,11.0750208
1264,11.10384245
1265,11.10536476
1266,11.11447104
1267,11.12449973
1268,11.11927726
1269,11.12033623
1270,11.1190152
1271,11.14020607
1272,11.09314435
1273,11.09750004
1274,11.12291662
1275,11.12317892
1276,11.12436642
1277,11.09990703
1278,11.09969083
1279,11.0739157
1280,11.09555884
1281,11.0664319
1282,11.05205905
1283,11.04834581
1284,11.04201126
1285,11.0509869
1286,11.07030669
1287,11.02439533
1288,11.01615107
1289,11.01638079
1290,10.99401828
1291,10.99183578
1292,11.00926638
1293,10.97356309
1294,10.99725056
1295,10.94444922
1296,10.97416911
1297,10.97628163
1298,10.9291116
1299,10.93137287
1300,10.91084811
1301,10.90334209
1302,10.87357353
1303,10.86648489
1304,10.88082126
1305,10.92812553
1306,10.8990625
1307,10.88124737
1308,10.86587475
1309,10.87767003
1310,10.84379687
1311,10.87534358
1312,10.87586025
1313,10.84962347
1314,10.82823025
1315,10.8749362
1316,10.86651266
1317,10.84179292
1318,10.84684751
1319,10.84070458
1320,10.83085038
1321,10.83153542
1322,10.80805542
1323,10.83642789
1324,10.79349002
1325,10.81721185
1326,10.80796695
1327,10.81714541
1328,10.83775897
1329,10.81707291
1330,10.8379331
1331,10.78276187
1332,10.82783724
1333,10.81657555
1334,10.81778408
1335,10.83222118
1336,10.79100966
1337,10.8342799
1338,10.80934357
1339,10.78086158
1340,10.84666522
1341,10.79122842
1342,10.80660252
1343,10.81003265
1344,10.80301629
1345,10.79069498
1346,10.83255077
1347,10.79149915
1348,10.79129552
1349,10.80159374
1350,10.829374
1351,10.80103433
1352,10.76928145
1353,10.79878249
1354,10.80134865
1355,10.78617713
1356,10.84826161
1357,10.83292945
1358,10.81834209
1359,10.80661594
1360,10.78190941
1361,10.77133345
1362,10.84271277
1363,10.81416371
1364,10.81837993
1365,10.74976318
1366,10.79776213
1367,10.83021684
1368,10.80508746
1369,10.81914533
1370,10.80021006
1371,10.83371511
1372,10.79455579
1373,10.81647027
1374,10.7678973
1375,10.80706279
1376,10.75238243
1377,10.73774195
1378,10.86214595
1379,10.79016809
1380,10.77584844
1381,10.80741076
1382,10.79894969
1383,10.78258645
1384,10.8036626
1385,10.81676505
1386,10.79144202
1387,10.78975579
1388,10.81246916
1389,10.81702041
1390,10.81882454
1391,10.81522496
1392,10.78081067
1393,10.79292019
1394,10.80431652
1395,10.75075156
1396,10.81926617
1397,10.80891336
1398,10.79541215
1399,10.81111724
1400,10.78832444
1401,10.79762813
1402,10.82187207
1403,10.80220278
1404,10.77882566
1405,10.79953733
1406,10.79174121
1407,10.8073845
1408,10.78456795
1409,10.80068499
1410,10.82976102
1411,10.79377279
1412,10.80088548
1413,10.78833189
1414,10.82387324
1415,10.79458901
1416,10.81133079
1417,10.78644353
1418,10.79219304
1419,10.81855526
1420,10.80034494
1421,10.80375709
1422,10.7700858
1423,10.79722239
1424,10.82573322
1425,10.81035642
1426,10.80719053
1427,10.7689358
1428,10.77121173
1429,10.79320179
1430,10.83411494
1431,10.80657183
1432,10.76945954
1433,10.76440201
1434,10.78522277
1435,10.78798374
1436,10.7853079
1437,10.81592704
1438,10.77896374
1439,10.79154302
1440,10.79122314
1441,10.81401688
1442,10.75787424
1443,10.79047872
1444,10.79680129
1445,10.78792586
1446,10.79662385
1447,10.79016296
1448,10.82646121
1449,10.80133218
1450,10.82183317
1451,10.78403808
1452,10.80453017
1453,10.80310854
1454,10.79134151
1455,10.8138361
1456,10.78696837
1457,10.79331668
1458,10.80440118
1459,10.81729436
1460,10.79424598
1461,10.81839982
1462,10.78992296
1463,10.79055359
1464,10.82248398
1465,10.84193088
1466,10.82209742
1467,10.80094995
1468,10.75323366
1469,10.79051137
1470,10.7694247
1471,10.7547678
1472,10.82814929
1473,10.81272907
1474,10.80059088
1475,10.81368794
1476,10.82336004
1477,10.78120292
1478,10.78361688
1479,10.81240257
1480,10.82433629
1481,10.80418369
1482,10.769424
1483,10.79453156
1484,10.79297961
1485,10.78800443
1486,10.78782382
1487,10.8189174
1488,10.78907886
1489,10.78659192
1490,10.83389113
1491,10.81848706
1492,10.80413009
1493,10.79649308
1494,10.82481557
1495,10.79729325
1496,10.82846957
1497,10.78476576
1498,10.79669292
1499,10.8129841
1500,10.83236398
1501,10.84000352
1502,10.80390796
1503,10.77818477
1504,10.78053752
1505,10.81127607
1506,10.81627188
1507,10.77557947
1508,10.80876269
1509,10.80656691
1510,10.81859194
1511,10.79230698
1512,10.7550119
1513,10.79052622
1514,10.82803297
1515,10.76136713
1516,10.78413662
1517,10.80866928
1518,10.80275342
1519,10.80264318
1520,10.79690724
1521,10.80769512
1522,10.79989981
1523,10.80523679
1524,10.78956984
1525,10.80260674
1526,10.81438759
1527,10.84060165
1528,10.79844766
1529,10.8198385
1530,10.79251878
1531,10.78467396
1532,10.76540586
1533,10.78232613
1534,10.81167331
1535,10.81398282
1536,10.81408768
1537,10.8104137
1538,10.80400156
1539,10.80654298
1540,10.83956448
1541,10.79042328
1542,10.80937748
1543,10.76462199
1544,10.83218238
1545,10.78730083
1546,10.82798729
1547,10.78525947
1548,10.77926746
1549,10.81355632
1550,10.81246714
1551,10.80456527
1552,10.80428608
1553,10.77716004
1554,10.76994766
1555,10.81946043
1556,10.81308163
1557,10.80183636
1558,10.82443492
1559,10.77122934
1560,10.7892828
1561,10.83040766
1562,10.80576146
1563,10.8212873
1564,10.80990372
1565,10.78044269
1566,10.78934214
1567,10.80564246
1568,10.81590631
1569,10.79113656
1570,10.79733126
1571,10.80549894
1572,10.80113157
1573,10.77684359
1574,10.81315215
1575,10.79544549
1576,10.79960681
1577,10.81634489
1578,10.79854786
1579,10.76572465
1580,10.77639146
1581,10.7753138
1582,10.7764708
1583,10.81032789
1584,10.80815574
1585,10.82994484
1586,10.8355576
1587,10.8104462
1588,10.80340577
1589,10.81160321
1590,10.77278918
1591,10.7701863
1592,10.81100281
1593,10.82515811
1594,10.79060946
1595,10.77543133
1596,10.78227135
1597,10.83539094
1598,10.79014494
1599,10.80884978
1600,10.79248153
1601,10.82905196
1602,10.78526885
1603,10.79436199
1604,10.7921699
1605,10.75356185
1606,10.7886597
1607,10.76895908
1608,10.7804455
1609,10.79353026
1610,10.81996287
1611,10.83496214
1612,10.78175217
1613,10.809285
1614,10.77680578
1615,10.847883
1616,10.82099248
1617,10.81640713
1618,10.79113248
1619,10.80403955
1620,10.77251011
1621,10.79629478
1622,10.77520226
1623,10.80299087
1624,10.80986418
1625,10.80957699
1626,10.76449841
1627,10.7751098
1628,10.79374656
1629,10.78935111
1630,10.79340979
1631,10.82458109
1632,10.80894676
1633,10.77407665
1634,10.76969062
1635,10.82915795
1636,10.81423477
1637,10.82613514
1638,10.81199953
1639,10.8185494
1640,10.76726886
1641,10.78808894
1642,10.77990431
1643,10.79702311
1644,10.78322211
1645,10.80141144
1646,10.80693699
1647,10.79002839
1648,10.8044012
1649,10.82895585
1650,10.83293557
1651,10.81214734
1652,10.82153362
1653,10.80641029
1654,10.79677985
1655,10.79210341
1656,10.80027865
1657,10.81512156
1658,10.75282948
1659,10.77179608
1660,10.81377148
1661,10.76805502
1662,10.78336504
1663,10.80595143
1664,10.78646428
1665,10.8118643
1666,10.80106003
1667,10.7970655
1668,10.7822419
1669,10.81356698
1670,10.82705234
1671,10.79946117
1672,10.80267097
1673,10.84417698
1674,10.77249248
1675,10.79861737
1676,10.79057704
1677,10.78289873
1678,10.80392705
1679,10.78629259
1680,10.79260007
1681,10.81551754
1682,10.77711809
1683,10.81496921
1684,10.78176375
1685,10.81497428
1686,10.81571449
1687,10.80335446
1688,10.788374
1689,10.80448111
1690,10.79813341
1691,10.80172938
1692,10.77492643
1693,10.83153623
1694,10.79496384
1695,10.78035959
1696,10.76968715
1697,10.80187516
1698,10.7862121
1699,10.79449023
1700,10.80798473
1701,10.76606572
1702,10.78351299
1703,10.77861299
1704,10.80158395
1705,10.84253301
1706,10.81299064
1707,10.80837926
1708,10.77966433
1709,10.77987602
1710,10.7952876
1711,10.81776045
1712,10.78913266
1713,10.77697256
1714,10.79244733
1715,10.76400669
1716,10.81729126
1717,10.80929697
1718,10.81102237
1719,10.79191644
1720,10.75704006
1721,10.79587907
1722,10.81558901
1723,10.77992654
1724,10.79348776
1725,10.80637878
1726,10.81111961
1727,10.83093103
1728,10.83113046
1729,10.77622976
1730,10.76277976
1731,10.78450036
1732,10.81080329
1733,10.80428003
1734,10.81031524
1735,10.76808201
1736,10.79686543
1737,10.78718365
1738,10.7924925
1739,10.78596969
1740,10.80537965
1741,10.79546465
1742,10.79609732
1743,10.8150154
1744,10.79740219
1745,10.76721857
1746,10.76937673
1747,10.79361352
1748,10.78521741
1749,10.85249987
1750,10.79631144
1751,10.80360946
1752,10.80014852
1753,10.76157116
1754,10.80157638
1755,10.74801474
1756,10.77489388
1757,10.7825758
1758,10.79748041
1759,10.78669391
1760,10.82947823
1761,10.79717341
1762,10.79410584
1763,10.80233618
1764,10.81047428
1765,10.83823511
1766,10.78422784
1767,10.78312876
1768,10.80049536
1769,10.79945947
1770,10.78846329
1771,10.81680258
1772,10.79027307
1773,10.77077018
1774,10.78572083
1775,10.83102696
1776,10.80366381
1777,10.80988339
1778,10.77991068
1779,10.82524278
1780,10.78572317
1781,10.77192741
1782,10.78281907
1783,10.81754296
1784,10.79540089
1785,10.77372032
1786,10.794534
1787,10.82646911
1788,10.78150165
1789,10.75513991
1790,10.80011247
1791,10.80669841
1792,10.80681764
1793,10.7998986
1794,10.82790788
1795,10.81311414
1796,10.79060034
1797,10.78368995
1798,10.7752729
1799,10.76135159
1800,10.74562705
1801,10.7882145
1802,10.79864751
1803,10.79470041
1804,10.81290117
1805,10.83649815
1806,10.83187148
1807,10.78336837
1808,10.82580424
1809,10.79463881
1810,10.82166639
1811,10.7994591
1812,10.824136
1813,10.78234733
1814,10.81279517
1815,10.79211364
1816,10.84010124
1817,10.80149449
1818,10.82789854
1819,10.803808
1820,10.81729844
1821,10.76603349
1822,10.82156473
1823,10.82542449
1824,10.79749628
1825,10.78761504
1826,10.8009515
1827,10.77636558
1828,10.78224454
1829,10.78960185
1830,10.83964429
1831,10.81196843
1832,10.79254649
1833,10.77766473
1834,10.80576191
1835,10.81466234
1836,10.78901347
1837,10.80103849
1838,10.81550742
1839,10.75126851
1840,10.79977631
1841,10.802859
1842,10.80437546
1843,10.80488432
1844,10.77495539
1845,10.78999723
1846,10.80330226
1847,10.81822204
1848,10.79788432
1849,10.83856105
1850,10.8005403
1851,10.78939075
1852,10.80291049
1853,10.80028648
1854,10.83936815
1855,10.7924762
1856,10.8316322
1857,10.78423366
1858,10.78008834
1859,10.82764342
1860,10.77116554
1861,10.81866674
1862,10.79533529
1863,10.83637098
1864,10.80410459
1865,10.79291439
1866,10.78328366
1867,10.82360732
1868,10.79052597
1869,10.80955328
1870,10.72773649
1871,10.81654548
1872,10.79226568
1873,10.79498189
1874,10.80223862
1875,10.77986274
1876,10.75142712
1877,10.7803111
1878,10.79907079
1879,10.76123365
1880,10.7692823
1881,10.81822056
1882,10.78304398
1883,10.81113524
1884,10.8174383
1885,10.81717515
1886,10.81898856
1887,10.79979234
1888,10.8175447
1889,10.78084927
1890,10.75424403
1891,10.78791451
1892,10.80616136
1893,10.76727208
1894,10.78306256
1895,10.82742523
1896,10.79974855
1897,10.81657725
1898,10.75984473
1899,10.82687776
1900,10.78394172
1901,10.81441401
1902,10.76412351
1903,10.79394552
1904,10.79193734
1905,10.80585878
1906,10.80185327
1907,10.8096102
1908,10.80440695
1909,10.79236269
1910,10.80421522
1911,10.78097266
1912,10.80251222
1913,10.79882126
1914,10.78687026
1915,10.7910775
1916,10.81843834
1917,10.81107269
1918,10.82482182
1919,10.82767694
1920,10.7814028
1921,10.78844419
1922,10.77533049
1923,10.79681666
1924,10.79511478
1925,10.82621063
1926,10.80226914
1927,10.78459476
1928,10.8189013
1929,10.8227129
1930,10.80763001
1931,10.74545474
1932,10.78082253
1933,10.80169554
1934,10.77162304
1935,10.81166653
1936,10.81187836
1937,10.79757759
1938,10.8174612
1939,10.76233676
1940,10.81207
1941,10.81667388
1942,10.74888934
1943,10.79392034
1944,10.80148768
1945,10.80878191
1946,10.82650825
1947,10.828851
1948,10.78388003
1949,10.7891957
1950,10.81165412
1951,10.75683574
1952,10.77716356
1953,10.77884706
1954,10.82132038
1955,10.79905934
1956,10.80144074
1957,10.78939441
1958,10.80175953
1959,10.79548058
1960,10.80752932
1961,10.77337235
1962,10.80950763
1963,10.80310343
1964,10.79150214
1965,10.83699848
1966,10.82138285
1967,10.78256389
1968,10.82490617
1969,10.80570354
1970,10.82066496
1971,10.81020002
1972,10.80240393
1973,10.79206204
1974,10.803977
1975,10.82275965
1976,10.81634335
1977,10.79694005
1978,10.82269718
1979,10.84203528
1980,10.80620939
1981,10.76011589
1982,10.80077203
1983,10.76220992
1984,10.79366219
1985,10.81382065
1986,10.81688334
1987,10.82427779
1988,10.79799613
1989,10.82340509
1990,10.78686131
1991,10.79134009
1992,10.78707
1993,10.81580906
1994,10.78920841
1995,10.78062672
1996,10.82581969
1997,10.83808316
1998,10.8014772
1999,10.81641112
2000,10.79366606
2001,10.78319703
2002,10.77052172
2003,10.79333681
2004,10.79717469
2005,10.79323076
2006,10.7933237
2007,10.79274901
2008,10.82046827
2009,10.76410792
2010,10.78702846
2011,10.77568817
2012,10.7958114
2013,10.80118895
2014,10.80594277
2015,10.82010617
2016,10.77646671
2017,10.8352255
2018,10.81056081
2019,10.78210448
2020,10.78155287
2021,10.80874986
2022,10.7964341
2023,10.76768978
2024,10.78021598
2025,10.81511975
2026,10.77141991
2027,10.76515118
2028,10.77752685
2029,10.81686559
2030,10.80835483
2031,10.77124812
2032,10.81598562
2033,10.78510096
2034,10.78321496
2035,10.79173576
2036,10.81892212
2037,10.81212062
2038,10.80412206
2039,10.78970097
2040,10.80441376
2041,10.8137006
2042,10.79884914
2043,10.77936281
2044,10.79140682
2045,10.80754713
2046,10.82274454
2047,10.79319503
2048,10.77923153
2049,10.8053588
2050,10.80325877
2051,10.79803668
2052,10.7866163
2053,10.78567748
2054,10.78081897
2055,10.77847774
2056,10.78966805
2057,10.81426027
2058,10.7829053
2059,10.76905022
2060,10.80815683
2061,10.81895409
2062,10.79142224
2063,10.80667176
2064,10.80397675
2065,10.77700893
2066,10.8284952
2067,10.8168237
2068,10.79146432
2069,10.7820039
2070,10.81199369
2071,10.80130344
2072,10.80868167
2073,10.80517651
2074,10.76800349
2075,10.80994525
2076,10.78066756
2077,10.83140026
2078,10.82943092
2079,10.77788768
2080,10.80663737
2081,10.8180468
2082,10.80236162
2083,10.82729233
2084,10.80386528
2085,10.80295055
2086,10.7894023
2087,10.75618401
2088,10.81438716
2089,10.79632471
2090,10.80800836
2091,10.7815269
2092,10.77019456
2093,10.74817659
2094,10.79107873
2095,10.7707379
2096,10.80941816
2097,10.77618351
2098,10.81622176
2099,10.79062799
2100,10.83262717
2101,10.80143098
2102,10.8079788
2103,10.80011451
2104,10.79906837
2105,10.82642135
2106,10.81051507
2107,10.80609142
2108,10.79992983
2109,10.80345063
2110,10.76658751
2111,10.77951838
2112,10.79269881
2113,10.78763411
2114,10.78973619
2115,10.8307936
2116,10.77678956
2117,10.77989144
2118,10.81339517
2119,10.82296756
2120,10.82692553
2121,10.79414028
2122,10.8073892
2123,10.81979079
2124,10.82491155
2125,10.77369591
2126,10.82806148
2127,10.81935275
2128,10.76990918
2129,10.80717794
2130,10.78665126
2131,10.82358501
2132,10.7967988
2133,10.80682757
2134,10.80375821
2135,10.78806918
2136,10.78678628
2137,10.80038867
2138,10.78216489
2139,10.81674744
2140,10.83093962
2141,10.78974058
2142,10.78974439
2143,10.7794882
2144,10.80731757
2145,10.79153127
2146,10.79629522
2147,10.80516187
2148,10.77643459
2149,10.77404363
2150,10.82637776
2151,10.81544294
2152,10.79635957
2153,10.77581507
2154,10.8035462
2155,10.8103578
2156,10.79529281
2157,10.79421121
2158,10.78112702
2159,10.77382291
2160,10.80211805
2161,10.77104914
2162,10.8041011
2163,10.79522075
2164,10.81241099
2165,10.78860433
2166,10.78226838
2167,10.78696724
2168,10.80982431
2169,10.81516106
2170,10.77579403
2171,10.77838217
2172,10.76925413
2173,10.75750211
2174,10.78669792
2175,10.83792926
2176,10.77218241
2177,10.82542824
2178,10.7854817
2179,10.76445108
2180,10.77169864
2181,10.81575442
2182,10.79132078
2183,10.78141253
2184,10.8024343
2185,10.80065835
2186,10.82761533
2187,10.78293877
2188,10.84234679
2189,10.78118576
2190,10.78139251
2191,10.8032421
2192,10.80592716
2193,10.81176011
2194,10.81890624
2195,10.78867183
2196,10.80929762
2197,10.80234493
2198,10.79753745
2199,10.80535581
2200,10.8205191
2201,10.79893982
2202,10.78492631
2203,10.79073908
2204,10.81450468
2205,10.79317315
2206,10.79886987
2207,10.80673544
2208,10.80782188
2209,10.79871927
2210,10.78872863
2211,10.81867598
2212,10.78392677
2213,10.82795689
2214,10.81330734
2215,10.80960895
2216,10.78166533
2217,10.80850765
2218,10.805743
2219,10.80865911
2220,10.79192026
2221,10.79443412
2222,10.77442605
2223,10.82271441
2224,10.78125937
2225,10.79308745
2226,10.80350079
2227,10.79068506
2228,10.81069735
2229,10.80799437
2230,10.80457185
2231,10.78130977
2232,10.79027203
2233,10.80455066
2234,10.78956725
2235,10.81589423
2236,10.78288019
2237,10.82074104
2238,10.81369329
2239,10.77765063
2240,10.80778828
2241,10.80293413
2242,10.7820997
2243,10.79657998
2244,10.78909518
2245,10.79811859
2246,10.81264103
2247,10.81750782
2248,10.79319717
2249,10.77199151
2250,10.79383512
2251,10.83163164
2252,10.76826375
2253,10.80867434
2254,10.77798688
2255,10.82526498
2256,10.80121967
2257,10.81698268
2258,10.81399942
2259,10.78059319
2260,10.78970036
2261,10.7626749
2262,10.78337885
2263,10.82914109
2264,10.80176002
2265,10.80074888
2266,10.79839651
2267,10.81045599
2268,10.79729868
2269,10.80301924
2270,10.79211015
2271,10.82744409
2272,10.80031722
2273,10.79809192
2274,10.79763297
2275,10.77072099
2276,10.83444267
2277,10.77621833
2278,10.78044263
2279,10.80470984
2280,10.7924448
2281,10.81327634
2282,10.78233425
2283,10.81018054
2284,10.83228204
2285,10.82579201
2286,10.8127279
2287,10.81486787
2288,10.77032785
2289,10.79426588
2290,10.78473468
2291,10.77614491
2292,10.7906797
2293,10.77856094
2294,10.79686964
2295,10.78945731
2296,10.76831759
2297,10.79065579
2298,10.75975586
2299,10.75868933
2300,10.77499103
2301,10.79274504
2302,10.80232783
2303,10.79477638
2304,10.80791902
2305,10.78533528
2306,10.78981665
2307,10.84826475
2308,10.81798062
2309,10.81704312
2310,10.79292575
2311,10.80768252
2312,10.7938314
2313,10.81046093
2314,10.80296507
2315,10.79282168
2316,10.82333359
2317,10.79976742
2318,10.82080589
2319,10.81882239
2320,10.76041849
2321,10.79291536
2322,10.81607122
2323,10.78660583
2324,10.79898048
2325,10.79417117
2326,10.81047871
2327,10.77199684
2328,10.80788407
2329,10.78970452
2330,10.79131099
2331,10.81191389
2332,10.79091394
2333,10.79034823
2334,10.78850671
2335,10.82847248
2336,10.82681376
2337,10.8074855
2338,10.8320448
2339,10.79347134
2340,10.81091992
2341,10.83337276
2342,10.8082519
2343,10.80618947
2344,10.81009445
2345,10.8156779
2346,10.78514708
2347,10.7717619
2348,10.78180098
2349,10.78190913
2350,10.82102735
2351,10.82137532
2352,10.76932588
2353,10.85133353
2354,10.78270022
2355,10.83620851
2356,10.79361429
2357,10.81967214
2358,10.77665156
2359,10.81447209
2360,10.81343348
2361,10.79136429
2362,10.78537022
2363,10.82193687
2364,10.79117276
2365,10.79433677
2366,10.77032436
2367,10.77247822
2368,10.84215161
2369,10.78311502
2370,10.84439606
2371,10.82073031
2372,10.79350044
2373,10.78599361
2374,10.8217406
2375,10.80404264
2376,10.81865025
2377,10.82431029
2378,10.79940777
2379,10.78435375
2380,10.81883232
2381,10.86726984
2382,10.77667
2383,10.82836115
2384,10.81109244
2385,10.78511768
2386,10.84011263
2387,10.78723961
2388,10.8107053
2389,10.79015885
2390,10.80785803
2391,10.78189089
2392,10.84070418
2393,10.7885302
2394,10.79765857
2395,10.81161695
2396,10.79602555
2397,10.79116261
2398,10.79655277
2399,10.80221609
2400,10.82394506
2401,10.79208437
2402,10.82143863
2403,10.81129259
2404,10.77050308
2405,10.78908199
2406,10.75447969
2407,10.80977863
2408,10.79971884
2409,10.79622973
2410,10.799264
2411,10.80193746
2412,10.79481068
2413,10.80278401
2414,10.79776143
2415,10.81883296
2416,10.78025079
2417,10.76888222
2418,10.82377323
2419,10.78796942
2420,10.79007182
2421,10.79121508
2422,10.75800974
2423,10.81696581
2424,10.80769982
2425,10.78806274
2426,10.79827262
2427,10.8423899
2428,10.82983538
2429,10.77589145
2430,10.78333602
2431,10.78563724
2432,10.79803059
2433,10.75275319
2434,10.84339976
2435,10.80993195
2436,10.77984458
2437,10.78329215
2438,10.83636036
2439,10.77095812
2440,10.83711364
2441,10.77784965
2442,10.79495611
2443,10.803572
2444,10.80996766
2445,10.79643676
2446,10.8291451
2447,10.78892795
2448,10.78513838
2449,10.78954245
2450,10.83350044
2451,10.77271716
2452,10.79258772
2453,10.81373204
2454,10.78957289
2455,10.7802527
2456,10.82429371
2457,10.77629936
2458,10.77278056
2459,10.78055298
2460,10.81614238
2461,10.81789729
2462,10.7814421
2463,10.81221669
2464,10.7938148
2465,10.84685228
2466,10.79189959
2467,10.81709502
2468,10.7955879
2469,10.76229802
2470,10.80240749
2471,10.83723968
2472,10.81533322
2473,10.76105412
2474,10.77742616
2475,10.77554264
2476,10.76415274
2477,10.78952643
2478,10.8125113
2479,10.75694998
2480,10.81806465
2481,10.81154391
2482,10.76369115
2483,10.7797818
2484,10.8122813
2485,10.73547804
2486,10.77418413
2487,10.78203765
2488,10.83225237
2489,10.79164171
2490,10.8211217
2491,10.80873822
2492,10.83193144
2493,10.79766596
2494,10.82024558
2495,10.79484907
2496,10.81635735
2497,10.84393143
2498,10.77581362
2499,10.81933767
2500,10.81113853
2501,10.82514405
2502,10.7989462
2503,10.80599123
2504,10.79682056
2505,10.81307269
2506,10.81080809
2507,10.80199086
2508,10.83540663
2509,10.81740931
2510,10.76401282
2511,10.81497109
2512,10.80983571
2513,10.77921595
2514,10.81697397
2515,10.78300222
2516,10.78179668
2517,10.80195468
2518,10.78589557
2519,10.79536742
2520,10.78879317
2521,10.79964931
2522,10.78757253
2523,10.76706225
2524,10.7884018
2525,10.78943576
2526,10.79100646
2527,10.78164048
2528,10.7962874
2529,10.80399957
2530,10.80937964
2531,10.79231736
2532,10.85761121
2533,10.82003594
2534,10.81884053
2535,10.81355502
2536,10.79822074
2537,10.79079142
2538,10.81002246
2539,10.81711143
2540,10.81670628
2541,10.78551224
2542,10.81715857
2543,10.7973329
2544,10.7774905
2545,10.82699645
2546,10.83011268
2547,10.80159392
2548,10.80168945
2549,10.77961772
2550,10.81948505
2551,10.7901005
2552,10.78129348
2553,10.83993889
2554,10.82291338
2555,10.79464902
2556,10.78465225
2557,10.82462881
2558,10.80462257
2559,10.79159406
2560,10.8150605
2561,10.77680904
2562,10.77998346
2563,10.80269883
2564,10.79539684
2565,10.83002467
2566,10.80148357
2567,10.83579117
2568,10.82349733
2569,10.77366123
2570,10.80795799
2571,10.7884475
2572,10.8110026
2573,10.79943795
2574,10.8371265
2575,10.81946802
2576,10.82888153
2577,10.80487865
2578,10.78803592
2579,10.74087802
2580,10.80837026
2581,10.80309754
2582,10.83031606
2583,10.84058634
2584,10.81344727
2585,10.83444649
2586,10.83163796
2587,10.79872836
2588,10.82028054
2589,10.80560815
2590,10.81115009
2591,10.83922193
2592,10.82082526
2593,10.82662038
2594,10.78305897
2595,10.84285851
2596,10.7901955
2597,10.8023315
2598,10.8023335
2599,10.80890061
2600,10.82102949
2601,10.78802311
2602,10.79959934
2603,10.79231203
2604,10.77220691
2605,10.83054126
2606,10.82433805
2607,10.83179823
2608,10.79376003
2609,10.81628469
2610,10.79575746
2611,10.82677171
2612,10.83609526
2613,10.78444346
2614,10.82951302
2615,10.81358545
2616,10.78858028
2617,10.81198905
2618,10.83456577
2619,10.78460445
2620,10.79883389
2621,10.81942703
2622,10.79007495
2623,10.81648765
2624,10.80101175
2625,10.78510843
2626,10.78890859
2627,10.80401878
2628,10.80039154
2629,10.82857852
2630,10.76177749
2631,10.81809741
2632,10.78849685
2633,10.83036212
2634,10.82808748
2635,10.84359574
2636,10.80164777
2637,10.81423754
2638,10.81054372
2639,10.83861192
2640,10.82467193
2641,10.81548538
2642,10.82679659
2643,10.8071345
2644,10.78417973
2645,10.8276272
2646,10.80260355
2647,10.78064513
2648,10.7919339
2649,10.81146262
2650,10.81860535
2651,10.82557962
2652,10.79603079
2653,10.83766319
2654,10.80491292
2655,10.83183885
2656,10.79053694
2657,10.82547458
2658,10.78960477
2659,10.80582735
2660,10.81122919
2661,10.83092933
2662,10.82460801
2663,10.813039
2664,10.82829751
2665,10.81872909
2666,10.81817964
2667,10.81216695
2668,10.80489308
2669,10.78226842
2670,10.84516499
2671,10.8233771
2672,10.82379725
2673,10.788243
2674,10.80751104
2675,10.80867256
2676,10.8086866
2677,10.81966318
2678,10.82962302
2679,10.83957214
2680,10.83594093
2681,10.82072264
2682,10.84387646
2683,10.86030181
2684,10.85008456
2685,10.81654046
2686,10.81443153
2687,10.79987884
2688,10.81879089
2689,10.80759679
2690,10.82750008
2691,10.83169696
2692,10.81861001
2693,10.82593352
2694,10.81822247
2695,10.79737532
2696,10.80638819
2697,10.83704218
2698,10.7916669
2699,10.79275191
2700,10.84972084
2701,10.83611624
2702,10.80857617
2703,10.83955492
2704,10.80659209
2705,10.84396065
2706,10.83549867
2707,10.83272102
2708,10.80001162
2709,10.84028915
2710,10.83441249
2711,10.81339821
2712,10.81711508
2713,10.85600113
2714,10.83354161
2715,10.82885056
2716,10.81173435
2717,10.80775022
2718,10.84674173
2719,10.80942809
2720,10.81979158
2721,10.8161834
2722,10.78787099
2723,10.84222797
2724,10.82122053
2725,10.80488635
2726,10.8122865
2727,10.82562343
2728,10.81934765
2729,10.8745085
2730,10.8109002
2731,10.86591532
2732,10.81323268
2733,10.83572642
2734,10.84935773
2735,10.82571123
2736,10.83935898
2737,10.84807861
2738,10.84533254
2739,10.83482727
2740,10.8283778
2741,10.85371381
2742,10.85184791
2743,10.85462884
2744,10.83925667
2745,10.84036956
2746,10.87304751
2747,10.83436176
2748,10.84415241
2749,10.83672523
2750,10.84546973
2751,10.83499431
2752,10.84278457
2753,10.85479042
2754,10.81730893
2755,10.84396156
2756,10.84235113
2757,10.87298801
2758,10.80469506
2759,10.85678998
2760,10.84214405
2761,10.84135644
2762,10.85808429
2763,10.86469011
2764,10.84507296
2765,10.83575431
2766,10.87651039
2767,10.87149396
2768,10.87622181
2769,10.83903394
2770,10.86336661
2771,10.82910691
2772,10.87853366
2773,10.86749165
2774,10.89125118
2775,10.89079624
2776,10.87679839
2777,10.82576716
2778,10.85338191
2779,10.87267494
2780,10.85940375
2781,10.85421711
2782,10.85395879
2783,10.84040466
2784,10.84323055
2785,10.88074152
2786,10.90658798
2787,10.83285047
2788,10.87141386
2789,10.86601559
2790,10.86423482
2791,10.85823841
2792,10.89903872
2793,10.856863
2794,10.82264862
2795,10.86010648
2796,10.86560167
2797,10.88852346
2798,10.89587919
2799,10.88034312
2800,10.90078261
2801,10.86616582
2802,10.88346598
2803,10.87481525
2804,10.8745502
2805,10.91522738
2806,10.89453499
2807,10.88619594
2808,10.92329435
2809,10.86397072
2810,10.89186951
2811,10.90856643
2812,10.89909798
2813,10.89661184
2814,10.85812144
2815,10.91383749
2816,10.89205874
2817,10.87961991
2818,10.92499153
2819,10.88906704
2820,10.89129266
2821,10.87089385
2822,10.88485636
2823,10.92847788
2824,10.89458417
2825,10.90785658
2826,10.91802387
2827,10.93499256
2828,10.91527755
2829,10.86121619
2830,10.92983638
2831,10.85171077
2832,10.93302874
2833,10.91469085
2834,10.89024319
2835,10.91012331
2836,10.93872587
2837,10.93741779
2838,10.90185368
2839,10.90911552
2840,10.91328882
2841,10.93197477
2842,10.90888093
2843,10.92517301
2844,10.91754149
2845,10.92908742
2846,10.92345034
2847,10.93237407
2848,10.91044736
2849,10.93393423
2850,10.95198475
2851,10.93119132
2852,10.90265349
2853,10.91105401
2854,10.94772771
2855,10.94916329
2856,10.94870103
2857,10.91183144
2858,10.96639534
2859,10.92172267
2860,10.91967113
2861,10.9277847
2862,10.94139946
2863,10.95143626
2864,10.91778077
2865,10.93230358
2866,10.92508045
2867,10.95784476
2868,10.98010408
2869,10.94859146
2870,10.92434019
2871,10.97289643
2872,10.96522954
2873,10.91805347
2874,10.97088073
2875,10.96875479
2876,10.9759979
2877,10.96091856
2878,10.97129506
2879,10.95944156
2880,10.98841998
2881,10.98057054
2882,10.93018136
2883,10.97136411
2884,10.96501597
2885,10.95337243
2886,11.00290041
2887,10.98356914
2888,11.00248106
2889,10.94489336
2890,10.96652428
2891,10.97264416
2892,10.95586211
2893,10.95902408
2894,10.99312609
2895,10.94693879
2896,11.02666464
2897,11.0185535
2898,10.98339618
2899,10.99314672
2900,11.02423904
2901,10.9792169
2902,11.00698505
2903,10.9695938
2904,10.99831743
2905,11.0101693
2906,10.99648288
2907,10.97911724
2908,11.0469095
2909,11.03033495
2910,11.02258096
2911,11.05326851
2912,11.02934021
2913,11.03117507
2914,11.03185465
2915,11.03487826
2916,11.00415908
2917,11.02349579
2918,11.03128623
2919,10.99819141
2920,11.00309433
2921,11.04258328
2922,11.04543255
2923,11.01352572
2924,11.02316868
2925,11.05821926
2926,11.04294553
2927,11.01267816
2928,11.04434157
2929,11.04134943
2930,11.07895296
2931,11.04548559
2932,11.08399253
2933,11.03095826
2934,11.07025436
2935,11.04643203
2936,11.06171085
2937,11.08947723
2938,11.08728559
2939,11.09389325
2940,11.06856674
2941,11.08005832
2942,11.05877955
2943,11.06274517
2944,11.07041571
2945,11.10155917
2946,11.06384976
2947,11.0814744
2948,11.07846847
2949,11.08984699
2950,11.08367647
2951,11.14652544
2952,11.07956278
2953,11.10246236
2954,11.10938985
2955,11.07949472
2956,11.06714763
2957,11.0912053
2958,11.11126638
2959,11.0827903
2960,11.12050526
2961,11.12751755
2962,11.11247156
2963,11.11757136
2964,11.12993703
2965,11.11450654
2966,11.15162764
2967,11.14228478
2968,11.12649349
2969,11.11374513
2970,11.14268803
2971,11.181757
2972,11.13417412
2973,11.15712035
2974,11.13554984
2975,11.16443329
2976,11.14993534
2977,11.1332971
2978,11.14159148
2979,11.16734743
2980,11.16411708
2981,11.15965416
2982,11.15514432
2983,11.15810757
2984,11.21830191
2985,11.14839233
2986,11.16038177
2987,11.16654787
2988,11.18207017
2989,11.19662231
2990,11.22025235
2991,11.15950726
2992,11.21282056
2993,11.14681029
2994,11.2261882
2995,11.17930821
2996,11.18891117
2997,11.1947819
2998,11.23586656
2999,11.19604209
3000,11.18133273
3001,11.23029481
3002,11.22343469
3003,11.21587896
3004,11.22906273
3005,11.23423271
3006,11.21716739
3007,11.21634906
3008,11.23358341
3009,11.20955289
3010,11.23672139
3011,11.19799276
3012,11.26145091
3013,11.24656019
3014,11.26146448
3015,11.25312824
3016,11.26611482
3017,11.24774068
3018,11.25412322
3019,11.26217998
3020,11.27530736
3021,11.2338007
3022,11.28177596
3023,11.26240408
3024,11.27834449
3025,11.26539434
3026,11.26518864
3027,11.26692047
3028,11.26570171
3029,11.24979147
3030,11.29242318
3031,11.29579965
3032,11.27613915
3033,11.30405916
3034,11.26256375
3035,11.2665383
3036,11.29276691
3037,11.28900937
3038,11.30008765
3039,11.24804346
3040,11.31782729
3041,11.3171505
3042,11.31662891
3043,11.30772731
3044,11.31418758
3045,11.33030955
3046,11.31922858
3047,11.33242831
3048,11.27661988
3049,11.3413262
3050,11.32460418
3051,11.34722568
3052,11.33222395
3053,11.30689169
3054,11.32329659
3055,11.32795559
3056,11.35935435
3057,11.31673987
3058,11.32959714
3059,11.3288951
3060,11.39170653
3061,11.34308046
3062,11.36011972
3063,11.35614624
3064,11.37345926
3065,11.33703874
3066,11.31393582
3067,11.37090772
3068,11.37621217
3069,11.37032954
3070,11.38525288
3071,11.38567184
3072,11.38891327
3073,11.38062281
3074,11.35216566
3075,11.38419855
3076,11.37183022
3077,11.40471028
3078,11.41897152
3079,11.39958906
3080,11.37059084
3081,11.39047583
3082,11.37634155
3083,11.40911219
3084,11.37005934
3085,11.41696472
3086,11.3691069
3087,11.43142142
3088,11.39058502
3089,11.44170566
3090,11.4211792
3091,11.4310556
3092,11.42973891
3093,11.4327968
3094,11.43511138
3095,11.4461671
3096,11.40347795
3097,11.45641262
3098,11.41351774
3099,11.44453668
3100,11.43514237
3101,11.45355614
3102,11.48181768
3103,11.46339272
3104,11.4588818
3105,11.41345223
3106,11.44624434
3107,11.42661743
3108,11.47182888
3109,11.4656641
3110,11.45398904
3111,11.44182104
3112,11.46946189
3113,11.45254872
3114,11.46267406
3115,11.46524124
3116,11.50134294
3117,11.4810191
3118,11.49182927
3119,11.48793982
3120,11.44667371
3121,11.48585277
3122,11.50357854
3123,11.49329107
3124,11.47394025
3125,11.49503517
3126,11.46170186
3127,11.49586336
3128,11.49616227
3129,11.5036584
3130,11.52110708
3131,11.51341505
3132,11.52943009
3133,11.51779719
3134,11.52368443
3135,11.53375703
3136,11.5097539
3137,11.48777698
3138,11.53076155
3139,11.49259334
3140,11.53973999
3141,11.541254
3142,11.51949982
3143,11.52642054
3144,11.56280234
3145,11.55487244
3146,11.51975593
3147,11.53376207
3148,11.51723296
3149,11.54124119
3150,11.54944578
3151,11.55164256
3152,11.54673988
3153,11.51264204
3154,11.5254739
3155,11.5464463
3156,11.52608388
3157,11.54586584
3158,11.5604462
3159,11.53616666
3160,11.52289558
3161,11.56170681
3162,11.54145897
3163,11.59974009
3164,11.56580819
3165,11.54493149
3166,11.55957222
3167,11.49729395
3168,11.54426091
3169,11.52819958
3170,11.56465798
3171,11.58268188
3172,11.55950996
3173,11.52887296
3174,11.52574635
3175,11.55946496
3176,11.61040261
3177,11.56585373
3178,11.59679383
3179,11.51281154
3180,11.54614301
3181,11.60410408
3182,11.55098291
3183,11.57352818
3184,11.59628349
3185,11.59176186
3186,11.56606581
3187,11.618793
3188,11.55269983
3189,11.62115897
3190,11.59114909
3191,11.56882248
3192,11.59461827
3193,11.5855776
3194,11.599548
3195,11.59965661
3196,11.59996812
3197,11.57515158
3198,11.64670493
3199,11.55027933
3200,11.58669234
3201,11.5684799
3202,11.58246903
3203,11.58600084
3204,11.56368698
3205,11.56461769
3206,11.5747933
3207,11.61858985
3208,11.58414261
3209,11.59683363
3210,11.59912675
3211,11.60188058
3212,11.6205271
3213,11.5861751
3214,11.63187592
3215,11.58078358
3216,11.60039693
3217,11.61148534
3218,11.62855549
3219,11.55439424
3220,11.61446279
3221,11.59622252
3222,11.58070861
3223,11.57977905
3224,11.58995428
3225,11.57251382
3226,11.59280097
3227,11.58699626
3228,11.56212847
3229,11.59280341
3230,11.59177263
3231,11.63615004
3232,11.59050804
3233,11.59033384
3234,11.56369523
3235,11.58922225
3236,11.60505979
3237,11.59981307
3238,11.56787603
3239,11.57858818
3240,11.59888835
3241,11.61689815
3242,11.60909797
3243,11.62142817
3244,11.58706549
3245,11.5813447
3246,11.58632003
3247,11.62153977
3248,11.57912301
3249,11.58053431
3250,11.56715748
3251,11.62239735
3252,11.63251427
3253,11.58817855
3254,11.61906911
3255,11.59970138
3256,11.58406778
3257,11.58589366
3258,11.56242023
3259,11.57656665
3260,11.57470042
3261,11.60362722
3262,11.594303
3263,11.58984138
3264,11.62701324
3265,11.58370412
3266,11.56821055
3267,11.54355459
3268,11.58973071
3269,11.59391078
3270,11.60711114
3271,11.61345674
3272,11.62595828
3273,11.57414452
3274,11.56539004
3275,11.6078657
3276,11.56484211
3277,11.56885554
3278,11.62748125
3279,11.56827151
3280,11.56240521
3281,11.56813491
3282,11.58680315
3283,11.58617106
3284,11.61296282
3285,11.58950551
3286,11.5714086
3287,11.61262951
3288,11.5805326
3289,11.59012464
3290,11.56161291
3291,11.58387979
3292,11.60923503
3293,11.56787735
3294,11.55331262
3295,11.52053515
3296,11.57011608
3297,11.54337671
3298,11.53575519
3299,11.54424269
3300,11.55782839
3301,11.57655474
3302,11.54459229
3303,11.53732696
3304,11.53577798
3305,11.56243781
3306,11.53962346
3307,11.56012159
3308,11.53134291
3309,11.55858449
3310,11.54387644
3311,11.53383254
3312,11.54087577
3313,11.53610656
3314,11.55008924
3315,11.53484496
3316,11.53405288
3317,11.54808073
3318,11.51247872
3319,11.52175065
3320,11.51128533
3321,11.5094404
3322,11.5201033
3323,11.52737295
3324,11.53039576
3325,11.5237627
3326,11.52943616
3327,11.53340862
3328,11.53872555
3329,11.49114531
3330,11.46964518
3331,11.49732303
3332,11.51284132
3333,11.50370894
3334,11.49024076
3335,11.49757565
3336,11.46576
3337,11.48243578
3338,11.45793901
3339,11.51936692
3340,11.48191195
3341,11.50607979
3342,11.50408199
3343,11.50742145
3344,11.46676545
3345,11.48353309
3346,11.47215854
3347,11.4840501
3348,11.46933467
3349,11.48810592
3350,11.48299432
3351,11.49460987
3352,11.50098637
3353,11.4635859
3354,11.47123176
3355,11.48693913
3356,11.47443463
3357,11.43957233
3358,11.46062649
3359,11.45519608
3360,11.46359607
3361,11.4634852
3362,11.43880971
3363,11.45610824
3364,11.48240824
3365,11.44196516
3366,11.42990422
3367,11.42270374
3368,11.42837026
3369,11.41274341
3370,11.42689671
3371,11.43000837
3372,11.4474599
3373,11.47316763
3374,11.4029039
3375,11.421915
3376,11.41569547
3377,11.381989
3378,11.39546987
3379,11.39926385
3380,11.39629057
3381,11.40814988
3382,11.37982494
3383,11.41060126
3384,11.441232
3385,11.36375367
3386,11.37840824
3387,11.41257313
3388,11.40877549
3389,11.41511369
3390,11.42146704
3391,11.35232844
3392,11.39746746
3393,11.39147656
3394,11.39623745
3395,11.43087189
3396,11.38708014
3397,11.35727554
3398,11.37012397
3399,11.38525218
3400,11.36211547
3401,11.38958444
3402,11.34693659
3403,11.35870116
3404,11.37510944
3405,11.37755981
3406,11.36274625
3407,11.36049155
3408,11.34195085
3409,11.37783348
3410,11.35506237
3411,11.3302706
3412,11.31983553
3413,11.30250503
3414,11.36588043
3415,11.31494885
3416,11.3376605
3417,11.30509767
3418,11.30575173
3419,11.30066671
3420,11.28397897
3421,11.27601962
3422,11.33317435
3423,11.2802911
3424,11.29441003
3425,11.3215491
3426,11.30147645
3427,11.31288208
3428,11.31277799
3429,11.32181761
3430,11.30365944
3431,11.29884017
3432,11.26935536
3433,11.30027998
3434,11.30616428
3435,11.26286371
3436,11.27877872
3437,11.25077174
3438,11.25298229
3439,11.26085369
3440,11.24460335
3441,11.28988647
3442,11.24865082
3443,11.2978752
3444,11.24369538
3445,11.25996456
3446,11.26452158
3447,11.26288932
3448,11.24477685
3449,11.26074422
3450,11.24915371
3451,11.21609982
3452,11.24942565
3453,11.27545941
3454,11.27112043
3455,11.22200797
3456,11.23702101
3457,11.24310723
3458,11.18080492
3459,11.18467088
3460,11.25102976
3461,11.19979655
3462,11.21655209
3463,11.18894983
3464,11.20204811
3465,11.19494735
3466,11.20715094
3467,11.22461621
3468,11.21969653
3469,11.21325248
3470,11.20288276
3471,11.18069201
3472,11.16831494
3473,11.17956596
3474,11.21384442
3475,11.21335569
3476,11.19338623
3477,11.16938345
3478,11.1903358
3479,11.18450358
3480,11.19759056
3481,11.17097025
3482,11.18609613
3483,11.17444551
3484,11.17513019
3485,11.16345315
3486,11.17998204
3487,11.17294364
3488,11.17701236
3489,11.1492565
3490,11.17622292
3491,11.09860577
3492,11.16786858
3493,11.16808444
3494,11.15679457
3495,11.19114951
3496,11.11400908
3497,11.12652056
3498,11.12980386
3499,11.12428497
3500,11.08664192
3501,11.11657178
3502,11.15214985
3503,11.10691001
3504,11.11409462
3505,11.12486916
3506,11.13839861
3507,11.09106336
3508,11.07539655
3509,11.12584063
3510,11.09260438
3511,11.10678664
3512,11.07914752
3513,11.0844047
3514,11.09104518
3515,11.07730557
3516,11.09197369
3517,11.08841584
3518,11.06536499
3519,11.07186159
3520,11.05312788
3521,11.13320656
3522,11.10036312
3523,11.09225734
3524,11.06885659
3525,11.09211245
3526,11.09712404
3527,11.07572467
3528,11.09305397
3529,11.04963416
3530,11.05638789
3531,11.0642105
3532,11.0912483
3533,11.09017858
3534,11.0522967
3535,11.05508426
3536,11.06768769
3537,11.0747612
3538,11.04198023
3539,11.06992415
3540,11.05563974
3541,11.06609209
3542,11.07395185
3543,11.06341556
3544,11.06271614
3545,11.05675629
3546,11.0423915
3547,11.00328735
3548,11.02140933
3549,10.99423343
3550,11.01340692
3551,11.03872605
3552,11.01902736
3553,11.03984935
3554,11.02163497
3555,11.01822921
3556,11.02157511
3557,11.01954604
3558,10.9926206
3559,11.03129719
3560,11.00034172
3561,11.01624349
3562,11.01203069
3563,10.99785042
3564,10.99331884
3565,10.9822188
3566,10.97803767
3567,11.00739859
3568,11.00561221
3569,10.99599706
3570,11.02912678
3571,11.00328378
3572,10.98217511
3573,10.96511464
3574,11.01787694
3575,10.97926873
3576,10.99072489
3577,10.99652064
3578,10.95646359
3579,10.95220983
3580,10.98454314
3581,10.97153747
3582,11.00892606
3583,10.99165725
3584,10.99433683
3585,10.9924259
3586,10.96061656
3587,10.95884954
3588,10.95872346
3589,10.9425896
3590,10.96198234
3591,10.99897116
3592,10.92334538
3593,10.97648153
3594,10.99240018
3595,10.93426442
3596,10.89779352
3597,10.9492099
3598,10.9523378
3599,10.95454206
3600,10.95988632
3601,10.97346066
3602,10.93585388
3603,10.95511365
3604,10.93255022
3605,10.90586354
3606,10.92539317
3607,10.93051883
3608,10.93048979
3609,10.94054234
3610,10.8971772
3611,10.94587727
3612,10.94479644
3613,10.94006889
3614,10.95358631
3615,10.93251367
3616,10.90266752
3617,10.92816331
3618,10.93224266
3619,10.92064631
3620,10.94154191
3621,10.94223807
3622,10.9369136
3623,10.88558726
3624,10.93552457
3625,10.95185744
3626,10.9100457
3627,10.88499525
3628,10.92548643
3629,10.91015504
3630,10.9213127
3631,10.93974708
3632,10.91382733
3633,10.94948939
3634,10.87643513
3635,10.90379968
3636,10.91952198
3637,10.9020583
3638,10.89935956
3639,10.87315886
3640,10.92050845
3641,10.87183579
3642,10.87585345
3643,10.85987693
3644,10.89733075
3645,10.84566827
3646,10.90373494
3647,10.87618728
3648,10.91677827
3649,10.9187813
3650,10.88423473
3651,10.91333371
3652,10.87466976
3653,10.89148334
3654,10.88152856
3655,10.89276325
3656,10.88414256
3657,10.92722831
3658,10.90244774
3659,10.8786217
3660,10.88590662
3661,10.87481919
3662,10.89120273
3663,10.8611553
3664,10.89153268
3665,10.85394371
3666,10.88601763
3667,10.87785377
3668,10.88449036
3669,10.8973316
3670,10.91703414
3671,10.89837404
3672,10.84459335
3673,10.8937753
3674,10.88000081
3675,10.84361619
3676,10.87496566
3677,10.86901609
3678,10.88133169
3679,10.85682533
3680,10.87016116
3681,10.86503513
3682,10.88738189
3683,10.86030915
3684,10.84671866
3685,10.83334366
3686,10.85265047
3687,10.88309996
3688,10.88217512
3689,10.85970586
3690,10.86180142
3691,10.86671644
3692,10.83671395
3693,10.89041889
3694,10.85512217
3695,10.87070173
3696,10.87160706
3697,10.84788204
3698,10.84935777
3699,10.88170012
3700,10.80898932
3701,10.86391573
3702,10.86290771
3703,10.88590513
3704,10.84346414
3705,10.81435372
3706,10.89451168
3707,10.82585276
3708,10.84595131
3709,10.84331656
3710,10.81700841
3711,10.84698181
3712,10.8325775
3713,10.8585345
3714,10.86676471
3715,10.84959353
3716,10.85161586
3717,10.82885797
3718,10.82874389
3719,10.86317438
3720,10.83096065
3721,10.83844671
3722,10.84050243
3723,10.85259708
3724,10.81293422
3725,10.84668198
3726,10.84684889
3727,10.85183637
3728,10.82885437
3729,10.85306508
3730,10.84585583
3731,10.86637487
3732,10.81743312
3733,10.84464103
3734,10.86507706
3735,10.81536169
3736,10.79733976
3737,10.83969369
3738,10.80824697
3739,10.85276083
3740,10.83514756
3741,10.79803571
3742,10.84624877
3743,10.82443387
3744,10.81772426
3745,10.82813103
3746,10.80229978
3747,10.82180222
3748,10.80212902
3749,10.84845501
3750,10.82653447
3751,10.85088366
3752,10.83065784
3753,10.77396023
3754,10.84542982
3755,10.81132096
3756,10.81849576
3757,10.85098169
3758,10.85829493
3759,10.84275986
3760,10.80493244
3761,10.83382217
3762,10.87325896
3763,10.80409373
3764,10.80911438
3765,10.8474906
3766,10.83064797
3767,10.83575448
3768,10.82410362
3769,10.77151797
3770,10.77366355
3771,10.85299598
3772,10.85487833
3773,10.83916399
3774,10.84071971
3775,10.81240137
3776,10.82674107
3777,10.8152181
3778,10.80513154
3779,10.80292981
3780,10.8224378
3781,10.85018612
3782,10.79982714
3783,10.8181569
3784,10.7827699
3785,10.8422356
3786,10.83210768
3787,10.79447077
3788,10.82037799
3789,10.82834149
3790,10.82600296
3791,10.82973849
3792,10.813805
3793,10.79353039
3794,10.80685915
3795,10.82576968
3796,10.80091175
3797,10.84556444
3798,10.78918762
3799,10.79365948
3800,10.86188262
3801,10.83013138
3802,10.81860568
3803,10.80916285
3804,10.81764564
3805,10.79404494
3806,10.8437716
3807,10.831682
3808,10.81094234
3809,10.77588443
3810,10.82341936
3811,10.81836589
3812,10.81629094
3813,10.78084205
3814,10.81821614
3815,10.80487077
3816,10.83986172
3817,10.82387392
3818,10.80969106
3819,10.83441422
3820,10.83744802
3821,10.78269728
3822,10.83690248
3823,10.80111364
3824,10.7732719
3825,10.83528391
3826,10.79748391
3827,10.82474387
3828,10.83438383
3829,10.83517564
3830,10.82759658
3831,10.82075686
3832,10.79813201
3833,10.84004348
3834,10.80437733
3835,10.81132617
3836,10.80904178
3837,10.81639715
3838,10.81223962
3839,10.78189979
3840,10.8079871
3841,10.80851739
3842,10.79145395
3843,10.79116308
3844,10.85435316
3845,10.80767551
3846,10.80172611
3847,10.83855638
3848,10.77934846
3849,10.79665592
3850,10.79228271
3851,10.8330854
3852,10.84587678
3853,10.79666322
3854,10.76714415
3855,10.83424215
3856,10.82558998
3857,10.81642456
3858,10.77105776
3859,10.81866631
3860,10.78002934
3861,10.81315516
3862,10.80699086
3863,10.78622328
3864,10.79796208
3865,10.80334661
3866,10.84173608
3867,10.83229816
3868,10.78410776
3869,10.79839001
3870,10.76620057
3871,10.80970279
3872,10.79454735
3873,10.81090342
3874,10.79834796
3875,10.79436023
3876,10.80680284
3877,10.78366728
3878,10.82860056
3879,10.8305188
3880,10.80153458
3881,10.78024883
3882,10.81919685
3883,10.81299954
3884,10.81455997
3885,10.80091192
3886,10.78923184
3887,10.77624653
3888,10.8075063
3889,10.80577346
3890,10.80622155
3891,10.79821909
3892,10.82009079
3893,10.82012136
3894,10.83882439
3895,10.80750085
3896,10.82638821
3897,10.81925944
3898,10.80883808
3899,10.81832611
3900,10.80829088
3901,10.7974263
3902,10.80979875
3903,10.79883953
3904,10.77577488
3905,10.82203142
3906,10.80947964
3907,10.77569522
3908,10.76972354
3909,10.79428038
3910,10.81713364
3911,10.816108
3912,10.78045347
3913,10.82252555
3914,10.82013539
3915,10.80677463
3916,10.82509616
3917,10.78137113
3918,10.81691855
3919,10.80428822
3920,10.7955802
3921,10.79623183
3922,10.81060399
3923,10.78691572
3924,10.77206125
3925,10.78422672
3926,10.76353721
3927,10.82392098
3928,10.83210138
3929,10.79423619
3930,10.82423053
3931,10.76821454
3932,10.80513913
3933,10.81255363
3934,10.80074244
3935,10.82232622
3936,10.80403175
3937,10.77944653
3938,10.78438404
3939,10.77808716
3940,10.7978847
3941,10.82042526
3942,10.82172158
3943,10.77411183
3944,10.78502104
3945,10.79939221
3946,10.81058947
3947,10.79420131
3948,10.79996227
3949,10.81029762
3950,10.7884179
3951,10.79323096
3952,10.79617041
3953,10.78883475
3954,10.78499873
3955,10.77856508
3956,10.80993335
3957,10.80067074
3958,10.79423459
3959,10.79974735
3960,10.81702288
3961,10.80226109
3962,10.8077571
3963,10.79521135
3964,10.81626906
3965,10.81515036
3966,10.80744088
3967,10.78796823
3968,10.81207848
3969,10.77101993
3970,10.77482749
3971,10.80921918
3972,10.82177503
3973,10.80920749
3974,10.79581348
3975,10.77354326
3976,10.78368984
3977,10.7980971
3978,10.80969485
3979,10.81306005
3980,10.79091428
3981,10.81293212
3982,10.79886655
3983,10.83424632
3984,10.8117663
3985,10.80534602
3986,10.81580939
3987,10.8159744
3988,10.77846748
3989,10.77974759
3990,10.79187103
3991,10.78522965
3992,10.8036811
3993,10.78931888
3994,10.76080064
3995,10.78427136
3996,10.80539304
3997,10.78749848
3998,10.77757354
3999,10.81735952
4000,10.81438236
