Raman Shift,Intensity
209.0,6.06
210.0,8.628
211.0,14.845
212.0,21.309
213.0,28.006
214.0,34.837
215.0,41.379
216.0,47.055
217.0,52.832
218.0,45.085
219.0,35.623
220.0,25.985
221.0,16.143
222.0,7.07
223.0,6.97
224.0,6.976
225.0,8.33
226.0,10.169
227.0,14.392
228.0,22.61
229.0,31.12
230.0,35.289
231.0,39.355
232.0,39.371
233.0,37.243
234.0,33.974
235.0,27.881
236.0,21.703
237.0,16.59
238.0,11.579
239.0,7.92
240.0,5.393
241.0,2.981
242.0,1.224
243.0,0.58
244.0,1.088
245.0,1.379
246.0,1.017
247.0,0.172
248.0,1.335
249.0,2.833
250.0,4.282
251.0,6.298
252.0,8.494
253.0,11.742
254.0,16.795
255.0,21.801
256.0,28.001
257.0,34.108
258.0,39.795
259.0,44.931
260.0,48.946
261.0,51.046
262.0,53.325
263.0,51.408
264.0,49.413
265.0,46.566
266.0,43.101
267.0,39.164
268.0,33.898
269.0,28.243
270.0,23.641
271.0,19.113
272.0,14.988
273.0,11.191
274.0,7.507
275.0,4.466
276.0,1.394
277.0,0.459
278.0,0.133
279.0,0.368
280.0,0.261
281.0,0.228
282.0,0.264
283.0,0.362
284.0,0.873
285.0,2.386
286.0,3.869
287.0,5.324
288.0,6.81
289.0,8.645
290.0,10.461
291.0,13.561
292.0,16.847
293.0,19.789
294.0,22.306
295.0,25.11
296.0,30.664
297.0,36.302
298.0,40.411
299.0,44.055
300.0,46.278
301.0,46.421
302.0,46.098
303.0,42.011
304.0,37.956
305.0,31.586
306.0,24.598
307.0,18.237
308.0,12.637
309.0,7.415
310.0,4.52
311.0,1.694
312.0,0.299
313.0,0.674
314.0,0.388
315.0,1.34
316.0,3.063
317.0,4.469
318.0,5.93
319.0,6.392
320.0,6.668
321.0,6.152
322.0,4.951
323.0,4.099
324.0,4.422
325.0,4.55
326.0,5.467
327.0,6.571
328.0,7.263
329.0,7.499
330.0,7.721
331.0,7.672
332.0,7.652
333.0,6.122
334.0,4.425
335.0,2.748
336.0,1.09
337.0,0.218
338.0,0.411
339.0,0.439
340.0,1.015
341.0,2.477
342.0,4.338
343.0,6.252
344.0,7.647
345.0,8.151
346.0,8.647
347.0,8.705
348.0,8.753
349.0,7.28
350.0,5.138
351.0,3.321
352.0,2.019
353.0,0.634
354.0,0.06
355.0,0.83
356.0,0.719
357.0,0.461
358.0,0.169
359.0,1.242
360.0,2.818
361.0,6.916
362.0,11.007
363.0,13.592
364.0,15.938
365.0,18.034
366.0,19.936
367.0,21.491
368.0,22.082
369.0,22.53
370.0,21.978
371.0,21.151
372.0,20.128
373.0,19.135
374.0,18.273
375.0,17.268
376.0,16.284
377.0,15.311
378.0,14.344
379.0,12.695
380.0,10.856
381.0,9.231
382.0,7.826
383.0,6.851
384.0,7.652
385.0,8.525
386.0,10.612
387.0,12.896
388.0,14.452
389.0,15.475
390.0,16.114
391.0,16.014
392.0,15.606
393.0,14.154
394.0,12.606
395.0,10.358
396.0,7.862
397.0,5.742
398.0,4.045
399.0,2.392
400.0,1.052
401.0,0.334
402.0,0.603
403.0,0.834
404.0,0.879
405.0,0.846
406.0,0.742
407.0,0.422
408.0,0.126
409.0,0.541
410.0,1.177
411.0,2.133
412.0,3.155
413.0,4.835
414.0,7.133
415.0,9.386
416.0,11.555
417.0,13.301
418.0,14.938
419.0,16.5
420.0,15.042
421.0,12.329
422.0,10.132
423.0,8.705
424.0,7.481
425.0,6.348
426.0,5.247
427.0,4.569
428.0,3.986
429.0,5.638
430.0,8.722
431.0,12.497
432.0,17.497
433.0,22.683
434.0,29.146
435.0,35.673
436.0,42.628
437.0,49.724
438.0,54.416
439.0,57.192
440.0,58.443
441.0,55.978
442.0,53.407
443.0,47.235
444.0,41.531
445.0,36.649
446.0,31.736
447.0,26.477
448.0,20.589
449.0,15.061
450.0,11.81
451.0,8.55
452.0,5.714
453.0,2.861
454.0,1.98
455.0,1.748
456.0,1.272
457.0,0.545
458.0,0.208
459.0,1.01
460.0,1.888
461.0,1.554
462.0,1.306
463.0,0.49
464.0,0.495
465.0,1.011
466.0,1.047
467.0,1.599
468.0,3.813
469.0,6.005
470.0,9.51
471.0,13.001
472.0,15.809
473.0,18.381
474.0,21.855
475.0,25.974
476.0,29.506
477.0,32.857
478.0,36.349
479.0,40.714
480.0,45.54
481.0,49.717
482.0,53.74
483.0,55.871
484.0,56.406
485.0,56.151
486.0,54.054
487.0,51.834
488.0,47.554
489.0,43.302
490.0,39.458
491.0,35.74
492.0,31.289
493.0,26.373
494.0,22.404
495.0,20.086
496.0,17.947
497.0,15.548
498.0,13.187
499.0,11.075
500.0,8.584
501.0,6.982
502.0,5.836
503.0,4.498
504.0,2.912
505.0,1.52
506.0,0.837
507.0,0.154
508.0,0.092
509.0,0.34
510.0,0.605
511.0,0.903
512.0,1.007
513.0,0.958
514.0,0.544
515.0,0.752
516.0,1.993
517.0,2.814
518.0,3.619
519.0,6.368
520.0,9.394
521.0,13.288
522.0,17.643
523.0,23.348
524.0,30.818
525.0,38.294
526.0,45.935
527.0,53.353
528.0,58.405
529.0,63.421
530.0,63.325
531.0,62.246
532.0,58.656
533.0,53.021
534.0,46.255
535.0,37.476
536.0,29.125
537.0,23.119
538.0,17.128
539.0,12.834
540.0,8.644
541.0,6.078
542.0,4.118
543.0,2.853
544.0,2.233
545.0,1.602
546.0,0.961
547.0,0.777
548.0,2.871
549.0,5.182
550.0,7.689
551.0,10.315
552.0,12.573
553.0,14.236
554.0,15.028
555.0,14.95
556.0,14.251
557.0,12.478
558.0,10.674
559.0,9.205
560.0,7.662
561.0,5.199
562.0,2.513
563.0,0.969
564.0,0.019
565.0,0.879
566.0,1.645
567.0,2.127
568.0,1.798
569.0,1.518
570.0,0.908
571.0,0.337
572.0,0.215
573.0,0.759
574.0,2.973
575.0,5.811
576.0,9.164
577.0,12.955
578.0,17.008
579.0,21.701
580.0,26.858
581.0,35.282
582.0,43.607
583.0,54.694
584.0,66.344
585.0,83.908
586.0,103.397
587.0,126.228
588.0,151.242
589.0,177.408
590.0,205.074
591.0,230.583
592.0,248.933
593.0,266.35
594.0,266.666
595.0,267.15
596.0,251.273
597.0,233.305
598.0,208.762
599.0,181.613
600.0,154.604
601.0,127.334
602.0,102.945
603.0,84.022
604.0,66.511
605.0,53.558
606.0,40.306
607.0,31.126
608.0,21.97
609.0,15.505
610.0,9.671
611.0,5.996
612.0,3.493
613.0,1.253
614.0,0.718
615.0,1.939
616.0,1.58
617.0,1.298
618.0,1.47
619.0,1.713
620.0,0.242
621.0,1.22
622.0,2.278
623.0,3.228
624.0,4.124
625.0,4.942
626.0,5.706
627.0,6.445
628.0,6.852
629.0,6.511
630.0,6.043
631.0,5.479
632.0,4.907
633.0,4.634
634.0,4.003
635.0,2.959
636.0,2.302
637.0,1.956
638.0,1.677
639.0,1.651
640.0,1.842
641.0,1.819
642.0,1.358
643.0,1.012
644.0,1.334
645.0,1.572
646.0,0.838
647.0,0.022
648.0,0.015
649.0,0.016
650.0,0.715
651.0,1.621
652.0,1.923
653.0,1.808
654.0,1.205
655.0,0.07
656.0,0.204
657.0,1.417
658.0,2.518
659.0,1.231
660.0,0.007
661.0,0.618
662.0,1.175
663.0,0.815
664.0,0.363
665.0,0.621
666.0,1.184
667.0,1.227
668.0,0.894
669.0,0.978
670.0,1.56
671.0,1.676
672.0,0.8
673.0,0.162
674.0,0.318
675.0,0.468
676.0,0.587
677.0,0.736
678.0,1.34
679.0,2.038
680.0,2.024
681.0,1.798
682.0,1.572
683.0,1.345
684.0,1.329
685.0,1.522
686.0,1.549
687.0,1.345
688.0,1.301
689.0,1.552
690.0,1.759
691.0,2.009
692.0,2.327
693.0,1.679
694.0,0.976
695.0,0.909
696.0,0.876
697.0,0.811
698.0,0.735
699.0,1.104
700.0,1.89
701.0,2.093
702.0,1.518
703.0,1.147
704.0,1.336
705.0,1.313
706.0,0.881
707.0,0.457
708.0,0.401
709.0,0.291
710.0,0.565
711.0,0.801
712.0,0.595
713.0,0.302
714.0,0.379
715.0,1.186
716.0,1.093
717.0,0.537
718.0,0.321
719.0,0.397
720.0,0.031
721.0,0.918
722.0,1.67
723.0,2.02
724.0,2.596
725.0,3.97
726.0,5.508
727.0,7.159
728.0,8.849
729.0,11.484
730.0,13.994
731.0,16.294
732.0,18.749
733.0,21.874
734.0,25.268
735.0,28.425
736.0,31.552
737.0,33.98
738.0,35.86
739.0,36.987
740.0,37.166
741.0,37.769
742.0,39.075
743.0,40.348
744.0,41.354
745.0,42.372
746.0,43.067
747.0,43.74
748.0,42.235
749.0,40.813
750.0,38.558
751.0,36.343
752.0,31.857
753.0,27.209
754.0,22.695
755.0,18.333
756.0,14.687
757.0,11.346
758.0,8.732
759.0,6.781
760.0,4.808
761.0,2.959
762.0,1.553
763.0,0.888
764.0,0.386
765.0,0.171
766.0,0.134
767.0,0.526
768.0,0.913
769.0,0.928
770.0,0.975
771.0,0.194
772.0,0.52
773.0,0.263
774.0,0.091
775.0,0.758
776.0,1.747
777.0,1.522
778.0,0.938
779.0,0.97
780.0,1.216
781.0,1.699
782.0,2.284
783.0,2.434
784.0,2.123
785.0,1.9
786.0,1.777
787.0,1.888
788.0,2.165
789.0,1.945
790.0,0.8
791.0,0.247
792.0,0.893
793.0,1.369
794.0,1.263
795.0,1.115
796.0,0.986
797.0,0.905
798.0,0.41
799.0,0.07
800.0,0.377
801.0,0.886
802.0,0.573
803.0,0.171
804.0,0.179
805.0,0.281
806.0,1.129
807.0,2.22
808.0,3.012
809.0,3.667
810.0,4.641
811.0,5.815
812.0,6.462
813.0,6.697
814.0,7.188
815.0,7.929
816.0,8.262
817.0,8.06
818.0,8.051
819.0,8.353
820.0,8.353
821.0,8.194
822.0,7.805
823.0,7.162
824.0,6.422
825.0,5.347
826.0,4.376
827.0,4.23
828.0,4.085
829.0,3.974
830.0,3.787
831.0,2.665
832.0,1.541
833.0,1.863
834.0,2.196
835.0,0.694
836.0,0.931
837.0,0.421
838.0,0.335
839.0,0.266
840.0,0.038
841.0,0.189
842.0,0.435
843.0,0.313
844.0,0.062
845.0,0.491
846.0,1.208
847.0,1.921
848.0,2.631
849.0,3.037
850.0,3.25
851.0,4.023
852.0,4.715
853.0,5.122
854.0,5.33
855.0,5.784
856.0,6.44
857.0,6.696
858.0,6.423
859.0,6.362
860.0,6.557
861.0,6.229
862.0,4.99
863.0,4.093
864.0,3.841
865.0,3.897
866.0,4.633
867.0,4.961
868.0,4.247
869.0,3.679
870.0,3.58
871.0,3.281
872.0,2.593
873.0,1.929
874.0,1.405
875.0,0.867
876.0,0.687
877.0,0.5
878.0,0.306
879.0,0.196
880.0,0.967
881.0,1.616
882.0,0.901
883.0,0.207
884.0,0.024
885.0,0.243
886.0,0.006
887.0,0.249
888.0,0.004
889.0,0.266
890.0,0.057
891.0,0.144
892.0,0.334
893.0,0.514
894.0,1.156
895.0,1.812
896.0,1.531
897.0,1.176
898.0,1.731
899.0,2.37
900.0,2.59
901.0,2.722
902.0,3.858
903.0,4.97
904.0,4.707
905.0,4.111
906.0,3.602
907.0,3.11
908.0,2.613
909.0,2.11
910.0,2.458
911.0,2.949
912.0,2.179
913.0,1.155
914.0,0.537
915.0,0.007
916.0,0.155
917.0,0.231
918.0,0.081
919.0,0.472
920.0,0.448
921.0,0.349
922.0,1.067
923.0,1.967
924.0,2.049
925.0,1.935
926.0,2.217
927.0,2.586
928.0,3.353
929.0,4.198
930.0,4.609
931.0,4.864
932.0,4.635
933.0,4.273
934.0,4.853
935.0,5.687
936.0,6.268
937.0,6.398
938.0,6.645
939.0,6.924
940.0,6.772
941.0,6.53
942.0,5.854
943.0,5.092
944.0,4.323
945.0,3.547
946.0,3.201
947.0,2.919
948.0,2.195
949.0,1.412
950.0,0.179
951.0,1.116
952.0,0.631
953.0,0.018
954.0,0.199
955.0,0.34
956.0,0.481
957.0,0.625
958.0,0.771
959.0,0.92
960.0,3.528
961.0,6.215
962.0,8.924
963.0,11.666
964.0,15.415
965.0,19.155
966.0,22.367
967.0,25.039
968.0,28.464
969.0,32.103
970.0,34.407
971.0,36.571
972.0,37.392
973.0,38.032
974.0,37.369
975.0,36.564
976.0,34.995
977.0,33.574
978.0,31.314
979.0,28.603
980.0,25.509
981.0,22.433
982.0,19.375
983.0,16.357
984.0,13.37
985.0,10.402
986.0,7.452
987.0,5.045
988.0,3.656
989.0,2.285
990.0,0.931
991.0,0.193
992.0,1.008
993.0,0.91
994.0,0.296
995.0,0.767
996.0,0.477
997.0,0.744
998.0,1.509
999.0,2.874
1000.0,4.692
1001.0,5.899
1002.0,6.725
1003.0,7.572
1004.0,8.436
1005.0,9.67
1006.0,11.07
1007.0,12.412
1008.0,13.448
1009.0,14.123
1010.0,15.062
1011.0,15.585
1012.0,16.037
1013.0,16.096
1014.0,16.089
1015.0,15.12
1016.0,14.083
1017.0,12.574
1018.0,11.259
1019.0,9.813
1020.0,8.293
1021.0,6.779
1022.0,5.344
1023.0,4.354
1024.0,3.279
1025.0,1.804
1026.0,0.59
1027.0,0.144
1028.0,0.143
1029.0,0.08
1030.0,0.023
1031.0,0.039
1032.0,0.037
1033.0,0.351
1034.0,0.041
1035.0,1.072
1036.0,1.357
1037.0,0.848
1038.0,0.943
1039.0,1.429
1040.0,1.556
1041.0,1.513
1042.0,1.47
1043.0,1.395
1044.0,1.676
1045.0,2.062
1046.0,1.097
1047.0,0.071
1048.0,0.179
1049.0,0.309
1050.0,0.047
1051.0,0.066
1052.0,0.757
1053.0,1.491
1054.0,1.775
1055.0,1.825
1056.0,1.065
1057.0,0.755
1058.0,1.53
1059.0,1.91
1060.0,1.629
1061.0,1.572
1062.0,1.784
1063.0,1.84
1064.0,1.965
1065.0,2.12
1066.0,2.248
1067.0,1.984
1068.0,1.643
1069.0,1.752
1070.0,2.171
1071.0,2.079
1072.0,1.717
1073.0,1.818
1074.0,1.972
1075.0,2.12
1076.0,2.168
1077.0,1.261
1078.0,0.532
1079.0,0.664
1080.0,0.794
1081.0,0.922
1082.0,0.864
1083.0,0.465
1084.0,0.062
1085.0,0.349
1086.0,0.227
1087.0,0.374
1088.0,0.648
1089.0,0.721
1090.0,0.791
1091.0,0.859
1092.0,0.926
1093.0,0.992
1094.0,1.515
1095.0,2.104
1096.0,1.648
1097.0,1.233
1098.0,1.296
1099.0,1.353
1100.0,1.367
1101.0,1.043
1102.0,0.412
1103.0,0.363
1104.0,0.967
1105.0,1.064
1106.0,0.633
1107.0,0.507
1108.0,0.604
1109.0,0.343
1110.0,0.076
1111.0,0.349
1112.0,0.997
1113.0,0.702
1114.0,0.309
1115.0,0.449
1116.0,0.557
1117.0,0.212
1118.0,0.004
1119.0,0.198
1120.0,0.232
1121.0,0.084
1122.0,0.071
1123.0,0.824
1124.0,0.997
1125.0,0.7
1126.0,0.751
1127.0,0.992
1128.0,1.648
1129.0,2.426
1130.0,1.808
1131.0,1.597
1132.0,2.45
1133.0,3.099
1134.0,2.818
1135.0,2.535
1136.0,2.25
1137.0,2.145
1138.0,2.385
1139.0,2.364
1140.0,2.064
1141.0,1.759
1142.0,1.449
1143.0,1.521
1144.0,1.733
1145.0,0.583
1146.0,0.796
1147.0,0.385
1148.0,1.503
1149.0,1.641
1150.0,1.9
1151.0,2.565
1152.0,2.842
1153.0,2.422
1154.0,2.254
1155.0,2.353
1156.0,2.116
1157.0,1.664
1158.0,1.603
1159.0,1.67
1160.0,1.26
1161.0,0.758
1162.0,0.216
1163.0,0.26
1164.0,0.977
1165.0,1.591
1166.0,1.609
1167.0,1.622
1168.0,1.629
1169.0,1.631
1170.0,1.628
1171.0,1.249
1172.0,0.7
1173.0,0.594
1174.0,0.575
1175.0,1.076
1176.0,1.462
1177.0,0.874
1178.0,0.298
1179.0,0.268
1180.0,0.395
1181.0,0.109
1182.0,0.317
1183.0,0.281
1184.0,0.62
1185.0,1.124
1186.0,1.63
1187.0,2.137
1188.0,2.113
1189.0,2.157
1190.0,2.67
1191.0,2.875
1192.0,2.311
1193.0,2.463
1194.0,3.529
1195.0,4.128
1196.0,4.459
1197.0,4.193
1198.0,3.656
1199.0,4.114
1200.0,4.672
1201.0,5.232
1202.0,5.452
1203.0,4.393
1204.0,3.54
1205.0,3.033
1206.0,2.531
1207.0,2.034
1208.0,2.29
1209.0,2.889
1210.0,2.568
1211.0,2.185
1212.0,1.231
1213.0,0.336
1214.0,0.121
1215.0,0.02
1216.0,1.166
1217.0,1.804
1218.0,1.905
1219.0,1.276
1220.0,0.29
1221.0,0.225
1222.0,0.335
1223.0,0.448
1224.0,0.465
1225.0,0.033
1226.0,0.206
1227.0,0.095
1228.0,0.012
1229.0,0.118
1230.0,0.207
1231.0,0.409
1232.0,0.99
1233.0,1.619
1234.0,1.722
1235.0,1.705
1236.0,1.265
1237.0,0.818
1238.0,0.37
1239.0,0.552
1240.0,1.2
1241.0,1.018
1242.0,0.466
1243.0,0.982
1244.0,1.417
1245.0,0.407
1246.0,0.112
1247.0,0.519
1248.0,0.882
1249.0,0.958
1250.0,0.667
1251.0,0.228
1252.0,0.715
1253.0,1.313
1254.0,0.844
1255.0,0.495
1256.0,0.566
1257.0,0.631
1258.0,0.693
1259.0,0.756
1260.0,0.815
1261.0,0.868
1262.0,0.819
1263.0,0.865
1264.0,0.807
1265.0,0.292
1266.0,0.018
1267.0,0.008
1268.0,0.046
1269.0,0.099
1270.0,0.166
1271.0,0.174
1272.0,0.178
1273.0,0.177
1274.0,0.295
1275.0,0.286
1276.0,0.272
1277.0,0.255
1278.0,0.236
1279.0,0.641
1280.0,1.173
1281.0,0.62
1282.0,0.087
1283.0,0.024
1284.0,0.037
1285.0,0.097
1286.0,0.494
1287.0,1.551
1288.0,0.844
1289.0,0.327
1290.0,0.17
1291.0,0.553
1292.0,0.497
1293.0,0.441
1294.0,0.387
1295.0,0.335
1296.0,0.285
1297.0,0.238
1298.0,0.256
1299.0,1.324
1300.0,1.921
1301.0,1.279
1302.0,0.97
1303.0,0.954
1304.0,0.945
1305.0,0.818
1306.0,0.821
1307.0,0.909
1308.0,1.488
1309.0,2.074
1310.0,2.667
1311.0,3.593
1312.0,4.795
1313.0,5.073
1314.0,5.142
1315.0,5.226
1316.0,5.184
1317.0,4.727
1318.0,4.275
1319.0,3.829
1320.0,2.993
1321.0,1.997
1322.0,3.098
1323.0,3.927
1324.0,2.377
1325.0,1.047
1326.0,0.067
1327.0,0.216
1328.0,0.015
1329.0,0.88
1330.0,1.706
1331.0,0.889
1332.0,0.274
1333.0,0.42
1334.0,0.873
1335.0,1.579
1336.0,1.393
1337.0,0.968
1338.0,1.093
1339.0,1.214
1340.0,1.329
1341.0,1.157
1342.0,0.693
1343.0,0.19
1344.0,0.292
1345.0,0.241
1346.0,0.075
1347.0,0.518
1348.0,1.103
1349.0,1.688
1350.0,2.267
1351.0,2.84
1352.0,3.408
1353.0,3.745
1354.0,3.162
1355.0,3.335
1356.0,4.455
1357.0,4.78
1358.0,4.749
1359.0,4.667
1360.0,4.589
1361.0,5.451
1362.0,6.137
1363.0,6.655
1364.0,6.93
1365.0,6.89
1366.0,6.305
1367.0,5.832
1368.0,5.794
1369.0,5.492
1370.0,4.883
1371.0,4.318
1372.0,3.712
1373.0,3.108
1374.0,2.642
1375.0,2.62
1376.0,2.041
1377.0,0.896
1378.0,0.193
1379.0,0.345
1380.0,0.242
1381.0,0.511
1382.0,0.045
1383.0,0.029
1384.0,0.632
1385.0,0.305
1386.0,0.104
1387.0,1.087
1388.0,1.887
1389.0,1.934
1390.0,1.986
1391.0,2.043
1392.0,2.701
1393.0,3.083
1394.0,1.996
1395.0,1.26
1396.0,1.34
1397.0,1.021
1398.0,0.51
1399.0,0.586
1400.0,0.685
1401.0,0.79
1402.0,0.856
1403.0,0.971
1404.0,1.091
1405.0,1.131
1406.0,0.099
1407.0,0.312
1408.0,0.408
1409.0,0.765
1410.0,0.914
1411.0,0.541
1412.0,0.236
1413.0,0.406
1414.0,0.582
1415.0,0.762
1416.0,1.392
1417.0,2.136
1418.0,2.331
1419.0,1.946
1420.0,0.396
1421.0,0.66
1422.0,2.1
1423.0,1.332
1424.0,0.611
1425.0,0.829
1426.0,0.764
1427.0,0.415
1428.0,1.027
1429.0,1.76
1430.0,1.402
1431.0,1.043
1432.0,0.684
1433.0,1.098
1434.0,1.911
1435.0,1.041
1436.0,0.239
1437.0,0.122
1438.0,0.081
1439.0,0.132
1440.0,0.344
1441.0,0.468
1442.0,0.086
1443.0,0.036
1444.0,0.18
1445.0,0.861
1446.0,1.607
1447.0,1.792
1448.0,1.763
1449.0,1.351
1450.0,1.326
1451.0,1.496
1452.0,0.52
1453.0,0.078
1454.0,0.612
1455.0,1.041
1456.0,1.187
1457.0,1.329
1458.0,1.216
1459.0,0.106
1460.0,0.043
1461.0,0.674
1462.0,0.899
1463.0,1.103
1464.0,1.816
1465.0,1.99
1466.0,1.511
1467.0,1.485
1468.0,1.49
1469.0,0.32
1470.0,0.048
1471.0,0.656
1472.0,0.935
1473.0,1.043
1474.0,1.141
1475.0,1.22
1476.0,1.271
1477.0,2.18
1478.0,3.579
1479.0,2.491
1480.0,1.585
1481.0,1.08
1482.0,0.947
1483.0,1.012
1484.0,1.067
1485.0,0.927
1486.0,0.393
1487.0,0.268
1488.0,0.364
1489.0,1.039
1490.0,1.726
1491.0,2.411
1492.0,1.607
1493.0,0.094
1494.0,0.449
1495.0,1.122
1496.0,1.815
1497.0,1.232
1498.0,0.46
1499.0,0.193
1500.0,0.0
