Wavenumber (cm⁻¹),Intensity
200.0,24934.558139534885
201.00097751710655,25260.45779626725
202.0019550342131,25648.642977671858
203.00293255131965,26049.830193343787
204.0039100684262,26348.08657562118
205.00488758553274,26526.941655868515
206.0058651026393,26669.026034657425
207.00684261974584,26781.36004100457
208.0078201368524,26774.812949686286
209.00879765395894,26273.974417488673
210.00977517106548,25717.65082022572
211.01075268817203,25410.44172043011
212.01173020527858,25016.570013329783
213.01270772238513,24440.087427308732
214.01368523949168,23825.656452857016
215.01466275659823,23484.232121567584
216.01564027370478,23064.038600542688
217.01661779081132,22801.63439650769
218.01759530791787,22725.446087156964
219.01857282502445,22675.1786572586
220.019550342131,22566.789941327614
221.02052785923755,22441.48649595359
222.0215053763441,22322.652311475536
223.02248289345064,22248.04569910272
224.0234604105572,22224.994948664335
225.02443792766374,22225.322960118297
226.0254154447703,22202.722593745173
227.02639296187684,22277.00229987261
228.02737047898339,22314.43513679188
229.02834799608993,22310.205609181252
230.02932551319648,22348.143532570128
231.03030303030303,22331.255332316603
232.03128054740958,22358.19878223598
233.03225806451613,22475.857791581373
234.03323558162268,22546.67822860496
235.03421309872923,22513.475877572935
236.03519061583577,22468.176973376027
237.03616813294232,22528.045796426894
238.03714565004887,22658.232120028548
239.03812316715542,22758.00854078815
240.03910068426197,22865.340225149776
241.04007820136852,23146.68718810894
242.04105571847506,23431.92541762099
243.0420332355816,23777.56255930972
244.0430107526882,24205.09159406641
245.04398826979474,24713.61739837747
246.0449657869013,25285.228644035975
247.04594330400784,25754.55348516957
248.04692082111438,25970.092439583022
249.04789833822093,25986.908383298094
250.04887585532748,26178.99332315801
251.04985337243403,26305.91677680692
252.05083088954058,25821.879438366792
253.05180840664713,25743.693730599716
254.05278592375367,25513.872922776143
255.05376344086022,25070.546815066333
256.05474095796677,24637.375257955893
257.0557184750733,24460.897459312993
258.05669599217987,24309.89741218971
259.0576735092864,24086.187106213278
260.05865102639297,24062.02305495906
261.0596285434995,24082.369023791493
262.06060606060606,24208.5151736827
263.0615835777126,24527.773547829333
264.06256109481916,24549.37170606411
265.0635386119257,24597.697951507707
266.06451612903226,24740.347470835495
267.0654936461388,25110.401384553516
268.06647116324535,25104.241967686117
269.0674486803519,25162.565540160496
270.06842619745845,25323.514760508315
271.069403714565,25123.319257087005
272.07038123167155,25234.835624702122
273.0713587487781,25434.171652720037
274.07233626588464,25604.326926439684
275.0733137829912,25669.639975576403
276.07429130009774,25803.88540778218
277.0752688172043,26152.51644412933
278.07624633431084,26929.832318219393
279.0772238514174,27647.599401449927
280.07820136852393,28394.231554022856
281.0791788856305,29431.90590017269
282.08015640273703,31499.956295016447
283.0811339198436,33717.731521056696
284.08211143695013,35722.326971941715
285.0830889540567,37412.513787437696
286.0840664711632,38702.84210552736
287.0850439882698,39786.83563297279
288.0860215053764,40573.42530313431
289.0869990224829,40971.246378058844
290.0879765395895,40360.231488673184
291.088954056696,39418.86117103963
292.0899315738026,38217.06632618638
293.0909090909091,36795.707649178956
294.09188660801567,34805.45345166883
295.0928641251222,33706.22855082549
296.09384164222877,32679.474569483307
297.0948191593353,29763.264005695703
298.09579667644186,28593.180975692783
299.0967741935484,27726.92090730249
300.09775171065496,26954.113254801567
301.0987292277615,26476.79186714385
302.09970674486806,26065.556537864402
303.1006842619746,25700.52718840654
304.10166177908116,25393.847761054567
305.1026392961877,25350.423001121268
306.10361681329425,25290.709181473176
307.1045943304008,25227.590612383177
308.10557184750735,25170.139364160725
309.1065493646139,25119.736989813697
310.10752688172045,25158.22842280456
311.108504398827,25168.14338212287
312.10948191593354,24976.639221381363
313.1104594330401,24919.824514460277
314.11143695014664,24874.556219470585
315.1124144672532,24889.080722485123
316.11339198435974,25128.460923412003
317.1143695014663,25302.71403521653
318.11534701857283,25542.692519647517
319.1163245356794,25845.193181312865
320.11730205278593,26046.924794561604
321.1182795698925,26634.041528989477
322.119257086999,27263.706155334534
323.1202346041056,27815.55095875196
324.1212121212121,28503.03146423706
325.1221896383187,29034.727052299688
326.1231671554252,29303.775521414544
327.12414467253177,29214.936217909242
328.1251221896383,29512.942788956432
329.12609970674487,29243.765434822104
330.1270772238514,28730.607449026378
331.12805474095796,28374.064572357893
332.1290322580645,27827.083737748595
333.13000977517106,27345.49436557986
334.1309872922776,26888.05734021563
335.13196480938416,26324.407269697334
336.1329423264907,26190.001261754554
337.13391984359725,26049.84566988779
338.1348973607038,25908.02099317181
339.13587487781035,26063.15404010345
340.1368523949169,26028.255089401337
341.13782991202345,25878.45033072422
342.13880742913,25678.837979788354
343.13978494623655,25760.897436508316
344.1407624633431,25754.20782995534
345.14173998044964,25773.74990939557
346.1427174975562,25867.28078727335
347.14369501466274,25812.53404945673
348.1446725317693,25718.541847919147
349.14565004887584,25647.792134669224
350.1466275659824,25652.967055363275
351.14760508308893,25638.2869070549
352.1485826001955,25672.480676878215
353.14956011730203,25741.8781169203
354.1505376344086,25830.722275243366
355.1515151515151,25755.278819234474
356.1524926686217,25724.79616816186
357.1534701857282,25738.055330938703
358.1544477028348,25767.670050379726
359.1554252199413,25734.831689787734
360.15640273704787,25716.0
361.1573802541544,25708.336602086914
362.15835777126097,25667.616362855508
363.1593352883675,25737.325122479055
364.16031280547406,25793.042829731003
365.1612903225806,25806.834865452114
366.16226783968716,25791.275629434913
367.1632453567937,25878.14650736758
368.16422287390026,25868.7896861084
369.1652003910068,25744.2258889975
370.16617790811335,26028.948382752245
371.1671554252199,26008.291539046386
372.16813294232645,25953.089378686065
373.169110459433,26000.123601929532
374.17008797653955,25917.75999600008
375.1710654936461,25941.22673400673
376.1720430107527,26143.03185124916
377.17302052785925,26587.494909882185
378.1739980449658,26212.777603626582
379.17497556207235,26227.774325527706
380.1759530791789,26305.475177659562
381.17693059628544,26068.03054795304
382.177908113392,26214.008205197377
383.17888563049854,26348.241967051796
384.1798631476051,26428.394534026007
385.18084066471164,26407.60271616326
386.1818181818182,26401.88499696295
387.18279569892474,26402.573700217927
388.1837732160313,26423.056753624325
389.18475073313783,26496.72111909816
390.1857282502444,26470.154252258922
391.18670576735093,26597.420124651584
392.1876832844575,26833.902457290773
393.188660801564,26935.7093762541
394.1896383186706,27131.112868366356
395.1906158357771,27266.051461264615
396.1915933528837,27327.70122571197
397.1925708699902,27400.63490353832
398.19354838709677,27701.903369601692
399.1945259042033,27802.980469280887
400.19550342130987,27660.713402886035
401.1964809384164,27775.323468041734
402.19745845552296,27766.128929055514
403.1984359726295,27659.230755131968
404.19941348973606,27529.072716371043
405.2003910068426,27926.486838404417
406.20136852394916,27797.501848845608
407.2023460410557,27577.126872119818
408.20332355816225,27487.490725224594
409.20430107526886,27624.529313876094
410.2052785923754,27664.16613132502
411.20625610948196,27752.56796507704
412.2072336265885,27965.987377437334
413.20821114369505,27918.286289503736
414.2091886608016,27671.14062344191
415.21016617790815,27576.562307610515
416.2111436950147,27898.446643069412
417.21212121212125,27757.579367765513
418.2130987292278,27624.20925567389
419.21407624633434,27558.034351495342
420.2150537634409,27617.705142380975
421.21603128054744,27604.640415015012
422.217008797654,27606.34509267474
423.21798631476054,27617.316199646753
424.2189638318671,27631.076094911736
425.21994134897363,27461.721502717144
426.2209188660802,27554.24401626134
427.22189638318673,27688.85640849572
428.2228739002933,27555.989892429374
429.2238514173998,27715.367284740318
430.2248289345064,27720.41710654936
431.2258064516129,27618.25363505055
432.2267839687195,27510.68590186895
433.227761485826,27519.4125020061
434.22873900293257,27751.12590930976
435.2297165200391,27955.84372273529
436.23069403714567,27674.972419427788
437.2316715542522,27852.83177799338
438.23264907135876,27880.99838078197
439.2336265884653,27820.15546318177
440.23460410557186,27897.901289753154
441.2355816226784,27920.62388149485
442.23655913978496,27931.41739395985
443.2375366568915,27943.0063228347
444.23851417399806,27972.90856382369
445.2394916911046,28167.1697548317
446.24046920821115,28220.78696263956
447.2414467253177,28187.22768471747
448.24242424242425,28286.801364429637
449.2434017595308,28523.75231557584
450.24437927663735,28541.49831657955
451.2453567937439,28413.66447840287
452.24633431085044,28458.584935415874
453.247311827957,28571.981405972285
454.24828934506354,28790.838996279293
455.2492668621701,28959.097340509597
456.25024437927664,28627.935617035728
457.2512218963832,28797.357539320183
458.25219941348973,28888.416788856306
459.2531769305963,28859.528270438594
460.25415444770283,28867.020617123526
461.2551319648094,28964.391864365112
462.2561094819159,29128.23270032694
463.2570869990225,29353.840754775007
464.258064516129,29641.76237767306
465.2590420332356,29561.660187229307
466.2600195503421,29699.20736615887
467.26099706744867,30122.73734540355
468.2619745845552,30732.028007990146
469.26295210166177,30950.18194265965
470.2639296187683,31355.40459095963
471.26490713587486,32124.89634947917
472.2658846529814,33484.54497091625
473.26686217008796,34332.10481945998
474.2678396871945,35557.84324186878
475.26881720430106,36910.07785817421
476.2697947214076,37214.95173060126
477.27077223851416,37754.87829142035
478.2717497556207,37995.87716723903
479.27272727272725,37844.404964877605
480.2737047898338,37280.46339297435
481.27468230694035,36256.223976909474
482.2756598240469,35191.55452719487
483.27663734115345,34197.292001679125
484.27761485826,33387.191578675476
485.27859237536654,32632.38029968871
486.2795698924731,32091.24446220416
487.28054740957964,31785.902415612094
488.2815249266862,31722.7777073261
489.2825024437928,31549.517200555518
490.28347996089934,31500.099306983702
491.2844574780059,31590.158836682676
492.28543499511244,31788.833696573114
493.286412512219,32023.562982235653
494.28739002932554,32465.219348669572
495.2883675464321,33067.522437324995
496.28934506353863,33701.97660794216
497.2903225806452,34502.65238903714
498.29130009775173,35841.63334944147
499.2922776148583,37766.24018697778
500.2932551319648,40313.08824554053
501.2942326490714,43375.88699490361
502.2952101661779,46412.17487626587
503.2961876832845,49245.84299265877
504.297165200391,51659.034839768894
505.29814271749757,52409.62003049502
506.2991202346041,52856.29081906225
507.30009775171067,52571.7137634114
508.3010752688172,50835.83181921228
509.30205278592376,48341.89117761367
510.3030303030303,45413.14533132527
511.30400782013686,42454.05938048374
512.3049853372434,39934.27938071938
513.3059628543499,38054.48765728119
514.3069403714564,36428.83462060625
515.307917888563,35166.24576857375
516.3088954056695,34374.70670582629
517.3098729227761,33554.01074605845
518.3108504398826,33168.258095454876
519.3118279569892,32908.326035128695
520.3128054740957,32503.492266417998
521.3137829912023,31847.23722505952
522.3147605083088,31851.955978556536
523.3157380254154,31913.450479838542
524.3167155425219,31627.932329995037
525.3176930596285,31401.295911027504
526.318670576735,31266.203221825614
527.3196480938416,31180.957361810437
528.3206256109481,31150.33225622012
529.3216031280547,31446.4705103377
530.3225806451612,31286.78697504566
531.3235581622678,31113.687627173204
532.3245356793743,31086.770356517092
533.3255131964809,30911.504859182216
534.3264907135874,30820.531227389383
535.327468230694,30866.26331534819
536.3284457478005,31018.65460570031
537.3294232649071,31036.799213261154
538.3304007820136,31045.608168585128
539.3313782991202,31089.63074679203
540.3323558162267,31142.650400309507
541.3333333333333,31068.55991943606
542.3343108504398,30963.280888764766
543.3352883675464,31009.76512600505
544.3362658846529,31093.122565720125
545.3372434017595,30814.694957031374
546.338220918866,31041.36136781409
547.3391984359725,31137.984942391562
548.3401759530791,31057.837684837254
549.3411534701856,30874.602768695207
550.3421309872922,31106.66675687625
551.3431085043987,31261.274989399742
552.3440860215054,31308.788834122297
553.345063538612,31263.358689624267
554.3460410557185,31256.11935772464
555.347018572825,31214.574196952308
556.3479960899316,31151.933594004564
557.3489736070381,31089.788771946973
558.3499511241447,31406.525033983708
559.3509286412512,31471.453351698805
560.3519061583578,31447.098720341244
561.3528836754643,31449.522207411355
562.3538611925709,31258.42649960011
563.3548387096774,31490.454838709677
564.355816226784,31606.29907725052
565.3567937438905,31386.483675316107
566.3577712609971,31511.70072635672
567.3587487781036,31633.357130946533
568.3597262952102,31679.32638844114
569.3607038123167,31681.481311933185
570.3616813294233,31930.39763157758
571.3626588465298,32010.139508304444
572.3636363636364,32103.51257839962
573.3646138807429,32200.34820079002
574.3655913978495,32119.844697896784
575.366568914956,32367.500076820827
576.3675464320626,32426.00180966748
577.3685239491691,32359.591149944587
578.3695014662757,32472.07761352224
579.3704789833822,32446.113056750877
580.3714565004888,32575.93170740396
581.3724340175953,32824.85107942846
582.3734115347019,33107.0415496766
583.3743890518084,32332.456970320418
584.375366568915,32339.814955120382
585.3763440860215,32522.134175913
586.377321603128,32284.641598849565
587.3782991202346,31916.50093146388
588.3792766373411,32203.97445818419
589.3802541544477,32506.62748278946
590.3812316715542,32474.380874859227
591.3822091886608,32542.888841809487
592.3831867057673,32226.939785689592
593.3841642228739,32057.074098770114
594.3851417399804,32172.685411207625
595.386119257087,32249.566574118468
596.3870967741935,32421.5241015577
597.3880742913001,32590.321583786004
598.3890518084066,32667.816666443494
599.3900293255132,32478.133712288596
600.3910068426197,32387.08164499614
601.3919843597263,32405.372299367216
602.3929618768328,32452.725037019834
603.3939393939394,32393.261026102613
604.3949169110459,32423.243793063943
605.3958944281525,32512.710148682363
606.396871945259,32594.611881374243
607.3978494623656,32607.994183475425
608.3988269794721,32834.30048656231
609.3998044965787,32758.981131386638
610.4007820136852,32746.023110232938
611.4017595307918,32962.18338280523
612.4027370478983,32769.92245726343
613.4037145650049,32913.53676045466
614.4046920821114,32962.78146234175
615.405669599218,32838.02154262928
616.4066471163245,32906.68615889421
617.4076246334312,32987.72317699771
618.4086021505377,33118.36833083176
619.4095796676443,33253.34173431368
620.4105571847508,33267.84865485146
621.4115347018574,33321.71937653646
622.4125122189639,33239.43607858938
623.4134897360705,33280.94301224512
624.414467253177,33813.52417974377
625.4154447702836,33612.038100781254
626.4164222873901,33739.5461082134
627.4173998044967,33836.559430055284
628.4183773216032,33688.27365326301
629.4193548387098,34375.72880061122
630.4203323558163,34209.00755150617
631.4213098729228,34048.64291875109
632.4222873900294,34291.07342131739
633.423264907136,34927.294425314845
634.4242424242425,34654.15651932161
635.425219941349,34372.67443079603
636.4261974584556,34236.993980198546
637.4271749755621,34078.58240065646
638.4281524926687,34067.4949799609
639.4291300097752,34110.14665695278
640.4301075268818,34241.334040314374
641.4310850439883,34518.362986180255
642.4320625610949,34641.05198715691
643.4330400782014,34964.73811965199
644.434017595308,35191.401853767326
645.4349951124145,35095.375702380035
646.4359726295211,34775.246703029974
647.4369501466276,34892.77268352007
648.4379276637342,34856.2528446047
649.4389051808407,34557.421001498464
650.4398826979473,34591.144593192716
651.4408602150538,34336.18633601737
652.4418377321604,34203.38032301477
653.4428152492669,34279.81454419711
654.4437927663735,34571.06374519291
655.44477028348,34392.944079279994
656.4457478005866,34383.537676323576
657.4467253176931,34291.65841057966
658.4477028347997,33836.00189356459
659.4486803519062,34206.7627377076
660.4496578690128,34599.0631476051
661.4506353861193,34553.53242823045
662.4516129032259,34007.558917315546
663.4525904203324,34244.57198458446
664.453567937439,34269.19092168469
665.4545454545455,34382.69046291132
666.455522971652,34483.09219944349
667.4565004887586,34052.89464796255
668.4574780058651,34391.73665734129
669.4584555229717,34416.07310372558
670.4594330400782,34365.53069651284
671.4604105571848,34719.6021452862
672.4613880742913,34602.83423845565
673.4623655913979,34430.97937003452
674.4633431085044,34499.73284299936
675.464320625611,34898.38691808827
676.4652981427175,34710.799733622836
677.4662756598241,34652.74186115654
678.4672531769306,34682.86048833812
679.4682306940372,34765.79553663135
680.4692082111437,34835.81010546816
681.4701857282503,34831.2725365743
682.4711632453568,34702.069118949774
683.4721407624634,34661.518087823286
684.4731182795699,35016.976668071715
685.4740957966765,35287.27872761985
686.475073313783,35128.43319648094
687.4760508308896,34899.22243736114
688.4770283479961,34851.82821565531
689.4780058651027,34870.30780058651
690.4789833822092,35095.810782765635
691.4799608993158,35146.7360282728
692.4809384164223,35051.74346158448
693.4819159335289,35267.5045892133
694.4828934506354,35274.69730309798
695.483870967742,35398.828974148855
696.4848484848485,35462.12016236266
697.485826001955,35192.96694125942
698.4868035190616,35467.29180353035
699.4877810361681,35450.31594738578
700.4887585532747,35398.949744784506
701.4897360703812,35457.555094912546
702.4907135874878,35470.66496994399
703.4916911045943,35393.7731987101
704.4926686217009,35267.813261096475
705.4936461388074,35202.533962501635
706.494623655914,35432.51954468957
707.4956011730205,35712.68815999349
708.4965786901271,35803.23897768442
709.4975562072336,35618.54032126172
710.4985337243402,35177.48208249586
711.4995112414467,36087.39148316556
712.5004887585533,35750.99188494866
713.5014662756598,35636.13754954472
714.5024437927664,36142.376555278
715.5034213098729,35860.465448994124
716.5043988269795,35990.077549690446
717.505376344086,35869.70987654322
718.5063538611926,35628.49077623917
719.5073313782991,35699.602692512366
720.5083088954057,36366.563672115415
721.5092864125122,36328.27332359592
722.5102639296188,36116.20754084625
723.5112414467253,36150.49655755462
724.5122189638319,36237.06758606114
725.5131964809384,36168.12896880254
726.514173998045,36193.91372788792
727.5151515151515,36355.821085663425
728.516129032258,36552.30353492546
729.5171065493646,36577.62088191079
730.5180840664711,36582.407525129136
731.5190615835777,36626.395329690895
732.5200391006842,36743.58218471296
733.5210166177908,36651.529383680754
734.5219941348973,36561.76154252653
735.5229716520039,36510.770498941965
736.5239491691104,36501.409414102105
737.524926686217,36480.5073313783
738.5259042033235,36585.37758604722
739.5268817204301,36650.32035459754
740.5278592375366,36758.83323497634
741.5288367546432,37059.766942368886
742.5298142717497,36732.82227346874
743.5307917888563,36743.191387559804
744.5317693059628,36866.565162380655
