Wavenumber (cm⁻¹),Intensity
200.0,-7.504999999999994
201.00097751710655,-4.917473118279565
202.0019550342131,-2.32994623655914
203.00293255131965,0.25758064516128876
204.0039100684262,2.8451075268817156
205.00488758553274,5.4326344086021425
206.0058651026393,8.02016129032257
207.00684261974584,10.607688172042996
208.0078201368524,13.195215053763423
209.00879765395894,15.78274193548385
210.00977517106548,18.318861192570893
211.01075268817203,15.64615053763443
212.01173020527858,13.417337243401708
213.01270772238513,18.363322580645058
214.01368523949168,27.432126099706647
215.01466275659823,35.36097360703806
216.01564027370478,39.72923949169104
217.01661779081132,44.14288563049848
218.01759530791787,47.50730791788851
219.01857282502445,50.77989833822097
220.019550342131,54.7238279569893
221.02052785923755,59.41055718475077
222.0215053763441,63.263311827956976
223.02248289345064,61.46372238514173
224.0234604105572,59.645923753665656
225.02443792766374,54.92331085043985
226.0254154447703,49.16614760508306
227.02639296187684,43.63197947214074
228.02737047898339,38.58866764418376
229.02834799608993,33.69966373411534
230.02932551319648,32.13548387096774
231.03030303030303,30.618060606060602
232.03128054740958,29.17461974584555
233.03225806451613,28.006
234.03323558162268,27.768993157380248
235.03421309872923,30.58488465298142
236.03519061583577,33.74948680351906
237.03616813294232,34.71207135874877
238.03714565004887,35.1539990224829
239.03812316715542,34.805067448680354
240.03910068426197,34.4659550342131
241.04007820136852,33.46306744868036
242.04105571847506,31.750932551319664
243.0420332355816,29.61473998044969
244.0430107526882,26.031924731182723
245.04398826979474,21.869495601172968
246.0449657869013,18.89987683284455
247.04594330400784,17.378296187683258
248.04692082111438,15.749862170087953
249.04789833822093,14.10439882697945
250.04887585532748,12.446789833822068
251.04985337243403,10.4913020527859
252.05083088954058,8.437319648093823
253.05180840664713,6.547293255131948
254.05278592375367,4.912173020527845
255.05376344086022,3.4160752688172082
256.05474095796677,3.9014398826979506
257.0557184750733,4.322730205278588
258.05669599217987,3.6560009775171003
259.0576735092864,2.4526911045943263
260.05865102639297,1.5280615835777114
261.0596285434995,1.1713088954056687
262.06060606060606,0.836333333333333
263.0615835777126,0.8007184750733151
264.06256109481916,2.3415982404692084
265.0635386119257,2.882883675464321
266.06451612903226,2.770387096774194
267.0654936461388,2.6518787878787884
268.06647116324535,2.5274252199413496
269.0674486803519,2.398029325513197
270.06842619745845,2.264694037145651
271.069403714565,2.176657869012704
272.07038123167155,2.7749530791788772
273.0713587487781,3.8823069403714507
274.07233626588464,4.478025415444779
275.0733137829912,3.4820527859237638
276.07429130009774,2.5130478983382276
277.0752688172043,1.885322580645168
278.07624633431084,1.3343137829912066
279.0772238514174,1.0004975562072354
280.07820136852393,0.8486461388074339
281.0791788856305,0.5646041055718425
282.08015640273703,0.9869403714564778
283.0811339198436,2.3971554252199176
284.08211143695013,3.8051202346040807
285.0830889540567,5.225856304985307
286.0840664711632,6.858943304007784
287.0850439882698,8.726131964809344
288.0860215053764,10.769408602150634
289.0869990224829,13.49533235581632
290.0879765395895,16.41051319648111
291.088954056696,21.53336950146646
292.0899315738026,27.367191593353123
293.0909090909091,34.996818181818476
294.09188660801567,44.62768035190647
295.0928641251222,55.56337145650097
296.09384164222877,71.9510938416427
297.0948191593353,88.94160997067512
298.09579667644186,111.88735972629586
299.0967741935484,136.18358064516184
300.09775171065496,157.9203196480943
301.0987292277615,176.579868035191
302.09970674486806,190.20841935483855
303.1006842619746,182.9739521016616
304.10166177908116,174.3691427174971
305.1026392961877,153.28862463343057
306.10361681329425,129.0159345063534
307.1045943304008,106.52518084066433
308.10557184750735,86.04714369501431
309.1065493646139,67.38865004887566
310.10752688172045,55.81166666666648
311.108504398827,44.90292961876825
312.10948191593354,39.64401270772233
313.1104594330401,35.92925415444766
314.11143695014664,33.25551612903224
315.1124144672532,31.462916911045927
316.11339198435974,30.15912023460411
317.1143695014663,30.504914956011735
318.11534701857283,31.015741935483888
319.1163245356794,32.803442815249284
320.11730205278593,34.94636363636366
321.1182795698925,37.723354838709696
322.119257086999,41.059861192570885
323.1202346041056,44.178181818181834
324.1212121212121,46.65975757575758
325.1221896383187,48.68881622678396
326.1231671554252,47.425017595307914
327.12414467253177,45.486796676441834
328.1251221896383,42.86748875855327
329.12609970674487,39.71348680351906
330.1270772238514,36.67153763440861
331.12805474095796,33.917696969696976
332.1290322580645,31.600129032258064
333.13000977517106,32.338790811339194
334.1309872922776,33.50940078201368
335.13196480938416,35.149859237536646
336.1329423264907,37.01603323558161
337.13391984359725,38.037282502443794
338.1348973607038,37.38042815249268
339.13587487781035,36.54851710654938
340.1368523949169,34.64030596285437
341.13782991202345,32.62150439882701
342.13880742913,30.335142717497586
343.13978494623655,27.858086021505414
344.1407624633431,25.04497947214081
345.14173998044964,21.710856304985388
346.1427174975562,18.811474095796683
347.14369501466274,18.483000000000004
348.1446725317693,18.22731280547409
349.14565004887584,18.515553274682297
350.1466275659824,19.02016715542521
351.14760508308893,19.519064516129024
352.1485826001955,20.008753665689138
353.14956011730203,20.405524926686216
354.1505376344086,20.46243010752688
355.1515151515151,20.46621212121213
356.1524926686217,20.16091788856306
357.1534701857282,19.79676637341154
358.1544477028348,19.633706744868032
359.1554252199413,19.644985337243405
360.15640273704787,19.527964809384176
361.1573802541544,19.09017888563051
362.15835777126097,18.51780351906162
363.1593352883675,17.278924731182837
364.16031280547406,15.947906158357814
365.1612903225806,14.622322580645205
366.16226783968716,13.324422287390068
367.1632453567937,12.30603030303032
368.16422287390026,11.80806744868037
369.1652003910068,11.231537634408635
370.16617790811335,10.277344086021545
371.1671554252199,9.358862170087988
372.16813294232645,9.142830889540564
373.169110459433,9.256631476050826
374.17008797653955,9.38045161290322
375.1710654936461,9.508475073313779
376.1720430107527,9.549139784946233
377.17302052785925,9.266592375366566
378.1739980449658,8.875223851417388
379.17497556207235,7.8875786901270635
380.1759530791789,6.623222873900275
381.17693059628544,4.853175953079158
382.177908113392,2.7959599217986186
383.17888563049854,1.7442844574780139
384.1798631476051,2.7723743890518158
385.18084066471164,3.629447702834799
386.1818181818182,3.52590909090909
387.18279569892474,3.246849462365588
388.1837732160313,2.477183773216028
389.18475073313783,1.548038123167154
390.1857282502444,1.2012482893450642
391.18670576735093,1.5932424242424246
392.1876832844575,1.9994516129032258
393.188660801564,2.4208787878787876
394.1896383186706,2.8579579667644177
395.1906158357771,3.309064516129031
396.1915933528837,3.7741984359726275
397.1925708699902,4.252589442815247
398.19354838709677,4.723774193548384
399.1945259042033,5.063477028347996
400.19550342130987,5.125662756598239
401.1964809384164,5.370299120234597
402.19745845552296,6.324420332355807
403.1984359726295,7.444392961876818
404.19941348973606,9.044721407624614
405.2003910068426,10.881310850439862
406.20136852394916,12.700886608015617
407.2023460410557,14.557299120234577
408.20332355816225,16.9058739002932
409.20430107526886,20.584096774193696
410.2052785923754,24.325486803519237
411.20625610948196,28.632758553274858
412.2072336265885,33.07980840664729
413.20821114369505,37.39003225806467
414.2091886608016,41.45349266862184
415.21016617790815,44.746874877810434
416.2111436950147,46.691961876832906
417.21212121212125,47.95178787878784
418.2130987292278,46.80723264907132
419.21407624633434,45.65383284457475
420.2150537634409,44.761645161290296
421.21603128054744,43.84365786901267
422.217008797654,42.51170674486798
423.21798631476054,40.892198435972595
424.2189638318671,40.342536656891546
425.21994134897363,42.121956011730255
426.2209188660802,44.23933431085053
427.22189638318673,47.61096285435004
428.2228739002933,51.380225806451726
429.2238514173998,56.1452785923755
430.2248289345064,61.57471554252213
431.2258064516129,67.74138709677435
432.2267839687195,74.79166275659838
433.227761485826,81.71982013685253
434.22873900293257,88.33304985337256
435.2297165200391,94.28093743890526
436.23069403714567,97.84992277614865
437.2316715542522,99.38809090909085
438.23264907135876,94.5863333333332
439.2336265884653,85.71096578690114
440.23460410557186,76.83165395894416
441.2355816226784,67.95734310850428
442.23655913978496,59.419741935483785
443.2375366568915,51.86112316715534
444.23851417399806,44.87250537634404
445.2394916911046,39.87562756598236
446.24046920821115,35.68488269794718
447.2414467253177,32.62098631476049
448.24242424242425,30.42457575757574
449.2434017595308,28.5592697947214
450.24437927663735,27.19068914956011
451.2453567937439,25.711922776148576
452.24633431085044,23.895903225806446
453.247311827957,22.243096774193546
454.24828934506354,21.145339198435973
455.2492668621701,20.21518181818182
456.25024437927664,19.28427272727273
457.2512218963832,18.37974193548387
458.25219941348973,17.6391788856305
459.2531769305963,17.151196480938417
460.25415444770283,16.885374389051808
461.2551319648094,17.278797653958943
462.2561094819159,17.425407624633436
463.2570869990225,16.747366568914963
464.258064516129,15.923225806451617
465.2590420332356,15.540825024437929
466.2600195503421,15.43735483870968
467.26099706744867,14.9969237536657
468.2619745845552,14.056743890518094
469.26295210166177,13.349326490713588
470.2639296187683,13.297539589442815
471.26490713587486,13.246754643206257
472.2658846529814,13.196439882697948
473.26686217008796,13.144055718475075
474.2678396871945,13.08639393939394
475.26881720430106,13.055516129032258
476.2697947214076,13.19752199413489
477.27077223851416,13.571665689149553
478.2717497556207,13.690690127077234
479.27272727272725,13.170181818181828
480.2737047898338,12.841814271749751
481.27468230694035,13.078104594330393
482.2756598240469,13.458302052785914
483.27663734115345,13.841505376344076
484.27761485826,14.189126099706739
485.27859237536654,14.352284457478007
486.2795698924731,14.299494623655914
487.28054740957964,14.381608015640262
488.2815249266862,14.760853372434006
489.2825024437928,14.819970674486784
490.28347996089934,14.006189638318645
491.2844574780059,13.02779178885628
492.28543499511244,12.057555229716497
493.286412512219,11.277493646138801
494.28739002932554,11.289671554252218
495.2883675464321,12.0326999022483
496.28934506353863,12.001130009775142
497.2903225806452,10.579161290322553
498.29130009775173,9.273165200390988
499.2922776148583,8.266906158357754
500.2932551319648,7.20656598240467
501.2942326490714,5.89177810361679
502.2952101661779,4.5889999999999835
503.2961876832845,3.7142785923753587
504.297165200391,3.1671348973606954
505.29814271749757,2.4492922776148456
506.2991202346041,1.4836480938416305
507.30009775171067,0.612936461388067
508.3010752688172,0.4491397849462466
509.30205278592376,1.107178885630498
510.3030303030303,0.9490303030302998
511.30400782013686,0.5611329423264877
512.3049853372434,0.23227272727273657
513.3059628543499,0.093821114369503
514.3069403714564,0.32315640273700574
515.307917888563,1.122017595307878
516.3088954056695,1.2507605083089641
517.3098729227761,0.5358387096773888
518.3108504398826,0.6811583577713041
519.3118279569892,0.5881075268816405
520.3128054740957,1.7367917888562738
521.3137829912023,2.1355337243401715
522.3147605083088,2.088794721407643
523.3157380254154,1.615779081133969
524.3167155425219,0.8557360703812696
525.3176930596285,0.45500391006842095
526.318670576735,0.5407243401759476
527.3196480938416,0.620457478005861
528.3206256109481,1.069270772238433
529.3216031280547,2.2209804496578096
530.3225806451612,3.101258064516075
531.3235581622678,3.914405669599164
532.3245356793743,4.7258739002932
533.3255131964809,5.746947214076146
534.3264907135874,7.584405669599036
535.327468230694,10.316013685239284
536.3284457478005,13.906457478005517
537.3294232649071,18.7959032258061
538.3304007820136,23.967170087976122
539.3313782991202,29.738621700879335
540.3323558162267,34.68755620723339
541.3333333333333,37.5386666666665
542.3343108504398,38.856604105571876
543.3352883675464,37.648863147605304
544.3362658846529,34.56532844574809
545.3372434017595,30.294149560117738
546.338220918866,24.8544291300102
547.3391984359725,20.10214173998075
548.3401759530791,16.432296187683583
549.3411534701856,13.192749755620925
550.3421309872922,10.818941348973798
551.3431085043987,8.965255131964897
552.3440860215054,8.114236559139771
553.345063538612,7.679826001955027
554.3460410557185,7.45389442815249
555.347018572825,7.415391984359728
556.3479960899316,7.583630498533734
557.3489736070381,7.949161290322588
558.3499511241447,8.130054740957965
559.3509286412512,8.037872922776147
560.3519061583578,8.114205278592383
561.3528836754643,8.506092864125131
562.3538611925709,8.817909090909092
563.3548387096774,8.859193548387095
564.355816226784,9.13740664711634
565.3567937438905,10.341304007820167
566.3577712609971,12.225788856305018
567.3587487781036,14.498706744868075
568.3597262952102,17.15092179863151
569.3607038123167,19.63681231671557
570.3616813294233,21.867570869990253
571.3626588465298,24.23525415444773
572.3636363636364,26.867363636363663
573.3646138807429,30.112922776148622
574.3655913978495,34.62920430107531
575.366568914956,40.06904398826985
576.3675464320626,46.90948191593358
577.3685239491691,54.668976539589494
578.3695014662757,62.862583577712655
579.3704789833822,71.53047409579672
580.3714565004888,80.63758260019554
581.3724340175953,90.22380645161293
582.3734115347019,98.23821309872923
583.3743890518084,103.6632228739003
584.375366568915,106.45820234604106
585.3763440860215,104.26575268817206
586.377321603128,100.49690029325514
587.3782991202346,95.76141055718477
588.3792766373411,90.42880840664714
589.3802541544477,84.65130889540569
590.3812316715542,78.87706451612907
591.3822091886608,74.71179178885632
592.3831867057673,72.37348484848486
593.3841642228739,71.8590322580645
594.3851417399804,74.00574389051806
595.386119257087,77.55345259042028
596.3870967741935,83.52664516129025
597.3880742913001,90.93064125122179
598.3890518084066,100.59280742912988
599.3900293255132,111.10820234604091
600.3910068426197,121.85524437927648
601.3919843597263,132.48695992179847
602.3929618768328,142.26198240469193
603.3939393939394,150.87569696969683
604.3949169110459,156.7135738025415
605.3958944281525,159.31732551319644
606.396871945259,158.4611280547411
607.3978494623656,152.33736559139797
608.3988269794721,144.23518768328472
609.3998044965787,132.72257478005892
610.4007820136852,120.56009384164251
611.4017595307918,108.38980058651056
612.4027370478983,96.30169501466307
613.4037145650049,84.43306158357802
614.4046920821114,73.1627624633434
615.405669599218,63.59570869990247
616.4066471163245,55.607720430107754
617.4076246334312,48.378671554251675
618.4086021505377,42.096333333332815
619.4095796676443,36.760415444769954
620.4105571847508,32.80131085043956
621.4115347018574,29.193492668621445
622.4125122189639,26.070362658846285
623.4134897360705,23.111853372433796
624.414467253177,20.40054936461368
625.4154447702836,17.94464613880725
626.4164222873901,15.72909384164207
627.4173998044967,13.719444770283337
628.4183773216032,12.07001759530782
629.4193548387098,10.791838709677329
630.4203323558163,9.724964809384105
631.4213098729228,8.919327468230637
632.4222873900294,7.968633431084959
633.423264907136,6.7733519061582745
634.4242424242425,5.742757575757521
635.425219941349,5.0054574780058205
636.4261974584556,4.498747800586489
637.4271749755621,4.25007917888562
638.4281524926687,4.0806480938416305
639.4291300097752,3.8914613880742785
640.4301075268818,3.6207204301075033
641.4310850439883,3.128208211143654
642.4320625610949,2.514773216031246
643.4330400782014,2.1162893450635267
644.434017595308,1.912516129032245
645.4349951124145,1.5026432062560706
646.4359726295211,0.8451300097751326
647.4369501466276,0.5543988269794827
648.4379276637342,0.7762404692082264
649.4389051808407,0.8933264907135832
650.4398826979473,0.7632228739002827
651.4408602150538,0.5667096774193442
652.4418377321604,0.36807429130008723
653.4428152492669,0.16843695014661716
654.4437927663735,0.09560997067449126
655.44477028348,0.23384359726296222
656.4457478005866,0.43693255131965814
657.4467253176931,0.607627565982411
658.4477028347997,0.563044965786889
659.4486803519062,0.3042404692081991
660.4496578690128,0.1318729227761455
661.4506353861193,0.21036265884654132
662.4516129032259,0.2823548387096707
663.4525904203324,0.11481818181817381
664.453567937439,0.05926392961877264
665.4545454545455,0.23000000000001047
666.455522971652,0.2322541544476908
667.4565004887586,0.3178797653959159
668.4574780058651,0.7342316715542625
669.4584555229717,0.7638445747800493
670.4594330400782,0.5812189638318632
671.4604105571848,0.6267507331378379
672.4613880742913,0.8115171065493696
673.4623655913979,0.7751827956989163
674.4633431085044,0.5383577712609895
675.464320625611,0.5209364613880816
676.4652981427175,0.7476226783968791
677.4662756598241,0.7794750733137771
678.4672531769306,0.5648592375366498
679.4682306940372,0.3250928641251153
680.4692082111437,0.12386510263929178
681.4701857282503,0.15143401759531436
682.4711632453568,0.38866568914956634
683.4721407624634,0.5158885630498535
684.4731182795699,0.4082365591397793
685.4740957966765,0.2874222873900294
686.475073313783,0.8457859237536922
687.4760508308896,1.758055718475087
688.4770283479961,1.525922776148558
689.4780058651027,0.5296392961876673
690.4789833822092,0.11866373411534732
691.4799608993158,0.24123069403714997
692.4809384164223,0.34095307917888473
693.4819159335289,0.6528230694037261
694.4828934506354,0.9686764418377307
695.483870967742,0.802354838709674
696.4848484848485,0.5626363636363604
697.485826001955,0.32288758553274377
698.4868035190616,0.357724340175957
699.4877810361681,0.8664222873900371
700.4887585532747,1.240173998044966
701.4897360703812,0.9063079178885564
702.4907135874878,0.5214086021505373
703.4916911045943,1.0757536656891584
704.4926686217009,2.0346041055718525
705.4936461388074,2.056030303030299
706.494623655914,1.368548387096771
707.4956011730205,0.9155601173020518
708.4965786901271,0.6743245356793737
709.4975562072336,0.6664428152492674
710.4985337243402,0.896161290322581
711.4995112414467,0.9210889540566959
712.5004887585533,0.7093822091886609
713.5014662756598,0.29965395894428226
714.5024437927664,0.370744868035189
715.5034213098729,0.6253157380254161
716.5043988269795,0.35046920821114513
717.505376344086,0.40744086021505155
718.5063538611926,0.7494740957966751
719.5073313782991,0.8817565982404689
720.5083088954057,0.7764975562072355
721.5092864125122,0.6085992179863157
722.5102639296188,0.6798914956011709
723.5112414467253,0.913630498533722
724.5122189638319,1.1478592375366543
725.5131964809384,1.3831143695014634
726.514173998045,1.6193450635386089
727.5151515151515,1.8555757575757543
728.516129032258,2.092838709677416
729.5171065493646,2.33055425219941
730.5180840664711,1.9289882697947376
731.5190615835777,0.8339120234604311
732.5200391006842,0.3997302052785876
733.5210166177908,0.8980478983382073
734.5219941348973,1.1272052785923798
735.5229716520039,0.6527360703812464
736.5239491691104,0.356915933528835
737.524926686217,0.77294721407623
738.5259042033235,1.1586500488758533
739.5268817204301,0.8270752688172215
740.5278592375366,0.34356011730206
741.5288367546432,0.5807722385141556
742.5298142717497,1.2214115347018415
743.5307917888563,1.6159589442815185
