Raman Shift,Intensity
90.587,1432.0
91.981,1416.0
93.375,1409.0
94.768,1426.0
96.161,1425.0
97.554,1442.0
98.947,1460.0
100.34,1431.0
101.732,1416.0
103.124,1387.0
104.516,1449.0
105.908,1412.937
107.3,1488.0
108.691,1404.0
110.082,1379.0
111.473,1388.0
112.864,1431.0
114.254,1486.0
115.644,1622.0
117.034,1654.0
118.424,1673.0
119.813,1604.0
121.203,1618.0
122.592,1508.0
123.981,1486.0
125.369,1486.0
126.758,1529.0
128.146,1549.0
129.534,1629.0
130.922,1731.0
132.309,1888.0
133.696,2072.0
135.083,2298.0
136.47,2512.0
137.857,2507.0
139.243,2475.0
140.63,2252.0
142.016,1990.0
143.401,1878.0
144.787,1781.0
146.172,1686.0
147.557,1669.0
148.942,1656.0
150.327,1659.0
151.711,1739.0
153.096,1806.0
154.48,1876.0
155.863,1971.0
157.247,1900.0
158.63,1955.0
160.013,1873.0
161.396,1918.0
162.779,1847.0
164.161,1853.0
165.544,1838.0
166.926,1843.0
168.308,1815.928
169.689,1785.0
171.07,1746.0
172.452,1717.0
173.833,1653.0
175.213,1681.0
176.594,1616.0
177.974,1639.0
179.354,1609.0
180.734,1575.0
182.114,1566.0
183.493,1553.0
184.872,1529.0
186.251,1525.0
187.63,1497.0
189.008,1527.0
190.387,1503.0
191.765,1530.0
193.143,1554.0
194.52,1514.0
195.898,1518.0
197.275,1596.0
198.652,1530.0
200.029,1592.0
201.405,1581.0
202.782,1640.0
204.158,1649.0
205.534,1676.0
206.909,1700.057
208.285,1712.0
209.66,1706.0
211.035,1694.0
212.41,1639.0
213.784,1647.0
215.159,1609.0
216.533,1598.0
217.907,1636.0
219.281,1591.0
220.654,1607.0
222.027,1652.0
223.4,1643.0
224.773,1702.0
226.146,1737.0
227.518,1779.0
228.891,1814.0
230.263,1856.0
231.634,1908.0
233.006,1934.0
234.377,1892.0
235.748,1895.0
237.119,1838.0
238.49,1829.0
239.86,1750.0
241.231,1783.0
242.601,1732.0
243.97,1695.0
245.34,1668.0
246.709,1688.0
248.079,1650.0
249.448,1672.0
250.816,1683.0
252.185,1675.0
253.553,1711.0
254.921,1791.0
256.289,1818.0
257.657,1865.0
259.024,1987.0
260.391,2085.0
261.758,2242.0
263.125,2382.0
264.492,2449.0
265.858,2514.0
267.224,2500.0
268.59,2429.0
269.956,2262.0
271.321,2242.0
272.687,2167.0
274.052,2060.0
275.416,2036.0
276.781,2015.0
278.146,1955.0
279.51,1954.0
280.874,1984.0
282.237,1922.0
283.601,1964.0
284.964,1915.0
286.327,1904.0
287.69,1900.0
289.053,1890.0
290.416,1925.0
291.778,1909.0
293.14,1889.0
294.502,1962.0
295.863,1880.0
297.225,1943.0
298.586,1965.0
299.947,1990.0
301.308,2038.0
302.668,2075.0
304.029,2147.0
305.389,2207.0
306.749,2217.0
308.108,2216.0
309.468,2276.0
310.827,2278.0
312.186,2234.0
313.545,2180.0
314.903,2092.0
316.262,2053.0
317.62,1993.0
318.978,1958.0
320.336,1936.0
321.693,1898.0
323.051,1860.0
324.408,1897.0
325.765,1874.0
327.121,1842.0
328.478,1820.0
329.834,1813.0
331.19,1861.0
332.546,1800.0
333.902,1813.0
335.257,1842.0
336.612,1818.0
337.967,1825.0
339.322,1820.0
340.677,1804.0
342.031,1856.0
343.385,1835.0
344.739,1823.0
346.093,1799.0
347.446,1822.0
348.799,1824.0
350.153,1777.0
351.505,1836.0
352.858,1831.0
354.21,1806.0
355.563,1828.0
356.915,1839.0
358.267,1806.0
359.618,1814.0
360.969,1817.664
362.321,1839.0
363.672,1845.0
365.022,1860.0
366.373,1895.0
367.723,1854.0
369.073,1883.0
370.423,1843.0
371.773,1835.0
373.122,1860.0
374.471,1881.0
375.821,1884.0
377.169,1900.0
378.518,1892.0
379.866,1902.0
381.215,1943.0
382.563,1914.0
383.91,1883.0
385.258,1896.0
386.605,1923.0
387.952,1910.0
389.299,1947.0
390.646,1990.0
391.992,1947.0
393.339,1936.0
394.685,1972.0
396.031,1978.0
397.376,1995.0
398.722,1987.0
400.067,2002.0
401.412,2012.0
402.757,2026.0
404.101,2052.0
405.446,2068.0
406.79,2049.0
408.134,2087.0
409.478,2106.0
410.821,2074.0
412.165,2170.0
413.508,2148.0
414.851,2246.0
416.193,2268.0
417.536,2278.0
418.878,2359.0
420.22,2434.0
421.562,2512.0
422.904,2613.0
424.245,2788.0
425.586,2999.0
426.927,3101.0
428.268,3228.0
429.609,3328.0
430.949,3296.0
432.289,3289.0
433.629,3290.0
434.969,3343.0
436.309,3374.0
437.648,3417.0
438.987,3561.0
440.326,3729.0
441.665,3808.0
443.003,3892.0
444.342,4005.0
445.68,4054.0
447.018,3976.0
448.355,3894.0
449.693,3712.0
451.03,3533.0
452.367,3357.0
453.704,3231.0
455.041,3063.0
456.377,2958.0
457.713,2814.0
459.049,2694.0
460.385,2685.0
461.721,2580.0
463.056,2570.0
464.391,2515.0
465.726,2527.0
467.061,2453.0
468.395,2417.0
469.73,2398.0
471.064,2424.0
472.398,2368.0
473.731,2373.0
475.065,2340.0
476.398,2342.0
477.731,2389.0
479.064,2331.0
480.397,2356.0
481.729,2335.0
483.062,2365.0
484.394,2343.0
485.725,2366.0
487.057,2349.0
488.389,2335.0
489.72,2362.0
491.051,2332.0
492.382,2348.0
493.712,2353.0
495.043,2324.0
496.373,2375.0
497.703,2295.0
499.032,2372.0
500.362,2356.0
501.691,2359.0
503.02,2368.0
504.349,2368.0
505.678,2342.0
507.007,2387.0
508.335,2380.0
509.663,2406.0
510.991,2356.0
512.319,2387.0
513.646,2409.0
514.973,2443.0
516.3,2432.514
517.627,2420.0
518.954,2416.0
520.28,2406.0
521.607,2419.0
522.933,2463.0
524.259,2447.0
525.584,2466.0
526.91,2482.589
528.235,2485.0
529.56,2481.0
530.885,2515.0
532.209,2454.0
533.534,2494.0
534.858,2483.0
536.182,2458.0
537.506,2484.0
538.829,2449.0
540.152,2532.0
541.476,2518.0
542.799,2514.0
544.121,2523.0
545.444,2564.0
546.766,2573.0
548.088,2580.0
549.41,2574.0
550.732,2583.0
552.053,2584.0
553.375,2597.0
554.696,2602.0
556.017,2625.0
557.337,2660.0
558.658,2678.0
559.978,2666.0
561.298,2728.0
562.618,2728.0
563.938,2737.0
565.257,2767.0
566.576,2811.0
567.895,2864.498
569.214,2854.0
570.533,3028.0
571.851,3134.0
573.17,3275.0
574.488,3551.0
575.805,4097.0
577.123,4792.0
578.44,5374.0
579.758,5597.0
581.075,5418.0
582.391,4665.0
583.708,4232.0
585.024,3818.0
586.341,3767.0
587.657,3825.0
588.972,3913.0
590.288,3837.0
591.603,3735.0
592.918,3514.0
594.233,3377.0
595.548,3246.0
596.863,3251.0
598.177,3207.0
599.491,3321.0
600.805,3522.0
602.119,3827.0
603.432,4244.0
604.746,4608.0
606.059,4596.0
607.372,4352.0
608.685,3998.0
609.997,3770.0
611.309,3587.0
612.621,3637.0
613.933,3712.0
615.245,3658.0
616.557,3574.0
617.868,3352.0
619.179,3223.0
620.49,3127.0
621.801,3020.0
623.111,3027.0
624.421,2986.0
625.731,3046.0
627.041,2950.0
628.351,3006.0
629.66,2930.0
630.97,2928.0
632.279,3022.0
633.588,2982.0
634.896,3024.0
636.205,3010.0
637.513,3034.0
638.821,3015.0
640.129,3002.0
641.437,3078.0
642.744,3043.0
644.051,3085.0
645.358,3107.0
646.665,3091.0
647.972,3141.0
649.278,3123.0
650.584,3154.0
651.89,3074.0
653.196,3176.0
654.502,3118.0
655.807,3139.0
657.113,3089.0
658.418,3105.0
659.722,3156.0
661.027,3097.0
662.331,3103.0
663.636,3110.0
664.94,3102.0
666.244,3096.0
667.547,3167.0
668.851,3136.0
670.154,3162.0
671.457,3085.0
672.76,3118.0
674.062,3136.0
675.365,3154.0
676.667,3137.0
677.969,3190.0
679.271,3175.0
680.572,3217.0
681.874,3158.0
683.175,3197.0
684.476,3182.0
685.777,3226.0
687.077,3217.0
688.378,3193.0
689.678,3258.0
690.978,3270.0
692.278,3250.0
693.577,3149.0
694.877,3246.0
696.176,3210.0
697.475,3292.0
698.774,3254.0
700.072,3292.0
701.371,3281.0
702.669,3222.0
703.967,3257.0
705.265,3307.0
706.562,3385.0
707.86,3342.0
709.157,3298.0
710.454,3387.0
711.751,3344.0
713.047,3404.0
714.344,3353.0
715.64,3427.0
716.936,3324.0
718.232,3357.0
719.527,3376.0
720.823,3433.0
722.118,3394.0
723.413,3472.0
724.708,3428.0
726.002,3392.0
727.297,3394.0
728.591,3374.0
729.885,3432.0
731.179,3472.0
732.472,3463.0
733.766,3472.0
735.059,3492.169
736.352,3492.0
737.645,3523.0
738.937,3541.0
740.23,3562.0
741.522,3498.0
742.814,3533.0
744.106,3572.0
745.397,3550.0
746.689,3886.0
747.98,3890.0
749.271,4041.0
750.562,4079.0
751.853,3948.0
753.143,4014.0
754.433,4047.0
755.723,3773.0
757.013,3796.0
758.303,3690.0
759.592,3609.0
760.881,3663.0
762.17,3602.0
763.459,3679.0
764.748,3639.0
766.036,3686.0
767.325,3720.0
768.613,3695.0
769.901,3792.0
771.188,3682.0
772.476,3734.0
773.763,3733.0
775.05,3769.0
776.337,3791.0
777.624,3700.0
778.91,3756.0
780.196,3764.0
781.482,3778.0
782.768,3819.0
784.054,3804.019
785.339,3814.0
786.625,3799.0
787.91,3799.397
789.195,3815.257
790.479,3852.0
791.764,3792.0
793.048,3880.0
794.332,3856.0
795.616,3861.0
796.9,3885.0
798.183,3897.0
799.467,3962.0
800.75,3912.0
802.033,3996.0
803.316,3943.0
804.598,3977.0
805.88,3948.0
807.163,3976.0
808.445,3972.0
809.726,4011.0
811.008,4005.043
812.289,4047.0
813.57,4002.0
814.851,4037.0
816.132,4036.111
817.413,4030.291
818.693,4021.0
819.973,4025.0
821.253,4054.0
822.533,4032.0
823.813,4112.0
825.092,4088.0
826.371,4153.0
827.65,4152.749
828.929,4145.0
830.208,4163.0
831.486,4132.0
832.764,4152.0
834.042,4174.0
835.32,4193.0
836.598,4148.0
837.875,4255.0
839.152,4240.0
840.429,4193.0
841.706,4302.0
842.983,4232.0
844.259,4256.0
845.536,4284.0
846.812,4271.0
848.088,4337.0
849.363,4279.0
850.639,4402.0
851.914,4393.263
853.189,4423.0
854.464,4435.0
855.739,4421.0
857.013,4429.0
858.288,4395.0
859.562,4419.0
860.836,4547.0
862.11,4554.0
863.383,4542.0
864.656,4574.0
865.93,4529.0
867.203,4595.0
868.475,4608.0
869.748,4589.0
871.02,4593.0
872.292,4597.27
873.564,4626.0
874.836,4599.0
876.108,4617.0
877.379,4601.0
878.65,4604.466
879.922,4643.0
881.192,4628.0
882.463,4622.0
883.733,4666.0
885.004,4683.973
886.274,4681.756
887.544,4718.0
888.813,4727.0
890.083,4632.0
891.352,4748.0
892.621,4711.0
893.89,4611.0
895.159,4703.0
896.427,4698.0
897.695,4716.0
898.964,4818.0
900.232,4752.0
901.499,4770.0
902.767,4872.0
904.034,4883.0
905.301,4840.0
906.568,4912.0
907.835,4937.0
909.102,4904.0
910.368,4958.0
911.634,4911.0
912.9,4978.0
914.166,4967.0
915.432,5072.0
916.697,4973.0
917.962,4923.0
919.227,5013.0
920.492,5018.0
921.757,5051.0
923.021,5014.0
924.285,5063.102
925.55,5133.0
926.813,5123.0
928.077,5203.0
929.341,5217.0
930.604,5208.0
931.867,5307.0
933.13,5296.0
934.393,5337.0
935.655,5393.0
936.918,5422.0
938.18,5557.0
939.442,5538.0
940.703,5584.0
941.965,5756.0
943.226,5817.0
944.488,5988.0
945.749,6070.0
947.009,6277.446
948.27,6606.0
949.53,6718.0
950.791,7082.0
952.051,7334.0
953.311,7915.0
954.57,8806.0
955.83,10328.0
957.089,12488.0
958.348,16235.0
959.607,21802.0
960.866,31524.0
962.124,43529.0
963.383,54177.0
964.641,53565.0
965.899,42568.0
967.156,30942.0
968.414,22004.0
969.671,16241.0
970.928,12715.0
972.185,10315.0
973.442,8785.0
974.699,7844.0
975.955,7130.0
977.211,6624.0
978.468,6345.0
979.723,6274.0
980.979,6062.0
982.234,5910.0
983.49,6010.0
984.745,5764.0
986.0,5844.0
987.254,5838.0
988.509,5713.0
989.763,5844.0
991.017,5775.0
992.271,5660.0
993.525,5807.0
994.779,5733.0
996.032,5697.0
997.285,5752.0
998.538,5775.0
999.791,5701.0
1001.044,5858.0
1002.296,5890.0
1003.548,5964.0
1004.8,6090.0
1006.052,6195.0
1007.304,6439.0
1008.555,6615.0
1009.807,6600.0
1011.058,6455.0
1012.309,6340.0
1013.559,6162.0
1014.81,6059.0
1016.06,5961.0
1017.31,5932.715
1018.56,6080.0
1019.81,5998.0
1021.06,6076.0
1022.309,6220.0
1023.558,6214.0
1024.807,6316.0
1026.056,6392.0
1027.305,6505.0
1028.553,6743.0
1029.801,7041.0
1031.049,7320.0
1032.297,7605.0
1033.545,7739.0
1034.793,7614.0
1036.04,7347.0
1037.287,7108.0
1038.534,6986.0
1039.781,6925.0
1041.027,7025.0
1042.274,6753.0
1043.52,6697.0
1044.766,6745.0
1046.012,6613.0
1047.257,6484.0
1048.503,6564.0
1049.748,6714.0
1050.993,6717.0
1052.238,6851.0
1053.483,6899.0
1054.727,6972.0
1055.971,7082.0
1057.216,7391.0
1058.459,7599.0
1059.703,7692.0
1060.947,7384.0
1062.19,7240.0
1063.433,6914.0
1064.676,6800.0
1065.919,6617.0
1067.162,6683.0
1068.404,6795.0
1069.646,6851.0
1070.888,6833.0
1072.13,6881.0
1073.372,6784.0
1074.613,6825.0
1075.855,6880.0
1077.096,7015.0
1078.337,7129.0
1079.578,7201.0
1080.818,7068.0
1082.059,6919.0
1083.299,6702.0
1084.539,6832.0
1085.779,6827.0
1087.018,6897.0
1088.258,6701.0
1089.497,6600.0
1090.736,6470.0
1091.975,6457.0
1093.213,6442.0
1094.452,6413.0
1095.69,6421.29
1096.928,6419.431
1098.166,6432.0
1099.404,6423.0
1100.642,6427.0
1101.879,6390.0
1103.116,6455.0
1104.353,6361.0
1105.59,6478.0
1106.827,6472.0
1108.063,6507.0
1109.299,6427.0
1110.536,6469.0
1111.771,6458.0
1113.007,6462.0
1114.243,6497.0
1115.478,6559.0
1116.713,6566.0
1117.948,6566.0
1119.183,6565.0
1120.418,6621.0
1121.652,6875.0
1122.886,6928.0
1124.12,6851.0
1125.354,6790.0
1126.588,6712.0
1127.821,6699.0
1129.055,6662.0
1130.288,6709.0
1131.521,6731.0
1132.753,6623.0
1133.986,6631.0
1135.218,6737.0
1136.45,6859.0
1137.682,6842.75
1138.914,6797.0
1140.146,6826.0
1141.377,6793.0
1142.609,6716.0
1143.84,6828.0
1145.071,6904.0
1146.301,6811.0
1147.532,6868.0
1148.762,6896.0
1149.992,6919.0
1151.222,6793.0
1152.452,6882.0
1153.682,6848.0
1154.911,6837.0
1156.14,6929.0
1157.369,6900.0
1158.598,7015.0
1159.827,6996.0
1161.055,7090.0
1162.284,7022.0
1163.512,7015.0
1164.74,7000.0
1165.967,7057.0
1167.195,7009.0
1168.422,7120.0
1169.65,7157.0
1170.877,7088.0
1172.103,7057.0
1173.33,7126.0
1174.557,7081.0
1175.783,7157.0
1177.009,7132.0
1178.235,7055.0
1179.461,7206.0
1180.686,7055.0
1181.912,7081.0
1183.137,7168.0
1184.362,7249.0
1185.587,7188.0
1186.811,7228.0
1188.036,7208.0
1189.26,7177.0
1190.484,7257.0
1191.708,7188.0
1192.932,7281.0
1194.155,7234.0
1195.378,7312.0
1196.602,7317.0
1197.825,7415.0
1199.047,7413.942
1200.27,7360.0
1201.492,7384.0
1202.715,7433.0
1203.937,7322.0
1205.159,7527.0
1206.38,7373.0
1207.602,7439.0
1208.823,7422.0
1210.044,7358.0
1211.265,7541.0
1212.486,7440.0
1213.707,7546.0
1214.927,7543.0
1216.147,7507.0
1217.367,7569.0
1218.587,7540.0
1219.807,7579.0
1221.027,7605.0
1222.246,7568.0
1223.465,7645.0
1224.684,7674.0
1225.903,7622.0
1227.121,7601.0
1228.34,7600.0
1229.558,7572.001
1230.776,7680.0
1231.994,7617.0
1233.212,7634.0
1234.429,7803.0
1235.646,7722.0
1236.864,7712.0
1238.081,7772.0
1239.297,7696.0
1240.514,7828.0
1241.73,7789.0
1242.947,7796.0
1244.163,7805.0
1245.378,7832.0
1246.594,7881.0
1247.81,7834.0
1249.025,7871.842
1250.24,7849.0
1251.455,7875.0
1252.67,7918.0
1253.885,7894.0
1255.099,7861.0
1256.313,7897.0
1257.527,7904.0
1258.741,7950.0
1259.955,8020.0
1261.168,8017.215
1262.382,8026.101
1263.595,8048.0
1264.808,7990.0
1266.021,8010.0
1267.233,7994.0
1268.446,8069.0
1269.658,8010.0
1270.87,7964.0
1272.082,8004.0
1273.294,8166.0
1274.505,8151.0
1275.716,8035.0
1276.928,8124.0
1278.139,8068.0
1279.349,8162.0
1280.56,8201.0
1281.77,8192.0
1282.981,8159.0
1284.191,8251.0
1285.401,8172.0
1286.61,8250.0
1287.82,8189.0
1289.029,8294.0
1290.239,8297.0
1291.448,8303.0
1292.656,8252.0
1293.865,8300.0
1295.073,8364.0
1296.282,8343.0
1297.49,8358.0
1298.698,8390.0
1299.906,8446.0
1301.113,8410.0
1302.32,8389.0
1303.528,8398.0
1304.735,8487.0
1305.942,8451.0
1307.148,8492.0
1308.355,8586.0
1309.561,8461.0
1310.767,8633.0
1311.973,8464.0
1313.179,8604.0
1314.384,8481.0
1315.59,8674.0
1316.795,8578.0
1318.0,8739.0
1319.205,8644.0
1320.41,8693.0
1321.614,8734.0
1322.819,8606.0
1324.023,8715.0
1325.227,8712.0
1326.431,8748.0
1327.634,8766.0
1328.838,8688.0
1330.041,8835.0
1331.244,8902.0
1332.447,8872.0
1333.65,8842.0
1334.852,8811.0
1336.055,8916.0
1337.257,8936.0
1338.459,8986.0
1339.661,8958.0
1340.862,8999.0
1342.064,8955.0
1343.265,8990.0
1344.466,9000.0
1345.667,9027.0
1346.868,8960.0
1348.068,9000.0
1349.269,9058.0
1350.469,9020.0
1351.669,9146.0
1352.869,9143.0
1354.069,9124.0
1355.268,9234.0
1356.468,9131.0
1357.667,9292.0
1358.866,9275.0
1360.065,9255.0
1361.263,9347.0
1362.462,9266.0
1363.66,9301.0
1364.858,9386.0
1366.056,9348.0
1367.254,9401.737
1368.451,9426.0
1369.649,9435.0
1370.846,9394.0
1372.043,9387.0
1373.24,9399.829
1374.436,9423.0
1375.633,9466.0
1376.829,9444.0
1378.025,9549.0
1379.221,9432.0
1380.417,9550.0
1381.613,9539.0
1382.808,9546.0
1384.003,9684.0
1385.199,9586.0
1386.393,9629.0
1387.588,9618.0
1388.783,9561.0
1389.977,9641.0
1391.171,9778.0
1392.365,9683.0
1393.559,9678.0
1394.753,9798.0
1395.946,9747.0
1397.14,9749.0
1398.333,9790.0
1399.526,9767.0
1400.719,9744.0
1401.911,9827.0
1403.104,9950.0
1404.296,9857.0
1405.488,9798.0
1406.68,9945.0
1407.872,9834.0
1409.063,9973.0
1410.255,10070.0
1411.446,9919.0
1412.637,10146.0
1413.828,10034.0
1415.018,10152.0
1416.209,10094.0
1417.399,10130.0
1418.589,10058.0
1419.779,10180.0
1420.969,10207.0
1422.159,10215.0
1423.348,10185.0
1424.537,10248.0
1425.726,10263.0
1426.915,10196.0
1428.104,10355.0
1429.293,10317.0
1430.481,10372.0
1431.669,10225.0
1432.857,10401.0
1434.045,10346.0
1435.233,10413.0
1436.42,10568.0
1437.608,10569.0
1438.795,10572.0
1439.982,10535.0
1441.169,10582.0
1442.355,10548.0
1443.542,10522.0
1444.728,10551.0
1445.914,10545.0
1447.1,10606.0
1448.286,10641.0
1449.472,10607.0
1450.657,10648.0
1451.842,10857.0
1453.027,10673.0
1454.212,10693.0
1455.397,10851.0
1456.581,10686.0
1457.766,10722.0
1458.95,10777.0
1460.134,10691.0
1461.318,10881.0
1462.501,10717.0
1463.685,10798.0
1464.868,10912.0
1466.051,10830.0
1467.234,10985.0
1468.417,10742.0
1469.6,10874.0
1470.782,10893.0
1471.965,11003.0
1473.147,10898.0
1474.329,11055.0
1475.51,11046.0
1476.692,10957.0
1477.873,10950.0
1479.055,11025.0
1480.236,11004.0
1481.416,11126.0
1482.597,11030.0
1483.778,11082.0
1484.958,11173.0
1486.138,11060.0
1487.318,11108.0
1488.498,11336.0
1489.678,11130.0
1490.857,11188.0
1492.037,11132.0
1493.216,11335.0
1494.395,11301.0
1495.574,11219.0
1496.752,11382.0
1497.931,11312.0
1499.109,11342.0
1500.287,11219.0
1501.465,11230.0
1502.643,11156.0
1503.82,11238.0
1504.998,11325.0
1506.175,11357.0
1507.352,11355.0
1508.529,11461.0
1509.706,11388.0
1510.882,11387.0
1512.059,11484.0
1513.235,11514.0
1514.411,11433.0
1515.587,11484.0
1516.762,11482.051
1517.938,11552.0
1519.113,11550.0
1520.288,11555.0
1521.463,11648.0
1522.638,11585.0
1523.813,11660.0
