Raman Shift,Intensity
214.3785040343428,91.848
224.78145843945092,-288.665
235.01908334044856,-362.144
245.41130867789616,370.017
255.63837774522108,76.103
265.8602158678186,68.23
276.23642015571386,209.939
286.44772684514464,-162.702
296.8132434111685,39.363
307.0140349346475,-385.762
317.209615658554,123.339
327.399989574551,107.593
337.7442627077253,-49.86
347.9241537664129,286.041
358.09885002992814,-212.563
368.2683554736213,-86.6
378.5914504125685,-18.37
388.7505051753542,-314.908
398.90438108190574,-152.205
409.0530820913264,-78.727
419.196612158652,-141.709
429.3349752349313,-241.429
439.626465572117,-199.442
449.75442592354375,57.733
459.8772311743669,212.563
469.994885259468,89.224
480.1073921097559,663.931
490.2147556521086,-165.327
500.31697980943136,-558.961
510.41406850063504,-52.485
520.5060256406359,47.236
530.5928551403995,-228.308
540.6745609068894,34.115
550.7511468431039,55.109
560.8226168481124,-120.715
570.888974816975,-451.368
580.9502246408374,-427.75
590.8492821665859,-175.824
600.9004070215597,-26.242
610.9464353206786,-202.066
620.9873709393651,254.55
631.0232177491416,225.684
641.0539796175653,-532.719
650.9230482019848,-44.612
660.9437310766662,47.236
670.9593405290361,238.805
680.9698804110958,-593.076
690.8190579752118,65.606
700.8195493193562,57.733
710.8149825658329,94.472
720.805361551138,139.084
730.6347081696804,-68.23
740.6150689503047,102.345
750.4345613154874,-304.411
760.404918953056,112.842
770.3702413346182,-343.774
780.174941402227,-165.327
790.1302832356378,556.337
799.925166080895,55.109
809.8705423523497,-244.054
819.6556227125038,76.103
829.5910483782136,97.097
839.3663409610526,-328.029
849.2918309472952,-10.497
859.0573504311833,-18.37
868.972919634427,-265.047
878.7286806683987,78.727
888.6343439553166,430.374
898.3803611591502,26.242
908.12155022542,-207.314
918.0124213310264,-257.175
927.743888384779,217.811
937.4705381077074,175.824
947.3466501411676,404.132
957.0635996041163,-175.824
966.7757425107702,307.035
976.6371284824854,-322.78
986.3395928168538,-317.532
996.0372613373548,356.895
1005.7301375988682,-178.448
1015.5719657306544,918.481
1025.255192198514,-209.939
1034.9336371072422,-396.259
1044.6073039976543,194.193
1054.2761964070742,86.6
1063.9403178693246,220.435
1073.5996719147442,-230.932
1083.4074711432768,262.423
1093.057225399156,-372.641
1102.70222286418,7.873
1112.3424670547538,-112.842
1121.9779614837898,91.848
1131.6087096607444,18.37
1141.2347150916105,-241.429
1150.855981278939,642.937
1160.4725117218331,-406.756
1170.0843099159465,278.169
1179.6913793534914,-39.363
1189.293723523253,317.532
1198.739039559725,-136.46
1208.3320185130287,443.495
1217.9202825891407,-223.06
1227.5038352631818,-149.581
1237.0826800068826,65.606
1246.6568202885535,453.992
1256.226259573108,-23.618
1265.639216696829,-314.908
1275.1993388504195,356.895
1284.7547703264208,20.994
1294.3055145761757,677.052
1303.7000868433097,299.162
1313.241541245312,139.084
1322.778318700337,57.733
1332.310422646282,299.162
1341.686663866676,341.15
1351.2095051416618,-104.969
1360.727683146746,1175.656
1370.0902294598782,-364.768
1379.5991650801443,-270.296
1388.9526223370776,120.715
1398.4523290278594,335.902
1407.7967104575073,-254.55
1417.287201648047,495.98
1426.7730533080105,-167.951
1436.1038095471376,320.156
1445.5804658554116,-1041.82
1454.9021792800197,18.37
1464.369653600741,-123.339
1473.6823373500883,139.084
1482.9905472474493,-265.047
1492.444310209452,477.61
1501.7435100404182,-1041.82
1511.1881242589734,267.672
1520.4783270994303,-207.314
1529.764072276041,141.709
1539.1950247490097,181.072
1548.4717924494323,128.587
1557.7441121511074,359.52
1567.1614324998736,509.101
1576.4247941832873,-86.6
1585.6837175051332,97.097
1594.9382056544855,-41.988
1604.3374199708342,338.526
1613.5829759239496,49.86
1622.8241063047317,-78.727
1632.0608142900164,-711.167
1641.2931030535765,152.205
1650.6697762525291,-228.308
1659.8931649322622,-623.622
1669.1121439444323,-815.49
1678.3267164506542,-838.369
1687.53688560953,-726.713
1696.7426545766284,-514.987
1705.9440265045123,-237.645
1715.1410045427183,70.854
1724.3335918377925,354.271
1733.5217915332687,398.883
1742.705606769683,-312.284
1751.8850406845886,-351.647
1761.0600964125188,325.405
1770.230777085024,-165.327
1779.397085830693,341.15
1788.55902577511,-10.497
1797.7166000408906,36.739
1806.8698117476447,-149.581
1816.0186640120735,-78.727
1825.163159947857,70.854
1834.1559155330324,-175.824
1843.29177827917,83.975
1852.4232939699289,-398.883
1861.550465707216,-516.974
1870.673296589972,598.325
1879.644751645923,-28.867
1888.758979994156,-94.472
1897.8688767172423,-160.078
1906.974444902422,349.023
1915.9289277003045,-115.466
1925.025917750907,-278.169
1934.118588458099,209.939
1943.060390766601,183.696
1952.144501554074,28.867
1961.2243021666216,535.343
1970.153450902042,5.248
1979.224709758193,-139.084
1988.1454604369865,-112.842
1997.208189584475,-125.963
2006.120554048888,317.532
2015.1747655127983,-175.824
2024.0787555828572,181.072
2033.12446136566,-207.314
2042.0200888391555,-20.994
2051.057300920809,-217.811
2059.9445775734057,-669.179
2068.9733079113576,246.678
2077.852245496608,587.828
2086.8725060258803,488.107
2095.743116275291,149.581
2104.6096010526526,-41.988
2113.6172135316083,359.52
2122.4753884816528,183.696
2131.329446630596,-102.345
2140.324437642892,477.61
2149.170203423979,73.478
2158.011861050589,-102.345
2166.994257105456,55.109
2175.8276397748195,414.629
2184.656922912145,112.842
2193.48210937062,-47.236
2202.303202000803,469.737
2211.2647105948345,-102.345
2220.077557114586,225.684
2228.886318388424,-582.579
2237.6909972563008,47.236
2246.4915965555265,110.218
2255.2881191208,-259.799
2264.0805677841927,-128.587
2272.8689453751285,-73.478
2281.6532547204406,-291.29
2290.5774032157133,173.199
2299.353517963282,280.793
2308.125572976198,34.115
2316.893571070781,-73.478
2325.6575150607823,-173.199
2334.273835606975,39.363
2343.029746164546,78.727
2351.781610997117,70.854
2360.5294329081007,194.193
2369.273214698267,-173.199
2378.0129591658333,-167.951
2386.7486691064114,291.29
2395.48034731306,-118.09
2404.2079965762314,-23.618
2412.788641914361,-220.435
2421.5083075861257,845.003
2430.2239526247795,91.848
2438.9355798105607,26.242
2447.64319192111,-272.92
2456.204142101211,28.867
2464.9037980916983,167.951
2473.5994472792227,-317.532
2482.148638712344,-115.466
2490.836348166158,-1162.535
2499.5200590665554,288.665
2508.0575159626023,162.702
2516.7333034706826,-70.854
2525.405100652257,-7.873
2533.930847154741,73.478
2542.5947372405863,-380.514
2551.112711590584,349.023
2559.768705390503,338.526
2568.2789182109263,31.491
2576.927026515033,338.526
2585.5711635713087,-207.314
2594.069721988235,677.052
2602.5644435408976,94.472
2611.196813145194,49.86
2619.683804921093,-57.733
2628.3083212822166,328.029
2636.7875938271245,-10.497
2645.404267656864,-545.84
2653.875831497382,-20.994
2662.343576738021,-89.224
2670.948539131641,485.483
2679.408591378582,-68.23
2687.8648328054915,157.454
2696.4581076233444,154.83
2704.906671724595,-26.242
2713.351432764532,259.799
2721.792393310454,346.399
2730.370143142005,377.889
2738.8034471581705,-7.873
2747.232958411034,165.327
2755.658679458633,-430.374
2764.220946338093,1047.068
2772.639031576786,91.848
2781.053334313052,-178.448
2789.463857095703,-7.873
2797.8706024712737,89.224
2806.2735729839987,131.212
2814.672771175843,81.351
2823.0681995864725,-170.575
2831.459860753297,383.138
2839.847757211428,139.084
2848.231891493713,5.248
2856.612266130724,115.466
2864.988883650767,270.296
2873.3617465798743,-52.485
2881.7308574418275,385.762
2890.096218758139,55.109
2898.457833048058,102.345
2906.815702828586,-68.23
2915.169830614461,-47.236
2923.5202189181878,-362.144
2931.8668702499926,76.103
2940.209787117892,564.1
2948.41001618022,877.089
2956.7455337723804,1037.455
2965.077324369493,1067.579
2973.405390470638,989.839
2981.7297345726547,826.622
2989.9117125592966,600.309
2998.2286820744484,333.277
3006.5419370261297,70.854
3014.8514799023105,-15.745
3023.0189130185245,404.132
3031.3211009634906,175.824
3039.619584242202,-367.392
3047.776149306213,-81.351
3056.067292329164,-20.994
3064.2166442633534,178.448
3072.500456765243,215.187
3080.780576892153,553.713
3088.919096831967,307.035
3097.1919010483834,249.302
3105.3232317767324,94.472
3113.588729774354,519.598
3121.712880813,-254.55
3129.9710822664056,-288.665
3138.0880631202745,52.485
3146.338977686973,97.097
3154.448797844241,296.538
3162.692435164703,-102.345
3170.7951040967964,-52.485
3178.894230970407,139.084
3187.127000956163,-451.368
3195.218990740796,453.992
3203.3074454664093,18.37
3211.5293695924192,-335.902
3219.610701328027,241.429
3227.688504985643,-259.799
3235.899604670318,-120.715
3243.9702993997853,343.774
3252.03747301393,343.774
3260.1011278165533,-362.144
3268.297848330192,-47.236
3276.354412870096,362.144
3284.407465536773,-228.308
3292.4570086259846,-564.21
3300.5030444314834,15.745
3308.545575245,641.763
3316.720827896272,1059.103
3324.756296283769,1279.11
3332.788266581294,1313.134
3340.816741072602,1172.52
3348.8417220394404,868.61
3356.8632117615925,412.758
3364.8812125168406,-183.696
3372.895726580995,-406.756
3380.906756227865,889.614
3388.91430372934,-160.078
3396.918371355256,-70.854
3404.9189613735507,280.793
3412.9160760501472,0.0
3420.909717649003,288.665
3428.8998884321263,364.768
3436.886590659553,-167.951
3444.734546370892,-435.622
3452.714376952972,34.115
3460.690745709508,199.442
3468.663654892749,-7.873
3476.633106752961,259.799
3484.5991035384795,60.357
3492.4267178764712,-251.926
3500.385869715596,36.739
3508.341573175334,70.854
3516.293830496281,238.805
3524.1079469444667,183.696
3532.0533770164475,427.75
3539.9953676218797,346.399
3547.7993978646555,-317.532
3555.734574435446,-524.846
3563.666318194715,52.485
3571.460281747888,-15.745
3579.385224652753,-364.768
3587.30674138396,52.485
3595.090657713052,-409.38
3603.00538673612,-236.181
3610.782634691175,23.618
3618.6905847266535,335.529
3626.461172873067,682.893
3634.362352626544,1019.53
3642.1262895150494,1299.268
3650.020707677235,1475.928
3657.778001843908,1503.338
3665.665667090652,1335.322
3673.416327056992,925.703
3681.163701429177,228.308
3689.041282322214,-265.047
3696.782035212709,579.955
3704.6528847781447,-36.739
3712.3870246721344,-162.702
3720.117889469839,661.306
3727.845481251112,-112.842
3735.702951367959,-469.737
3743.4239470074463,653.434
3751.141675895298,65.606
3758.989119491133,-44.612
3766.700264858686,-963.093
3774.408149723422,-299.162
3782.1127761528696,669.628
3789.814146212797,1452.75
3797.644959575024,2014.111
3805.339767031168,2317.603
3813.03132434014,2327.134
3820.7196335607214,2006.598
3828.404696749953,1319.896
3836.086515963114,230.932
3843.76509325378,-700.67
3851.4404306737633,178.448
3859.112530273167,-39.363
3866.7813941003615,325.405
3874.4470242019815,18.37
3882.109422622947,41.988
3889.7685914064414,283.417
3897.4245325939337,73.478
3905.0772482251705,-249.302
3912.7267403381848,249.302
3920.373010969284,133.836
3928.016062153074,157.454
3935.655895922435,632.44
3943.292514308545,283.417
3950.925919340858,73.478
3958.424585178429,-15.745
3966.051624900327,-68.23
3973.675457311714,-73.478
3981.296084435249,70.854
3988.913508291902,-244.054
3996.396478310664,-181.072
4004.007556831755,328.029
4011.615438103967,55.109
4019.220124141517,-118.09
4026.690583777876,-52.485
4034.288940385857,-83.975
4041.8841077570687,181.072
4049.3452186808136,97.097
4056.934068499933,-41.988
4064.519735065173,-380.514
4071.971514814119,31.491
4079.550875675057,7.873
4086.996462302253,-39.363
4094.5695253181984,283.417
4102.008926541021,-99.721
4109.575699558212,-165.327
4117.008923081237,-97.097
4124.569413932906,76.103
4131.996467447912,380.514
4139.550683954272,-246.678
4146.971575140262,296.538
4154.519525108568,-173.199
4161.93426163181,86.6
4169.475952856366,-102.345
4228.011654085007,-112.842
4235.396210255021,107.593
4242.907210725418,-173.199
4250.415076793586,-492.628
4257.7904449892885,-700.321
4265.292102093408,-808.818
4272.790630641473,-830.653
4280.156827999919,-778.366
4287.649159161061,-664.49
4295.138367597785,-501.567
4302.4954112134365,-302.133
4309.978433811593,-78.727
4317.329402006981,89.224
4324.8062464273535,39.363
4332.151146724958,81.763
4339.621820615692,261.436
4346.960660525576,521.23
4354.425171522191,803.984
4361.757958542046,1052.535
4369.216314267462,1209.732
4376.543055882612,1218.41
4383.9952639471885,1021.414
4391.315967630617,561.586
4398.762035632179,-41.988
4406.07670884455,-233.557
4413.516644368407,-209.939
4420.825294558097,141.709
4428.130962180556,-593.076
4435.561739780205,-191.569
4442.861395497304,183.696
4450.1580741507205,-175.824
4457.579710724684,-125.963
4464.870388562711,36.739
4472.158094827057,-341.15
4479.570607232323,385.762
4486.852323743988,-123.339
4494.131074158497,-931.602
4501.534479210626,207.314
4508.807250907994,110.218
4516.077061971264,393.635
4523.3439142079005,417.253
4530.735219799091,2.624
4537.996107969229,-910.608
4545.254042757973,23.618
4552.509025966887,65.606
4559.888261734326,503.852
4567.13729547953,551.089
4574.383383072374,-89.224
4581.626526308552,-598.325
4588.866726982291,220.435
4596.103986886381,238.805
4603.338307812148,-15.745
4610.69653172473,-110.218
4617.92492857972,-871.245
4625.150391852971,-5.248
4632.372923329975,488.107
4639.592524794789,330.653
4646.809198030001,-146.957
4654.022944816745,120.715
4661.233766934747,94.472
4668.441666162253,41.988
4675.646644276094,-296.538
4682.8487030516335,139.084
4690.047844262837,-186.32
4697.244069682201,-94.472
4704.437381080781,674.428
4711.627780228235,13.121
4718.815268892759,-131.212
4725.999848841122,68.23
4733.181521838655,-141.709
4740.3602896492885,-600.949
4747.536154035501,-480.234
4754.583300303697,5.248
4761.753413983191,296.538
4768.9206294863325,-23.618
4776.084948569973,480.234
4783.246372989488,-160.078
4790.404904498872,194.193
4797.435032206777,-165.327
4804.5878338284165,0.0
4811.73774776268,-346.399
4818.884775757928,451.368
4826.028919561082,448.744
4833.044920461813,-49.86
4840.183351639585,-251.926
4847.3189038270575,110.218
4854.451578765569,-286.041
4861.456318765864,152.205
4868.58329482688,-283.417
4875.707398824052,49.86
4882.703723295803,1039.196
4889.822138682386,-181.072
4896.937687177771,-674.428
4903.925611277555,-377.889
4911.035481404608,228.308
4918.142489800703,223.06
4925.122028648751,57.733
4932.223368894192,976.214
4939.197342363797,-107.593
4946.293021236786,-2.624
4953.385846941688,-385.762
4960.35146024984,614.07
4967.43863475923,451.368
4974.398699333346,99.721
4981.480229398396,144.333
4988.43475186592,102.345
4995.510644227063,97.097
5002.459631204903,-199.442
5009.529892591847,139.084
5016.473350686378,-26.242
5023.537987818112,351.647
5030.475923625207,-320.156
5037.534943210041,257.175
5044.467363315067,299.162
5051.397052412052,-99.721
5058.447683028528,-73.478
5065.371866252855,2.624
5072.416896017057,-278.169
5079.335579928018,-267.672
5086.251540943114,196.817
5093.288206657562,409.38
5100.198678149784,-383.138
5107.106431592307,57.733
5114.134748143202,-10.497
5121.037021830118,301.787
5127.93658230202,-131.212
5134.833431158368,125.963
5141.85065500065,-26.242
5148.742037069234,257.175
5155.630712341699,506.477
5162.516682412504,118.09
5169.522839786696,178.448
5176.403355996677,-13.121
5183.281171809234,432.998
5190.156288813778,-146.957
5197.028708598496,774.148
5204.021081907653,-62.982
5210.888063918697,-204.69
5217.752353495271,31.491
5224.613952220541,175.824
5231.472861676462,322.78
5238.329083443728,438.247
5245.182619101804,259.799
5252.033470228904,412.004
5258.881638402017,-202.066
5265.727125196914,125.963
5272.569932188097,215.187
5279.532181775125,498.604
5286.369586094326,-55.109
5293.204315354014,257.175
5300.036371123795,304.411
5306.865754971979,144.333
5313.692468465706,-299.162
5320.516513170878,-76.103
5327.216103720151,57.733
5334.034863128356,356.895
5340.850958410447,-257.175
5347.664391127459,254.55
5354.475162839211,76.103
5361.283275104273,215.187
5368.088729480027,-18.37
5374.891527522632,404.132
5381.6916707870405,97.097
5388.489160826968,212.563
5395.162686039381,-81.351
5401.954921596684,-265.047
5408.744508555763,-65.606
5415.531448465517,650.809
5422.31574287366,-136.46
5428.976315601984,852.875
5435.7553708175255,183.696
5442.531785139763,-283.417
5449.305560111599,-41.988
5456.076697274744,-141.709
5462.724355191152,698.046
5469.490268392445,110.218
5476.253548375513,-23.618
5482.893493883399,-36.739
5489.651558992991,-52.485
5496.406995464167,412.004
5503.039241977291,78.727
5509.789472642318,97.097
5516.5370792381145,162.702
5523.161640139158,391.011
5529.904049975114,-356.895
5536.643840300443,83.975
5543.260728941095,-65.606
5549.995331531944,154.83
5556.607128017575,795.142
5563.336548861262,86.6
5569.943259067753,175.824
5576.667504142417,62.982
5583.269133936614,448.744
5589.988209211173,283.417
5596.58476445092,89.224
5603.298675885118,-278.169
5609.890162419251,220.435
5616.598915963696,-259.799
5623.185339632037,-49.86
5629.888941228186,-747.906
5636.470307861637,272.92
5643.16876344182,304.411
5649.745078862296,10.497
5656.438394349752,10.497
5663.009664370256,472.362
5669.578436568787,-125.963
5676.264076103718,-10.497
5682.827811578958,359.52
5689.3890535265455,364.768
5696.067030305661,370.017
5702.623244186747,362.144
5709.176968824671,1136.292
5715.847296014435,-65.606
5722.39600122282,31.491
5728.942221462719,-99.721
5735.4859581482815,251.926
5742.146121627004,325.405
5748.684850350968,-112.842
5755.221099782248,28.867
5761.754871330697,535.343
5768.404894310675,-212.563
5774.933669330552,-89.224
5781.459970716278,238.805
5787.983799873429,570.896
5794.505158206499,865.233
5801.142549523138,1091.281
5807.658925557145,1218.509
5814.172834999641,1216.386
5820.684279250832,1054.38
5827.193259709879,701.958
5833.699777774898,128.587
5840.203834842934,-307.035
5846.7054323099655,414.629
5853.204571570954,118.09
5859.701254019747,288.665
5866.195481049195,62.982
5872.687254051074,-446.119
5879.176574416102,191.569
5885.663443533944,296.538
5892.14786279323,249.302
5898.629833581537,-60.357
5905.109357285379,328.029
5911.586435290243,632.44
5918.061068980562,388.386
5924.533259739736,359.52
5931.003008950094,-139.084
5937.470317992949,165.327
5943.935188248557,-18.37
5950.397621096134,209.939
5956.857617913869,286.041
5963.315180078898,516.974
5969.7703089673305,-118.09
5976.105705888956,-7.873
5982.556016527509,317.532
5989.003897986593,-68.23
5995.449351638199,307.035
6001.8923788532775,335.902
6008.215900781644,409.38
6014.654123287393,317.532
6021.089923438405,-10.497
6027.523302601519,425.126
6033.954262142564,346.399
6040.265942433929,47.236
6046.692110755517,73.478
6053.115863521547,307.035
6059.420472023492,-131.212
6065.839441620141,-36.739
6072.255999718647,2.624
6078.553548309683,-467.113
6084.965331270854,330.653
6091.374706782226,808.263
6097.665207314269,2.624
6104.06981570238,259.799
6110.472020679961,354.271
6116.755484978421,41.988
6123.152930828903,-204.69
6129.431725134898,-94.472
6135.824417162912,97.097
6142.098546680769,-13.121
6148.486490183052,813.512
6154.872039648391,393.635
6161.139160374798,13.121
6167.519969269015,212.563
6173.782438208022,396.259
6180.158511808193,112.842
6186.416334137088,91.848
6192.787677712448,65.606
6199.040858600842,312.284
6205.291741972564,209.939
6211.656022022646,-377.889
6217.902271670246,20.994
6224.261834810408,435.622
6230.503455884398,383.138
6236.742785809074,569.458
6243.095304999864,202.066
6249.330014038809,-259.799
6255.677829386121,317.532
6261.907922670827,469.737
6268.1357311500615,-152.205
6274.476522051649,522.222
6280.699722436162,265.047
6286.920641805642,110.218
6293.139281413962,377.889
6299.470738832184,196.817
6305.684780516531,104.969
6311.896546218988,217.811
6318.106037189755,5.248
6324.428181717434,-133.836
6330.633084905065,-246.678
6336.835717129172,-262.423
6343.036079636258,1094.305
6349.234173671932,322.78
6355.544716640681,396.259
6361.738235515753,112.842
6367.929489673777,162.702
6374.118480356665,291.29
6380.305208805476,78.727
6386.489676260331,244.054
6392.671883960451,404.132
6398.851833144166,341.15
6405.143905470883,333.277
6411.319299566196,296.538
6417.492438877496,341.15
6423.663324639478,419.877
6429.831958085924,561.586
6435.998340449718,188.945
6442.162472962846,267.672
6448.324356856407,13.121
6454.483993360576,-265.047
6460.641383704664,94.472
6466.79652911704,278.169
6472.949430825232,178.448
6479.100090055821,-435.622
6485.248508034543,-186.32
6491.280888225534,-57.733
6497.424868822251,432.998
6503.5666118162335,272.92
6509.706118429633,-364.768
6515.843389883739,144.333
6521.978427398899,236.181
6528.111232194642,359.52
6534.241805489546,-83.975
6540.256680928833,432.998
6546.382836142315,141.709
6552.506763482961,215.187
6558.628464165849,-23.618
6564.747939405184,52.485
6570.751928194237,-120.715
6576.866997341494,-343.774
6582.979844660076,511.725
6589.090471360658,204.69
6595.0857801617385,-448.744
6601.192010321647,2.624
6607.296023467985,178.448
6613.39782080795,472.362
6619.384468430493,351.647
6625.481878753591,167.951
6631.577076864334,97.097
6637.5572509579,858.124
6643.64806916556,582.579
6649.623946782151,296.538
6655.71038980603,286.041
6661.794626582923,532.719
6667.764048126817,217.811
6673.843916808139,244.054
6679.809053455574,-338.526
6685.884558743659,469.737
6691.957863728712,561.586
6697.916561697035,-55.109
6703.985510351609,81.351
6709.939934962422,254.55
6716.004531971987,-225.684
6721.954687820689,-307.035
6728.014937863976,228.308
6733.960829539363,97.097
6739.904610751524,7.873
6745.95836937274,388.386
6751.897893261092,278.169
6757.947316561804,503.852
6763.8825876987685,-254.55
6769.927680334353,-170.575
6775.858703285812,330.653
6781.787623684751,296.538
6787.826249230238,265.047
6793.750928258974,356.895
6799.673508107371,254.55
6805.705676935038,600.949
6811.624022213946,816.136
6817.540271677499,131.212
6823.5659941374615,81.351
6829.478015817709,141.709
6835.387945040406,-7.873
6841.407231460638,370.017
6847.312939671727,-322.78
6853.216558775894,107.593
6859.118089881435,36.739
6865.017534095896,125.963
6871.026143398485,47.236
6876.921377827312,257.175
6882.814528703813,865.996
6888.705597132364,430.374
6894.594584216582,372.641
6900.592544785228,574.707
6906.477333270021,690.173
6912.360043737404,288.665
6918.240677287846,15.745
6924.119235021055,-125.963
6929.995718035963,131.212
6935.870127430717,280.793
6941.742464302697,322.78
6947.6127297485,574.707
6953.480924863958,813.512
6959.347050744116,553.713
6965.21110848328,527.471
6971.073099174937,994.584
6976.93302391185,202.066
6982.79088378598,380.514
6988.64667988853,157.454
6994.500413309928,-215.187
7000.35208513985,396.259
7006.201696467178,330.653
7012.049248380063,595.701
7017.894741965851,385.762
7023.738178311156,241.429
7029.579558501813,427.75
7035.418883622879,614.07
7041.2561547586665,656.058
7047.091372992727,157.454
7052.924539407839,527.471
7058.645653010426,31.491
7064.474757695687,472.362
7070.301813785409,115.466
7076.126822359336,230.932
7081.949784496486,244.054
7087.660891581778,719.039
7093.479802640664,183.696
7099.296670474898,1180.904
7105.111496160462,377.889
7110.814624476749,356.895
7116.625407570507,49.86
7122.434151718757,556.337
7128.2408579944895,246.678
7133.936024250346,446.119
7139.73869639702,648.185
7145.53933386541,299.162
7151.22854892195,430.374
7157.025158582874,524.846
7162.819736753059,480.234
7168.503009933542,561.586
7174.293566604632,225.684
7180.082094965896,307.035
7185.759435574095,194.193
7191.54394873148,789.894
7197.2173519438,223.06
7202.997854073568,-139.084
7208.667323984642,396.259
7214.443819257263,309.659
7220.109359956041,-251.926
7225.881852536215,338.526
7231.54346810597,-312.284
7237.311962152613,-280.793
7242.969656670975,212.563
7248.734156337254,49.86
7254.387933876205,380.514
7260.148443309525,70.854
7265.798307935409,125.963
7271.554831277448,364.768
7277.20078705097,249.302
7282.953328437674,524.846
7288.59537941395,427.75
7294.235498085545,509.101
7299.982093204053,682.3
7305.618313131272,-170.575
7311.252603748333,293.914
7316.993261813666,133.836
7322.623659726734,404.132
7328.252131317968,301.787
7333.9868615261075,590.452
7339.611446441268,558.961
7345.234108016753,149.581
7350.962919544712,708.543
7356.581700459581,364.768
7362.198561010817,732.161
7367.813502182726,700.67
7373.426524958988,47.236
7379.145517410223,1141.541
7384.7546694986595,57.733
7390.361906157261,-307.035
7395.967228366993,-36.078
7401.570637108154,559.588
7407.279835705631,1306.922
7412.879383697611,2032.887
7418.477021176703,2564.444
7424.072749120482,2728.55
7429.666568505905,2352.167
7435.258480309247,1262.255
7440.848485506111,5.248
7446.436585071431,572.082
7452.022779979503,-60.357
7457.607071203925,317.532
7463.296794702215,404.132
7468.877244915177,506.477
7474.455794380043,133.836
7480.032444067743,217.811
7485.607194948596,1018.202
7491.18004799222,524.846
7496.751004167574,207.314
7502.2129850032,160.078
7507.7801867781745,936.851
7513.345494569261,349.023
7518.908909342786,737.409
7524.470432064445,2.624
7530.03006369928,204.69
7535.587805211653,259.799
7541.1436575652915,-356.895
7546.697621723266,270.296
7552.249698647978,343.774
7557.693172648,202.066
7563.241514237732,280.793
7568.787971459049,795.142
7574.332545271769,852.875
7579.87523663506,73.478
7585.416046507413,238.805
7590.848475703144,-246.678
7596.385561603231,446.119
7601.920768865631,-65.606
7607.454098446255,506.477
7612.879194899509,144.333
7618.4088080453,388.386
7623.936546354853,700.67
7629.462410781522,430.374
7634.880189328982,141.709
7640.402344837916,-91.848
7645.9226293018255,637.688
7651.334937948188,254.55
7656.851519109852,278.169
7662.260197498763,-204.69
7667.773079083498,679.676
7673.284094334183,514.349
7678.687316594296,312.284
7684.194637864675,970.966
7689.7000956236625,813.512
7695.097870006797,543.216
7700.599639370841,330.653
7705.993798107356,322.78
7711.491882781789,603.573
7716.882429503323,322.78
7722.376833188511,472.362
7727.763771521855,553.713
7733.254497913214,372.641
7738.637831480286,653.434
7744.124884268305,682.3
7749.504616686187,-370.017
7754.987999556393,139.084
7760.364134437317,251.926
7765.738489349154,165.327
7771.216392021717,771.524
7776.587154788423,939.475
7782.061396717661,865.996
7787.428570939446,23.618
7792.793969640064,419.877
7798.262745065967,238.805
7803.624560595526,246.678
7808.984603262106,188.945
7814.447920368751,863.372
7819.804385227417,669.179
7825.159079875983,653.434
7830.616946831127,257.175
7835.968069024231,78.727
7841.317423654822,215.187
7846.665011598543,648.185
7852.115636126822,346.399
7857.459658723532,385.762
7862.801917273948,600.555
7868.142412651388,891.226
7873.481145728587,1174.763
7878.922746278997,1368.154
7884.257922859626,1388.386
7889.59133977185,1152.449
7894.922997886111,577.331
7900.252898072242,-52.485
7905.581041199541,346.399
7910.907428136696,540.592
7916.336446752692,236.181
7921.65928952102,784.645
7926.980378718883,-41.988
7932.29971521271,837.13
7937.617299868325,-244.054
7942.933133550996,501.228
7948.247217125423,225.684
7953.559551455743,262.423
7958.870137405502,52.485
7964.178975837705,139.084
7969.486067614758,183.696
7974.791413598527,94.472
7980.0950146503055,493.356
7985.396871630804,375.265
7990.696985400187,262.423
7995.995356818043,162.702
8001.291986743403,417.253
8006.586876034729,372.641
8011.880025549901,459.241
8017.067699705829,503.852
8022.357406311574,-267.672
8027.645375694708,435.622
8032.931608710882,322.78
8038.216106215201,370.017
8043.498869062179,354.271
8048.779898105804,490.731
8053.955695240969,383.138
8059.233293192043,238.805
8064.509159881611,913.233
8069.783296161415,509.101
8074.952338977277,314.908
8080.223050878609,719.039
8085.492034905405,448.744
8090.759291907168,354.271
8095.921593616502,582.579
8101.185432936367,477.61
8106.447547759821,412.004
8111.604810570996,603.573
8116.863512715307,301.787
8122.120492886879,204.69
8127.272724173963,834.506
8132.526296659391,480.234
8137.778149690843,13.121
8142.925356813517,364.768
8148.173807142077,414.629
8153.4205405305,579.955
8158.562730834117,595.701
8163.806066493191,-28.867
8168.944927307508,191.569
8174.184868536668,-160.078
8179.32040309432,543.216
8184.55695318873,448.744
8189.689164718173,451.368
8194.922326968728,335.902
8200.051218694258,338.526
8205.280996387602,614.07
8210.406571529322,257.175
8215.632967947844,608.822
8220.7552297217,333.277
8225.978248143558,921.105
8231.097199761349,603.573
8236.316843460441,-997.208
8241.43248812982,223.06
8246.546496881761,774.148
8251.76110130029,401.507
8256.871807891675,495.98
8261.98088093357,-133.836
8267.190453365733,482.859
8272.296229025691,-13.121
8277.400373499535,36.739
8282.604921225458,280.793
8287.705773086778,18.37
8292.804996120794,474.986
8298.004526406577,65.606
8303.100461588281,-181.385
8308.194770296956,-141.876
8313.28745331115,82.172
8318.48031600209,388.809
8323.569717486189,676.07
8328.657495624051,842.004
8333.743651192239,784.645
8338.828184966831,456.616
8344.012739449463,120.715
8349.093999566121,461.865
8354.17364022991,653.434
8359.251662214898,600.949
8364.328066294685,196.817
8369.402853242376,753.154
8374.476023830553,-296.538
8379.547578831349,451.368
8384.718901354245,328.029
8389.787195221597,653.434
8394.853875830348,-44.612
8399.91894395064,398.883
8404.98240035212,495.98
8410.044245803958,328.029
8415.104481074803,621.943
8420.163106932847,566.834
8425.220124145773,86.6
8430.275533480788,288.665
8435.32933570461,-44.612
8440.381531583458,267.672
8445.432121883085,317.532
8450.48110736873,136.46
8455.528488805172,495.98
8460.473367100913,543.216
8465.51757477424,238.805
8470.560180674485,524.846
8475.601185564497,453.992
8480.64059020661,215.187
8485.67839536271,125.963
8490.714601794163,317.532
8495.749210261878,167.951
8500.681576948675,401.507
8505.713023691114,472.362
8510.742874734438,732.161
8515.771130837642,711.167
8520.797792759218,2.624
8525.722375497866,181.072
8530.745883175656,645.561
8535.7677989293,574.707
8540.788123515384,288.665
8545.706498587671,705.918
8550.723674892208,640.312
8555.739262280982,768.9
8560.652997083213,-97.097
8565.665440644778,425.126
8570.676297538128,112.842
8575.585398634048,976.214
8580.593116146138,928.978
8585.599249233324,380.514
8590.503723174297,97.097
8595.506721317797,20.994
8600.508137275468,370.017
8605.40799060051,514.349
8610.406276043708,320.156
8615.303062904772,1073.311
8620.298220771765,425.126
8625.191944046568,-125.963
8630.18397727198,188.945
8635.074639834631,375.265
8640.063551349394,976.214
8644.951156070434,543.216
8649.936948801806,776.773
8654.821498548154,669.179
8659.804175419777,509.101
8664.685673054784,125.963
8669.665236986599,-141.709
8674.543685370048,1196.65
8679.520139278378,726.912
8684.395541266465,719.039
8689.2694364983,15.745
8694.241246509358,191.569
8699.112099609058,409.38
8703.981448060618,432.998
8708.948620671701,372.641
8713.81493124642,112.842
8718.779005433622,732.161
8723.642280973501,118.09
8728.504055374753,587.828
8733.364329332315,343.774
8738.32224658698,314.908
8743.179491154478,-246.678
8748.035237374625,52.485
8752.889485940628,768.9
8757.8412577103,490.731
8762.692482517024,2020.658
8767.542211760752,419.877
8772.39044613298,401.507
8777.336083836857,244.054
8782.18130006664,391.011
8787.02502351089,477.61
8791.867254859393,370.017
8796.707994801498,272.92
8801.547244026118,-251.926
8806.385003221756,39.363
8811.319956958603,364.768
8816.154707786565,839.754
8820.987970662514,493.356
8825.819746273257,705.918
8830.650035305174,5.248
8835.478838444196,317.532
8840.306156375878,173.199
8845.131989785303,795.142
8849.956339357173,94.472
8854.779205775758,338.526
8859.60058972489,194.193
8864.420491888006,514.349
8869.238912948098,391.011
8874.055853587757,511.725
8878.871314489159,-383.138
8883.685296334032,304.411
8888.497799803714,1322.613
8893.308825579123,579.955
8898.118374340735,125.963
8902.926446768637,637.688
8907.634964476681,131.212
8912.440116370435,587.828
8917.243793954342,246.678
8922.045997906822,530.095
8926.846728905857,99.721
8931.645987629043,965.717
8936.443774753548,249.302
8941.142221650607,648.185
8945.937097605834,446.119
8950.73050397759,102.345
8955.522441441404,737.409
8960.215160665939,955.22
8965.004192282166,600.949
8969.791757000756,141.709
8974.577855495572,-167.951
8979.26485751475,435.622
8984.048055470721,417.253
8988.829789208343,855.499
8993.51251749025,524.846
8998.291354655303,797.766
9003.068729603765,199.442
9007.747189991118,335.902
9012.521672326067,1359.352
9017.294694442531,186.32
9021.968892767374,1514.182
9026.739026222178,425.126
9031.41039612206,-1338.358
9036.17764353675,443.495
9040.943434050514,737.409
9045.610551571128,761.027
9050.373459984672,587.828
9055.037755503963,960.469
9059.797784430888,1052.317
9064.45926050758,301.787
9069.216412558366,212.563
9073.87507174812,881.742
9078.629349530078,380.514
9083.285194385431,553.713
9088.036600502714,616.694
9092.689633573158,346.399
9097.438170626783,747.906
9102.088394458704,288.665
9106.73722909284,1188.777
9111.481482183284,650.809
9116.12751137963,1005.081
9120.868901881862,377.889
9125.512128179163,732.161
9130.153968412898,595.701
9134.891084617178,383.138
9139.53012574118,863.372
9144.167782675046,553.713
9148.9006303586,514.349
9153.535491965213,569.458
9158.168971251744,412.004
9162.801068836525,627.191
9167.528243916331,501.228
9172.157551197888,585.204
9176.785478643267,595.701
9181.412026869286,419.877
9186.13353953768,362.144
9190.757302472506,740.033
9195.37968804908,669.179
9200.000696882766,275.544
9204.620329588544,1133.668
9209.334785850184,627.191
9213.951639506451,469.737
9218.567118890363,188.945
9223.181224615444,758.403
9227.79395729483,965.717
9232.40531754132,677.052
9237.015305967328,805.639
9241.623923184923,209.939
9246.23116980579,144.333
9250.932987640888,456.616
9255.537466379788,26.242
9260.140576367572,477.61
9264.742318214474,829.257
9269.342692530376,936.851
9273.941699924766,519.598
9278.539341006806,860.748
9283.135616385269,244.054
9287.730526668583,587.828
9292.324072464791,600.949
9296.91625438162,498.604
9301.411444872112,167.951
9306.00092923447,89.224
9310.589051525738,417.253
9315.175812352172,587.828
9319.761212319692,671.803
9324.345252033823,215.187
9328.927932099774,826.633
9333.509253122353,635.064
9338.08921570604,834.506
9342.572446701386,663.931
9347.149722488744,5.248
9351.7256416359,217.811
9356.300204745894,886.99
9360.873412421412,181.072
9365.350032145325,70.854
9369.920558965528,957.845
9374.489732144635,217.811
9379.05755228394,212.563
9383.528899030936,267.672
9388.09404305015,960.469
9392.657835818722,677.052
9397.125240831178,595.701
9401.6863610176,558.961
9406.246131739394,62.982
9410.80455359534,527.471
9415.266701898625,375.265
9419.822455888205,729.536
9424.281993052333,627.191
9428.835081516963,385.762
9433.38682407955,456.616
9437.84243511156,419.877
9442.391515668474,1424.958
9446.84452129656,1002.456
9451.390942182352,283.417
9455.93602012123,330.653
9460.385108237591,860.748
9464.927530014324,726.912
9469.374018445214,522.222
9473.913786387537,511.725
9478.35767741084,918.481
9482.894793843763,516.974
9487.33608973474,228.308
9491.87055698055,548.464
9496.30926001177,425.126
9500.74668109923,265.047
9505.277192831463,511.725
9509.71202445114,803.015
9514.23989277796,669.179
9518.672137195834,889.614
9523.103102466685,86.6
9527.62702390948,593.076
9532.05540536064,380.514
9536.57668916292,453.992
9541.002489053764,653.434
9545.42701258622,435.622
9549.850260312329,656.058
9554.36630345335,448.744
9558.78697410632,973.59
9563.206370618926,671.803
9567.718482324255,99.721
9572.13530512818,792.518
9576.550855454823,278.169
9580.965133854,797.766
9585.47202083257,223.06
9589.883729992052,900.111
9594.294168883298,978.838
9598.703338054846,453.992
9603.111238054931,349.023
9607.611613766734,587.828
9612.016950092931,133.836
9616.421018902103,288.665
9620.823820741218,427.75
9625.225356156909,244.054
9629.625625695517,1083.808
9634.02462990307,761.027
9638.422369325252,401.507
9642.81884450748,577.331
9647.21405599481,422.501
9651.701478874824,511.725
9656.094137748323,393.635
9660.485534571855,1033.947
9664.875669889248,543.216
9669.264544244,719.039
9673.65215817932,1057.565
9678.03851223808,661.306
9682.423606962846,422.501
9686.807442895892,293.914
9691.19002057915,661.306
9695.478134071804,128.587
9699.858223622705,876.493
9704.23705653629,467.113
9708.614633353289,136.46
9712.990954614088,816.136
9717.36602085878,228.308
9721.739832627154,640.312
9726.112390458671,968.341
9730.483694892511,107.593
9734.760779687776,514.349
9739.129605581998,907.984
9743.497179682729,663.931
9747.863502527893,238.805
9752.228574655115,170.575
9756.499562339395,955.22
9760.862161224974,551.089
9765.223510992222,863.372
9769.583612177565,438.247
9773.849736751828,128.587
9778.207368918504,314.908
9782.563754099236,716.415
9786.918892829211,401.507
9791.18016259473,858.124
9795.532836519418,393.635
9799.884265585692,574.707
9804.14190615754,808.263
9808.490873566669,721.664
9812.83859770701,782.021
9817.09261371952,679.676
9821.437879345483,314.908
9825.689490172908,73.478
9830.032299369228,648.185
9834.373867936378,1122.447
9838.621861899856,1284.288
9842.960977171238,1216.921
9847.206571054325,1003.55
9851.543235108787,727.392
9855.786430944943,471.653
9860.12064585897,319.542
9864.361445679362,354.271
9868.693213527116,629.816
9872.931619360628,876.493
9877.26094221391,-31.491
9881.49695608711,729.536
9885.823836015392,419.877
9890.057459952584,291.29
9894.289902518456,-133.836
9898.613135046206,700.67
9902.843190697367,272.92
9907.163985452502,170.575
9911.391656207565,824.009
9915.61814808206,509.101
9919.935303126713,-107.593
9924.15941311792,931.602
9928.38234571751,5345.56
9932.695865648708,498.604
9936.91641937277,1081.183
9941.135797191648,419.877
9945.445686598703,784.645
9949.662688544726,425.126
9953.878516069532,293.914
9958.09316966365,330.698
9962.398234183594,438.428
9966.61051589339,577.78
9970.821625153134,709.435
9975.031562452265,794.068
9979.240328279942,792.363
9983.53937957713,664.994
9987.745778488254,372.641
9991.95100740443,167.951
9996.155066813732,805.639
10000.357957203963,669.179
10004.55967906266,692.797
10008.760232877092,758.403
10013.050897176752,291.29
10017.249090997648,435.622
10021.446118245014,446.119
10025.641979405023,251.926
10029.83667496358,952.596
10034.03020540632,461.865
10038.222571218605,700.67
10042.413772885537,251.926
10046.603810891938,249.302
10050.79268572236,162.702
10054.980397861098,548.464
10059.16694779218,637.688
10063.352335999334,768.9
10067.536562966066,805.639
10071.719629175575,716.415
10075.90153511081,703.294
10080.082281254454,430.374
10084.26186808891,816.136
10088.440296096323,674.428
10092.52676786215,341.15
10096.702904826674,936.851
10100.877884398516,564.21
10105.051707058765,393.635
10109.224373288234,367.392
10113.395883567471,923.73
10117.475590772649,356.895
10121.64481569536,587.828
10125.812886097472,582.579
10129.979802458443,553.713
10134.145565257517,194.193
10138.219652237512,556.337
10142.383134400929,440.871
10146.545464428116,955.22
10150.706642797257,608.822
10154.776246850048,598.325
10158.935148346747,388.386
10163.092899607942,459.241
10167.159152430871,553.713
10171.314629631466,637.688
10175.468958016776,687.549
10179.531863747628,175.824
10183.683920879565,7.873
10187.834830614069,57.733
10191.894393383842,335.902
10196.043034667582,209.939
10200.190529969435,666.555
10204.246753902304,443.495
10208.391983551395,498.604
10212.44599199288,740.033
10216.588957845182,391.011
10220.640752609928,267.672
10224.781456519388,175.824
10228.831039420063,1002.456
10232.969483238625,194.193
10237.016856085897,524.846
10241.15304166346,619.319
10245.19820626604,564.21
10249.332135450502,427.75
10253.375093615126,257.175
10257.506768252357,459.241
10261.547521783785,768.9
10265.58718577827,687.549
10269.715494418666,451.368
10273.752956473523,309.659
10277.87901516247,446.119
10281.91427707755,947.348
10285.948451675904,86.6
10290.0711512271,543.216
10294.10312837192,469.737
10298.13401952729,1041.82
10302.253364041218,871.245
10306.282060424935,1225.516
10310.309672144327,83.975
10314.425665714796,453.992
10318.451085340042,49.86
10322.475421623927,286.041
10326.498675003731,837.13
10330.610215200984,341.15
10334.631280043344,682.3
10338.651263301725,984.087
10342.670165412448,737.409
10346.687986811625,388.386
10350.704727935088,325.405
10354.80961387438,713.791
10358.824171771252,477.61
10362.837650708272,249.103
10366.850051120337,203.349
10370.86137344214,279.652
10374.871618108127,417.303
10378.880785552512,555.608
10382.888876209276,633.857
10386.984923052532,591.352
10390.990837530662,367.392
10394.995676531347,73.478
10398.999440487634,244.054
10403.00212983234,522.222
10407.003744998048,913.233
10411.004286417105,346.399
10415.003754521616,249.302
10419.002149743475,448.744
10422.999472514348,530.095
10426.995723265634,246.678
10430.990902428544,637.688
10434.985010434026,249.302
10438.889325180557,404.132
10442.881315942828,296.538
10446.872236829608,629.816
10450.86208827093,919.247
10454.85087069661,1031.858
10458.838584536235,1007.668
10462.82523021915,886.702
10466.810808174472,708.976
10470.706785742112,514.514
10474.690253232264,343.339
10478.672654271297,235.472
10482.653989287404,230.932
10486.634258708573,341.15
10490.525047770485,469.737
10494.50321094102,648.796
10498.480309789697,871.153
10502.45634474356,1108.011
10506.342995080442,1330.575
10510.316927143493,1510.046
10514.2897965821,1617.629
10518.261603822417,1624.527
10522.144122034457,1501.947
10526.113829736623,1221.086
10530.082476508169,753.154
10533.961905709137,301.787
10537.92845544769,485.483
10541.89394552126,729.759
10545.770289396216,863.705
10549.733684937964,903.558
10553.607981637546,865.559
10557.569284306495,765.943
10561.52952941227,456.461
10565.400746905443,456.461
10569.35890163298,456.461
10573.22807600992,456.461
10577.184142013864,456.461
10581.05127489159,456.461
10585.005253824836,456.461
10588.87034681866,456.461
10592.822240332363,456.461
10596.685295055897,456.461
10600.635104799476,456.461
10604.496122864624,456.461
10608.443850485746,-10.497
10612.302833502728,-47.236
10616.160811022752,257.175
10620.10543022464,383.138
10623.9613750996,215.187
10627.903916281392,514.349
10631.757830117263,7.873
10635.61074043666,341.15
10639.550179321655,99.721
10643.401060998756,-220.435
10647.250940343372,146.957
10651.187280591832,270.296
10655.035133687184,39.363
10658.881985632182,-7.873
10662.815230898605,244.054
10666.660058983602,532.719
10670.50388709854,7.873
10674.346715633475,89.224
10678.275847672114,233.557
10682.116655520924,112.842
10685.956464967534,165.327
10689.795276401208,120.715
10693.633090210977,120.715
10697.557095575656,-448.744
10701.39289265285,-482.859
10705.227693280882,367.392
10709.061497847986,123.339
10712.894306742182,70.854
10716.726120351308,135.395
10720.55693906298,215.528
10724.386763264632,293.347
10728.302600658342,350.946
10732.130414421008,370.418
10735.957234843503,333.855
10739.783062312445,223.348
10743.60789721425,20.994
10747.431739935131,-146.957
10751.254590861114,157.454
10755.076450378,456.616
10758.897318871408,-70.854
10762.717196726757,-141.709
10766.536084329256,170.575
10770.353982063916,356.895
10774.170890315563,312.284
10777.98680946881,-427.75
10781.801739908076,330.653
10785.615682017564,20.994
10789.341989100834,364.768
10793.153978142976,154.83
10796.964979998098,522.222
10800.774995049622,146.957
10804.58402368077,317.532
10808.392066274577,391.011
10812.199123213884,379.855
10816.005194881312,332.041
10819.723813349112,261.318
10823.52793799081,181.439
10827.331078498672,106.152
10831.133235254529,49.213
10834.848029253728,24.365
10838.64824198676,45.366
10842.447472103491,125.963
10846.24571998498,181.072
10849.956695412544,-15.745
10853.753002267928,0.0
10857.548328021428,41.988
10861.342673053316,-41.988
10865.049835794096,907.984
10868.842242790466,83.975
10872.63367019626,102.345
10876.337982712816,-293.914
10880.12747431772,70.854
10883.82989575329,112.842
10887.617453039476,451.368
10891.404032613404,635.064
10895.103609289945,-65.606
10898.88825677408,-679.676
10902.585945994537,110.218
10906.368662867266,-94.472
10910.150403901262,-296.538
10913.845253813895,-354.271
10917.62506645972,-28.867
10921.318032531915,338.526
10925.095918264182,301.787
10928.787001936307,123.339
10932.562962228116,443.495
10936.252164939066,154.83
10939.940438510435,257.175
10943.713524449233,428.883
10947.399919206764,533.753
10951.171083372872,573.125
10954.855600751816,548.349
10958.62484461311,460.77
10962.307486047235,311.735
10965.989200819247,102.586
10969.755577991731,-165.327
10973.435418958636,-236.181
10977.114334320191,537.967
10980.877848072992,556.337
10984.554891765896,-55.109
10988.231010908596,-149.581
10991.991664505884,167.951
10995.665914113146,257.175
10999.33924022374,307.035
11003.011643185791,144.333
11006.768495629847,-89.224
11010.439031890255,642.937
11014.108646053544,160.078
11017.777338467138,716.415
11021.530395518184,419.877
11025.197224058184,251.926
11028.863131897786,299.162
11032.528119383707,39.363
11036.192186862492,-112.842
11039.855334680517,123.339
11043.602720353196,-217.811
11047.264008520897,551.089
11050.924378073953,606.197
11054.58382935806,-99.721
11058.242362718707,335.902
11061.899978501227,-125.963
11065.556677050785,-349.023
11069.21245871235,-139.084
11072.867323830738,-593.076
11076.521272750586,259.799
11080.174305816368,333.277
11083.826423372368,204.69
11087.477625762698,225.684
11091.127913331318,7.873
11094.777286422,322.78
11098.425745378345,118.09
11102.073290543767,123.339
11105.719922261547,301.097
11109.36564087477,559.038
11113.010446726335,841.329
11116.654340159006,1092.14
11120.29732151534,1255.637
11123.93939113774,1275.991
11127.580549368427,1097.364
11131.22079654947,663.931
11134.77550763161,73.478
11138.413954906267,-128.587
11142.051492148485,89.224
11145.688119699626,330.653
11149.323837900913,-36.739
11152.958647093375,-26.242
11156.508048620988,-320.156
11160.141061938251,-160.078
11163.773167260852,76.103
11167.40436492916,314.908
11170.950240228543,175.824
11174.579644697213,26.045
11178.208142523734,-37.532
11181.751381744987,-39.938
11185.378088371155,-6.204
11189.003889365817,38.639
11192.628785068173,69.558
11196.16850723805,61.522
11199.79161440632,-10.497
11203.413817290922,-13.121
11206.950910239968,-115.631
11210.571326582844,-321.304
11214.10667518314,-568.975
11217.725306305692,-797.48
11221.343034819707,-945.655
11224.875759069631,-952.334
11228.49170435076,-369.859
11232.022687482247,-369.859
11235.636850848638,-369.859
11239.166094148528,-369.859
11242.778476917028,-369.859
11246.305981670925,-369.859
11249.91658515709,-369.859
11253.442352649325,-369.859
11257.05117816741,-369.859
11260.575209681025,115.466
11264.182258544,-141.709
11267.704555360804,-86.6
11271.309828880325,-55.109
11274.83039228086,55.109
11278.350099642112,-170.575
11281.952723030843,-249.302
11285.470698886753,-178.448
11288.987819646914,60.357
11292.587795825824,62.982
11296.103186988752,149.581
11299.70139304264,152.205
11303.215055883851,13.121
11306.727865201254,-70.321
11310.23982130582,-82.304
11313.834511810855,-52.387
11317.34474212601,-10.132
11320.8541201677,14.895
11324.446172200132,-6.863
11327.953826352135,-104.969
11331.460629168672,-65.606
11334.96658095964,614.07
11338.471682034791,-57.733
11342.059356881087,76.103
11345.562737216636,-317.532
11349.06526777208,73.478
11352.566948856567,-244.054
11356.067780779093,141.709
11359.56776384851,-86.6
11363.1502007606,425.126
11366.648466857394,425.126
11370.145885034064,301.787
11373.642455598843,1007.705
11377.138178859836,307.035
11380.633055125,-26.242
11384.1270847021,564.21
11387.620267898808,0.0
11391.112605022612,44.612
11394.60409638087,338.526
11398.094742280777,514.349
11401.584543029392,283.417
11405.073498933603,-364.768
11408.561610300185,49.86
11412.048877435727,144.333
11415.5353006467,-254.55
11419.020880239405,204.69
11422.505616520008,70.854
11425.989509794525,404.132
11429.472560368817,-220.435
11432.954768548592,354.271
11436.43613463944,20.994
11439.916658946764,89.224
11443.313501961433,362.144
11446.79236364179,175.824
11450.270384446749,-191.569
11453.74756468115,-112.842
11457.22390464968,13.121
11460.699404656869,-223.06
11464.091344754375,-254.55
11467.565185732994,-238.805
11471.038187655771,149.581
11474.51035082668,199.442
11477.981675549512,-364.768
11481.369541233144,283.417
11484.839209915755,-490.731
11488.30804105362,230.932
11491.693473394258,-65.606
11495.16065027576,-519.598
11498.626990514544,28.867
11502.092494413417,-2.624
11505.474679896604,-36.739
11508.938531918346,648.185
11512.401548500471,257.175
11515.78130675673,-97.097
11519.242673239612,-104.969
11522.620821260369,60.357
11526.080538823127,467.113
11529.5394224415,-23.618
11532.915147579475,-2.624
11536.372384051368,-212.563
11539.74650183491,380.514
11543.202092336618,-325.405
11546.574603913472,-34.115
11550.028549620163,367.392
11553.399456136987,-325.405
11556.85175822272,28.867
11560.221060825072,-412.004
11563.67172046279,41.988
11567.039420295116,354.271
11570.488438656655,2.624
11573.854536862347,118.09
11577.301915118398,398.883
11580.666412839755,370.017
11584.030120381583,301.787
11587.475050538147,-343.774
11590.837159300165,-178.448
11594.280452266124,-314.908
11597.64096338792,70.854
11601.000685734118,349.023
11604.441534950183,1005.081
11607.79966135666,-275.544
11611.156999826935,-742.658
11614.59540789372,10.497
11617.951152122365,-375.265
11621.306109253032,18.37
11624.66027956261,-104.969
11628.09544335218,-202.066
11631.44802167594,299.162
11634.799814015252,139.084
11638.15082064648,-2.624
11641.58274474832,-112.842
11644.932161645294,191.569
11648.280793669244,-146.957
11651.62864109602,354.271
11654.975704201344,41.988
11658.403590030808,-726.912
11661.749066206958,-15.745
11665.093758894744,291.29
11668.43766836938,383.138
11671.780794905935,-181.072
11675.12313877933,-97.097
11678.4647002644,89.224
11681.805479635816,-60.357
11685.145477168146,0.0
11688.484693135812,241.429
11691.904543291126,-149.581
11695.24217790648,-246.678
11698.579031786354,81.351
11701.915105204676,68.23
11705.25039843522,690.173
11708.584911751648,110.218
11711.918645427471,-55.109
11715.251599736104,367.392
11718.502511651865,-196.817
11721.83392703817,-125.963
11725.164563870054,-191.569
11728.4944224204,-94.472
11731.823502961994,131.212
11735.15180576744,863.372
11738.479331109273,83.975
11741.806079259855,-564.21
11745.132050491462,611.446
11748.457245076206,107.593
11751.70058915004,-194.193
11755.024250183047,-188.945
11758.34713537819,175.824
11761.669245007088,-15.745
11764.990579341233,62.982
11768.230158619372,-99.721
11771.549962071174,-125.963
11774.86899103535,-241.429
11778.187245782876,5.248
11781.423821624776,112.842
11784.740547618409,-7.873
11788.05650020102,-666.555
11791.371679643096,207.314
11794.605256223578,-141.709
11797.91890903626,146.957
11801.231789512534,322.78
11804.46312397414,62.982
11807.774479408556,76.103
11811.085063309589,-65.606
11814.314157983485,330.653
11817.623218427994,-582.579
11820.850827315822,-78.727
11824.158365355152,249.302
11827.4651331948,-398.883
11830.690506166697,-20.994
11833.995753182851,215.187
11837.219642936305,57.733
11840.52337017791,-619.319
11843.745777735792,-170.575
11847.047986250807,5.248
11850.26891263506,136.46
11853.569603470474,15.745
11856.789049702087,375.265
11860.088223903953,-257.175
11863.30619100298,62.982
11866.603849616356,136.46
11869.820338601929,446.119
11873.11648267094,-162.702
11876.331494561222,-624.567
11879.545777396996,7.873
11882.839660941268,-20.994
11886.052468201013,107.593
11889.26454715598,-136.46
11892.55617250015,230.932
11895.766777396242,262.423
11899.056892350098,223.06
11902.26602420178,-76.103
11905.474428998024,272.92
11908.682106985869,-558.961
11911.969222890988,-341.15
11915.17542984806,-52.485
11918.380910743392,-31.491
11921.66577540321,236.181
11924.869786778698,-490.731
11928.07307283808,-110.218
11931.27563382762,2.624
11934.477469993468,-34.115
11937.758600089848,125.963
11940.95896924119,62.982
11944.158614312782,385.762
11947.35753555032,-194.193
11950.55573319941,10.497
11953.753207505528,380.514
11957.029868231695,120.715
11960.225878519712,370.017
11963.42116620667,-194.193
11966.615731537608,-78.727
11969.809574757444,-438.247
11973.002696111003,-425.126
11976.195095842992,-83.975
11979.386774197992,-5.248
11982.577731420495,-359.52
11985.767967754866,26.242
11988.957483445382,-207.314
11992.146278736183,-36.739
11995.334353871312,-60.357
11998.521709094712,188.945
12001.708344650193,-490.731
12004.894260781464,-178.448
12008.079457732136,335.902
12011.2639357457,-456.616
12014.44769506553,181.072
12017.630735934905,128.587
12020.81305859698,-18.37
12023.994663294816,241.429
12027.175550271351,-104.969
12030.27622427429,246.678
12033.455694464548,551.089
12036.634447655608,202.066
12039.812484089987,-152.205
12042.989804010074,-154.83
12046.166407658158,181.072
12049.26290681064,-181.072
12052.4380965329,-223.06
12055.612570703324,76.103
12058.786329563762,52.485
12061.880055974125,346.399
12065.052402807443,-280.793
12068.224035049663,2.624
12071.394952942192,36.739
12074.485910333004,-107.593
12077.655418093736,125.963
12080.824212222367,-519.598
12083.913099633974,23.618
12087.080485047096,299.162
12090.247157544738,97.097
12093.333977055809,220.435
