Raman shift,Intensity
769.98107,2563.56291
771.53541,2566.2756
773.08975,2567.63195
774.64409,2568.9883
776.19843,2570.34464
777.75277,2568.9883
779.3071,2567.63195
780.86144,2566.2756
782.41578,2564.91925
783.97012,2563.56291
785.52446,2563.56291
787.0788,2564.91925
788.63314,2567.63195
790.18748,2570.34464
791.74181,2571.70099
793.29615,2573.05734
794.85049,2573.05734
796.40483,2570.34464
797.95917,2567.63195
799.51351,2563.56291
801.06785,2558.13752
802.62219,2552.71212
804.17652,2547.28673
805.73086,2543.21769
807.2852,2537.7923
808.83954,2532.36691
810.39388,2528.29786
811.94822,2525.58517
813.50256,2520.15978
815.0569,2517.44708
816.61123,2516.09073
818.16557,2513.37804
819.71991,2512.02169
821.27425,2510.66534
825.93727,2491.67648
825.93727,2490.32013
827.49161,2498.45821
827.49161,2493.03282
827.49161,2499.81456
829.04594,2499.81456
829.04594,2497.10187
829.04594,2495.74552
829.04594,2494.38917
830.60028,2510.66534
830.60028,2499.81456
832.15462,2501.17091
832.15462,2509.309
832.15462,2503.88361
832.15462,2505.23995
832.15462,2506.5963
832.15462,2507.95265
832.15462,2502.52726
832.15462,2510.66534
832.15462,2512.02169
832.15462,2514.73439
832.15462,2513.37804
832.15462,2512.02169
833.70896,2516.09073
833.70896,2514.73439
833.70896,2513.37804
835.2633,2516.09073
835.2633,2517.44708
835.2633,2514.73439
836.81764,2517.44708
836.81764,2514.73439
836.81764,2518.80343
838.37198,2517.44708
838.37198,2518.80343
839.92632,2521.51613
839.92632,2520.15978
839.92632,2518.80343
839.92632,2518.80343
841.48066,2521.51613
841.48066,2522.87247
841.48066,2518.80343
843.03499,2521.51613
843.03499,2522.87247
843.03499,2525.58517
843.03499,2524.22882
844.58933,2525.58517
844.58933,2524.22882
844.58933,2526.94152
846.14367,2526.94152
846.14367,2525.58517
847.69801,2535.0796
847.69801,2526.94152
847.69801,2528.29786
847.69801,2533.72326
849.25235,2526.94152
849.25235,2535.0796
849.25235,2532.36691
850.80669,2528.29786
850.80669,2535.0796
850.80669,2531.01056
850.80669,2529.65421
850.80669,2526.94152
852.36103,2528.29786
852.36103,2535.0796
853.91537,2535.0796
853.91537,2536.43595
853.91537,2541.86134
855.4697,2536.43595
855.4697,2539.14865
855.4697,2540.50499
855.4697,2549.99943
855.4697,2543.21769
855.4697,2537.7923
855.4697,2545.93039
855.4697,2547.28673
855.4697,2548.64308
857.02404,2556.78117
857.02404,2551.35578
857.02404,2552.71212
857.02404,2554.06847
857.02404,2555.42482
857.02404,2544.57404
858.57838,2558.13752
858.57838,2559.49386
860.13272,2564.91925
860.13272,2566.2756
860.13272,2560.85021
860.13272,2562.20656
860.13272,2563.56291
861.68706,2567.63195
863.2414,2573.05734
863.2414,2571.70099
863.2414,2568.9883
863.2414,2570.34464
864.79574,2574.41369
866.35008,2583.90812
866.35008,2577.12638
866.35008,2575.77004
866.35008,2581.19543
866.35008,2582.55177
867.90441,2578.48273
867.90441,2585.26447
867.90441,2579.83908
867.90441,2586.62082
867.90441,2590.68986
867.90441,2589.33351
867.90441,2592.04621
869.45875,2587.97717
869.45875,2593.40256
869.45875,2594.7589
869.45875,2596.11525
869.45875,2600.1843
869.45875,2598.82795
871.01309,2597.4716
871.01309,2601.54064
871.01309,2602.89699
872.56743,2604.25334
872.56743,2605.60969
872.56743,2606.96603
872.56743,2608.32238
872.56743,2609.67873
874.12177,2611.03508
875.67611,2611.03508
875.67611,2612.39143
877.23045,2612.39143
878.78479,2612.39143
878.78479,2615.10412
878.78479,2613.74777
880.33912,2615.10412
880.33912,2616.46047
881.89346,2616.46047
883.4478,2616.46047
885.00214,2616.46047
886.55648,2616.46047
888.11082,2612.39143
888.11082,2615.10412
888.11082,2613.74777
888.11082,2609.67873
888.11082,2611.03508
888.11082,2608.32238
888.11082,2606.96603
889.66516,2606.96603
889.66516,2605.60969
889.66516,2604.25334
891.2195,2604.25334
892.77384,2604.25334
894.32817,2604.25334
895.88251,2604.25334
895.88251,2601.54064
895.88251,2600.1843
895.88251,2598.82795
895.88251,2597.4716
895.88251,2602.89699
897.43685,2597.4716
897.43685,2594.7589
897.43685,2596.11525
898.99119,2593.40256
898.99119,2594.7589
900.54553,2592.04621
900.54553,2593.40256
902.09987,2592.04621
903.65421,2592.04621
905.20855,2592.04621
906.76288,2592.04621
908.31722,2589.33351
908.31722,2590.68986
926.96929,2631.38029
926.96929,2630.02395
928.52363,2628.6676
928.52363,2627.31125
928.52363,2625.9549
930.07797,2625.9549
931.6323,2625.9549
933.18664,2625.9549
933.18664,2624.59855
934.74098,2624.59855
936.29532,2623.24221
936.29532,2621.88586
936.29532,2620.52951
936.29532,2619.17316
936.29532,2617.81682
936.29532,2616.46047
937.84966,2615.10412
939.404,2615.10412
940.95834,2615.10412
942.51268,2616.46047
944.06701,2616.46047
944.06701,2615.10412
945.62135,2616.46047
945.62135,2617.81682
947.17569,2617.81682
948.73003,2619.17316
948.73003,2617.81682
950.28437,2628.6676
950.28437,2620.52951
950.28437,2627.31125
950.28437,2630.02395
950.28437,2631.38029
950.28437,2619.17316
951.83871,2621.88586
951.83871,2620.52951
951.83871,2625.9549
951.83871,2631.38029
953.39305,2631.38029
953.39305,2624.59855
953.39305,2623.24221
954.94739,2631.38029
956.50173,2631.38029
958.05606,2634.09299
958.05606,2635.44934
958.05606,2632.73664
959.6104,2636.80568
959.6104,2638.16203
959.6104,2647.65647
961.16474,2642.23108
961.16474,2649.01281
961.16474,2640.87473
961.16474,2639.51838
961.16474,2668.00168
961.16474,2670.71438
961.16474,2644.94377
961.16474,2672.07073
961.16474,2666.64534
961.16474,2646.30012
961.16474,2643.58742
961.16474,2661.21994
962.71908,2673.42707
962.71908,2662.57629
962.71908,2676.13977
962.71908,2669.35803
962.71908,2678.85246
962.71908,2680.20881
962.71908,2665.28899
962.71908,2650.36916
962.71908,2651.72551
962.71908,2674.78342
962.71908,2659.8636
962.71908,2655.79455
964.27342,2653.08186
964.27342,2658.50725
964.27342,2657.1509
964.27342,2654.43821
964.27342,2682.92151
964.27342,2677.49612
964.27342,2681.56516
964.27342,2663.93264
965.82776,2684.27786
965.82776,2692.41594
967.3821,2695.12864
967.3821,2691.05959
967.3821,2693.77229
967.3821,2685.6342
968.93644,2689.70325
968.93644,2688.3469
968.93644,2686.99055
968.93644,2697.84133
968.93644,2699.19768
968.93644,2700.55403
968.93644,2701.91038
968.93644,2696.48499
970.49077,2704.62307
970.49077,2705.97942
970.49077,2703.26672
970.49077,2708.69212
970.49077,2707.33577
972.04511,2711.40481
972.04511,2712.76116
972.04511,2710.04846
973.59945,2719.5429
973.59945,2714.11751
973.59945,2718.18655
973.59945,2715.47385
973.59945,2716.8302
975.15379,2720.89925
975.15379,2723.61194
975.15379,2724.96829
975.15379,2722.25559
975.15379,2727.68098
975.15379,2726.32464
976.70813,2730.39368
976.70813,2729.03733
976.70813,2733.10638
976.70813,2731.75003
978.26247,2734.46272
978.26247,2737.17542
978.26247,2735.81907
979.81681,2739.88811
979.81681,2738.53177
981.37115,2741.24446
982.92548,2746.66985
982.92548,2749.38255
982.92548,2748.0262
982.92548,2742.60081
984.47982,2745.3135
984.47982,2750.7389
984.47982,2742.60081
986.03416,2742.60081
986.03416,2752.09524
986.03416,2743.95716
987.5885,2757.52063
987.5885,2756.16429
987.5885,2754.80794
987.5885,2753.45159
993.80586,2745.3135
993.80586,2743.95716
993.80586,2723.61194
993.80586,2724.96829
993.80586,2726.32464
993.80586,2727.68098
993.80586,2729.03733
993.80586,2730.39368
993.80586,2731.75003
993.80586,2733.10638
993.80586,2734.46272
993.80586,2741.24446
993.80586,2742.60081
995.36019,2738.53177
995.36019,2737.17542
995.36019,2735.81907
995.36019,2739.88811
995.36019,2722.25559
995.36019,2720.89925
995.36019,2746.66985
995.36019,2748.0262
996.91453,2720.89925
998.46887,2720.89925
1000.02321,2720.89925
1001.57755,2712.76116
1001.57755,2720.89925
1001.57755,2719.5429
1001.57755,2714.11751
1001.57755,2718.18655
1001.57755,2716.8302
1001.57755,2715.47385
1003.13189,2711.40481
1004.68623,2711.40481
1006.24057,2710.04846
1006.24057,2711.40481
1006.24057,2708.69212
1007.79491,2704.62307
1007.79491,2705.97942
1007.79491,2707.33577
1028.00131,2741.24446
1028.00131,2742.60081
1028.00131,2743.95716
1029.55565,2738.53177
1029.55565,2731.75003
1029.55565,2739.88811
1031.10999,2731.75003
1031.10999,2718.18655
1031.10999,2723.61194
1031.10999,2722.25559
1031.10999,2720.89925
1031.10999,2719.5429
1031.10999,2729.03733
1031.10999,2737.17542
1031.10999,2735.81907
1031.10999,2734.46272
1031.10999,2733.10638
1031.10999,2730.39368
1031.10999,2726.32464
1031.10999,2727.68098
1031.10999,2724.96829
1032.66433,2738.53177
1032.66433,2704.62307
1032.66433,2703.26672
1032.66433,2701.91038
1032.66433,2720.89925
1032.66433,2737.17542
1032.66433,2712.76116
1032.66433,2734.46272
1032.66433,2716.8302
1032.66433,2733.10638
1032.66433,2707.33577
1032.66433,2708.69212
1032.66433,2710.04846
1032.66433,2711.40481
1032.66433,2719.5429
1032.66433,2730.39368
1032.66433,2729.03733
1034.21866,2727.68098
1034.21866,2718.18655
1034.21866,2697.84133
1034.21866,2724.96829
1034.21866,2726.32464
1034.21866,2700.55403
1034.21866,2722.25559
1034.21866,2714.11751
1034.21866,2705.97942
1034.21866,2715.47385
1034.21866,2735.81907
1034.21866,2699.19768
1035.773,2716.8302
1035.773,2715.47385
1035.773,2723.61194
1035.773,2700.55403
1035.773,2714.11751
1035.773,2697.84133
1035.773,2696.48499
1037.32734,2695.12864
1037.32734,2692.41594
1037.32734,2712.76116
1037.32734,2696.48499
1037.32734,2697.84133
1037.32734,2699.19768
1037.32734,2700.55403
1037.32734,2701.91038
1038.88168,2693.77229
1038.88168,2703.26672
1038.88168,2704.62307
1038.88168,2705.97942
1038.88168,2707.33577
1038.88168,2708.69212
1038.88168,2710.04846
1038.88168,2711.40481
1038.88168,2695.12864
1040.43602,2695.12864
1041.99036,2695.12864
1043.5447,2695.12864
1045.09904,2696.48499
1046.65337,2696.48499
1048.20771,2695.12864
1048.20771,2696.48499
1049.76205,2696.48499
1051.31639,2696.48499
1052.87073,2697.84133
1052.87073,2699.19768
1054.42507,2699.19768
1054.42507,2700.55403
1055.97941,2700.55403
1055.97941,2701.91038
1055.97941,2703.26672
1055.97941,2704.62307
1055.97941,2705.97942
1057.53375,2705.97942
1059.08808,2707.33577
1060.64242,2707.33577
1062.19676,2707.33577
1063.7511,2705.97942
1065.30544,2707.33577
1065.30544,2705.97942
1066.85978,2705.97942
1066.85978,2704.62307
1068.41412,2704.62307
1069.96846,2704.62307
1069.96846,2703.26672
1071.5228,2701.91038
1073.07713,2700.55403
1073.07713,2699.19768
1073.07713,2697.84133
1073.07713,2696.48499
1073.07713,2692.41594
1073.07713,2693.77229
1074.63147,2695.12864
1074.63147,2691.05959
1074.63147,2689.70325
1074.63147,2688.3469
1076.18581,2686.99055
1076.18581,2685.6342
1076.18581,2669.35803
1076.18581,2668.00168
1076.18581,2677.49612
1076.18581,2670.71438
1077.74015,2668.00168
1077.74015,2684.27786
1077.74015,2666.64534
1077.74015,2672.07073
1077.74015,2665.28899
1077.74015,2680.20881
1077.74015,2676.13977
1077.74015,2678.85246
1079.29449,2674.78342
1079.29449,2681.56516
1079.29449,2682.92151
1079.29449,2673.42707
1079.29449,2665.28899
1079.29449,2663.93264
1079.29449,2662.57629
1080.84883,2662.57629
1080.84883,2661.21994
1082.40317,2661.21994
1082.40317,2659.8636
1083.95751,2659.8636
1083.95751,2658.50725
1085.51184,2658.50725
1085.51184,2657.1509
1087.06618,2657.1509
1087.06618,2655.79455
1088.62052,2655.79455
1088.62052,2654.43821
1088.62052,2653.08186
1090.17486,2651.72551
1091.7292,2651.72551
1091.7292,2650.36916
1093.28354,2649.01281
1094.83788,2649.01281
1094.83788,2647.65647
1096.39222,2647.65647
1096.39222,2646.30012
1096.39222,2644.94377
1097.94655,2644.94377
1099.50089,2644.94377
1099.50089,2643.58742
1101.05523,2642.23108
1101.05523,2640.87473
1101.05523,2639.51838
1102.60957,2639.51838
1104.16391,2639.51838
1105.71825,2639.51838
1105.71825,2638.16203
1105.71825,2636.80568
1105.71825,2635.44934
1105.71825,2634.09299
1107.27259,2634.09299
1107.27259,2632.73664
1108.82693,2632.73664
1110.38126,2632.73664
1111.9356,2632.73664
1113.48994,2632.73664
1115.04428,2632.73664
1115.04428,2631.38029
1116.59862,2631.38029
1116.59862,2630.02395
1116.59862,2628.6676
1116.59862,2627.31125
1116.59862,2625.9549
1116.59862,2624.59855
1118.15296,2624.59855
1119.7073,2623.24221
1121.26164,2623.24221
1122.81598,2623.24221
1124.37031,2624.59855
1125.92465,2625.9549
1127.47899,2625.9549
1129.03333,2625.9549
1130.58767,2625.9549
1130.58767,2624.59855
1130.58767,2623.24221
1130.58767,2621.88586
1130.58767,2620.52951
1130.58767,2619.17316
1130.58767,2617.81682
1132.14201,2616.46047
1132.14201,2617.81682
1133.69635,2616.46047
1135.25069,2616.46047
1136.80502,2616.46047
1138.35936,2615.10412
1138.35936,2616.46047
1139.9137,2615.10412
1139.9137,2612.39143
1139.9137,2611.03508
1139.9137,2613.74777
1141.46804,2611.03508
1141.46804,2608.32238
1141.46804,2609.67873
1143.02238,2606.96603
1143.02238,2605.60969
1143.02238,2608.32238
1144.57672,2604.25334
1144.57672,2605.60969
1146.13106,2601.54064
1146.13106,2602.89699
1147.6854,2601.54064
1147.6854,2600.1843
1147.6854,2598.82795
1149.23973,2597.4716
1149.23973,2596.11525
1149.23973,2598.82795
1150.79407,2596.11525
1152.34841,2594.7589
1153.90275,2592.04621
1153.90275,2590.68986
1153.90275,2593.40256
1155.45709,2589.33351
1155.45709,2590.68986
1155.45709,2586.62082
1155.45709,2585.26447
1155.45709,2583.90812
1155.45709,2582.55177
1155.45709,2587.97717
1157.01143,2582.55177
1158.56577,2581.19543
1158.56577,2582.55177
1160.12011,2581.19543
1161.67444,2581.19543
1163.22878,2581.19543
1164.78312,2579.83908
1166.33746,2581.19543
1167.8918,2582.55177
1169.44614,2581.19543
1169.44614,2579.83908
1169.44614,2578.48273
1169.44614,2577.12638
1169.44614,2582.55177
1171.00048,2575.77004
1171.00048,2577.12638
1172.55482,2575.77004
1174.10915,2574.41369
1174.10915,2575.77004
1175.66349,2573.05734
1175.66349,2574.41369
1177.21783,2571.70099
1177.21783,2573.05734
1178.77217,2571.70099
1180.32651,2570.34464
1180.32651,2568.9883
1180.32651,2571.70099
1181.88085,2567.63195
1181.88085,2568.9883
1183.43519,2567.63195
1184.98953,2566.2756
1184.98953,2567.63195
1186.54387,2566.2756
1188.0982,2567.63195
1189.65254,2568.9883
1191.20688,2567.63195
1192.76122,2567.63195
1194.31556,2568.9883
1195.8699,2570.34464
1197.42424,2570.34464
1198.97858,2568.9883
1198.97858,2566.2756
1198.97858,2564.91925
1198.97858,2563.56291
1198.97858,2562.20656
1198.97858,2560.85021
1198.97858,2567.63195
1200.53291,2559.49386
1200.53291,2560.85021
1202.08725,2558.13752
1202.08725,2556.78117
1202.08725,2559.49386
1203.64159,2555.42482
1203.64159,2554.06847
1203.64159,2556.78117
1205.19593,2554.06847
1206.75027,2552.71212
1208.30461,2552.71212
1209.85895,2554.06847
1211.41329,2555.42482
1212.96762,2556.78117
1214.52196,2555.42482
1216.0763,2556.78117
1217.63064,2556.78117
1219.18498,2555.42482
1219.18498,2552.71212
1219.18498,2551.35578
1219.18498,2549.99943
1219.18498,2548.64308
1219.18498,2554.06847
1220.73932,2547.28673
1222.29366,2545.93039
1223.848,2544.57404
1223.848,2543.21769
1223.848,2545.93039
1225.40233,2543.21769
1226.95667,2541.86134
1228.51101,2541.86134
1230.06535,2543.21769
1231.61969,2544.57404
1233.17403,2545.93039
1234.72837,2545.93039
1236.28271,2545.93039
1237.83705,2545.93039
1239.39138,2544.57404
1239.39138,2543.21769
1239.39138,2541.86134
1239.39138,2540.50499
1239.39138,2545.93039
1240.94572,2539.14865
1242.50006,2537.7923
1242.50006,2539.14865
1244.0544,2537.7923
1245.60874,2537.7923
1247.16308,2537.7923
1248.71742,2537.7923
1250.27176,2540.50499
1250.27176,2541.86134
1250.27176,2543.21769
1250.27176,2544.57404
1250.27176,2539.14865
1251.82609,2545.93039
1253.38043,2547.28673
1254.93477,2548.64308
1254.93477,2547.28673
1256.48911,2548.64308
1258.04345,2549.99943
1258.04345,2548.64308
1259.59779,2551.35578
1259.59779,2549.99943
1261.15213,2552.71212
1261.15213,2551.35578
1262.70647,2552.71212
1264.2608,2552.71212
1264.2608,2554.06847
1265.81514,2554.06847
1267.36948,2554.06847
1268.92382,2554.06847
1268.92382,2555.42482
1270.47816,2556.78117
1270.47816,2558.13752
1270.47816,2559.49386
1270.47816,2555.42482
1272.0325,2560.85021
1273.58684,2560.85021
1275.14118,2563.56291
1275.14118,2562.20656
1275.14118,2564.91925
1276.69551,2566.2756
1276.69551,2567.63195
1276.69551,2564.91925
1276.69551,2570.34464
1276.69551,2571.70099
1276.69551,2573.05734
1276.69551,2574.41369
1276.69551,2568.9883
1278.24985,2575.77004
1278.24985,2574.41369
1279.80419,2577.12638
1279.80419,2575.77004
1281.35853,2577.12638
1282.91287,2577.12638
1284.46721,2577.12638
1286.02155,2577.12638
1287.57589,2577.12638
1287.57589,2575.77004
1289.13022,2577.12638
1289.13022,2574.41369
1290.68456,2575.77004
1290.68456,2574.41369
1290.68456,2574.41369
1292.2389,2573.05734
1292.2389,2573.05734
1293.79324,2571.70099
1293.79324,2571.70099
1295.34758,2570.34464
1295.34758,2570.34464
1296.90192,2571.70099
1296.90192,2573.05734
1296.90192,2574.41369
1296.90192,2571.70099
1296.90192,2575.77004
1298.45626,2577.12638
1298.45626,2575.77004
1298.45626,2573.05734
1300.0106,2574.41369
1300.0106,2578.48273
1300.0106,2577.12638
1300.0106,2579.83908
1301.56494,2581.19543
1301.56494,2577.12638
1303.11927,2578.48273
1303.11927,2581.19543
1304.67361,2583.90812
1304.67361,2581.19543
1304.67361,2582.55177
1304.67361,2585.26447
1304.67361,2581.19543
1306.22795,2585.26447
1306.22795,2582.55177
1306.22795,2586.62082
1307.78229,2585.26447
1307.78229,2586.62082
1307.78229,2587.97717
1309.33663,2589.33351
1309.33663,2587.97717
1309.33663,2586.62082
1310.89097,2590.68986
1310.89097,2587.97717
1312.44531,2590.68986
1312.44531,2589.33351
1313.99965,2590.68986
1313.99965,2592.04621
1313.99965,2590.68986
1315.55398,2596.11525
1315.55398,2590.68986
1315.55398,2592.04621
1317.10832,2593.40256
1317.10832,2589.33351
1317.10832,2594.7589
1318.66266,2587.97717
1320.217,2585.26447
1321.77134,2582.55177
1323.32568,2578.48273
1324.88002,2575.77004
1326.43436,2573.05734
1327.98869,2570.34464
1329.54303,2567.63195
1331.09737,2564.91925
1332.65171,2562.20656
1334.20605,2560.85021
1335.76039,2558.13752
1337.31473,2556.78117
1338.86907,2555.42482
1340.4234,2552.71212
1341.97774,2551.35578
1343.53208,2549.99943
1345.08642,2548.64308
1346.64076,2548.64308
1348.1951,2549.99943
1349.74944,2551.35578
1351.30378,2552.71212
1352.85812,2554.06847
1354.41245,2555.42482
1355.96679,2555.42482
1357.52113,2556.78117
1359.07547,2556.78117
1360.62981,2556.78117
1362.18415,2556.78117
1363.73849,2556.78117
1365.29283,2556.78117
1366.84716,2554.06847
1368.4015,2554.06847
1369.95584,2551.35578
1371.51018,2549.99943
1373.06452,2548.64308
1374.61886,2548.64308
1376.1732,2547.28673
1377.72754,2547.28673
1379.28187,2548.64308
1380.83621,2549.99943
1382.39055,2549.99943
1383.94489,2551.35578
1385.49923,2552.71212
1387.05357,2552.71212
1388.60791,2554.06847
1390.16225,2555.42482
1391.71658,2556.78117
1393.27092,2558.13752
1394.82526,2559.49386
1396.3796,2560.85021
1397.93394,2562.20656
1399.48828,2563.56291
1401.04262,2566.2756
1402.59696,2567.63195
1404.15129,2567.63195
1405.70563,2567.63195
1407.25997,2566.2756
1408.81431,2564.91925
1410.36865,2563.56291
1411.92299,2562.20656
1413.47733,2560.85021
1415.03167,2560.85021
1416.58601,2559.49386
1418.14034,2559.49386
1419.69468,2559.49386
1421.24902,2559.49386
1422.80336,2559.49386
1424.3577,2559.49386
1425.91204,2558.13752
1427.46638,2556.78117
1429.02072,2555.42482
1430.57505,2554.06847
1432.12939,2552.71212
1433.68373,2552.71212
1435.23807,2551.35578
1436.79241,2551.35578
1438.34675,2551.35578
1439.90109,2551.35578
1441.45543,2552.71212
1443.00976,2554.06847
1444.5641,2556.78117
1446.11844,2558.13752
1447.67278,2560.85021
1449.22712,2563.56291
1450.78146,2564.91925
1452.3358,2567.63195
1453.89014,2568.9883
1455.44447,2570.34464
1456.99881,2571.70099
1458.55315,2571.70099
1460.10749,2571.70099
1461.66183,2570.34464
1463.21617,2570.34464
1464.77051,2568.9883
1466.32485,2567.63195
1467.87919,2566.2756
1469.43352,2563.56291
1470.98786,2562.20656
1472.5422,2560.85021
1474.09654,2559.49386
1475.65088,2559.49386
1477.20522,2558.13752
1478.75956,2558.13752
1480.3139,2556.78117
1481.86823,2559.49386
1483.42257,2562.20656
1484.97691,2564.91925
1486.53125,2570.34464
1488.08559,2575.77004
1489.63993,2578.48273
1491.19427,2582.55177
1492.74861,2583.90812
1494.30294,2586.62082
1495.85728,2586.62082
1497.41162,2586.62082
1498.96596,2586.62082
1500.5203,2586.62082
1502.07464,2585.26447
1503.62898,2583.90812
1505.18332,2582.55177
1506.73765,2581.19543
1508.29199,2579.83908
1509.84633,2577.12638
1511.40067,2575.77004
1512.95501,2573.05734
1514.50935,2571.70099
1534.77277,2602.32062
1539.92445,2617.60357
1562.59186,2637.38151
1596.8893,2628.6676
1596.8893,2630.02395
1598.44364,2627.31125
1599.99798,2625.9549
1599.99798,2627.31125
1601.55232,2625.9549
1603.10666,2619.17316
1603.10666,2625.9549
1603.10666,2624.59855
1603.10666,2623.24221
1603.10666,2621.88586
1603.10666,2620.52951
1604.661,2617.81682
1606.21534,2617.81682
1606.21534,2616.46047
1607.76968,2616.46047
1609.32401,2616.46047
1610.87835,2615.10412
1612.43269,2616.46047
1613.98703,2617.81682
1615.54137,2619.17316
1617.09571,2615.10412
1617.09571,2616.46047
1617.09571,2619.17316
1617.09571,2613.74777
1617.09571,2612.39143
1617.09571,2611.03508
1617.09571,2617.81682
1618.65005,2611.03508
1620.20439,2611.03508
1621.75872,2611.03508
1623.31306,2609.67873
1623.31306,2611.03508
1624.8674,2600.1843
1624.8674,2608.32238
1624.8674,2606.96603
1624.8674,2605.60969
1624.8674,2604.25334
1624.8674,2598.82795
1624.8674,2601.54064
1624.8674,2602.89699
1626.42174,2598.82795
1627.97608,2598.82795
1629.53042,2600.1843
1631.08476,2601.54064
1632.6391,2602.89699
1634.19343,2602.89699
1635.74777,2602.89699
1637.30211,2602.89699
1638.85645,2602.89699
1640.41079,2602.89699
1641.96513,2602.89699
1643.51947,2601.54064
1645.07381,2601.54064
1646.62815,2601.54064
1648.18248,2600.1843
1649.73682,2600.1843
1651.29116,2598.82795
1652.8455,2598.82795
1654.39984,2593.40256
1654.39984,2592.04621
1654.39984,2598.82795
1654.39984,2597.4716
1654.39984,2596.11525
1654.39984,2594.7589
1655.95418,2592.04621
1655.95418,2590.68986
1657.50852,2589.33351
1657.50852,2590.68986
1659.06286,2589.33351
1659.06286,2587.97717
1660.61719,2586.62082
1660.61719,2587.97717
1662.17153,2586.62082
1662.17153,2585.26447
1663.72587,2585.26447
1663.72587,2583.90812
1665.28021,2583.90812
1666.83455,2583.90812
1666.83455,2582.55177
1668.38889,2582.55177
1669.94323,2582.55177
1669.94323,2581.19543
1671.49757,2579.83908
1673.0519,2579.83908
1674.60624,2579.83908
1676.16058,2581.19543
1677.71492,2582.55177
1679.26926,2582.55177
1680.8236,2581.19543
1682.37794,2582.55177
1682.37794,2583.90812
1682.37794,2585.26447
1682.37794,2586.62082
1682.37794,2581.19543
1683.93228,2586.62082
1685.48661,2587.97717
1685.48661,2589.33351
1685.48661,2586.62082
1687.04095,2590.68986
1688.59529,2592.04621
1690.14963,2593.40256
1691.70397,2593.40256
1693.25831,2594.7589
1694.81265,2594.7589
1696.36699,2593.40256
1697.92133,2592.04621
1699.47566,2593.40256
1701.03,2594.7589
1702.58434,2594.7589
1704.13868,2592.04621
1704.13868,2590.68986
1704.13868,2589.33351
1704.13868,2587.97717
1704.13868,2586.62082
1704.13868,2593.40256
1705.69302,2586.62082
1705.69302,2583.90812
1705.69302,2582.55177
1707.24736,2581.19543
1707.24736,2579.83908
1707.24736,2575.77004
1707.24736,2586.62082
1707.24736,2578.48273
1707.24736,2577.12638
1707.24736,2585.26447
1708.8017,2586.62082
1708.8017,2574.41369
1710.35604,2567.63195
1710.35604,2573.05734
1710.35604,2568.9883
1711.91037,2571.70099
1711.91037,2566.2756
1711.91037,2564.91925
1711.91037,2570.34464
1713.46471,2563.56291
1715.01905,2563.56291
1716.57339,2563.56291
1718.12773,2559.49386
1718.12773,2563.56291
1719.68207,2559.49386
1719.68207,2562.20656
1719.68207,2560.85021
1719.68207,2563.56291
1721.23641,2559.49386
1721.23641,2558.13752
1722.79075,2549.99943
1722.79075,2558.13752
1722.79075,2556.78117
1722.79075,2555.42482
1722.79075,2554.06847
1722.79075,2552.71212
1722.79075,2551.35578
1722.79075,2548.64308
1724.34508,2548.64308
1724.34508,2547.28673
1725.89942,2547.28673
1725.89942,2545.93039
1727.45376,2545.93039
1729.0081,2544.57404
1730.56244,2544.57404
1732.11678,2545.93039
1733.67112,2547.28673
1733.67112,2545.93039
1733.67112,2549.99943
1733.67112,2548.64308
1733.67112,2551.35578
1735.22546,2552.71212
1735.22546,2551.35578
1736.77979,2552.71212
1736.77979,2554.06847
1738.33413,2554.06847
1738.33413,2555.42482
1739.88847,2555.42482
1739.88847,2556.78117
1741.44281,2556.78117
1741.44281,2558.13752
1742.99715,2558.13752
1744.55149,2558.13752
1746.10583,2558.13752
1747.66017,2559.49386
1749.2145,2559.49386
1750.76884,2559.49386
1752.32318,2559.49386
1753.87752,2556.78117
1753.87752,2555.42482
1753.87752,2554.06847
1753.87752,2552.71212
1753.87752,2551.35578
1753.87752,2549.99943
1753.87752,2548.64308
1753.87752,2558.13752
1755.43186,2548.64308
1755.43186,2545.93039
1755.43186,2547.28673
1756.9862,2544.57404
1756.9862,2545.93039
1758.54054,2543.21769
1758.54054,2544.57404
1760.09488,2543.21769
1760.09488,2541.86134
1761.64922,2541.86134
1763.20355,2543.21769
1764.75789,2544.57404
1766.31223,2544.57404
1767.86657,2545.93039
1769.42091,2544.57404
1770.97525,2543.21769
1772.52959,2541.86134
1772.52959,2543.21769
1772.52959,2547.28673
1772.52959,2545.93039
1772.52959,2544.57404
1774.08393,2548.64308
1775.63826,2548.64308
1775.63826,2549.99943
1777.1926,2549.99943
1778.74694,2549.99943
1780.30128,2548.64308
1780.30128,2548.64308
1781.85562,2548.64308
1781.85562,2547.28673
1783.40996,2547.28673
1783.40996,2548.64308
1784.9643,2548.64308
1784.9643,2548.64308
1786.51864,2549.99943
1786.51864,2549.99943
1788.07297,2551.35578
1788.07297,2548.64308
1789.62731,2548.64308
1789.62731,2549.99943
1791.18165,2547.28673
1791.18165,2545.93039
1791.18165,2543.21769
1791.18165,2549.99943
1791.18165,2548.64308
1791.18165,2547.28673
1791.18165,2544.57404
1792.73599,2545.93039
1792.73599,2541.86134
1794.29033,2541.86134
1794.29033,2545.93039
1795.84467,2541.86134
1795.84467,2544.57404
1797.39901,2540.50499
1797.39901,2543.21769
1798.95335,2543.21769
1798.95335,2540.50499
1800.50768,2539.14865
1800.50768,2543.21769
1802.06202,2544.57404
1803.61636,2545.93039
1805.1707,2547.28673
1806.72504,2548.64308
1808.27938,2548.64308
1809.83372,2548.64308
1811.38806,2548.64308
1812.9424,2547.28673
1814.49673,2545.93039
1816.05107,2544.57404
1817.60541,2544.57404
1819.15975,2543.21769
1820.71409,2543.21769
1822.26843,2543.21769
1823.82277,2543.21769
1825.37711,2544.57404
1826.93144,2544.57404
1828.48578,2545.93039
1830.04012,2547.28673
1831.59446,2547.28673
1833.1488,2548.64308
1834.70314,2549.99943
1836.25748,2549.99943
1837.81182,2549.99943
1839.36615,2548.64308
1840.92049,2547.28673
1842.47483,2545.93039
1844.02917,2544.57404
1845.58351,2543.21769
1847.13785,2541.86134
1848.69219,2540.50499
1850.24653,2539.14865
1851.80086,2536.43595
1853.3552,2533.72326
1856.46388,2531.01056
1858.01822,2531.01056
1859.57256,2529.65421
1861.1269,2528.29786
1862.68124,2528.29786
1864.23557,2528.29786
1865.78991,2528.29786
1867.34425,2529.65421
1868.89859,2531.01056
1870.45293,2532.36691
1872.00727,2533.72326
1873.56161,2533.72326
1875.11595,2535.0796
1876.67029,2535.0796
1878.22462,2536.43595
1879.77896,2536.43595
1881.3333,2536.43595
1882.88764,2536.43595
1884.44198,2536.43595
1885.99632,2535.0796
1887.55066,2535.0796
1889.105,2535.0796
1890.65933,2535.0796
1892.21367,2535.0796
1893.76801,2535.0796
1895.32235,2535.0796
1896.87669,2535.0796
1898.43103,2533.72326
1899.98537,2535.0796
1901.53971,2535.0796
1903.09404,2537.7923
1904.64838,2540.50499
1906.20272,2543.21769
1907.75706,2547.28673
1909.3114,2549.99943
1910.86574,2554.06847
1912.42008,2556.78117
1913.97442,2556.78117
1915.52875,2555.42482
1917.08309,2554.06847
1918.63743,2552.71212
1920.19177,2551.35578
1921.74611,2548.64308
1923.30045,2545.93039
1924.85479,2544.57404
1926.40913,2541.86134
1927.96346,2540.50499
1929.5178,2537.7923
1931.07214,2536.43595
1932.62648,2535.0796
1934.18082,2535.0796
1935.73516,2535.0796
1937.2895,2535.0796
1938.84384,2537.7923
1940.39818,2539.14865
1941.95251,2543.21769
1943.50685,2545.93039
1945.06119,2549.99943
1946.61553,2555.42482
1948.16987,2558.13752
1949.72421,2560.85021
1951.27855,2563.56291
1952.83289,2566.2756
1954.38722,2566.2756
1955.94156,2566.2756
1957.4959,2566.2756
1959.05024,2564.91925
1960.60458,2563.56291
1962.15892,2562.20656
1963.71326,2559.49386
1965.2676,2556.78117
1966.82193,2552.71212
1968.37627,2549.99943
1969.93061,2547.28673
1971.48495,2543.21769
1973.03929,2540.50499
1974.59363,2536.43595
1976.14797,2533.72326
1977.70231,2531.01056
1979.25664,2529.65421
1980.81098,2529.65421
1982.36532,2528.29786
1983.91966,2529.65421
1985.474,2529.65421
1987.02834,2529.65421
1988.58268,2529.65421
1990.13702,2529.65421
1991.69136,2529.65421
1993.24569,2529.65421
1994.80003,2531.01056
1996.35437,2532.36691
1997.90871,2535.0796
1999.46305,2537.7923
2001.01739,2539.14865
2002.57173,2543.21769
2004.12607,2545.93039
2005.6804,2547.28673
2007.23474,2547.28673
2008.78908,2547.28673
2010.34342,2545.93039
2011.89776,2544.57404
2013.4521,2543.21769
2015.00644,2540.50499
2016.56078,2540.50499
2018.11511,2539.14865
2019.66945,2537.7923
2021.22379,2537.7923
2022.77813,2537.7923
2024.33247,2536.43595
2025.88681,2535.0796
2027.44115,2535.0796
2028.99549,2533.72326
2030.54982,2533.72326
2032.10416,2533.72326
2033.6585,2532.36691
2035.21284,2533.72326
2036.76718,2536.43595
2038.32152,2537.7923
2039.87586,2540.50499
2041.4302,2541.86134
2042.98453,2543.21769
2044.53887,2544.57404
2046.09321,2544.57404
2047.64755,2543.21769
2049.20189,2543.21769
2050.75623,2541.86134
2052.31057,2540.50499
2053.86491,2540.50499
2055.41925,2540.50499
2056.97358,2540.50499
2058.52792,2540.50499
2060.08226,2540.50499
2061.6366,2543.21769
2063.19094,2544.57404
2064.74528,2544.57404
2066.29962,2547.28673
2067.85396,2548.64308
2069.40829,2551.35578
2070.96263,2552.71212
2072.51697,2554.06847
2074.07131,2552.71212
2075.62565,2552.71212
2077.17999,2552.71212
2078.73433,2552.71212
2080.28867,2554.06847
2081.843,2555.42482
2083.39734,2556.78117
2084.95168,2559.49386
2086.50602,2560.85021
2088.06036,2562.20656
2089.6147,2563.56291
2091.16904,2566.2756
2092.72338,2566.2756
2094.27771,2566.2756
2095.83205,2564.91925
2097.38639,2564.91925
2098.94073,2564.91925
2100.49507,2564.91925
2102.04941,2564.91925
2103.60375,2563.56291
2105.15809,2562.20656
2106.71243,2562.20656
2108.26676,2560.85021
2109.8211,2559.49386
2111.37544,2558.13752
2112.92978,2556.78117
2114.48412,2555.42482
2116.03846,2555.42482
2117.5928,2554.06847
2119.14714,2554.06847
2120.70147,2554.06847
2122.25581,2555.42482
2123.81015,2555.42482
2125.36449,2555.42482
2126.91883,2554.06847
2128.47317,2552.71212
2130.02751,2549.99943
2131.58185,2545.93039
2133.13618,2543.21769
2134.69052,2540.50499
2136.24486,2537.7923
2137.7992,2539.14865
2139.35354,2539.14865
2140.90788,2541.86134
2142.46222,2544.57404
2144.01656,2547.28673
2145.57089,2549.99943
2147.12523,2554.06847
2148.67957,2558.13752
2150.23391,2562.20656
2151.78825,2564.91925
2153.34259,2567.63195
2154.89693,2571.70099
2156.45127,2571.70099
2158.0056,2571.70099
2159.55994,2570.34464
2161.11428,2568.9883
2162.66862,2566.2756
2164.22296,2563.56291
2165.7773,2562.20656
2167.33164,2560.85021
2168.88598,2556.78117
2170.44032,2555.42482
2171.99465,2552.71212
2173.54899,2551.35578
2175.10333,2549.99943
2176.65767,2548.64308
2178.21201,2548.64308
2179.76635,2547.28673
2181.32069,2548.64308
2182.87503,2548.64308
2184.42936,2549.99943
2185.9837,2551.35578
2187.53804,2552.71212
2189.09238,2554.06847
2190.64672,2555.42482
2192.20106,2556.78117
2193.7554,2558.13752
2195.30974,2558.13752
2196.86407,2559.49386
2198.41841,2559.49386
2199.97275,2559.49386
2201.52709,2558.13752
2203.08143,2558.13752
2204.63577,2555.42482
2206.19011,2554.06847
2207.74445,2551.35578
2209.29878,2549.99943
2210.85312,2547.28673
2212.40746,2545.93039
2213.9618,2544.57404
2215.51614,2541.86134
2217.07048,2540.50499
2218.62482,2539.14865
2220.17916,2537.7923
2221.7335,2536.43595
2223.28783,2536.43595
2224.84217,2535.0796
2226.39651,2535.0796
2227.95085,2533.72326
2229.50519,2533.72326
2231.05953,2533.72326
2232.61387,2535.0796
2234.16821,2535.0796
2235.72254,2535.0796
2237.27688,2536.43595
2238.83122,2535.0796
2240.38556,2535.0796
2241.9399,2535.0796
2243.49424,2535.0796
2245.04858,2533.72326
2246.60292,2533.72326
2248.15725,2533.72326
2249.71159,2533.72326
2251.26593,2533.72326
2252.82027,2533.72326
2254.37461,2535.0796
2255.92895,2537.7923
2257.48329,2539.14865
2259.03763,2543.21769
2260.59196,2544.57404
2262.1463,2548.64308
2263.70064,2551.35578
2265.25498,2552.71212
2266.80932,2555.42482
2268.36366,2555.42482
2269.918,2554.06847
2271.47234,2554.06847
2273.02667,2554.06847
2274.58101,2552.71212
2276.13535,2552.71212
2277.68969,2552.71212
2279.24403,2552.71212
2280.79837,2551.35578
2282.35271,2548.64308
2283.90705,2547.28673
2285.46139,2543.21769
2287.01572,2540.50499
2288.57006,2536.43595
2290.1244,2533.72326
2291.67874,2531.01056
2293.23308,2531.01056
2294.78742,2535.0796
2296.34176,2537.7923
2297.8961,2543.21769
2299.45043,2548.64308
2301.00477,2555.42482
2302.55911,2560.85021
2315.76798,2612.20959
2333.2837,2632.88652
2333.2837,2637.38151
2344.61741,2592.43165
2355.95111,2582.54268
2362.13313,2547.4818
2373.46683,2537.59283
2419.13452,2573.05734
2420.68886,2570.34464
2422.2432,2566.2756
2423.79754,2562.20656
2425.35188,2555.42482
2426.90621,2549.99943
2428.46055,2547.28673
2430.01489,2547.28673
2431.56923,2547.28673
2433.12357,2549.99943
2434.67791,2554.06847
2436.23225,2556.78117
2437.78659,2556.78117
2439.34092,2556.78117
2440.89526,2555.42482
2442.4496,2552.71212
2444.00394,2549.99943
2445.55828,2547.28673
2447.11262,2544.57404
2448.66696,2543.21769
2450.2213,2540.50499
2451.77564,2539.14865
2453.32997,2537.7923
2454.88431,2537.7923
2456.43865,2537.7923
2457.99299,2539.14865
2459.54733,2540.50499
2461.10167,2541.86134
2462.65601,2544.57404
2464.21035,2547.28673
2465.76468,2549.99943
2467.31902,2554.06847
2468.87336,2556.78117
2470.4277,2562.20656
2471.98204,2566.2756
2473.53638,2568.9883
2475.09072,2573.05734
2476.64506,2578.48273
2478.19939,2581.19543
2479.75373,2585.26447
2481.30807,2589.33351
2482.86241,2593.40256
2484.41675,2597.4716
2485.97109,2600.1843
2487.52543,2604.25334
2489.07977,2606.96603
2490.6341,2609.67873
2492.18844,2611.03508
2493.74278,2611.03508
2495.29712,2611.03508
2496.85146,2608.32238
2498.4058,2605.60969
2499.96014,2601.54064
2501.51448,2596.11525
2503.06881,2592.04621
2504.62315,2587.97717
2506.17749,2579.83908
2507.73183,2575.77004
2509.28617,2571.70099
2510.84051,2567.63195
2512.39485,2564.91925
2513.94919,2562.20656
2515.50353,2563.56291
2517.05786,2562.20656
2518.6122,2563.56291
2520.16654,2564.91925
2521.72088,2564.91925
2523.27522,2566.2756
2524.82956,2567.63195
2526.3839,2568.9883
2527.93824,2568.9883
2529.49257,2568.9883
2531.04691,2568.9883
2532.60125,2567.63195
2534.15559,2567.63195
2535.70993,2566.2756
2537.26427,2564.91925
2538.81861,2563.56291
2540.37295,2563.56291
2541.92728,2562.20656
2543.48162,2560.85021
2545.03596,2559.49386
2546.5903,2559.49386
2548.14464,2559.49386
2549.69898,2559.49386
2551.25332,2559.49386
2552.80766,2559.49386
2554.36199,2560.85021
2555.91633,2562.20656
2557.47067,2562.20656
2559.02501,2563.56291
2560.57935,2564.91925
2562.13369,2566.2756
2563.68803,2567.63195
2565.24237,2567.63195
2566.79671,2567.63195
2568.35104,2567.63195
2569.90538,2566.2756
2571.45972,2566.2756
2573.01406,2564.91925
2574.5684,2564.91925
2576.12274,2563.56291
2577.67708,2562.20656
2579.23142,2562.20656
2580.78575,2560.85021
2582.34009,2559.49386
2583.89443,2558.13752
2585.44877,2556.78117
2587.00311,2556.78117
2588.55745,2555.42482
2590.11179,2556.78117
2591.66613,2558.13752
2593.22046,2559.49386
2594.7748,2563.56291
2596.32914,2567.63195
2597.88348,2568.9883
2599.43782,2571.70099
2600.99216,2573.05734
2602.5465,2574.41369
2604.10084,2573.05734
2605.65517,2573.05734
2607.20951,2573.05734
2608.76385,2573.05734
2610.31819,2573.05734
2611.87253,2574.41369
2613.42687,2574.41369
2614.98121,2575.77004
2616.53555,2574.41369
2618.08988,2574.41369
2619.64422,2573.05734
2621.19856,2570.34464
2622.7529,2568.9883
2624.30724,2566.2756
2625.86158,2564.91925
2627.41592,2562.20656
2628.97026,2562.20656
2630.5246,2560.85021
2632.07893,2560.85021
2633.63327,2559.49386
2635.18761,2559.49386
2636.74195,2559.49386
2638.29629,2558.13752
2639.85063,2556.78117
2641.40497,2556.78117
2642.95931,2555.42482
2644.51364,2554.06847
2646.06798,2552.71212
2647.62232,2552.71212
2649.17666,2551.35578
2650.731,2549.99943
2652.28534,2548.64308
2653.83968,2547.28673
2655.39402,2545.93039
2656.94835,2544.57404
2658.50269,2543.21769
2660.05703,2540.50499
2661.61137,2539.14865
2663.16571,2537.7923
2664.72005,2537.7923
2666.27439,2536.43595
2667.82873,2535.0796
2669.38306,2535.0796
2670.9374,2537.7923
2672.49174,2539.14865
2674.04608,2541.86134
2675.60042,2545.93039
2677.15476,2548.64308
2678.7091,2551.35578
2680.26344,2554.06847
2681.81778,2556.78117
2683.37211,2558.13752
2684.92645,2559.49386
2686.48079,2560.85021
2688.03513,2562.20656
2689.58947,2563.56291
2691.14381,2564.91925
2692.69815,2566.2756
2694.25249,2567.63195
2695.80682,2568.9883
2697.36116,2568.9883
2698.9155,2568.9883
2700.46984,2567.63195
2702.02418,2566.2756
2703.57852,2564.91925
2705.13286,2563.56291
2706.6872,2560.85021
2708.24153,2559.49386
2709.79587,2558.13752
2711.35021,2555.42482
2712.90455,2554.06847
2714.45889,2552.71212
2716.01323,2551.35578
2717.56757,2549.99943
2719.12191,2549.99943
2720.67624,2549.99943
2722.23058,2549.99943
2723.78492,2549.99943
2725.33926,2551.35578
2726.8936,2551.35578
2728.44794,2552.71212
2730.00228,2552.71212
2731.55662,2554.06847
2733.11095,2555.42482
2734.66529,2555.42482
2736.21963,2556.78117
2737.77397,2558.13752
2739.32831,2559.49386
2740.88265,2560.85021
2742.43699,2560.85021
2743.99133,2559.49386
2745.54567,2558.13752
2747.1,2556.78117
2748.65434,2556.78117
2750.20868,2556.78117
2751.76302,2556.78117
2753.31736,2558.13752
2754.8717,2560.85021
2756.42604,2562.20656
2757.98038,2562.20656
2759.53471,2562.20656
2761.08905,2560.85021
2762.64339,2556.78117
2764.19773,2552.71212
2765.75207,2549.99943
2767.30641,2547.28673
2768.86075,2544.57404
2770.41509,2541.86134
2771.96942,2539.14865
2773.52376,2537.7923
2775.0781,2537.7923
2776.63244,2536.43595
2778.18678,2536.43595
2779.74112,2537.7923
2781.29546,2539.14865
2782.8498,2540.50499
2784.40413,2541.86134
2785.95847,2543.21769
2787.51281,2544.57404
2789.06715,2545.93039
2790.62149,2547.28673
2792.17583,2548.64308
2793.73017,2548.64308
2793.73017,2552.71212
2793.73017,2551.35578
2795.28451,2548.64308
2795.28451,2549.99943
2795.28451,2548.64308
2796.83885,2548.64308
2796.83885,2547.28673
2798.39318,2545.93039
2798.39318,2547.28673
2799.94752,2543.21769
2799.94752,2547.28673
2799.94752,2545.93039
2801.50186,2543.21769
2801.50186,2545.93039
2801.50186,2541.86134
2801.50186,2544.57404
2803.0562,2540.50499
2803.0562,2541.86134
2803.0562,2540.50499
2803.0562,2543.21769
2804.61054,2540.50499
2804.61054,2539.14865
2806.16488,2540.50499
2806.16488,2539.14865
2807.71922,2539.14865
2807.71922,2541.86134
2809.27356,2540.50499
2809.27356,2539.14865
2809.27356,2543.21769
2810.82789,2543.21769
2810.82789,2540.50499
2810.82789,2541.86134
2810.82789,2545.93039
2812.38223,2543.21769
2812.38223,2544.57404
2812.38223,2548.64308
2813.93657,2544.57404
2813.93657,2551.35578
2815.49091,2545.93039
2815.49091,2544.57404
2815.49091,2554.06847
2815.49091,2547.28673
2817.04525,2548.64308
2817.04525,2549.99943
2817.04525,2558.13752
2817.04525,2562.20656
2817.04525,2551.35578
2818.59959,2560.85021
2818.59959,2560.85021
2818.59959,2552.71212
2818.59959,2554.06847
2818.59959,2562.20656
2820.15393,2558.13752
2820.15393,2555.42482
2820.15393,2559.49386
2820.15393,2556.78117
2820.15393,2563.56291
2820.15393,2562.20656
2820.15393,2563.56291
2820.15393,2564.91925
2820.15393,2566.2756
2820.15393,2567.63195
2821.70827,2568.9883
2821.70827,2566.2756
2823.2626,2567.63195
2823.2626,2568.9883
2824.81694,2570.34464
2824.81694,2567.63195
2826.37128,2567.63195
2826.37128,2568.9883
2827.92562,2567.63195
2827.92562,2567.63195
2829.47996,2567.63195
2829.47996,2567.63195
2831.0343,2567.63195
2831.0343,2568.9883
2832.58864,2568.9883
2832.58864,2566.2756
2834.14298,2566.2756
2834.14298,2567.63195
2834.14298,2568.9883
2835.69731,2564.91925
2835.69731,2567.63195
2837.25165,2564.91925
2837.25165,2566.2756
2837.25165,2567.63195
2838.80599,2564.91925
2838.80599,2566.2756
2838.80599,2563.56291
2840.36033,2563.56291
2840.36033,2564.91925
2840.36033,2562.20656
2841.91467,2563.56291
2841.91467,2562.20656
2841.91467,2562.20656
2843.46901,2560.85021
2843.46901,2560.85021
2843.46901,2562.20656
2845.02335,2560.85021
2845.02335,2559.49386
2845.02335,2555.42482
2845.02335,2556.78117
2845.02335,2558.13752
2845.02335,2559.49386
2846.57769,2558.13752
2846.57769,2555.42482
2846.57769,2554.06847
2848.13202,2552.71212
2848.13202,2551.35578
2848.13202,2554.06847
2848.13202,2556.78117
2849.68636,2554.06847
2849.68636,2549.99943
2851.2407,2549.99943
2851.2407,2552.71212
2852.79504,2551.35578
2852.79504,2549.99943
2854.34938,2549.99943
2854.34938,2549.99943
2855.90372,2547.28673
2855.90372,2549.99943
2857.45806,2549.99943
2857.45806,2545.93039
2857.45806,2548.64308
2859.0124,2548.64308
2859.0124,2547.28673
2859.0124,2544.57404
2860.56674,2543.21769
2860.56674,2544.57404
2860.56674,2544.57404
2860.56674,2547.28673
2860.56674,2541.86134
2860.56674,2545.93039
2862.12107,2541.86134
2862.12107,2543.21769
2863.67541,2541.86134
2863.67541,2543.21769
2865.22975,2540.50499
2865.22975,2543.21769
2866.78409,2543.21769
2866.78409,2540.50499
2868.33843,2540.50499
2868.33843,2544.57404
2869.89277,2544.57404
2869.89277,2541.86134
2869.89277,2543.21769
2871.44711,2544.57404
2871.44711,2545.93039
2871.44711,2547.28673
2871.44711,2548.64308
2871.44711,2545.93039
2873.00145,2548.64308
2873.00145,2547.28673
2874.55578,2547.28673
2874.55578,2547.28673
2876.11012,2545.93039
2876.11012,2547.28673
2877.66446,2547.28673
2877.66446,2544.57404
2879.2188,2545.93039
2879.2188,2547.28673
2880.77314,2547.28673
2880.77314,2547.28673
2882.32748,2548.64308
2882.32748,2545.93039
2883.88182,2541.86134
2883.88182,2544.57404
2883.88182,2543.21769
2883.88182,2547.28673
2883.88182,2545.93039
2883.88182,2540.50499
2883.88182,2539.14865
2883.88182,2544.57404
2885.43616,2543.21769
2885.43616,2537.7923
2886.99049,2540.50499
2886.99049,2536.43595
2888.54483,2536.43595
2888.54483,2535.0796
2888.54483,2539.14865
2890.09917,2537.7923
2890.09917,2535.0796
2891.65351,2536.43595
2891.65351,2535.0796
2893.20785,2536.43595
2893.20785,2536.43595
2894.76219,2537.7923
2894.76219,2537.7923
2896.31653,2537.7923
2896.31653,2539.14865
2897.87087,2539.14865
2897.87087,2539.14865
2899.4252,2539.14865
2899.4252,2537.7923
2900.97954,2536.43595
2900.97954,2539.14865
2902.53388,2536.43595
2902.53388,2539.14865
2904.08822,2535.0796
2904.08822,2539.14865
2905.64256,2537.7923
2905.64256,2536.43595
2907.1969,2536.43595
2907.1969,2537.7923
2908.75124,2536.43595
2908.75124,2539.14865
2910.30558,2536.43595
2910.30558,2539.14865
2911.85992,2536.43595
2911.85992,2540.50499
2913.41425,2541.86134
2913.41425,2543.21769
2913.41425,2541.86134
2913.41425,2540.50499
2913.41425,2539.14865
2913.41425,2537.7923
2913.41425,2544.57404
2914.96859,2543.21769
2914.96859,2543.21769
2916.52293,2541.86134
2916.52293,2543.21769
2918.07727,2541.86134
2918.07727,2543.21769
2919.63161,2541.86134
2919.63161,2543.21769
2921.18595,2541.86134
2921.18595,2541.86134
2922.74029,2540.50499
2922.74029,2540.50499
2924.29463,2539.14865
2924.29463,2540.50499
2925.84896,2540.50499
2925.84896,2544.57404
2925.84896,2543.21769
2925.84896,2541.86134
2925.84896,2540.50499
2927.4033,2541.86134
2927.4033,2547.28673
2927.4033,2544.57404
2927.4033,2545.93039
2927.4033,2548.64308
2928.95764,2549.99943
2928.95764,2544.57404
2930.51198,2549.99943
2930.51198,2551.35578
2930.51198,2547.28673
2932.06632,2551.35578
2932.06632,2548.64308
2933.62066,2554.06847
2933.62066,2551.35578
2933.62066,2552.71212
2935.175,2555.42482
2935.175,2556.78117
2935.175,2552.71212
2936.72934,2551.35578
2938.28367,2551.35578
2939.83801,2549.99943
2941.39235,2548.64308
2942.94669,2547.28673
2944.50103,2547.28673
2946.05537,2545.93039
2947.60971,2544.57404
2949.16405,2544.57404
2950.71838,2541.86134
2952.27272,2541.86134
2953.82706,2540.50499
2955.3814,2539.14865
2956.93574,2537.7923
2958.49008,2536.43595
2960.04442,2535.0796
2961.59876,2533.72326
2963.15309,2532.36691
2964.70743,2531.01056
2966.26177,2531.01056
2967.81611,2529.65421
2969.37045,2529.65421
2970.92479,2531.01056
2972.47913,2531.01056
2974.03347,2532.36691
2975.58781,2533.72326
2977.14214,2536.43595
2978.69648,2536.43595
2980.25082,2539.14865
2981.80516,2540.50499
2983.3595,2541.86134
2984.91384,2543.21769
2986.46818,2544.57404
2988.02252,2545.93039
2989.57685,2545.93039
2991.13119,2545.93039
2992.68553,2545.93039
2994.23987,2544.57404
2995.79421,2543.21769
2997.34855,2541.86134
2998.90289,2539.14865
3000.45723,2537.7923
3002.01156,2535.0796
3003.5659,2533.72326
3005.12024,2533.72326
3006.67458,2535.0796
3008.22892,2536.43595
3009.78326,2537.7923
3011.3376,2537.7923
3012.89194,2539.14865
3014.44627,2537.7923
3016.00061,2536.43595
3017.55495,2535.0796
3019.10929,2533.72326
3020.66363,2531.01056
3022.21797,2529.65421
3023.77231,2528.29786
3025.32665,2525.58517
3026.88099,2524.22882
3028.43532,2521.51613
3029.98966,2521.51613
3031.544,2524.22882
3033.09834,2525.58517
3034.65268,2529.65421
3036.20702,2532.36691
3037.76136,2535.0796
3039.3157,2539.14865
3040.87003,2541.86134
3042.42437,2544.57404
3043.97871,2547.28673
3045.53305,2548.64308
3047.08739,2548.64308
3048.64173,2548.64308
3050.19607,2547.28673
3051.75041,2545.93039
3053.30474,2543.21769
3054.85908,2539.14865
3056.41342,2537.7923
3057.96776,2535.0796
3059.5221,2531.01056
3061.07644,2528.29786
3062.63078,2526.94152
3064.18512,2524.22882
3065.73945,2525.58517
3067.29379,2525.58517
3068.84813,2528.29786
3070.40247,2529.65421
3071.95681,2531.01056
3073.51115,2532.36691
3075.06549,2533.72326
3076.61983,2533.72326
3078.17416,2535.0796
3079.7285,2535.0796
3081.28284,2535.0796
3082.83718,2535.0796
3084.39152,2535.0796
3085.94586,2533.72326
3087.5002,2533.72326
3089.05454,2533.72326
3090.60888,2535.0796
3092.16321,2535.0796
3093.71755,2536.43595
3095.27189,2537.7923
3096.82623,2540.50499
3098.38057,2541.86134
3099.93491,2543.21769
3101.48925,2544.57404
3103.04359,2547.28673
3104.59792,2548.64308
3106.15226,2549.99943
3107.7066,2552.71212
3109.26094,2555.42482
3110.81528,2556.78117
3112.36962,2559.49386
3113.92396,2562.20656
3115.4783,2563.56291
3117.03263,2564.91925
3118.58697,2566.2756
3120.14131,2567.63195
3121.69565,2568.9883
3123.24999,2570.34464
3124.80433,2571.70099
3126.35867,2571.70099
3127.91301,2573.05734
3129.46734,2573.05734
3131.02168,2573.05734
3132.57602,2573.05734
3134.13036,2571.70099
3135.6847,2570.34464
3137.23904,2568.9883
3138.79338,2566.2756
3140.34772,2564.91925
3141.90206,2562.20656
3143.45639,2560.85021
3145.01073,2558.13752
3146.56507,2555.42482
3148.11941,2554.06847
3149.67375,2552.71212
3151.22809,2551.35578
3152.78243,2551.35578
3154.33677,2552.71212
3155.8911,2554.06847
3157.44544,2555.42482
3158.99978,2555.42482
3160.55412,2555.42482
3162.10846,2555.42482
3163.6628,2555.42482
3165.21714,2554.06847
3166.77148,2555.42482
3168.32581,2556.78117
3169.88015,2559.49386
3171.43449,2562.20656
3172.98883,2564.91925
3174.54317,2566.2756
3176.09751,2568.9883
3177.65185,2567.63195
3179.20619,2567.63195
3180.76052,2566.2756
3182.31486,2564.91925
3183.8692,2564.91925
3185.42354,2566.2756
3186.97788,2566.2756
3188.53222,2568.9883
3190.08656,2570.34464
3191.6409,2573.05734
3193.19523,2573.05734
3194.74957,2574.41369
3196.30391,2575.77004
3197.85825,2577.12638
3199.41259,2577.12638
3200.96693,2577.12638
3202.52127,2577.12638
3204.07561,2575.77004
3205.62995,2574.41369
3207.18428,2573.05734
3208.73862,2571.70099
3210.29296,2570.34464
3211.8473,2570.34464
3213.40164,2568.9883
3214.95598,2567.63195
3216.51032,2566.2756
3218.06466,2566.2756
3219.61899,2566.2756
3221.17333,2567.63195
3222.72767,2567.63195
3224.28201,2568.9883
3225.83635,2570.34464
3227.39069,2571.70099
3228.94503,2573.05734
3230.49937,2575.77004
3232.0537,2577.12638
3233.60804,2578.48273
3235.16238,2578.48273
3236.71672,2578.48273
3238.27106,2577.12638
3239.8254,2574.41369
3241.37974,2573.05734
3242.93408,2570.34464
3244.48841,2568.9883
3246.04275,2567.63195
3247.59709,2567.63195
3249.15143,2566.2756
3250.70577,2566.2756
3252.26011,2567.63195
3253.81445,2568.9883
3255.36879,2568.9883
3256.92313,2570.34464
3258.47746,2571.70099
3260.0318,2573.05734
3261.58614,2574.41369
3263.14048,2577.12638
3264.69482,2579.83908
3266.24916,2581.19543
3267.8035,2583.90812
3269.35784,2586.62082
3270.91217,2587.97717
3272.46651,2590.68986
3274.02085,2592.04621
3275.57519,2593.40256
3277.12953,2593.40256
3278.68387,2593.40256
3280.23821,2592.04621
3281.79255,2590.68986
3283.34688,2589.33351
3284.90122,2587.97717
3286.45556,2587.97717
3288.0099,2586.62082
3289.56424,2586.62082
3291.11858,2586.62082
3292.67292,2586.62082
3294.22726,2587.97717
3295.78159,2587.97717
3297.33593,2589.33351
3298.89027,2590.68986
3300.44461,2592.04621
3301.99895,2593.40256
3303.55329,2593.40256
3305.10763,2593.40256
3306.66197,2592.04621
3308.2163,2590.68986
3309.77064,2589.33351
3311.32498,2589.33351
3312.87932,2587.97717
3314.43366,2587.97717
3315.988,2586.62082
3317.54234,2585.26447
3319.09668,2582.55177
3320.65102,2581.19543
3322.20535,2578.48273
3323.75969,2575.77004
3325.31403,2571.70099
3326.86837,2567.63195
3328.42271,2564.91925
3329.97705,2562.20656
3331.53139,2559.49386
3333.08573,2556.78117
3334.64006,2555.42482
3336.1944,2552.71212
3337.74874,2548.64308
3339.30308,2547.28673
3340.85742,2544.57404
3342.41176,2541.86134
3343.9661,2541.86134
3345.52044,2543.21769
3347.07477,2547.28673
3348.62911,2551.35578
3350.18345,2556.78117
3351.73779,2560.85021
3353.29213,2563.56291
3354.84647,2566.2756
3356.40081,2566.2756
3356.40081,2566.2756
3357.95515,2564.91925
3357.95515,2564.91925
3359.50948,2563.56291
3359.50948,2563.56291
3361.06382,2562.20656
3361.06382,2562.20656
3362.61816,2560.85021
3362.61816,2560.85021
3364.1725,2558.13752
3364.1725,2558.13752
3365.72684,2556.78117
3365.72684,2556.78117
3367.28118,2555.42482
3367.28118,2555.42482
3368.83552,2555.42482
3368.83552,2555.42482
3370.38986,2554.06847
3370.38986,2554.06847
3371.9442,2554.06847
3371.9442,2554.06847
3373.49853,2554.06847
3373.49853,2554.06847
3375.05287,2554.06847
3375.05287,2554.06847
3376.60721,2554.06847
3376.60721,2554.06847
3378.16155,2555.42482
3378.16155,2555.42482
3379.71589,2556.78117
3379.71589,2556.78117
3381.27023,2558.13752
3381.27023,2558.13752
3382.82457,2560.85021
3382.82457,2560.85021
3384.37891,2562.20656
3384.37891,2562.20656
3385.93324,2564.91925
3385.93324,2564.91925
3387.48758,2566.2756
3387.48758,2566.2756
3389.04192,2566.2756
3389.04192,2566.2756
3390.59626,2566.2756
3390.59626,2566.2756
3392.1506,2564.91925
3392.1506,2564.91925
3393.70494,2562.20656
3393.70494,2562.20656
3395.25928,2559.49386
3395.25928,2559.49386
3396.81362,2555.42482
3396.81362,2555.42482
3398.36795,2552.71212
3398.36795,2552.71212
3399.92229,2548.64308
3399.92229,2548.64308
3401.47663,2544.57404
3401.47663,2544.57404
3403.03097,2543.21769
3403.03097,2543.21769
3404.58531,2539.14865
3404.58531,2539.14865
3406.13965,2536.43595
3406.13965,2536.43595
3407.69399,2536.43595
3407.69399,2536.43595
3409.24833,2536.43595
3409.24833,2536.43595
3410.80266,2539.14865
3410.80266,2539.14865
3412.357,2540.50499
3412.357,2540.50499
3413.91134,2543.21769
3413.91134,2543.21769
3415.46568,2547.28673
3415.46568,2547.28673
3417.02002,2551.35578
3417.02002,2551.35578
3418.57436,2556.78117
3418.57436,2556.78117
3420.1287,2563.56291
3420.1287,2563.56291
3421.68304,2571.70099
3421.68304,2571.70099
3423.23737,2577.12638
3423.23737,2577.12638
3424.79171,2583.90812
3424.79171,2583.90812
3426.34605,2590.68986
3426.34605,2590.68986
3427.90039,2594.7589
3427.90039,2594.7589
3429.45473,2600.1843
3429.45473,2600.1843
3431.00907,2602.89699
3431.00907,2602.89699
3432.56341,2602.89699
3432.56341,2602.89699
3434.11775,2601.54064
3434.11775,2601.54064
3435.67209,2597.4716
3437.22642,2592.04621
3438.78076,2589.33351
3440.3351,2585.26447
3441.88944,2578.48273
3443.44378,2574.41369
3444.99812,2570.34464
3446.55246,2566.2756
3448.1068,2562.20656
3449.66113,2558.13752
3451.21547,2556.78117
3452.76981,2556.78117
3454.32415,2556.78117
3455.87849,2559.49386
3457.43283,2562.20656
3458.98717,2564.91925
3460.54151,2567.63195
3462.09584,2570.34464
3463.65018,2573.05734
3465.20452,2575.77004
3466.75886,2577.12638
3468.3132,2578.48273
3469.86754,2578.48273
3471.42188,2579.83908
3472.97622,2578.48273
3474.53055,2578.48273
3476.08489,2577.12638
3477.63923,2575.77004
3479.19357,2574.41369
3480.74791,2574.41369
3482.30225,2573.05734
3483.85659,2571.70099
3485.41093,2571.70099
3486.96527,2571.70099
3488.5196,2573.05734
3490.07394,2574.41369
3491.62828,2577.12638
3493.18262,2578.48273
3494.73696,2579.83908
3496.2913,2581.19543
3497.84564,2582.55177
3499.39998,2583.90812
3500.95431,2585.26447
3502.50865,2585.26447
3504.06299,2585.26447
3505.61733,2585.26447
3507.17167,2583.90812
3508.72601,2582.55177
3510.28035,2581.19543
3511.83469,2578.48273
3513.38902,2577.12638
3514.94336,2574.41369
3516.4977,2573.05734
3518.05204,2570.34464
3519.60638,2568.9883
3521.16072,2568.9883
3522.71506,2568.9883
3524.2694,2568.9883
3525.82373,2570.34464
3527.37807,2571.70099
3528.93241,2571.70099
3530.48675,2571.70099
3532.04109,2568.9883
3533.59543,2567.63195
3535.14977,2564.91925
3536.70411,2563.56291
3538.25844,2560.85021
3539.81278,2559.49386
3541.36712,2556.78117
3542.92146,2554.06847
3544.4758,2552.71212
3546.03014,2551.35578
3547.58448,2549.99943
3549.13882,2548.64308
3550.69316,2548.64308
3552.24749,2548.64308
3553.80183,2548.64308
3555.35617,2549.99943
3556.91051,2551.35578
3558.46485,2552.71212
3560.01919,2555.42482
3561.57353,2558.13752
3563.12787,2559.49386
3564.6822,2563.56291
3566.23654,2566.2756
3567.79088,2568.9883
3569.34522,2571.70099
3570.89956,2574.41369
3572.4539,2577.12638
3574.00824,2579.83908
3575.56258,2582.55177
3577.11691,2583.90812
3578.67125,2583.90812
3580.22559,2583.90812
3581.77993,2581.19543
3583.33427,2578.48273
3584.88861,2575.77004
3586.44295,2571.70099
3587.99729,2568.9883
3589.55162,2564.91925
3591.10596,2560.85021
3592.6603,2558.13752
3594.21464,2556.78117
3595.76898,2555.42482
3597.32332,2556.78117
3598.87766,2559.49386
3600.432,2562.20656
3601.98634,2563.56291
3603.54067,2567.63195
3605.09501,2568.9883
3606.64935,2571.70099
3608.20369,2573.05734
3609.75803,2574.41369
3611.31237,2574.41369
3612.86671,2574.41369
3614.42105,2574.41369
3615.97538,2571.70099
3617.52972,2571.70099
3619.08406,2568.9883
3620.6384,2566.2756
3622.19274,2563.56291
3623.74708,2560.85021
3625.30142,2558.13752
3626.85576,2554.06847
3628.41009,2549.99943
3629.96443,2547.28673
3631.51877,2544.57404
3633.07311,2540.50499
3634.62745,2539.14865
3636.18179,2536.43595
3637.73613,2533.72326
3639.29047,2532.36691
3640.8448,2531.01056
3642.39914,2531.01056
3643.95348,2533.72326
3645.50782,2537.7923
3647.06216,2539.14865
3648.6165,2544.57404
3650.17084,2548.64308
3651.72518,2552.71212
3653.27951,2558.13752
3654.83385,2560.85021
3656.38819,2566.2756
3657.94253,2568.9883
3659.49687,2571.70099
3661.05121,2571.70099
3662.60555,2571.70099
3664.15989,2571.70099
3665.71423,2568.9883
3667.26856,2567.63195
3668.8229,2566.2756
3670.37724,2563.56291
3671.93158,2562.20656
3673.48592,2560.85021
3675.04026,2559.49386
3676.5946,2558.13752
3678.14894,2556.78117
3679.70327,2555.42482
3681.25761,2554.06847
3682.81195,2554.06847
3684.36629,2554.06847
3685.92063,2554.06847
3687.47497,2554.06847
3689.02931,2555.42482
3690.58365,2555.42482
3692.13798,2556.78117
3693.69232,2556.78117
3695.24666,2556.78117
3696.801,2556.78117
3698.35534,2555.42482
3699.90968,2555.42482
3701.46402,2555.42482
3703.01836,2556.78117
3704.57269,2556.78117
3706.12703,2558.13752
3707.68137,2559.49386
3709.23571,2559.49386
3710.79005,2559.49386
3712.34439,2559.49386
3713.89873,2559.49386
3715.45307,2558.13752
3717.00741,2558.13752
3718.56174,2556.78117
3720.11608,2555.42482
3721.67042,2554.06847
3723.22476,2552.71212
3724.7791,2551.35578
3726.33344,2548.64308
3727.88778,2545.93039
3729.44212,2544.57404
3730.99645,2541.86134
3732.55079,2539.14865
3734.10513,2537.7923
3735.65947,2537.7923
3737.21381,2539.14865
3738.76815,2540.50499
3740.32249,2541.86134
3741.87683,2543.21769
3743.43116,2544.57404
3744.9855,2545.93039
3746.53984,2545.93039
3748.09418,2545.93039
3749.64852,2545.93039
3751.20286,2545.93039
3752.7572,2545.93039
3754.31154,2544.57404
3755.86587,2543.21769
3757.42021,2543.21769
3758.97455,2541.86134
3760.52889,2541.86134
3762.08323,2541.86134
3763.63757,2543.21769
3765.19191,2544.57404
3766.74625,2545.93039
3768.30058,2547.28673
3769.85492,2549.99943
3771.40926,2552.71212
3772.9636,2556.78117
3774.51794,2559.49386
3776.07228,2562.20656
3777.62662,2564.91925
3779.18096,2567.63195
3780.7353,2570.34464
3782.28963,2571.70099
3783.84397,2573.05734
3785.39831,2573.05734
3786.95265,2573.05734
3788.50699,2571.70099
3790.06133,2570.34464
3791.61567,2568.9883
3793.17001,2567.63195
3794.72434,2564.91925
3796.27868,2563.56291
3797.83302,2560.85021
3799.38736,2558.13752
3800.9417,2555.42482
3802.49604,2552.71212
3804.05038,2549.99943
3805.60472,2547.28673
3807.15905,2544.57404
3808.71339,2544.57404
3810.26773,2543.21769
3811.82207,2544.57404
3813.37641,2545.93039
3814.93075,2545.93039
3816.48509,2545.93039
3818.03943,2544.57404
3819.59376,2543.21769
3821.1481,2543.21769
3822.70244,2541.86134
3824.25678,2540.50499
3825.81112,2539.14865
3827.36546,2539.14865
3828.9198,2537.7923
3830.47414,2537.7923
3832.02848,2536.43595
3833.58281,2535.0796
3835.13715,2535.0796
3836.69149,2535.0796
3838.24583,2535.0796
3839.80017,2535.0796
3841.35451,2536.43595
3842.90885,2536.43595
3844.46319,2537.7923
3846.01752,2537.7923
3847.57186,2536.43595
3849.1262,2535.0796
3850.68054,2535.0796
3852.23488,2532.36691
3853.78922,2529.65421
3855.34356,2528.29786
3856.8979,2528.29786
3858.45223,2528.29786
3860.00657,2529.65421
3861.56091,2532.36691
3863.11525,2532.36691
3864.66959,2533.72326
3866.22393,2535.0796
3867.77827,2536.43595
3869.33261,2537.7923
3870.88694,2540.50499
3872.44128,2541.86134
3873.99562,2544.57404
3875.54996,2545.93039
3877.1043,2548.64308
3878.65864,2551.35578
3880.21298,2552.71212
3881.76732,2552.71212
3883.32165,2554.06847
3884.87599,2552.71212
3886.43033,2551.35578
3887.98467,2551.35578
3889.53901,2549.99943
3891.09335,2549.99943
3892.64769,2549.99943
3894.20203,2549.99943
3895.75637,2548.64308
3897.3107,2545.93039
3898.86504,2544.57404
3900.41938,2541.86134
3901.97372,2540.50499
3903.52806,2539.14865
3905.0824,2539.14865
3906.63674,2540.50499
3908.19108,2541.86134
3909.74541,2544.57404
3911.29975,2547.28673
3912.85409,2548.64308
3914.40843,2551.35578
3915.96277,2552.71212
3917.51711,2554.06847
3919.07145,2555.42482
3920.62579,2556.78117
3922.18012,2556.78117
3923.73446,2555.42482
3925.2888,2555.42482
3926.84314,2555.42482
3928.39748,2554.06847
3929.95182,2551.35578
3931.50616,2548.64308
3933.0605,2547.28673
3934.61483,2545.93039
3936.16917,2544.57404
3937.72351,2543.21769
3939.27785,2543.21769
3940.83219,2543.21769
3942.38653,2544.57404
3943.94087,2545.93039
3945.49521,2547.28673
3947.04955,2548.64308
3948.60388,2551.35578
3950.15822,2554.06847
3951.71256,2555.42482
3953.2669,2558.13752
3954.82124,2559.49386
3956.37558,2559.49386
3957.92992,2559.49386
3959.48426,2559.49386
3961.03859,2559.49386
3962.59293,2559.49386
3964.14727,2558.13752
3965.70161,2558.13752
3967.25595,2556.78117
3968.81029,2556.78117
3970.36463,2556.78117
3971.91897,2556.78117
3973.4733,2556.78117
3975.02764,2556.78117
