Raman Shift,Intensity 
400,9.619643046
401,9.603043729
402,9.603990105
403,9.607330815
404,9.587636256
405,9.628309904
406,9.608872414
407,9.609674569
408,9.600284737
409,9.601367937
410,9.599230188
411,9.611146665
412,9.609622932
413,9.60801787
414,9.604077882
415,9.58346754
416,9.615515987
417,9.595434977
418,9.611529774
419,9.579245097
420,9.599652374
421,9.62710898
422,9.605821581
423,9.600012976
424,9.606977803
425,9.576741628
426,9.605983879
427,9.587798553
428,9.611892782
429,9.603983887
430,9.604907632
431,9.592959026
432,9.598697259
433,9.607977745
434,9.601940026
435,9.585677828
436,9.584703704
437,9.574893351
438,9.604654681
439,9.606621056
440,9.59456919
441,9.576316268
442,9.592754109
443,9.590034512
444,9.601773909
445,9.578922588
446,9.625471156
447,9.57899507
448,9.596803101
449,9.621807192
450,9.611753943
451,9.601483212
452,9.596897958
453,9.617835531
454,9.608722084
455,9.617009025
456,9.609723718
457,9.629747198
458,9.61928308
459,9.621792638
460,9.634769726
461,9.635908531
462,9.651493328
463,9.639631682
464,9.675561586
465,9.672795049
466,9.678978188
467,9.682259311
468,9.711182548
469,9.727143255
470,9.73318628
471,9.735877183
472,9.78452595
473,9.765800225
474,9.80655276
475,9.77560545
476,9.802517934
477,9.7999792
478,9.794590922
479,9.805557029
480,9.792064534
481,9.785412674
482,9.788906429
483,9.778099473
484,9.767112628
485,9.750057339
486,9.718754352
487,9.746965514
488,9.7448098
489,9.738171334
490,9.717393171
491,9.660508345
492,9.68896752
493,9.654125199
494,9.636936302
495,9.628655005
496,9.619565753
497,9.638720637
498,9.605219585
499,9.594824546
500,9.654990632
501,9.620403281
502,9.599849935
503,9.631597648
504,9.600535789
505,9.605810831
506,9.585542989
507,9.601188052
508,9.615199193
509,9.607344121
510,9.594991357
511,9.610928101
512,9.61153492
513,9.608417983
514,9.581516773
515,9.573397127
516,9.60785806
517,9.610132884
518,9.596236184
519,9.594260111
520,9.612646411
521,9.624562498
522,9.577879598
523,9.563632908
524,9.619821772
525,9.613509912
526,9.600797502
527,9.578969441
528,9.600240718
529,9.593828903
530,9.613540013
531,9.609060082
532,9.626524409
533,9.622375141
534,9.597016507
535,9.629955073
536,9.593205583
537,9.587220606
538,9.607684922
539,9.599649465
540,9.598441466
541,9.583769807
542,9.587489489
543,9.610127729
544,9.579585724
545,9.61669569
546,9.606948936
547,9.604031019
548,9.613155091
549,9.613313322
550,9.59255948
551,9.599855775
552,9.603119339
553,9.614210489
554,9.599096849
555,9.599600342
556,9.581184798
557,9.604252415
558,9.596332131
559,9.607230366
560,9.626503637
561,9.595684488
562,9.581427413
563,9.591733873
564,9.593387078
565,9.577527476
566,9.593410963
567,9.602853659
568,9.570409932
569,9.60563767
570,9.588284255
571,9.566110123
572,9.611421123
573,9.60081629
574,9.617723961
575,9.585236663
576,9.609319758
577,9.617733497
578,9.575167476
579,9.604084647
580,9.588142888
581,9.599549561
582,9.617980959
583,9.606528382
584,9.602880394
585,9.586372591
586,9.573054755
587,9.61642369
588,9.586968604
589,9.624977654
590,9.582045719
591,9.588868404
592,9.587408428
593,9.62574843
594,9.575178912
595,9.601927326
596,9.563094569
597,9.59721804
598,9.600911373
599,9.595780177
600,9.595176196
601,9.586512299
602,9.635308175
603,9.615304959
604,9.609103593
605,9.575518159
606,9.615287924
607,9.600783138
608,9.59113446
609,9.587708217
610,9.577346243
611,9.59006633
612,9.59464571
613,9.597667316
614,9.597293333
615,9.59582242
616,9.586396192
617,9.593213939
618,9.588696586
619,9.577828283
620,9.607728283
621,9.607346754
622,9.608096457
623,9.600151138
624,9.598192146
625,9.614254072
626,9.60738888
627,9.610792626
628,9.615755842
629,9.612384646
630,9.582692097
631,9.589025857
632,9.585584718
633,9.602253725
634,9.588589801
635,9.599781617
636,9.595640219
637,9.563915631
638,9.587967406
639,9.606349606
640,9.617876654
641,9.600239382
642,9.59570327
643,9.593864337
644,9.611086532
645,9.624084626
646,9.591670261
647,9.609947184
648,9.611961154
649,9.603018995
650,9.616010907
651,9.597304606
652,9.612640939
653,9.583788824
654,9.623936432
655,9.596576548
656,9.603792936
657,9.576668953
658,9.601913476
659,9.581460971
660,9.598916577
661,9.617035486
662,9.597107189
663,9.620366823
664,9.595209018
665,9.608127784
666,9.592488099
667,9.574920671
668,9.594784219
669,9.5805522
670,9.623270283
671,9.595375466
672,9.592999549
673,9.598101584
674,9.582325971
675,9.608926837
676,9.59228069
677,9.599385382
678,9.601932117
679,9.600752129
680,9.613745787
681,9.605251405
682,9.627025116
683,9.595656172
684,9.592339128
685,9.601724988
686,9.635614371
687,9.604539927
688,9.603378921
689,9.599306303
690,9.621525664
691,9.587518706
692,9.590636488
693,9.604614794
694,9.573828167
695,9.610360748
696,9.599639157
697,9.576462191
698,9.598589283
699,9.592334638
700,9.607248285
701,9.596028827
702,9.623811327
703,9.611301428
704,9.614483232
705,9.58296391
706,9.587880338
707,9.563311283
708,9.598461205
709,9.615459266
710,9.590363661
711,9.612689253
712,9.576797097
713,9.628383859
714,9.576709258
715,9.6106072
716,9.627243079
717,9.597866177
718,9.595629818
719,9.597937658
720,9.614790347
721,9.599084237
722,9.602501408
723,9.599053104
724,9.582952067
725,9.621181243
726,9.606022738
727,9.596601566
728,9.623702795
729,9.621892461
730,9.626938845
731,9.590040811
732,9.602091982
733,9.608432458
734,9.57307572
735,9.567438851
736,9.607620912
737,9.583868107
738,9.596040086
739,9.604640678
740,9.583440887
741,9.552281958
742,9.586483974
743,9.592018713
744,9.587846818
745,9.611386264
746,9.622893317
747,9.592944437
748,9.583627049
749,9.615724391
750,9.57967834
751,9.594862744
752,9.602235281
753,9.612216276
754,9.62976629
755,9.572135839
756,9.621138988
757,9.609513246
758,9.58739716
759,9.60212895
760,9.627758127
761,9.563540241
762,9.596237574
763,9.601139393
764,9.574830217
765,9.613147787
766,9.608856681
767,9.611626642
768,9.592484527
769,9.56097072
770,9.620005898
771,9.581639815
772,9.587053322
773,9.591121544
774,9.576846732
775,9.609613905
776,9.556897619
777,9.566281771
778,9.593698058
779,9.604566697
780,9.583561755
781,9.592716133
782,9.611403543
783,9.590223559
784,9.626701528
785,9.596605393
786,9.599856051
787,9.60399252
788,9.630728327
789,9.619919072
790,9.592964136
791,9.617806668
792,9.561337084
793,9.606080252
794,9.612701422
795,9.636588819
796,9.594275005
797,9.590461485
798,9.608822272
799,9.619397326
800,9.601563422
801,9.608724431
802,9.59831347
803,9.599142028
804,9.5900862
805,9.610130829
806,9.597891566
807,9.623393528
808,9.596506085
809,9.596315103
810,9.622622061
811,9.589982624
812,9.595741069
813,9.609751483
814,9.592050425
815,9.582026033
816,9.581253791
817,9.60185939
818,9.601479425
819,9.587383692
820,9.613537193
821,9.584421355
822,9.622820734
823,9.597904468
824,9.604175778
825,9.604722609
826,9.59251693
827,9.57046281
828,9.564900455
829,9.615162342
830,9.590310663
831,9.580562135
832,9.60290673
833,9.584791468
834,9.586703657
835,9.599083483
836,9.589945367
837,9.621247512
838,9.603575617
839,9.585906318
840,9.592636513
841,9.583137185
842,9.596503004
843,9.569808996
844,9.623549339
845,9.568926313
846,9.576664026
847,9.584357887
848,9.572917604
849,9.615543441
850,9.608927156
851,9.617659743
852,9.621772923
853,9.615876117
854,9.607296831
855,9.621822767
856,9.602152784
857,9.614252572
858,9.591989415
859,9.617395776
860,9.589575806
861,9.589028205
862,9.617558305
863,9.592727917
864,9.60073001
865,9.592481867
866,9.593085499
867,9.609116973
868,9.548890034
869,9.601286346
870,9.60107963
871,9.600991867
872,9.627351938
873,9.614121174
874,9.6086017
875,9.58912229
876,9.58603455
877,9.62355836
878,9.610459362
879,9.583316414
880,9.597945733
881,9.613550072
882,9.630188664
883,9.596543661
884,9.592313595
885,9.596723183
886,9.604400728
887,9.596769596
888,9.598959992
889,9.620880699
890,9.582709053
891,9.602833527
892,9.597375776
893,9.603810933
894,9.572397131
895,9.586236696
896,9.586572294
897,9.591911567
898,9.590772213
899,9.600557479
900,9.619351183
901,9.579437846
902,9.59820552
903,9.594952199
904,9.590510072
905,9.590932725
906,9.60737091
907,9.595307297
908,9.571810176
909,9.603236541
910,9.610601272
911,9.625055911
912,9.627691777
913,9.615697831
914,9.62505319
915,9.624663546
916,9.588643051
917,9.611769911
918,9.598561892
919,9.590909444
920,9.63241196
921,9.618431707
922,9.604022803
923,9.610158399
924,9.604760439
925,9.593928747
926,9.596581754
927,9.59852945
928,9.604311588
929,9.605403173
930,9.583291883
931,9.574516585
932,9.614941307
933,9.588237774
934,9.584205594
935,9.599996767
936,9.610664236
937,9.612570287
938,9.599926304
939,9.571006468
940,9.57991457
941,9.563241964
942,9.637467441
943,9.62566444
944,9.61202602
945,9.599420521
946,9.589611246
947,9.600469353
948,9.591616826
949,9.634523966
950,9.594822691
951,9.642326064
952,9.61684457
953,9.656833576
954,9.616054854
955,9.634954422
956,9.662987417
957,9.65515546
958,9.677296088
959,9.701850951
960,9.704580226
961,9.688236656
962,9.727155399
963,9.738660133
964,9.773817629
965,9.768506127
966,9.804531058
967,9.828835931
968,9.859470284
969,9.879412579
970,9.940334999
971,9.949781233
972,10.0078813
973,10.0494326
974,10.07920781
975,10.13514768
976,10.14944451
977,10.20240152
978,10.25987286
979,10.29832801
980,10.34203067
981,10.39237858
982,10.43657063
983,10.46450543
984,10.50222235
985,10.58251488
986,10.58483566
987,10.63700245
988,10.67480989
989,10.6878479
990,10.73598498
991,10.76646027
992,10.79155844
993,10.81385706
994,10.83524728
995,10.86518335
996,10.89550458
997,10.89818528
998,10.91086208
999,10.90619298
1000,10.89909231
1001,10.95202543
1002,10.92146484
1003,10.93167359
1004,10.93621729
1005,10.9211765
1006,10.90008648
1007,10.93937763
1008,10.91937851
1009,10.90865478
1010,10.90838688
1011,10.87568096
1012,10.87867014
1013,10.85965686
1014,10.8683983
1015,10.84310784
1016,10.80551226
1017,10.81251518
1018,10.77608624
1019,10.75830158
1020,10.74965225
1021,10.7177124
1022,10.68636911
1023,10.66225364
1024,10.67884489
1025,10.65616892
1026,10.61763714
1027,10.56271306
1028,10.56621615
1029,10.53944166
1030,10.49060123
1031,10.47709423
1032,10.4263041
1033,10.39164385
1034,10.35548919
1035,10.30774015
1036,10.28364644
1037,10.26096473
1038,10.21446402
1039,10.17728395
1040,10.14564433
1041,10.08837267
1042,10.07603887
1043,10.04552151
1044,9.999094962
1045,10.00128287
1046,9.932823584
1047,9.942299549
1048,9.882975159
1049,9.870220883
1050,9.841999724
1051,9.851137182
1052,9.826570074
1053,9.772527684
1054,9.789371098
1055,9.764816445
1056,9.724370911
1057,9.723848171
1058,9.707508849
1059,9.69426307
1060,9.709828331
1061,9.679733656
1062,9.645952544
1063,9.636997475
1064,9.654065932
1065,9.646293893
1066,9.630070874
1067,9.650314175
1068,9.619374083
1069,9.624865716
1070,9.622243847
1071,9.59450288
1072,9.615207802
1073,9.617793157
1074,9.594433412
1075,9.636798297
1076,9.598064513
1077,9.616843241
1078,9.609021908
1079,9.616139049
1080,9.57956557
1081,9.584994846
1082,9.632063029
1083,9.618433489
1084,9.612860393
1085,9.647313313
1086,9.635450333
1087,9.609651839
1088,9.646149371
1089,9.583711752
1090,9.604749322
1091,9.653922469
1092,9.633021504
1093,9.636296965
1094,9.662899391
1095,9.634157848
1096,9.628343589
1097,9.651720673
1098,9.655909323
1099,9.661497233
1100,9.688024099
1101,9.653885902
1102,9.65940315
1103,9.666310636
1104,9.674554179
1105,9.658153004
1106,9.696951382
1107,9.687053744
1108,9.712983661
1109,9.719876205
1110,9.749435574
1111,9.720803261
1112,9.761777737
1113,9.741770013
1114,9.75163765
1115,9.79285266
1116,9.801798916
1117,9.819466037
1118,9.82741892
1119,9.843934507
1120,9.828049216
1121,9.860930429
1122,9.858686748
1123,9.868429393
1124,9.91873519
1125,9.915192742
1126,9.89638904
1127,9.924636745
1128,9.935836625
1129,9.963637636
1130,9.972225288
1131,10.00995313
1132,9.997298764
1133,10.00787671
1134,10.02131773
1135,10.049791
1136,10.07574739
1137,10.09276788
1138,10.0846067
1139,10.09832234
1140,10.10653131
1141,10.12299205
1142,10.12266747
1143,10.12682714
1144,10.13838998
1145,10.16787501
1146,10.15936925
1147,10.17128988
1148,10.16975788
1149,10.18470949
1150,10.21233953
1151,10.17962897
1152,10.17133443
1153,10.19346479
1154,10.18242034
1155,10.18980841
1156,10.19466924
1157,10.1636634
1158,10.19072247
1159,10.15585237
1160,10.210916
1161,10.18621941
1162,10.19667988
1163,10.1338059
1164,10.1181361
1165,10.14462782
1166,10.13806289
1167,10.11859253
1168,10.14254641
1169,10.08774797
1170,10.07069262
1171,10.09161343
1172,10.10465225
1173,10.08468354
1174,10.0191224
1175,10.03732703
1176,10.02834181
1177,9.982401086
1178,9.988368767
1179,9.977624379
1180,9.961113556
1181,9.911093306
1182,9.912204947
1183,9.906997816
1184,9.894492417
1185,9.911067328
1186,9.850307851
1187,9.874324537
1188,9.825077988
1189,9.810851309
1190,9.808736218
1191,9.778795184
1192,9.791015172
1193,9.785225958
1194,9.768489564
1195,9.734133869
1196,9.738335247
1197,9.712778711
1198,9.737464724
1199,9.712420461
1200,9.716436563
1201,9.702799229
1202,9.713816824
1203,9.687692262
1204,9.684612721
1205,9.674974175
1206,9.693776817
1207,9.659701662
1208,9.648109832
1209,9.639585319
1210,9.661045704
1211,9.643751773
1212,9.63618346
1213,9.639910291
1214,9.628066649
1215,9.674928252
1216,9.619205221
1217,9.621877293
1218,9.628451688
1219,9.621219965
1220,9.634547747
1221,9.62242407
1222,9.605059096
1223,9.624322388
1224,9.611755928
1225,9.613422061
1226,9.600344248
1227,9.595446278
1228,9.624796332
1229,9.625398147
1230,9.601646782
1231,9.598362069
1232,9.628409766
1233,9.581380377
1234,9.632932646
1235,9.611069479
1236,9.616237664
1237,9.596568693
1238,9.635108656
1239,9.598546189
1240,9.584719755
1241,9.578739902
1242,9.578168286
1243,9.62788873
1244,9.600148633
1245,9.583804964
1246,9.594989135
1247,9.586893293
1248,9.552304464
1249,9.598504069
1250,9.592212964
1251,9.607061259
1252,9.61399119
1253,9.607999572
1254,9.623241285
1255,9.591042197
1256,9.576925727
1257,9.613886905
1258,9.600079542
1259,9.613664787
1260,9.608347144
1261,9.606692161
1262,9.603218752
1263,9.602517321
1264,9.626622571
1265,9.600348729
1266,9.596443418
1267,9.575147669
1268,9.59331212
1269,9.603228714
1270,9.607409467
1271,9.624914701
1272,9.592032327
1273,9.62170583
1274,9.582675013
1275,9.60673058
1276,9.601715627
1277,9.610279626
1278,9.618786876
1279,9.611788633
1280,9.598380696
1281,9.58845153
1282,9.573819017
1283,9.584241016
1284,9.586320023
1285,9.625113402
1286,9.601986855
1287,9.590829838
1288,9.587549902
1289,9.587266341
1290,9.598344565
1291,9.583379321
1292,9.581807886
1293,9.596226085
1294,9.608158993
1295,9.613093914
1296,9.606325877
1297,9.600999545
1298,9.612420003
1299,9.613126107
1300,9.595076835
1301,9.567827277
1302,9.623108068
1303,9.608029954
1304,9.622593824
1305,9.634474626
1306,9.569271729
1307,9.601084344
1308,9.602806534
1309,9.612695318
1310,9.596829285
1311,9.594103302
1312,9.60565368
1313,9.589409236
1314,9.623169022
1315,9.594633035
1316,9.597509503
1317,9.596862123
1318,9.591367945
1319,9.592043673
1320,9.596889841
1321,9.605525329
1322,9.586245841
1323,9.575916534
1324,9.625146021
1325,9.599514492
1326,9.617073519
1327,9.595426991
1328,9.605248839
1329,9.583919511
1330,9.604555942
1331,9.589189334
1332,9.586992198
1333,9.596864482
1334,9.60436533
1335,9.592313586
1336,9.604834118
1337,9.6169597
1338,9.60563797
1339,9.603771898
1340,9.604884014
1341,9.633068505
1342,9.618179333
1343,9.618178661
1344,9.609619249
1345,9.595514148
1346,9.604976262
1347,9.609910209
1348,9.610982785
1349,9.588841764
1350,9.607105205
1351,9.601780152
1352,9.605856974
1353,9.606722429
1354,9.591848802
1355,9.612160484
1356,9.593471109
1357,9.596511199
1358,9.590941803
1359,9.616935064
1360,9.590757462
1361,9.596871114
1362,9.597614354
1363,9.60221942
1364,9.578126115
1365,9.610076681
1366,9.600005356
1367,9.631154222
1368,9.595129571
1369,9.612040177
1370,9.58638537
1371,9.599179782
1372,9.621910197
1373,9.608316779
1374,9.579230044
1375,9.594068149
1376,9.582296547
1377,9.585624109
1378,9.605607827
1379,9.592829143
1380,9.594830775
1381,9.589029724
1382,9.60079219
1383,9.610278251
1384,9.593881248
1385,9.593876266
1386,9.581531211
1387,9.582906796
1388,9.609683348
1389,9.591393513
1390,9.58509367
1391,9.59846067
1392,9.605096708
1393,9.574708916
1394,9.608936048
1395,9.597262557
1396,9.604224663
1397,9.603224205
1398,9.602263057
1399,9.598749904
1400,9.628469308
1401,9.601119254
1402,9.631821767
1403,9.606991272
1404,9.593015392
1405,9.600353212
1406,9.607576551
1407,9.595048966
1408,9.59948144
1409,9.610659041
1410,9.619013561
1411,9.603041209
1412,9.606752983
1413,9.59643832
1414,9.594695309
1415,9.583591456
1416,9.598565666
1417,9.60141884
1418,9.625118524
1419,9.59658165
1420,9.611714995
1421,9.604140781
1422,9.619957076
1423,9.6072955
1424,9.628887891
1425,9.592657095
1426,9.594995114
1427,9.560088806
1428,9.619968148
1429,9.601710062
1430,9.603476087
1431,9.581295925
1432,9.610155863
1433,9.617271405
1434,9.603237261
1435,9.606830627
1436,9.620102345
1437,9.611579682
1438,9.584248254
1439,9.583193779
1440,9.612536334
1441,9.593069811
1442,9.612563614
1443,9.60216532
1444,9.623444784
1445,9.612468547
1446,9.615516343
1447,9.59651519
1448,9.612827143
1449,9.605929391
1450,9.600690356
1451,9.59253366
1452,9.618534976
1453,9.599172867
1454,9.597515131
1455,9.596599236
1456,9.566406842
1457,9.598661051
1458,9.606240428
1459,9.592177075
1460,9.583980588
1461,9.591689284
1462,9.615443075
1463,9.607295137
1464,9.586458181
1465,9.607821132
1466,9.582161514
1467,9.613787035
1468,9.584292807
1469,9.601708386
1470,9.609162164
1471,9.609240563
1472,9.584741592
1473,9.607740985
1474,9.601891592
1475,9.618449021
1476,9.568677364
1477,9.586164706
1478,9.596916094
1479,9.612730182
1480,9.59912915
1481,9.589299573
1482,9.631036328
1483,9.589312756
1484,9.593976066
1485,9.620922887
1486,9.603139537
1487,9.588630269
1488,9.593203947
1489,9.591743592
1490,9.605999777
1491,9.642534932
1492,9.624309265
1493,9.615998959
1494,9.576354176
1495,9.610678592
1496,9.571064324
1497,9.586021963
1498,9.592197061
1499,9.608757095
1500,9.598953322
1501,9.578668743
1502,9.591858636
1503,9.60694515
1504,9.59771545
1505,9.585306796
1506,9.58434676
1507,9.591995439
1508,9.623755026
1509,9.582602472
1510,9.582801962
1511,9.597903323
1512,9.611240734
1513,9.621939777
1514,9.584083164
1515,9.592141133
1516,9.603185099
1517,9.589422856
1518,9.597788675
1519,9.599172315
1520,9.617650636
1521,9.60825567
1522,9.604205311
1523,9.587782448
1524,9.596949141
1525,9.61044851
1526,9.602282226
1527,9.586577432
1528,9.580731946
1529,9.590218001
1530,9.60490216
1531,9.614465594
1532,9.614800217
1533,9.592968604
1534,9.602140749
1535,9.586174869
1536,9.570142383
1537,9.580627857
1538,9.60740254
1539,9.593750391
1540,9.639933318
1541,9.585063696
1542,9.588357761
1543,9.614900872
1544,9.616488038
1545,9.601467683
1546,9.569616442
1547,9.615481813
1548,9.595779803
1549,9.611975168
1550,9.609186304
1551,9.602287854
1552,9.625413456
1553,9.603672274
1554,9.559549933
1555,9.601209251
1556,9.587482656
1557,9.613299183
1558,9.613956848
1559,9.619721375
1560,9.58749245
1561,9.615084785
1562,9.604189776
1563,9.59356687
1564,9.595151
1565,9.584153359
1566,9.593051132
1567,9.579770834
1568,9.590016035
1569,9.59130957
1570,9.61015757
1571,9.580417599
1572,9.580918877
1573,9.628272612
1574,9.599547363
1575,9.590011459
1576,9.613043146
1577,9.581290945
1578,9.60846788
1579,9.614526925
1580,9.598266333
1581,9.612721321
1582,9.623560312
1583,9.610926155
1584,9.610938169
1585,9.610998308
1586,9.583078057
1587,9.616006115
1588,9.586321047
1589,9.627020057
1590,9.609993243
1591,9.59955609
1592,9.591029965
1593,9.602656109
1594,9.616545923
1595,9.6013264
1596,9.604748639
1597,9.590360285
1598,9.618437114
1599,9.585160981
1600,9.607709426
1601,9.602698097
1602,9.600198694
1603,9.5966877
1604,9.609423504
1605,9.592021565
1606,9.561372901
1607,9.596528974
1608,9.609325589
1609,9.623262702
1610,9.602620911
1611,9.586213644
1612,9.607338161
1613,9.602473687
1614,9.59342433
1615,9.579132167
1616,9.584062485
1617,9.59281173
1618,9.618680751
1619,9.588359633
1620,9.589871106
1621,9.593384545
1622,9.588340594
1623,9.600348868
1624,9.579402232
1625,9.589133961
1626,9.597001703
1627,9.572623221
1628,9.620808824
1629,9.610984373
1630,9.586320571
1631,9.59806239
1632,9.577957924
1633,9.584752463
1634,9.612920635
1635,9.619857472
1636,9.601276867
1637,9.625275135
1638,9.590488193
1639,9.591892152
1640,9.600993852
1641,9.635572995
1642,9.590470299
1643,9.601798527
1644,9.580589837
1645,9.576790863
1646,9.612758285
1647,9.585250105
1648,9.613295387
1649,9.592373183
1650,9.607297739
1651,9.606563258
1652,9.568831532
1653,9.61351952
1654,9.607848352
1655,9.613789302
1656,9.607339417
1657,9.599518216
1658,9.569418094
1659,9.603182416
1660,9.59902144
1661,9.590443442
1662,9.610996448
1663,9.592796257
1664,9.588508044
1665,9.590387344
1666,9.610018458
1667,9.593403235
1668,9.606231047
1669,9.587408631
1670,9.602442789
1671,9.604821472
1672,9.590833056
1673,9.625835689
1674,9.577152442
1675,9.602031047
1676,9.574038318
1677,9.606888537
1678,9.584878187
1679,9.590166313
1680,9.585745199
1681,9.59427846
1682,9.608065384
1683,9.592998912
1684,9.601619927
1685,9.590537084
1686,9.60210792
1687,9.583161607
1688,9.620951111
1689,9.594243858
1690,9.581711688
1691,9.596880619
1692,9.62026741
1693,9.612872477
1694,9.606479104
1695,9.59256533
1696,9.583259029
1697,9.617642998
1698,9.586168973
1699,9.607414155
1700,9.553948215
1701,9.579442239
1702,9.629640597
1703,9.594395138
1704,9.592940577
1705,9.611694358
1706,9.582699682
1707,9.601358644
1708,9.603715311
1709,9.599200228
1710,9.617885905
1711,9.593966319
1712,9.596395807
1713,9.611471479
1714,9.605313386
1715,9.597078331
1716,9.597194504
1717,9.627292194
1718,9.585766263
1719,9.625906526
1720,9.609512761
1721,9.601077685
1722,9.601100865
1723,9.628989793
1724,9.60061629
1725,9.603761958
1726,9.615373191
1727,9.588366705
1728,9.602710007
1729,9.604590566
1730,9.619034308
1731,9.597582001
1732,9.604160325
1733,9.603690491
1734,9.623881662
1735,9.614914452
1736,9.573463577
1737,9.617514738
1738,9.593673517
1739,9.640415797
1740,9.604550114
1741,9.608570066
1742,9.584827173
1743,9.595951194
1744,9.582551987
1745,9.61066351
1746,9.621205664
1747,9.616221897
1748,9.590640375
1749,9.624709334
1750,9.597541083
1751,9.603513707
1752,9.571471417
1753,9.62233274
1754,9.595767725
1755,9.597758639
1756,9.574926407
1757,9.606142059
1758,9.593868492
1759,9.608908758
1760,9.595759351
1761,9.601420702
1762,9.60468913
1763,9.614836899
1764,9.613035868
1765,9.592389921
1766,9.635405691
1767,9.608412212
1768,9.598271584
1769,9.587306334
1770,9.602432379
1771,9.582802713
1772,9.594409883
1773,9.606653191
1774,9.582638027
1775,9.608945749
1776,9.577319335
1777,9.567946043
1778,9.615659196
1779,9.618527105
1780,9.608157281
1781,9.603480482
1782,9.581653134
1783,9.579580234
1784,9.603962266
1785,9.618131765
1786,9.59857896
1787,9.595329013
1788,9.592069306
1789,9.592015877
1790,9.597206229
1791,9.597661687
1792,9.578072631
1793,9.59993351
1794,9.6027933
1795,9.608668449
1796,9.604448294
1797,9.579850966
1798,9.588136931
1799,9.593598535
1800,9.629354982
1801,9.591009459
1802,9.610051202
1803,9.594297892
1804,9.613838619
1805,9.60780737
1806,9.606136788
1807,9.589347872
1808,9.609475678
1809,9.606535259
1810,9.599908003
1811,9.60768978
1812,9.611977708
1813,9.614298804
1814,9.596947866
1815,9.614630991
1816,9.612704936
1817,9.589394343
1818,9.604230815
1819,9.576570958
1820,9.601783635
1821,9.608044572
1822,9.620388939
1823,9.56550183
1824,9.56831399
1825,9.599703392
1826,9.589455548
1827,9.601372032
1828,9.602022849
1829,9.610745038
1830,9.598850779
1831,9.591298173
1832,9.610564299
1833,9.616637686
1834,9.608592533
1835,9.5841869
1836,9.609612338
1837,9.588008514
1838,9.580174825
1839,9.614180837
1840,9.616332596
1841,9.613666341
1842,9.607422289
1843,9.586858488
1844,9.598326516
1845,9.59310707
1846,9.580017153
1847,9.580490354
1848,9.583613748
1849,9.590142541
1850,9.594590057
1851,9.604836586
1852,9.600735156
1853,9.607983715
1854,9.612211014
1855,9.594575867
1856,9.592336957
1857,9.60569248
1858,9.588788021
1859,9.558181861
1860,9.589812246
1861,9.598561566
1862,9.58641427
1863,9.595929934
1864,9.594283732
1865,9.591501595
1866,9.607078922
1867,9.589974537
1868,9.617495254
1869,9.598410974
1870,9.621265078
1871,9.60500769
1872,9.599200472
1873,9.608086458
1874,9.588072459
1875,9.612820335
1876,9.590405353
1877,9.624588771
1878,9.603851946
1879,9.568080359
1880,9.602921384
1881,9.583655531
1882,9.595495113
1883,9.605362518
1884,9.630854072
1885,9.590522183
1886,9.591657688
1887,9.610267329
1888,9.56691436
1889,9.593196321
1890,9.609524346
1891,9.608034835
1892,9.602541381
1893,9.567785524
1894,9.618702137
1895,9.581461372
1896,9.63266013
1897,9.60067424
1898,9.603929551
1899,9.615022968
1900,9.594899111
1901,9.615434224
1902,9.592675098
1903,9.59077591
1904,9.614900851
1905,9.57513918
1906,9.607587199
1907,9.628650851
1908,9.594208791
1909,9.587302684
1910,9.571728796
1911,9.612331873
1912,9.604231196
1913,9.592636707
1914,9.596596704
1915,9.61164252
1916,9.601451849
1917,9.597862974
1918,9.574699264
1919,9.592658863
1920,9.580277032
1921,9.613873878
1922,9.580831047
1923,9.583382821
1924,9.628829455
1925,9.582946018
1926,9.603126945
1927,9.606488554
1928,9.582405952
1929,9.612026011
1930,9.611130523
1931,9.588232337
1932,9.598638423
1933,9.57890566
1934,9.592132847
1935,9.583479308
1936,9.615634197
1937,9.602800574
1938,9.580726784
1939,9.611174154
1940,9.608886012
1941,9.610818332
1942,9.584197648
1943,9.594005897
1944,9.592002292
1945,9.595670748
1946,9.593002348
1947,9.568945504
1948,9.603092685
1949,9.599817284
1950,9.610839375
1951,9.617980713
1952,9.603543358
1953,9.605245439
1954,9.618958001
1955,9.592658435
1956,9.569675858
1957,9.620090688
1958,9.586868897
1959,9.605217091
1960,9.609246719
1961,9.595549438
1962,9.592553102
1963,9.580307174
1964,9.60356097
1965,9.594564262
1966,9.589340856
1967,9.595101103
1968,9.627920045
1969,9.606664534
1970,9.595121321
1971,9.597895993
1972,9.615636377
1973,9.606433414
1974,9.614030397
1975,9.592742848
1976,9.626063809
1977,9.618615377
1978,9.598221028
1979,9.610021427
1980,9.574043048
1981,9.586075411
1982,9.608350729
1983,9.614176604
1984,9.611272039
1985,9.601689054
1986,9.584429466
1987,9.59999215
1988,9.577222808
1989,9.622056319
1990,9.605880118
1991,9.605187011
1992,9.621682645
1993,9.592180565
1994,9.58815665
1995,9.620903229
1996,9.604151662
1997,9.616687444
1998,9.634740791
1999,9.575746725
2000,9.596638547
2001,9.598170145
2002,9.593445922
2003,9.5960621
2004,9.590142245
2005,9.614618058
2006,9.584794358
2007,9.62844828
2008,9.582969408
2009,9.613318948
2010,9.570990726
2011,9.59060033
2012,9.59347329
2013,9.586472094
2014,9.587284809
2015,9.580576565
2016,9.588286027
2017,9.581343822
2018,9.623323528
2019,9.590604734
2020,9.602544324
2021,9.591833395
2022,9.619606607
2023,9.596398229
2024,9.601844683
2025,9.609538322
2026,9.611370968
2027,9.597528503
2028,9.615199662
2029,9.599836706
2030,9.601805227
2031,9.615571778
2032,9.597186547
2033,9.577089242
2034,9.579561298
2035,9.594373114
2036,9.629139313
2037,9.616507298
2038,9.601428355
2039,9.582051736
2040,9.612617927
2041,9.60235261
2042,9.614748969
2043,9.607199009
2044,9.60380581
2045,9.577048291
2046,9.594723727
2047,9.613949089
2048,9.611515443
2049,9.585124257
2050,9.579915532
2051,9.586460661
2052,9.599441675
2053,9.599425482
2054,9.611565527
2055,9.624217724
2056,9.61948592
2057,9.588910872
2058,9.581890903
2059,9.596244523
2060,9.599814206
2061,9.607961975
2062,9.596772246
2063,9.595208783
2064,9.598720144
2065,9.603116722
2066,9.596701592
2067,9.593975687
2068,9.581026521
2069,9.606506624
2070,9.603161481
2071,9.592839671
2072,9.592510205
2073,9.604723332
2074,9.594965971
2075,9.604581405
2076,9.600034776
2077,9.578834548
2078,9.592452668
2079,9.624904589
2080,9.595578993
2081,9.619293391
2082,9.584267747
2083,9.594202382
2084,9.621672915
2085,9.629169826
2086,9.610775271
2087,9.600221899
2088,9.579528651
2089,9.608229639
2090,9.599555786
2091,9.597886669
2092,9.596848612
2093,9.589052981
2094,9.628627835
2095,9.61366112
2096,9.587291784
2097,9.602593767
2098,9.604112786
2099,9.590183519
2100,9.601455029
2101,9.58589528
2102,9.599769573
2103,9.616912397
2104,9.585089858
2105,9.618045649
2106,9.625837103
2107,9.618915953
2108,9.608607838
2109,9.574266274
2110,9.590018567
2111,9.608854741
2112,9.60762407
2113,9.58489965
2114,9.61741737
2115,9.584721909
2116,9.601730332
2117,9.591065399
2118,9.581342301
2119,9.605132308
2120,9.605553467
2121,9.620557816
2122,9.60097471
2123,9.59525939
2124,9.608583236
2125,9.582169026
2126,9.612967787
2127,9.598461043
2128,9.609753734
2129,9.626773074
2130,9.585148213
2131,9.595837098
2132,9.584002123
2133,9.60905172
2134,9.609725633
2135,9.603707952
2136,9.586564871
2137,9.597823939
2138,9.592144513
2139,9.568332857
2140,9.615460916
2141,9.603191229
2142,9.617705437
2143,9.606362659
2144,9.620243211
2145,9.612281454
2146,9.611733232
2147,9.593103128
2148,9.625042746
2149,9.599829353
2150,9.614741672
2151,9.581372041
2152,9.620235649
2153,9.579258503
2154,9.610650899
2155,9.565159297
2156,9.592555887
2157,9.604245155
2158,9.580182383
2159,9.625796829
2160,9.586850557
2161,9.601546057
2162,9.611966487
2163,9.601026944
2164,9.606763456
2165,9.589387609
2166,9.599677103
2167,9.612594576
2168,9.610519536
2169,9.597062628
2170,9.618832903
2171,9.584315082
2172,9.592803674
2173,9.573034839
2174,9.604880093
2175,9.604458684
2176,9.604019254
2177,9.579283398
2178,9.600271682
2179,9.592855014
2180,9.576572341
2181,9.600220226
2182,9.618730252
2183,9.616382842
2184,9.618254181
2185,9.607295374
2186,9.586941841
2187,9.583519421
2188,9.601204882
2189,9.597549256
2190,9.596512143
2191,9.633089535
2192,9.581133387
2193,9.60211991
2194,9.621312308
2195,9.598690906
2196,9.591917285
2197,9.593402031
2198,9.577381241
2199,9.608483777
2200,9.604603651
2201,9.591361941
2202,9.637272191
2203,9.594875985
2204,9.609736393
2205,9.590156877
2206,9.573059671
2207,9.614206659
2208,9.585171687
2209,9.601979375
2210,9.597491419
2211,9.589120686
2212,9.620658532
2213,9.593912517
2214,9.618498353
2215,9.621256686
2216,9.60049873
2217,9.593623104
2218,9.592017578
2219,9.589671291
2220,9.596726795
2221,9.604349501
2222,9.611438992
2223,9.583228084
2224,9.617567999
2225,9.598943589
2226,9.593747455
2227,9.610688896
2228,9.584863235
2229,9.598199195
2230,9.587564986
2231,9.594164489
2232,9.583083613
2233,9.625290658
2234,9.575747438
2235,9.611281118
2236,9.614919486
2237,9.58477569
2238,9.588465908
2239,9.607042789
2240,9.570864869
2241,9.598565339
2242,9.620565592
2243,9.585564755
2244,9.596712116
2245,9.62135341
2246,9.609487632
2247,9.594463774
2248,9.607397069
2249,9.629389573
2250,9.588784798
2251,9.592761321
2252,9.597302293
2253,9.603943782
2254,9.592131448
2255,9.604719569
2256,9.593294253
2257,9.579208121
2258,9.613997518
2259,9.613289867
2260,9.584229263
2261,9.590233616
2262,9.602095722
2263,9.568571575
2264,9.629113949
2265,9.588668272
2266,9.57654182
2267,9.615163908
2268,9.601897693
2269,9.596108567
2270,9.583947635
2271,9.603532394
2272,9.584773832
2273,9.611542404
2274,9.597155567
2275,9.626502326
2276,9.631085456
2277,9.633936087
2278,9.605761879
2279,9.58930982
2280,9.597997164
2281,9.57828304
2282,9.628911743
2283,9.596823722
2284,9.599246452
2285,9.632130186
2286,9.604358474
2287,9.592042997
2288,9.597105647
2289,9.592722363
2290,9.606037608
2291,9.596826717
2292,9.57463429
2293,9.582150241
2294,9.606893123
2295,9.597484309
2296,9.617422696
2297,9.598359773
2298,9.587616672
2299,9.607387257
2300,9.566624342
2301,9.571102365
2302,9.587192947
2303,9.597270158
2304,9.613137908
2305,9.60148775
2306,9.614597449
2307,9.600234646
2308,9.567448698
2309,9.579085959
2310,9.598269498
2311,9.57407982
2312,9.599591569
2313,9.604469575
2314,9.59756513
2315,9.620473868
2316,9.593616129
2317,9.600391942
2318,9.579791401
2319,9.5944255
2320,9.588842636
2321,9.60938929
2322,9.595177534
2323,9.630833519
2324,9.60858264
2325,9.593951386
2326,9.597464726
2327,9.6229732
2328,9.627385514
2329,9.60347785
2330,9.630757817
2331,9.615689717
2332,9.588352492
2333,9.599583348
2334,9.597007311
2335,9.618617255
2336,9.575308917
2337,9.603018067
2338,9.587740185
2339,9.610192023
2340,9.609980804
2341,9.587391477
2342,9.617406882
2343,9.570065604
2344,9.597686021
2345,9.56517938
2346,9.588160562
2347,9.601323072
2348,9.594399663
2349,9.593709137
2350,9.591959029
2351,9.607188553
2352,9.596572327
2353,9.590188308
2354,9.612737048
2355,9.613574514
2356,9.586620058
2357,9.607133851
2358,9.600987332
2359,9.62954349
2360,9.582530183
2361,9.615399972
2362,9.6154625
2363,9.592156922
2364,9.594736604
2365,9.602073496
2366,9.613025072
2367,9.618143655
2368,9.593891087
2369,9.603467704
2370,9.615362641
2371,9.60975528
2372,9.59675876
2373,9.588780114
2374,9.596123138
2375,9.603383891
2376,9.616119343
2377,9.616128457
2378,9.609059935
2379,9.586520188
2380,9.609343194
2381,9.58468406
2382,9.609857407
2383,9.598599546
2384,9.586274286
2385,9.598428663
2386,9.600363512
2387,9.59769134
2388,9.588724081
2389,9.61309227
2390,9.609725724
2391,9.592360231
2392,9.627747309
2393,9.586919403
2394,9.598514982
2395,9.616375637
2396,9.586409047
2397,9.588592878
2398,9.613121334
2399,9.585744583
2400,9.606567224
2401,9.61076916
2402,9.625252804
2403,9.597344056
2404,9.591877126
2405,9.591615593
2406,9.607571133
2407,9.594358181
2408,9.61432334
2409,9.610471504
2410,9.591342657
2411,9.603069616
2412,9.576101102
2413,9.593867436
2414,9.58163351
2415,9.565762213
2416,9.602048411
2417,9.616572754
2418,9.58883893
2419,9.623271487
2420,9.581707502
2421,9.564303864
2422,9.586821757
2423,9.587489974
2424,9.590539101
2425,9.60712036
2426,9.618842068
2427,9.602157867
2428,9.596566334
2429,9.598194069
2430,9.605439721
2431,9.606298245
2432,9.611705082
2433,9.585954715
2434,9.628630012
2435,9.605989103
2436,9.605981016
2437,9.59798877
2438,9.625283962
2439,9.578352436
2440,9.595213267
2441,9.603377252
2442,9.569998213
2443,9.582962334
2444,9.616978394
2445,9.609383385
2446,9.575685879
2447,9.615943444
2448,9.584852505
2449,9.618349281
2450,9.593777068
2451,9.586014779
2452,9.614674275
2453,9.598100247
2454,9.601454249
2455,9.5971681
2456,9.602940117
2457,9.617951975
2458,9.588616297
2459,9.629299351
2460,9.59314616
2461,9.565731892
2462,9.583058833
2463,9.594236509
2464,9.581569822
2465,9.615700865
2466,9.597469739
2467,9.609782386
2468,9.599082648
2469,9.596154247
2470,9.606706857
2471,9.601620914
2472,9.601903909
2473,9.614122859
2474,9.585625274
2475,9.587056466
2476,9.599912002
2477,9.591311546
2478,9.588530115
2479,9.572986106
2480,9.604163594
2481,9.613561713
2482,9.576326674
2483,9.578530485
2484,9.580209184
2485,9.586289549
2486,9.608930935
2487,9.604563963
2488,9.615441576
2489,9.594457965
2490,9.617880988
2491,9.598190966
2492,9.594982397
2493,9.595111182
2494,9.591476476
2495,9.592016147
2496,9.601586497
2497,9.622842934
2498,9.59397138
2499,9.617855628
2500,9.595214154
2501,9.601732558
2502,9.591691523
2503,9.584259973
2504,9.571859297
2505,9.609407505
2506,9.586663389
2507,9.584745845
2508,9.636720162
2509,9.61531738
2510,9.603286444
2511,9.568850981
2512,9.603976162
2513,9.632281911
2514,9.590758271
2515,9.595249912
2516,9.580259272
2517,9.585238151
2518,9.59875409
2519,9.60471428
2520,9.592753253
2521,9.592370769
2522,9.599426009
2523,9.610897934
2524,9.611718849
2525,9.590132833
2526,9.604204715
2527,9.596335584
2528,9.615134422
2529,9.62848345
2530,9.601784131
2531,9.614966331
2532,9.583010601
2533,9.627776752
2534,9.618912377
2535,9.588266056
2536,9.599428117
2537,9.600420322
2538,9.620317979
2539,9.600776889
2540,9.591145786
2541,9.59242724
2542,9.597827517
2543,9.612885666
2544,9.613301292
2545,9.600392669
2546,9.608595168
2547,9.615057636
2548,9.57422805
2549,9.594856693
2550,9.589286134
2551,9.6105006
2552,9.620019294
2553,9.589601396
2554,9.606737956
2555,9.598512422
2556,9.585672849
2557,9.586579336
2558,9.602394417
2559,9.58019499
2560,9.571899781
2561,9.608003084
2562,9.617692912
2563,9.591328482
2564,9.600844145
2565,9.609528914
2566,9.621098566
2567,9.585015889
2568,9.611579665
2569,9.623293422
2570,9.59002098
2571,9.588610397
2572,9.618115205
2573,9.602906478
2574,9.590847429
2575,9.605937548
2576,9.590650354
2577,9.600281299
2578,9.604563755
2579,9.606768962
2580,9.601475755
2581,9.601400249
2582,9.60582857
2583,9.618068585
2584,9.584531299
2585,9.579256782
2586,9.591731186
2587,9.586665202
2588,9.609292168
2589,9.583875488
2590,9.591752238
2591,9.596183156
2592,9.613496012
2593,9.600002406
2594,9.624629323
2595,9.610060445
2596,9.612099657
2597,9.587526839
2598,9.604056865
2599,9.591951889
2600,9.613410525
2601,9.595096203
2602,9.598818114
2603,9.608496027
2604,9.594336477
2605,9.59508389
2606,9.639510071
2607,9.603068101
2608,9.577621426
2609,9.600763841
2610,9.607254344
2611,9.599347293
2612,9.582672934
2613,9.603624904
2614,9.595365832
2615,9.583068832
2616,9.615783689
2617,9.589839207
2618,9.576575832
2619,9.570211088
2620,9.601174185
2621,9.589221632
2622,9.614350135
2623,9.585769547
2624,9.562344774
2625,9.580379124
2626,9.61319803
2627,9.595287216
2628,9.636272546
2629,9.593909633
2630,9.610565958
2631,9.612203731
2632,9.594180104
2633,9.605597738
2634,9.619744592
2635,9.569625761
2636,9.606693818
2637,9.618314861
2638,9.598773031
2639,9.59540131
2640,9.592035975
2641,9.578872911
2642,9.594445193
2643,9.600211504
2644,9.616530611
2645,9.59903426
2646,9.601420793
2647,9.582534355
2648,9.579260932
2649,9.557041497
2650,9.59602485
2651,9.571929857
2652,9.600625123
2653,9.586745077
2654,9.587544496
2655,9.581810411
2656,9.601430897
2657,9.601604434
2658,9.596231834
2659,9.589739308
2660,9.609178927
2661,9.605647329
2662,9.615965653
2663,9.600675471
2664,9.593719383
2665,9.613740389
2666,9.597847504
2667,9.61615172
2668,9.592390895
2669,9.607658746
2670,9.608454218
2671,9.598019666
2672,9.593003395
2673,9.608362993
2674,9.621210324
2675,9.613447249
2676,9.599220577
2677,9.612143713
2678,9.613433709
2679,9.621792816
2680,9.581162736
2681,9.616658644
2682,9.589537406
2683,9.607430401
2684,9.591079777
2685,9.625427286
2686,9.593470052
2687,9.611092174
2688,9.581026061
2689,9.618943887
2690,9.611426488
2691,9.599807514
2692,9.588570997
2693,9.57900704
2694,9.587448655
2695,9.618549493
2696,9.589061068
2697,9.573964999
2698,9.614224532
2699,9.596925631
2700,9.611319968
2701,9.568692837
2702,9.606433727
2703,9.58707308
2704,9.596925783
2705,9.604714646
2706,9.597734278
2707,9.591376698
2708,9.608057203
2709,9.58255314
2710,9.58100954
2711,9.576821923
2712,9.586524389
2713,9.583001831
2714,9.608163091
2715,9.593701683
2716,9.601194525
2717,9.611289284
2718,9.593974944
2719,9.594459418
2720,9.592516916
2721,9.56793224
2722,9.593336354
2723,9.583885552
2724,9.57147863
2725,9.602605134
2726,9.587410262
2727,9.59556818
2728,9.629235976
2729,9.598100406
2730,9.564351497
2731,9.623286952
2732,9.604901278
2733,9.585579818
2734,9.596917637
2735,9.62266428
2736,9.625234598
2737,9.600490487
2738,9.587761922
2739,9.580681777
2740,9.610285738
2741,9.610395285
2742,9.620409662
2743,9.617667542
2744,9.588352143
2745,9.626720525
2746,9.576711184
2747,9.610767798
2748,9.573125905
2749,9.604689197
2750,9.590118871
2751,9.617635577
2752,9.580206138
2753,9.585422585
2754,9.569035251
2755,9.590939194
2756,9.585977089
2757,9.596258387
2758,9.581520434
2759,9.592976864
2760,9.622487448
2761,9.592984425
2762,9.599477521
2763,9.615689802
2764,9.579733074
2765,9.613371899
2766,9.61029188
2767,9.601591895
2768,9.55235986
2769,9.596849668
2770,9.617543609
2771,9.585815394
2772,9.590282529
2773,9.626846892
2774,9.614562049
2775,9.617269632
2776,9.622354271
2777,9.604076988
2778,9.589031008
2779,9.585913217
2780,9.601843018
2781,9.584515932
2782,9.630583978
2783,9.601782202
2784,9.590607873
2785,9.605102704
2786,9.588751061
2787,9.584224118
2788,9.605125974
2789,9.608146159
2790,9.574846716
2791,9.600035453
2792,9.568133042
2793,9.59663138
2794,9.586484428
2795,9.619594
2796,9.594737208
2797,9.603456469
2798,9.625219279
2799,9.612659794
2800,9.59883407
2801,9.595466541
2802,9.598258102
2803,9.586439722
2804,9.620582373
2805,9.595423847
2806,9.622234854
2807,9.574326953
2808,9.617478897
2809,9.584379636
2810,9.610477278
2811,9.621573896
2812,9.594510849
2813,9.595975794
2814,9.605722882
2815,9.595556164
2816,9.606511756
2817,9.60161375
2818,9.610576882
2819,9.590644263
2820,9.589906224
2821,9.591390991
2822,9.623840286
2823,9.585981094
2824,9.58863097
2825,9.578014871
2826,9.607048358
2827,9.630704981
2828,9.582304887
2829,9.602560935
2830,9.59911376
2831,9.631226134
2832,9.598272342
2833,9.611879591
2834,9.603154224
2835,9.600580467
2836,9.627615328
2837,9.595500344
2838,9.595361524
2839,9.620823916
2840,9.592808307
2841,9.612614205
2842,9.598650106
2843,9.594619005
2844,9.63924669
2845,9.631764756
2846,9.611740254
2847,9.579275851
2848,9.578627074
2849,9.584270367
2850,9.576161757
2851,9.614731419
2852,9.604719825
2853,9.600641492
2854,9.610046601
2855,9.594031405
2856,9.57891189
2857,9.597827296
2858,9.594457009
2859,9.596292599
2860,9.598810385
2861,9.597469185
2862,9.600742185
2863,9.574274897
2864,9.587528639
2865,9.603068541
2866,9.600540124
2867,9.608182355
2868,9.604597011
2869,9.591106924
2870,9.605913496
2871,9.60439566
2872,9.597363909
2873,9.578500938
2874,9.588387092
2875,9.612449703
2876,9.632234533
2877,9.602587454
2878,9.613694171
2879,9.589848973
2880,9.60466701
2881,9.586997775
2882,9.604294334
2883,9.608351112
2884,9.600398901
2885,9.593766537
2886,9.608572859
2887,9.588225135
2888,9.604285995
2889,9.591186376
2890,9.628822547
2891,9.589868342
2892,9.608260849
2893,9.645127542
2894,9.613173429
2895,9.596146929
2896,9.627168874
2897,9.608516648
2898,9.598316662
2899,9.589644485
2900,9.598337115
2901,9.611331925
2902,9.593316558
2903,9.576667541
2904,9.611959766
2905,9.611686329
2906,9.587959953
2907,9.607276942
2908,9.595787984
2909,9.59495986
2910,9.584117117
2911,9.600974405
2912,9.613603974
2913,9.566454915
2914,9.593417187
2915,9.577213772
2916,9.608504272
2917,9.575156353
2918,9.60611581
2919,9.583515983
2920,9.613544348
2921,9.591871354
2922,9.599410708
2923,9.617332252
2924,9.605280494
2925,9.598034625
2926,9.59573965
2927,9.619143757
2928,9.582327206
2929,9.608128107
2930,9.616947221
2931,9.596084926
2932,9.596513028
2933,9.568793145
2934,9.592642963
2935,9.572883058
2936,9.60897832
2937,9.592234841
2938,9.601321005
2939,9.628207598
2940,9.604261758
2941,9.603703643
2942,9.613131837
2943,9.583912675
2944,9.619796331
2945,9.608521699
2946,9.585237616
2947,9.602719677
2948,9.606369552
2949,9.627017491
2950,9.615015965
2951,9.609150912
2952,9.610632437
2953,9.576593745
2954,9.599977244
2955,9.601801117
2956,9.60470393
2957,9.59945539
2958,9.608449203
2959,9.607362333
2960,9.594527597
2961,9.625556671
2962,9.619015299
2963,9.613102921
2964,9.60858108
2965,9.600190289
2966,9.579785382
2967,9.618719613
2968,9.586952802
2969,9.630735275
2970,9.610725563
2971,9.604012381
2972,9.609412643
2973,9.586229374
2974,9.615796531
2975,9.594015533
2976,9.608527646
2977,9.601980472
2978,9.607133286
2979,9.584323689
2980,9.602125391
2981,9.591083844
2982,9.608454544
2983,9.608006582
2984,9.618581131
2985,9.600120802
2986,9.598847015
2987,9.619041135
2988,9.604329084
2989,9.623642503
2990,9.578023951
2991,9.616652322
2992,9.630003108
2993,9.590594074
2994,9.584012618
2995,9.590960766
2996,9.593047057
2997,9.616085537
2998,9.633578616
2999,9.628543677
3000,9.608765501
3001,9.592124587
3002,9.58703107
3003,9.619216917
3004,9.614699588
3005,9.604854941
3006,9.61945634
3007,9.606290974
3008,9.613176388
3009,9.603897598
3010,9.63439279
3011,9.610011807
3012,9.605301477
3013,9.62201684
3014,9.634892547
3015,9.628310017
3016,9.62459094
3017,9.607471039
3018,9.61853006
3019,9.606244126
3020,9.619705778
3021,9.620103041
3022,9.619594316
3023,9.604736083
3024,9.615130849
3025,9.6213935
3026,9.588434187
3027,9.617904368
3028,9.602364332
3029,9.608773696
3030,9.604875444
3031,9.623640568
3032,9.617728898
3033,9.614125695
3034,9.606509339
3035,9.603678158
3036,9.638736285
3037,9.618786801
3038,9.614913543
3039,9.618595667
3040,9.62019379
3041,9.639967462
3042,9.609691038
3043,9.61029967
3044,9.596703692
3045,9.610722371
3046,9.624460701
3047,9.618388392
3048,9.620114205
3049,9.628503154
3050,9.609716817
3051,9.640202604
3052,9.62840642
3053,9.623901958
3054,9.617741042
3055,9.610920035
3056,9.639813062
3057,9.646501026
3058,9.604489111
3059,9.617395155
3060,9.628699203
3061,9.604006765
3062,9.595487831
3063,9.619924709
3064,9.616057601
3065,9.629819238
3066,9.64042536
3067,9.64252668
3068,9.614590342
3069,9.619451359
3070,9.628263766
3071,9.612842335
3072,9.6325903
3073,9.589768737
3074,9.640900748
3075,9.624448804
3076,9.624440243
3077,9.637147983
3078,9.631689541
3079,9.591709736
3080,9.647481979
3081,9.622136739
3082,9.64546951
3083,9.641571262
3084,9.646740146
3085,9.60738789
3086,9.61685672
3087,9.643561131
3088,9.645094344
3089,9.61374435
3090,9.652807449
3091,9.660288688
3092,9.645988676
3093,9.636885179
3094,9.638678415
3095,9.651073893
3096,9.652558477
3097,9.640476572
3098,9.660275096
3099,9.646901081
3100,9.631467591
3101,9.658180593
3102,9.648228206
3103,9.675947812
3104,9.64173799
3105,9.664163077
3106,9.664079629
3107,9.65293382
3108,9.629412003
3109,9.668126717
3110,9.663035464
3111,9.668382883
3112,9.63932578
3113,9.642185019
3114,9.667920482
3115,9.652932471
3116,9.643516354
3117,9.646654513
3118,9.654035351
3119,9.674105748
3120,9.662128057
3121,9.65663249
3122,9.672546525
3123,9.687966576
3124,9.676776854
3125,9.661535294
3126,9.68621653
3127,9.677283568
3128,9.649794066
3129,9.673749777
3130,9.668251145
3131,9.691387956
3132,9.681963233
3133,9.678581297
3134,9.694637222
3135,9.678467432
3136,9.692314987
3137,9.681394458
3138,9.68184699
3139,9.698321718
3140,9.684019364
3141,9.666317403
3142,9.705327382
3143,9.680106533
3144,9.670948086
3145,9.677588401
3146,9.731064296
3147,9.682004837
3148,9.687286242
3149,9.667489888
3150,9.706286608
3151,9.686371789
3152,9.681013375
3153,9.723344362
3154,9.687305486
3155,9.688716698
3156,9.685377552
3157,9.684694446
3158,9.711176994
3159,9.717509731
3160,9.669495432
3161,9.696773632
3162,9.723242268
3163,9.697280739
3164,9.748286616
3165,9.740448445
3166,9.721680358
3167,9.69740849
3168,9.736327088
3169,9.71721763
3170,9.695813246
3171,9.720287659
3172,9.734751382
3173,9.708407326
3174,9.72558418
3175,9.751790607
3176,9.723550188
3177,9.741590269
3178,9.717205906
3179,9.739748298
3180,9.719873058
3181,9.738282942
3182,9.757405638
3183,9.722199989
3184,9.755713771
3185,9.747297179
3186,9.751633031
3187,9.746572144
3188,9.742160469
3189,9.73239567
3190,9.746393883
3191,9.740129643
3192,9.74479694
3193,9.787077259
3194,9.752713815
3195,9.76273509
3196,9.750298223
3197,9.775605216
3198,9.748902127
3199,9.756499466
3200,9.772583072
3201,9.773965658
3202,9.758137646
3203,9.796845882
3204,9.791732017
3205,9.802330066
3206,9.810502193
3207,9.806676995
3208,9.784989121
3209,9.782295662
3210,9.768351328
3211,9.807055803
3212,9.797497791
3213,9.787739485
3214,9.819498165
3215,9.795238748
3216,9.81897568
3217,9.806563441
3218,9.805009313
3219,9.789964996
3220,9.826025575
3221,9.803700299
3222,9.812696954
3223,9.788929368
3224,9.815776955
3225,9.82740638
3226,9.789906477
3227,9.824026801
3228,9.86009317
3229,9.833295006
3230,9.833132576
3231,9.848282562
3232,9.83619744
3233,9.854419637
3234,9.830022339
3235,9.831607445
3236,9.838655628
3237,9.836550167
3238,9.835878854
3239,9.851132211
3240,9.857064145
3241,9.842463119
3242,9.851853338
3243,9.868536521
3244,9.867490757
3245,9.871166297
3246,9.871087615
3247,9.855892307
3248,9.862615599
3249,9.897460535
3250,9.884776604
3251,9.870727781
3252,9.855622752
3253,9.8927716
3254,9.856937113
3255,9.874280627
3256,9.903889106
3257,9.855459779
3258,9.911368198
3259,9.873072959
3260,9.88888686
3261,9.8582527
3262,9.911722815
3263,9.910473033
3264,9.899974072
3265,9.901664855
3266,9.903031242
3267,9.916984767
3268,9.894395053
3269,9.923981586
3270,9.928264152
3271,9.928345904
3272,9.92142769
3273,9.923925698
3274,9.924044912
3275,9.939110916
3276,9.946275469
3277,9.932772139
3278,9.949264369
3279,9.927150524
3280,9.927343743
3281,9.920111627
3282,9.950599662
3283,9.956241392
3284,9.939660552
3285,9.950715433
3286,9.944902756
3287,9.971058846
3288,9.969355619
3289,9.937050998
3290,9.951121654
3291,9.934050028
3292,9.961912566
3293,9.970065962
3294,9.98437405
3295,9.988565241
3296,9.965137978
3297,9.977492604
3298,9.996825196
3299,9.990596727
3300,9.996853891
3301,10.00926654
3302,9.985933615
3303,9.979315835
3304,10.01687444
3305,10.02426319
3306,10.01224443
3307,10.01950937
3308,10.00241941
3309,10.01471776
3310,10.0060142
3311,10.02695385
3312,10.00823918
3313,10.03031809
3314,9.996846723
3315,10.01658867
3316,10.01862984
3317,10.02354012
3318,10.03803925
3319,10.01983252
3320,10.01566209
3321,10.04637204
3322,10.02262853
3323,10.02354937
3324,10.02254591
3325,10.04730561
3326,10.0684453
3327,10.06519859
3328,10.02431428
3329,10.02889323
3330,10.05089325
3331,10.09791003
3332,10.05262012
3333,10.07382505
3334,10.06563286
3335,10.07474359
3336,10.09533102
3337,10.08026544
3338,10.06392177
3339,10.08339635
3340,10.06647073
3341,10.09546015
3342,10.08324757
3343,10.07866447
3344,10.07873262
3345,10.10709831
3346,10.04199367
3347,10.0897754
3348,10.11156051
3349,10.08733948
3350,10.097359
3351,10.09786273
3352,10.11658662
3353,10.12666437
3354,10.11343022
3355,10.11143114
3356,10.11037967
3357,10.11786652
3358,10.1150979
3359,10.1243894
3360,10.13626552
3361,10.11525807
3362,10.149789
3363,10.12290823
3364,10.1348451
3365,10.13147175
3366,10.13861999
3367,10.11923627
3368,10.13621732
3369,10.15090654
3370,10.12890548
3371,10.1278502
3372,10.16303888
3373,10.14309543
3374,10.1185883
3375,10.16400591
3376,10.15125497
3377,10.17485797
3378,10.12553288
3379,10.15961784
3380,10.16277522
3381,10.19678395
3382,10.15025587
3383,10.17247057
3384,10.17203258
3385,10.19324109
3386,10.17661871
3387,10.17228653
3388,10.15482465
3389,10.17449716
3390,10.18996317
3391,10.17028549
3392,10.19946511
3393,10.13922196
3394,10.19381526
3395,10.16968465
3396,10.18036275
3397,10.1828242
3398,10.1685746
3399,10.18924277
3400,10.19206231
3401,10.18216541
3402,10.17488896
3403,10.20413541
3404,10.19163059
3405,10.2204631
3406,10.18495476
3407,10.19309037
3408,10.17600774
3409,10.22460302
3410,10.18002998
3411,10.17031604
3412,10.19247368
3413,10.18407458
3414,10.19254602
3415,10.18505732
3416,10.14569421
3417,10.21181636
3418,10.18354261
3419,10.21293826
3420,10.19715238
3421,10.18023849
3422,10.16993738
3423,10.19839648
3424,10.18975907
3425,10.23570758
3426,10.19509608
3427,10.16416583
3428,10.18793178
3429,10.19750261
3430,10.21071449
3431,10.2011559
3432,10.18860116
3433,10.20999194
3434,10.17602625
3435,10.20590966
3436,10.22091229
3437,10.2026141
3438,10.19935361
3439,10.20738666
3440,10.20023554
3441,10.20026979
3442,10.21464008
3443,10.21914569
3444,10.2001984
3445,10.19865362
3446,10.19997375
3447,10.21430488
3448,10.1996267
3449,10.15194484
3450,10.22151653
3451,10.21527093
3452,10.1971956
3453,10.19709431
3454,10.18657417
3455,10.19542841
3456,10.20595994
3457,10.18591752
3458,10.18189021
3459,10.17980607
3460,10.18706796
3461,10.2096219
3462,10.20892039
3463,10.20271045
3464,10.1777247
3465,10.21670808
3466,10.21120054
3467,10.19128114
3468,10.19552292
3469,10.20993645
3470,10.18035163
3471,10.21033056
3472,10.17124666
3473,10.1874528
3474,10.169198
3475,10.18330361
3476,10.15414667
3477,10.16077475
3478,10.16770838
3479,10.15074917
3480,10.16630693
3481,10.170478
3482,10.14965785
3483,10.19050214
3484,10.16553219
3485,10.17715534
3486,10.16999436
3487,10.16497143
3488,10.16377235
3489,10.18467225
3490,10.166734
3491,10.17087971
3492,10.16166742
3493,10.15121854
3494,10.14723234
3495,10.14583972
3496,10.15648375
3497,10.15836665
3498,10.15844776
3499,10.15075791
3500,10.16445925
3501,10.14909877
3502,10.16470774
3503,10.12959955
3504,10.10618886
3505,10.13655104
3506,10.12038142
3507,10.16518016
3508,10.1148577
3509,10.14171574
3510,10.14519427
3511,10.16580345
3512,10.14986779
3513,10.12915598
3514,10.10251913
3515,10.12186387
3516,10.13570085
3517,10.11512609
3518,10.12470084
3519,10.10680147
3520,10.14000089
3521,10.10999832
3522,10.07468857
3523,10.10617559
3524,10.11881907
3525,10.0920461
3526,10.09967147
3527,10.09159278
3528,10.09984586
3529,10.11576175
3530,10.08429962
3531,10.1129913
3532,10.07820454
3533,10.07870686
3534,10.10106635
3535,10.0787392
3536,10.07316257
3537,10.11989051
3538,10.06529839
3539,10.06587878
3540,10.068735
3541,10.0650593
3542,10.05949309
3543,10.07851796
3544,10.05814163
3545,10.071072
3546,10.04485324
3547,10.07666628
3548,10.05704134
3549,10.04989681
3550,10.06930148
3551,10.06842552
3552,10.0521551
3553,10.07354091
3554,10.03754851
3555,10.03944395
3556,10.05290409
3557,10.08270487
3558,10.05012085
3559,10.07668641
3560,10.03805946
3561,10.02870454
3562,10.04719505
3563,10.02844984
3564,10.01087232
3565,10.03338159
3566,10.01150963
3567,10.02172473
3568,10.0261137
3569,10.03153654
3570,9.990849479
3571,10.00099976
3572,10.0139266
3573,9.995141917
3574,9.994819518
3575,10.00627105
3576,9.979272215
3577,9.976195414
3578,9.995878997
3579,9.989086272
3580,10.00109617
3581,9.950351116
3582,9.986306413
3583,9.98652296
3584,9.988184455
3585,9.99309535
3586,9.975067159
3587,9.943523379
3588,9.963041898
3589,9.9764555
3590,9.958375104
3591,9.925233309
3592,9.952159799
3593,9.956858135
3594,9.961550587
3595,9.948129273
3596,9.952850492
3597,9.949470285
3598,9.92251058
3599,9.93242517
3600,9.914104437
3601,9.942665242
3602,9.946133314
3603,9.912366124
3604,9.933515619
3605,9.915335808
3606,9.927846053
3607,9.908409222
3608,9.890450967
3609,9.901011257
3610,9.89774685
3611,9.929768807
3612,9.914736755
3613,9.895563704
3614,9.886520697
3615,9.887037415
3616,9.906458589
3617,9.903227805
3618,9.86580359
3619,9.900064407
3620,9.886037258
3621,9.900531648
3622,9.871409124
3623,9.906259888
3624,9.885494547
3625,9.896056231
3626,9.855160825
3627,9.849390837
3628,9.875186743
3629,9.874023269
3630,9.865702482
3631,9.851345544
3632,9.867549431
3633,9.868702483
3634,9.869006517
3635,9.835414098
3636,9.858608933
3637,9.840329273
3638,9.865433128
3639,9.843508633
3640,9.848121841
3641,9.83011232
3642,9.8632442
3643,9.832665465
3644,9.836567962
3645,9.840200931
3646,9.839541805
3647,9.808187896
3648,9.842525392
3649,9.82624758
3650,9.820174999
3651,9.817493413
3652,9.814165735
3653,9.804661983
3654,9.800608964
3655,9.80558958
3656,9.792044124
3657,9.819091834
3658,9.807596952
3659,9.812572061
3660,9.794367826
3661,9.807275555
3662,9.801725952
3663,9.767510119
3664,9.799034738
3665,9.77825033
3666,9.769946759
3667,9.773539755
3668,9.786295307
3669,9.780448529
3670,9.78671321
3671,9.774173201
3672,9.764416175
3673,9.792600081
3674,9.792102233
3675,9.764734767
3676,9.783086114
3677,9.778482227
3678,9.777187989
3679,9.762476673
3680,9.774644812
3681,9.754496151
3682,9.742519042
3683,9.749342823
3684,9.728336996
3685,9.768024931
3686,9.726258395
3687,9.760030257
3688,9.746867325
3689,9.759017773
3690,9.735550021
3691,9.722693015
3692,9.759663865
3693,9.753828961
3694,9.75052089
3695,9.743642305
3696,9.751650741
3697,9.715534245
3698,9.740679788
3699,9.731979874
3700,9.727095012
3701,9.689330936
3702,9.712561039
3703,9.746198724
3704,9.71649167
3705,9.735096466
3706,9.723690653
3707,9.717666249
3708,9.715548444
3709,9.714244634
3710,9.708283523
3711,9.725655998
3712,9.687790809
3713,9.691724878
3714,9.700702874
3715,9.706278617
3716,9.701320311
3717,9.700462972
3718,9.693816566
3719,9.678803055
3720,9.703835714
3721,9.676340559
3722,9.690536379
3723,9.695173905
3724,9.690513668
3725,9.664761633
3726,9.688883897
3727,9.691547575
3728,9.705980293
3729,9.680759268
3730,9.682273078
3731,9.677045347
3732,9.70654515
3733,9.710896132
3734,9.680280024
3735,9.665449647
3736,9.681201422
3737,9.672719569
3738,9.69258317
3739,9.657717529
3740,9.674768603
3741,9.668751859
3742,9.6660639
3743,9.65377941
3744,9.686989249
3745,9.672259464
3746,9.65393091
3747,9.673276233
3748,9.685603778
3749,9.673142008
3750,9.66928528
3751,9.664052641
3752,9.677572523
3753,9.691856515
3754,9.680156264
3755,9.686873364
3756,9.656544415
3757,9.675173353
3758,9.662339599
3759,9.661318357
3760,9.686663345
3761,9.684522946
3762,9.663865244
3763,9.662369304
3764,9.647233856
3765,9.640174674
3766,9.658858451
3767,9.648515538
3768,9.677002167
3769,9.652197635
3770,9.673192024
3771,9.648862523
3772,9.646594704
3773,9.665870333
3774,9.663488164
3775,9.629331379
3776,9.663873536
3777,9.637498713
3778,9.646176515
3779,9.620793669
3780,9.607622062
3781,9.637530778
3782,9.624058781
3783,9.619245639
3784,9.640736897
3785,9.652056713
3786,9.643782743
3787,9.646850879
3788,9.638098956
3789,9.639673675
3790,9.615694474
3791,9.629501535
3792,9.628906391
3793,9.626420044
3794,9.637858057
3795,9.662167657
3796,9.651178162
3797,9.661083635
3798,9.622245816
3799,9.631437869
3800,9.634022616
3801,9.633267184
3802,9.605802612
3803,9.644136299
3804,9.618167728
3805,9.631974944
3806,9.608403207
3807,9.63603727
3808,9.649520996
3809,9.666538136
3810,9.634735694
3811,9.627287862
3812,9.605978313
3813,9.610719998
3814,9.60358383
3815,9.640081256
3816,9.617523644
3817,9.623064629
3818,9.629539427
3819,9.632570345
3820,9.620294156
3821,9.623413688
3822,9.667539743
3823,9.612377001
3824,9.618959503
3825,9.62228805
3826,9.613765746
3827,9.596562918
3828,9.63712084
3829,9.632517294
3830,9.604749136
3831,9.601920744
3832,9.641730212
3833,9.608678932
3834,9.606602829
3835,9.63970489
3836,9.62292666
3837,9.617815156
3838,9.622348219
3839,9.616190825
3840,9.619240036
3841,9.620563682
3842,9.619767678
3843,9.621770702
3844,9.60054369
3845,9.587700991
3846,9.613311737
3847,9.609043553
3848,9.601479295
3849,9.616462819
3850,9.609059565
3851,9.603592913
3852,9.613960412
3853,9.601006687
3854,9.608114417
3855,9.629721111
3856,9.612251056
3857,9.6230881
3858,9.60814173
3859,9.616208715
3860,9.586321918
3861,9.623486504
3862,9.592812862
3863,9.627147029
3864,9.637605069
3865,9.615287761
3866,9.60876076
3867,9.621618557
3868,9.602331392
3869,9.620929928
3870,9.635145487
3871,9.591846528
3872,9.616779795
3873,9.626884573
3874,9.595695831
3875,9.619956956
3876,9.610817039
3877,9.619504689
3878,9.627285968
3879,9.598699958
3880,9.6078138
3881,9.615347947
3882,9.60479243
3883,9.616432592
3884,9.593646905
3885,9.597024254
3886,9.607746466
3887,9.581242315
3888,9.5800089
3889,9.603174137
3890,9.613642824
3891,9.612128878
3892,9.599372547
3893,9.603084255
3894,9.610597412
3895,9.613519951
3896,9.610196554
3897,9.597096642
3898,9.613095877
3899,9.604510447
3900,9.601614142
3901,9.602778396
3902,9.591406226
3903,9.616856566
3904,9.609281405
3905,9.595598223
3906,9.619205753
3907,9.600135539
3908,9.605121527
3909,9.616709385
3910,9.604504616
3911,9.612806142
3912,9.604137588
3913,9.596009452
3914,9.616788953
3915,9.625820431
3916,9.570124098
3917,9.573826785
3918,9.599786065
3919,9.621987834
3920,9.587559584
3921,9.594385884
3922,9.623798728
3923,9.586566521
3924,9.590181573
3925,9.612658273
3926,9.591870079
3927,9.604577447
3928,9.596401317
3929,9.60987498
3930,9.602049071
3931,9.603747006
3932,9.625052821
3933,9.612401569
3934,9.620696727
3935,9.596672123
3936,9.586523807
3937,9.591415648
3938,9.5902518
3939,9.612825632
3940,9.613388568
3941,9.583924973
3942,9.573896641
3943,9.608388355
3944,9.57577875
3945,9.589297817
3946,9.608519716
3947,9.601171613
3948,9.608676501
3949,9.604773832
3950,9.591310582
3951,9.581251036
3952,9.608390148
3953,9.609802282
3954,9.604015327
3955,9.61559032
3956,9.593958073
3957,9.6081246
3958,9.601708595
3959,9.589918598
3960,9.627418048
3961,9.608148956
3962,9.607107976
3963,9.624008148
3964,9.622960032
3965,9.620591119
3966,9.631751939
3967,9.579929579
3968,9.595418319
3969,9.59636309
3970,9.632861638
3971,9.60201105
3972,9.582532832
3973,9.614450208
3974,9.587356534
3975,9.60597393
3976,9.595482718
3977,9.6086625
3978,9.624202196
3979,9.626207443
3980,9.625857254
3981,9.609587796
3982,9.575139959
3983,9.60213164
3984,9.598096098
3985,9.598460127
3986,9.601386577
3987,9.604126087
3988,9.599499168
3989,9.59904984
3990,9.615837253
3991,9.609831322
3992,9.612481466
3993,9.596998852
3994,9.593940204
3995,9.603311169
3996,9.600470109
3997,9.586379207
3998,9.572217726
3999,9.596960045
4000,9.595680663
