Raman Shift,Intensity 
400,8.419331111
401,8.374813718
402,8.433361028
403,8.421335263
404,8.446000954
405,8.406608893
406,8.394160507
407,8.36644815
408,8.396672567
409,8.411996354
410,8.448134203
411,8.412014823
412,8.414169848
413,8.38716357
414,8.433743598
415,8.383635793
416,8.391226461
417,8.361710869
418,8.401066817
419,8.344984902
420,8.428269171
421,8.38251174
422,8.388194261
423,8.373247238
424,8.37722491
425,8.367427557
426,8.44635247
427,8.419014387
428,8.413022985
429,8.417297421
430,8.416376874
431,8.372800597
432,8.413299148
433,8.412872947
434,8.395867285
435,8.363100109
436,8.407192631
437,8.472588542
438,8.436339319
439,8.386701805
440,8.40276199
441,8.368534058
442,8.38832684
443,8.387556541
444,8.364447881
445,8.37663573
446,8.409996291
447,8.396301601
448,8.412106018
449,8.415593145
450,8.426973017
451,8.37315335
452,8.397988023
453,8.383387285
454,8.368377129
455,8.390173714
456,8.373905301
457,8.424807819
458,8.41011905
459,8.424745
460,8.388974869
461,8.40569582
462,8.377932234
463,8.41934082
464,8.423177371
465,8.420511884
466,8.387490226
467,8.435250867
468,8.426450646
469,8.370332244
470,8.39635746
471,8.40789166
472,8.356278094
473,8.388669896
474,8.372898933
475,8.403614753
476,8.374984441
477,8.407081439
478,8.390888235
479,8.386224238
480,8.35302113
481,8.402212848
482,8.428538279
483,8.429289275
484,8.403782446
485,8.393813058
486,8.397990038
487,8.376314318
488,8.413521275
489,8.412277853
490,8.382453024
491,8.431020973
492,8.397592405
493,8.365018832
494,8.408830854
495,8.396273678
496,8.460066319
497,8.416158066
498,8.40447578
499,8.422294014
500,8.415569608
501,8.368771409
502,8.376475213
503,8.418820141
504,8.420421738
505,8.411140975
506,8.369987255
507,8.307195319
508,8.373107804
509,8.394812063
510,8.437805786
511,8.417271523
512,8.390012809
513,8.42110859
514,8.41301302
515,8.389241199
516,8.424852046
517,8.369168034
518,8.385864075
519,8.426457784
520,8.372228577
521,8.376151347
522,8.41601469
523,8.406310904
524,8.403215545
525,8.373652461
526,8.411703765
527,8.37448547
528,8.386482204
529,8.398599055
530,8.399130417
531,8.429559815
532,8.41212294
533,8.433488478
534,8.393416361
535,8.406119398
536,8.42803389
537,8.406794538
538,8.396867545
539,8.39299836
540,8.397417839
541,8.419695088
542,8.407658231
543,8.398171432
544,8.385943993
545,8.408464088
546,8.399077189
547,8.437739941
548,8.42970577
549,8.426960487
550,8.433025055
551,8.386507709
552,8.423261379
553,8.413051738
554,8.368614178
555,8.423408204
556,8.431674765
557,8.411979279
558,8.393045786
559,8.386714875
560,8.348073501
561,8.443496599
562,8.355895946
563,8.350344869
564,8.441326209
565,8.415437376
566,8.382956912
567,8.39062505
568,8.364401372
569,8.391244022
570,8.424707859
571,8.351836409
572,8.455779445
573,8.398826235
574,8.401877792
575,8.407619861
576,8.425734188
577,8.393676196
578,8.380365011
579,8.418245898
580,8.408316465
581,8.395294036
582,8.464019743
583,8.387308994
584,8.437887312
585,8.451177835
586,8.368299682
587,8.421376423
588,8.431928744
589,8.42055786
590,8.38933421
591,8.392685004
592,8.425005597
593,8.359030469
594,8.409238479
595,8.38398376
596,8.389436871
597,8.38349245
598,8.388135092
599,8.38313648
600,8.397670619
601,8.411247054
602,8.371443894
603,8.402911746
604,8.441592501
605,8.409733079
606,8.38562515
607,8.390763053
608,8.384349205
609,8.426281047
610,8.3693023
611,8.388836738
612,8.367542763
613,8.403642522
614,8.419697237
615,8.40388711
616,8.342030128
617,8.400465833
618,8.390940751
619,8.451028736
620,8.386597291
621,8.439646402
622,8.416222343
623,8.406705269
624,8.405943765
625,8.409837083
626,8.371152082
627,8.393360402
628,8.406228988
629,8.363134683
630,8.367443704
631,8.375861326
632,8.380816376
633,8.392342397
634,8.370783375
635,8.415314532
636,8.412450964
637,8.388934894
638,8.421461146
639,8.426951435
640,8.414450703
641,8.368452865
642,8.360078333
643,8.381563989
644,8.392979888
645,8.420551745
646,8.35429268
647,8.449717283
648,8.445777205
649,8.380016952
650,8.383104294
651,8.423782506
652,8.419307583
653,8.354168801
654,8.40465474
655,8.40108486
656,8.41151607
657,8.374431551
658,8.4137919
659,8.434888764
660,8.361913751
661,8.432789331
662,8.365448586
663,8.440000282
664,8.415079788
665,8.370474986
666,8.372382467
667,8.435182329
668,8.400026701
669,8.463066078
670,8.431819321
671,8.362743346
672,8.392559681
673,8.377232359
674,8.392835487
675,8.400151291
676,8.398152285
677,8.381551321
678,8.363976177
679,8.399184314
680,8.39267478
681,8.411612253
682,8.428256321
683,8.373015029
684,8.396121918
685,8.387054426
686,8.347398385
687,8.387774259
688,8.385526362
689,8.412632154
690,8.387102049
691,8.420557055
692,8.37442221
693,8.382861521
694,8.367636943
695,8.393896718
696,8.376938958
697,8.36333398
698,8.355312398
699,8.41201054
700,8.426596284
701,8.391512719
702,8.399602647
703,8.381359751
704,8.37517636
705,8.443043966
706,8.383020116
707,8.448643183
708,8.366321407
709,8.338748517
710,8.376770158
711,8.400368593
712,8.43902653
713,8.39748024
714,8.417195791
715,8.383327863
716,8.357488748
717,8.381995404
718,8.417409368
719,8.354290118
720,8.406705634
721,8.405063293
722,8.354717072
723,8.406514366
724,8.379295154
725,8.384798013
726,8.400829099
727,8.394517456
728,8.448846817
729,8.407020134
730,8.398085693
731,8.396277713
732,8.405094281
733,8.425987664
734,8.382824243
735,8.425545693
736,8.456616587
737,8.390375895
738,8.418030198
739,8.395970082
740,8.417117857
741,8.426422289
742,8.429601606
743,8.3990428
744,8.418416419
745,8.439697211
746,8.38342944
747,8.416510586
748,8.433181741
749,8.388978666
750,8.377090186
751,8.370519802
752,8.430562268
753,8.43752079
754,8.361915015
755,8.378971471
756,8.421978757
757,8.429697613
758,8.397301235
759,8.397028261
760,8.378309756
761,8.369378796
762,8.43955011
763,8.357155595
764,8.454445023
765,8.437540949
766,8.398527014
767,8.394149053
768,8.406901427
769,8.412300441
770,8.389378579
771,8.424070135
772,8.380433945
773,8.438217725
774,8.409021733
775,8.38405486
776,8.415139147
777,8.411987563
778,8.434825308
779,8.428330586
780,8.420751619
781,8.445305809
782,8.438202142
783,8.460668776
784,8.503029944
785,8.460319877
786,8.481840998
787,8.461586621
788,8.51085402
789,8.518945647
790,8.542844084
791,8.52915153
792,8.55001642
793,8.499633339
794,8.539852323
795,8.563304075
796,8.561114097
797,8.550272795
798,8.605730595
799,8.618975918
800,8.571014549
801,8.661191007
802,8.589088131
803,8.64558677
804,8.66119258
805,8.746157513
806,8.730586674
807,8.768188613
808,8.759277337
809,8.766918796
810,8.780740237
811,8.827442101
812,8.820138403
813,8.803373337
814,8.906014173
815,8.909114685
816,8.894289964
817,8.971385124
818,8.980306048
819,8.993523359
820,9.008543691
821,9.077583
822,9.096752355
823,9.133726825
824,9.112549279
825,9.118867246
826,9.156308017
827,9.20398538
828,9.225446372
829,9.24068172
830,9.249551647
831,9.297967376
832,9.339714716
833,9.317369578
834,9.303828614
835,9.276587024
836,9.309207643
837,9.369531775
838,9.385050661
839,9.384838307
840,9.370439671
841,9.398080797
842,9.355213347
843,9.420876392
844,9.392543156
845,9.390326002
846,9.404036704
847,9.385347922
848,9.372512106
849,9.383767829
850,9.383511124
851,9.32403855
852,9.380659973
853,9.303444848
854,9.326934502
855,9.260185575
856,9.25642132
857,9.291572126
858,9.231080774
859,9.165234506
860,9.211625651
861,9.187903778
862,9.186343577
863,9.130534387
864,9.07900609
865,9.139856874
866,9.081949672
867,9.083925587
868,9.001086913
869,8.930241574
870,8.989369599
871,8.990949345
872,8.951184659
873,8.917800641
874,8.911883915
875,8.853943266
876,8.807062591
877,8.786697854
878,8.786921787
879,8.780766071
880,8.722375905
881,8.767600558
882,8.750323186
883,8.697509913
884,8.700080718
885,8.700221096
886,8.647353829
887,8.603135909
888,8.616805509
889,8.582199534
890,8.567422977
891,8.58498676
892,8.574424498
893,8.53900855
894,8.522152607
895,8.470474086
896,8.492617728
897,8.505807776
898,8.461311099
899,8.45039998
900,8.4582232
901,8.444928955
902,8.441491442
903,8.478241007
904,8.430151473
905,8.496724418
906,8.468667702
907,8.462708679
908,8.416142188
909,8.415008219
910,8.419098533
911,8.440238383
912,8.432293815
913,8.399002804
914,8.422796182
915,8.391991215
916,8.44628364
917,8.443124376
918,8.410911652
919,8.367769737
920,8.433630052
921,8.420726694
922,8.436244829
923,8.436988545
924,8.369932678
925,8.369475229
926,8.401451503
927,8.372291556
928,8.366878446
929,8.375875481
930,8.40321206
931,8.413706818
932,8.4321854
933,8.427998543
934,8.440941726
935,8.373287822
936,8.396401319
937,8.467853947
938,8.445012046
939,8.365438768
940,8.409169859
941,8.390846611
942,8.408442376
943,8.379475023
944,8.420456084
945,8.387704555
946,8.411136571
947,8.383389462
948,8.413573605
949,8.38590824
950,8.3646866
951,8.381392488
952,8.435978885
953,8.412205595
954,8.402867908
955,8.357555558
956,8.364467644
957,8.381489733
958,8.393191798
959,8.404936592
960,8.430635908
961,8.395469684
962,8.400250633
963,8.383361425
964,8.383560612
965,8.409377888
966,8.368701187
967,8.393577767
968,8.44772996
969,8.387350304
970,8.386918889
971,8.408623247
972,8.433148698
973,8.419948079
974,8.376501485
975,8.396298186
976,8.374831361
977,8.370166211
978,8.381263193
979,8.40295067
980,8.459696804
981,8.429252443
982,8.427695756
983,8.404039884
984,8.405171932
985,8.405947613
986,8.415740912
987,8.404098602
988,8.349151424
989,8.365940515
990,8.413108748
991,8.382758629
992,8.430286817
993,8.346776278
994,8.41584773
995,8.429405866
996,8.444864872
997,8.380819922
998,8.395821799
999,8.398720374
1000,8.361600659
1001,8.389645272
1002,8.38743615
1003,8.447678818
1004,8.377848233
1005,8.429552536
1006,8.383344866
1007,8.382213082
1008,8.364747641
1009,8.398958695
1010,8.352735703
1011,8.388836088
1012,8.386293091
1013,8.415641882
1014,8.337757531
1015,8.38903797
1016,8.411534472
1017,8.379675131
1018,8.412303962
1019,8.375458441
1020,8.422692937
1021,8.430137449
1022,8.439564523
1023,8.379503002
1024,8.465048009
1025,8.381096166
1026,8.39464625
1027,8.360416367
1028,8.416793464
1029,8.417652066
1030,8.447432368
1031,8.40530503
1032,8.36278866
1033,8.371787796
1034,8.39975584
1035,8.414215928
1036,8.380873069
1037,8.393633667
1038,8.395807097
1039,8.407382789
1040,8.402430631
1041,8.367609656
1042,8.394328026
1043,8.408582533
1044,8.383128011
1045,8.400809046
1046,8.412264458
1047,8.394391622
1048,8.39014251
1049,8.392745512
1050,8.420720562
1051,8.409287943
1052,8.362877532
1053,8.416254708
1054,8.36452155
1055,8.386806248
1056,8.409867567
1057,8.412786227
1058,8.429436688
1059,8.421028878
1060,8.408225564
1061,8.431108659
1062,8.434667886
1063,8.374593579
1064,8.416572043
1065,8.412025348
1066,8.409832609
1067,8.374789515
1068,8.432739423
1069,8.441053812
1070,8.392752172
1071,8.379516944
1072,8.361001158
1073,8.414824699
1074,8.40791847
1075,8.389463701
1076,8.369416321
1077,8.422237392
1078,8.416341217
1079,8.410182833
1080,8.393306565
1081,8.41573866
1082,8.372159685
1083,8.39724054
1084,8.418208184
1085,8.397391477
1086,8.378068139
1087,8.387012392
1088,8.394878396
1089,8.380994581
1090,8.394571333
1091,8.388286303
1092,8.429768852
1093,8.398783919
1094,8.385307658
1095,8.390940579
1096,8.404868036
1097,8.41830398
1098,8.415966462
1099,8.376962548
1100,8.432492204
1101,8.383563206
1102,8.340636446
1103,8.431386097
1104,8.401650138
1105,8.39950424
1106,8.420840923
1107,8.3602045
1108,8.37292735
1109,8.411617478
1110,8.405566318
1111,8.42484913
1112,8.407280467
1113,8.382172946
1114,8.420838055
1115,8.393581497
1116,8.446513348
1117,8.414120955
1118,8.405860701
1119,8.401885118
1120,8.382492654
1121,8.380284759
1122,8.36302546
1123,8.429490281
1124,8.395412231
1125,8.410376543
1126,8.424959015
1127,8.419380582
1128,8.431680121
1129,8.430874473
1130,8.395254748
1131,8.402916088
1132,8.390491262
1133,8.370810427
1134,8.376666784
1135,8.441293717
1136,8.393544736
1137,8.393851979
1138,8.424312753
1139,8.417292654
1140,8.407456745
1141,8.391689384
1142,8.381094292
1143,8.386123542
1144,8.362593295
1145,8.429305151
1146,8.395463144
1147,8.384953946
1148,8.373474079
1149,8.406991796
1150,8.352151221
1151,8.438871427
1152,8.403828114
1153,8.352478762
1154,8.414369463
1155,8.393488292
1156,8.417921925
1157,8.383048291
1158,8.398677772
1159,8.428607506
1160,8.419878524
1161,8.426956549
1162,8.3674475
1163,8.415493707
1164,8.400304368
1165,8.37392566
1166,8.356741057
1167,8.372447549
1168,8.410308898
1169,8.394645967
1170,8.414042134
1171,8.438844685
1172,8.421844834
1173,8.441275861
1174,8.347033931
1175,8.43170647
1176,8.40606882
1177,8.40998785
1178,8.447116208
1179,8.433422667
1180,8.405853132
1181,8.421629939
1182,8.383287624
1183,8.407860106
1184,8.353745352
1185,8.359847717
1186,8.422900239
1187,8.438802262
1188,8.436088031
1189,8.425680301
1190,8.384530891
1191,8.37197001
1192,8.357060964
1193,8.406554863
1194,8.390042726
1195,8.381752615
1196,8.357493914
1197,8.470918282
1198,8.393365448
1199,8.373525616
1200,8.378841657
1201,8.419807383
1202,8.40332086
1203,8.329585184
1204,8.402546065
1205,8.393048377
1206,8.385386078
1207,8.416811803
1208,8.368933751
1209,8.412100287
1210,8.413382213
1211,8.405670035
1212,8.414584399
1213,8.406951659
1214,8.363794554
1215,8.372136133
1216,8.412984951
1217,8.410652147
1218,8.394250459
1219,8.377705408
1220,8.416193055
1221,8.4000054
1222,8.369590928
1223,8.363790627
1224,8.391760977
1225,8.389070854
1226,8.410745081
1227,8.384588213
1228,8.442563014
1229,8.371259454
1230,8.354458735
1231,8.413880647
1232,8.433277199
1233,8.419897179
1234,8.385556418
1235,8.43085563
1236,8.353875812
1237,8.398332057
1238,8.3540337
1239,8.43672075
1240,8.372929047
1241,8.399157031
1242,8.415065819
1243,8.407799381
1244,8.405016519
1245,8.431636067
1246,8.392135121
1247,8.434906442
1248,8.414458947
1249,8.390566493
1250,8.417111709
1251,8.401691191
1252,8.396686942
1253,8.429277581
1254,8.386293317
1255,8.427055332
1256,8.444979888
1257,8.409279285
1258,8.391943524
1259,8.414729652
1260,8.390766092
1261,8.338137951
1262,8.409466039
1263,8.411323063
1264,8.407398686
1265,8.408248564
1266,8.399158547
1267,8.359976487
1268,8.387384172
1269,8.392556453
1270,8.371275286
1271,8.427499022
1272,8.400444845
1273,8.406896191
1274,8.427781238
1275,8.397864153
1276,8.40306492
1277,8.383021532
1278,8.441161046
1279,8.365366101
1280,8.390357869
1281,8.442224162
1282,8.422694808
1283,8.361490382
1284,8.391166506
1285,8.398235514
1286,8.42896596
1287,8.326649162
1288,8.38849437
1289,8.447970733
1290,8.401096769
1291,8.4146738
1292,8.393792433
1293,8.37136337
1294,8.410224991
1295,8.416095277
1296,8.404816573
1297,8.369389431
1298,8.381019229
1299,8.365914716
1300,8.39716317
1301,8.426247372
1302,8.420991894
1303,8.356235299
1304,8.404835889
1305,8.420887891
1306,8.397708047
1307,8.408522813
1308,8.397130415
1309,8.379319337
1310,8.409079386
1311,8.41677015
1312,8.427467327
1313,8.407452485
1314,8.386153114
1315,8.378914224
1316,8.415780427
1317,8.342868256
1318,8.363930768
1319,8.397528682
1320,8.389578797
1321,8.435712314
1322,8.386766497
1323,8.388350397
1324,8.385705845
1325,8.405085224
1326,8.416188832
1327,8.424822622
1328,8.370947403
1329,8.411508617
1330,8.396296031
1331,8.346949278
1332,8.423994759
1333,8.442259834
1334,8.380016094
1335,8.414878677
1336,8.412846264
1337,8.391029132
1338,8.368354887
1339,8.410900666
1340,8.354020731
1341,8.414469182
1342,8.385710303
1343,8.438038139
1344,8.382235953
1345,8.397132406
1346,8.414093248
1347,8.418552677
1348,8.371897783
1349,8.432287569
1350,8.390324074
1351,8.443031098
1352,8.374373089
1353,8.426444018
1354,8.436468388
1355,8.418137217
1356,8.428087193
1357,8.380685297
1358,8.386848997
1359,8.416899762
1360,8.390230244
1361,8.412311111
1362,8.422820373
1363,8.404443242
1364,8.43939112
1365,8.414137954
1366,8.412791458
1367,8.408265676
1368,8.369340391
1369,8.42596597
1370,8.392717846
1371,8.404950374
1372,8.352379619
1373,8.406266174
1374,8.389399919
1375,8.400051449
1376,8.373955488
1377,8.424364356
1378,8.386273262
1379,8.358917187
1380,8.356633585
1381,8.384642396
1382,8.399280206
1383,8.372688721
1384,8.4083414
1385,8.42832016
1386,8.421003144
1387,8.389292082
1388,8.41631637
1389,8.41205145
1390,8.420652822
1391,8.406820507
1392,8.376839078
1393,8.419334683
1394,8.407635715
1395,8.398310279
1396,8.343707804
1397,8.439191152
1398,8.406013609
1399,8.368661145
1400,8.402886701
1401,8.371731911
1402,8.395869665
1403,8.408796065
1404,8.382232512
1405,8.410601099
1406,8.400004341
1407,8.442149047
1408,8.391405883
1409,8.396725672
1410,8.371248472
1411,8.404992604
1412,8.432963422
1413,8.382227094
1414,8.43212548
1415,8.390350292
1416,8.403011481
1417,8.370667702
1418,8.379907149
1419,8.451603163
1420,8.415899355
1421,8.405468829
1422,8.394569163
1423,8.399147452
1424,8.417061589
1425,8.378244565
1426,8.414079873
1427,8.404961502
1428,8.390289068
1429,8.384662593
1430,8.395447726
1431,8.433660832
1432,8.404377533
1433,8.412435318
1434,8.400402334
1435,8.367502923
1436,8.41667829
1437,8.425633236
1438,8.403894474
1439,8.451270812
1440,8.419021157
1441,8.4016404
1442,8.399510671
1443,8.396620895
1444,8.382027315
1445,8.379850388
1446,8.370997525
1447,8.413456038
1448,8.389259877
1449,8.401651323
1450,8.408881509
1451,8.382945042
1452,8.364312337
1453,8.397115241
1454,8.415497349
1455,8.426804369
1456,8.364292943
1457,8.445635318
1458,8.404289244
1459,8.414702617
1460,8.403324571
1461,8.388154043
1462,8.442924177
1463,8.379210098
1464,8.415159489
1465,8.394882895
1466,8.418785485
1467,8.400429349
1468,8.392117719
1469,8.380082326
1470,8.390965703
1471,8.366759519
1472,8.391617238
1473,8.43424252
1474,8.374763413
1475,8.40562206
1476,8.397161363
1477,8.487916135
1478,8.385463332
1479,8.396545799
1480,8.399726032
1481,8.411345881
1482,8.41882033
1483,8.407042397
1484,8.416526232
1485,8.37776277
1486,8.429751593
1487,8.37229782
1488,8.379628933
1489,8.426000358
1490,8.428015026
1491,8.39355248
1492,8.406105295
1493,8.381328328
1494,8.393705278
1495,8.441607175
1496,8.415039346
1497,8.374630607
1498,8.472186988
1499,8.430633336
1500,8.423258971
1501,8.398442578
1502,8.450213465
1503,8.449267863
1504,8.398884675
1505,8.39376809
1506,8.408955456
1507,8.378847573
1508,8.437456776
1509,8.362708772
1510,8.351408588
1511,8.476183239
1512,8.409940981
1513,8.38964958
1514,8.38507702
1515,8.348316367
1516,8.378327842
1517,8.371416073
1518,8.405129509
1519,8.404772913
1520,8.385446694
1521,8.37710969
1522,8.422481919
1523,8.393941786
1524,8.408258963
1525,8.387829122
1526,8.444185208
1527,8.452848797
1528,8.377340199
1529,8.396441678
1530,8.386321166
1531,8.440195631
1532,8.378380502
1533,8.375108772
1534,8.379708432
1535,8.401589204
1536,8.371075427
1537,8.35805181
1538,8.413059659
1539,8.358608985
1540,8.425856711
1541,8.407437727
1542,8.416866252
1543,8.340643003
1544,8.399626218
1545,8.425471316
1546,8.423300844
1547,8.390093382
1548,8.435195583
1549,8.391279978
1550,8.394087081
1551,8.419331678
1552,8.415445171
1553,8.363323903
1554,8.402671732
1555,8.406323766
1556,8.360256369
1557,8.435958891
1558,8.395885281
1559,8.42541254
1560,8.379102731
1561,8.422636435
1562,8.392746435
1563,8.391096812
1564,8.388505897
1565,8.367274434
1566,8.379195236
1567,8.425424994
1568,8.387813708
1569,8.435745873
1570,8.467598629
1571,8.414937621
1572,8.387881555
1573,8.437744848
1574,8.413020245
1575,8.410656689
1576,8.408743353
1577,8.34763147
1578,8.435252337
1579,8.366825243
1580,8.431855793
1581,8.376624613
1582,8.389345271
1583,8.413380024
1584,8.412376841
1585,8.383665525
1586,8.425450346
1587,8.433422428
1588,8.409833049
1589,8.397939483
1590,8.400564098
1591,8.412713873
1592,8.427081495
1593,8.379650573
1594,8.419415926
1595,8.404512042
1596,8.414841437
1597,8.397835955
1598,8.407366302
1599,8.392551319
1600,8.390148033
1601,8.404258014
1602,8.406621529
1603,8.401078823
1604,8.399643537
1605,8.413402797
1606,8.358260372
1607,8.348562692
1608,8.431984969
1609,8.423263694
1610,8.4243996
1611,8.377026487
1612,8.403270211
1613,8.391955662
1614,8.390947445
1615,8.382257418
1616,8.391966816
1617,8.413709435
1618,8.407378006
1619,8.45902608
1620,8.383243954
1621,8.41852206
1622,8.38348002
1623,8.393992569
1624,8.389464548
1625,8.390292861
1626,8.423545863
1627,8.412715137
1628,8.422418444
1629,8.394119284
1630,8.385365024
1631,8.385806135
1632,8.417959601
1633,8.391408013
1634,8.421823518
1635,8.390916408
1636,8.415509389
1637,8.39428806
1638,8.412900598
1639,8.367094293
1640,8.390858115
1641,8.374056904
1642,8.374650555
1643,8.367734752
1644,8.441408936
1645,8.403230382
1646,8.378788771
1647,8.398059112
1648,8.378824473
1649,8.330842327
1650,8.435791067
1651,8.414080012
1652,8.36018565
1653,8.41329316
1654,8.410318967
1655,8.373960456
1656,8.393790299
1657,8.401365429
1658,8.367949669
1659,8.391475762
1660,8.370283216
1661,8.407087596
1662,8.384703356
1663,8.418670878
1664,8.429540365
1665,8.413950086
1666,8.393532492
1667,8.397207196
1668,8.403897847
1669,8.412729925
1670,8.409403452
1671,8.390299317
1672,8.364136657
1673,8.394378136
1674,8.39125133
1675,8.408296732
1676,8.43110091
1677,8.391367386
1678,8.366705596
1679,8.41789643
1680,8.40537705
1681,8.401931981
1682,8.447017911
1683,8.427709559
1684,8.418008606
1685,8.399038708
1686,8.397421227
1687,8.423985433
1688,8.403473367
1689,8.397438601
1690,8.337992985
1691,8.381006784
1692,8.37402643
1693,8.44689653
1694,8.377964525
1695,8.377536223
1696,8.377746422
1697,8.38100718
1698,8.389897119
1699,8.364453796
1700,8.419035449
1701,8.392938098
1702,8.415270864
1703,8.413561024
1704,8.437208516
1705,8.456521494
1706,8.419141661
1707,8.371477338
1708,8.414829883
1709,8.423387781
1710,8.358790616
1711,8.387798097
1712,8.445667965
1713,8.419298727
1714,8.438047655
1715,8.408138771
1716,8.416767941
1717,8.410065262
1718,8.399597582
1719,8.409157485
1720,8.40864217
1721,8.429798651
1722,8.377697605
1723,8.356763585
1724,8.436911562
1725,8.344126287
1726,8.415982512
1727,8.343231049
1728,8.438984322
1729,8.379614377
1730,8.37758131
1731,8.417800659
1732,8.381974664
1733,8.386988049
1734,8.39614708
1735,8.388756381
1736,8.377498423
1737,8.398900279
1738,8.404403042
1739,8.390048533
1740,8.371191753
1741,8.378436917
1742,8.424750563
1743,8.412713802
1744,8.417891373
1745,8.343852306
1746,8.417980939
1747,8.396165561
1748,8.363059535
1749,8.408090566
1750,8.387238572
1751,8.389408196
1752,8.42094077
1753,8.380496453
1754,8.376338412
1755,8.419646918
1756,8.366803924
1757,8.389856245
1758,8.393076928
1759,8.387447463
1760,8.415836324
1761,8.40333456
1762,8.40283344
1763,8.341013212
1764,8.401648157
1765,8.41078249
1766,8.451010539
1767,8.364479106
1768,8.429739736
1769,8.389861692
1770,8.395079983
1771,8.407681707
1772,8.414536359
1773,8.417021177
1774,8.407713434
1775,8.393800912
1776,8.403299489
1777,8.409257402
1778,8.418586846
1779,8.372779105
1780,8.381329826
1781,8.391305586
1782,8.350411796
1783,8.425458217
1784,8.438688254
1785,8.360568301
1786,8.338184967
1787,8.371707112
1788,8.41115265
1789,8.382085445
1790,8.399279391
1791,8.402117232
1792,8.429180813
1793,8.426828711
1794,8.398505367
1795,8.392650676
1796,8.408327098
1797,8.387467378
1798,8.356109987
1799,8.430228299
1800,8.38205972
1801,8.372075529
1802,8.365027245
1803,8.347925165
1804,8.381608237
1805,8.403709778
1806,8.434775424
1807,8.430774454
1808,8.381499163
1809,8.429168362
1810,8.408440054
1811,8.431550371
1812,8.417892872
1813,8.383979957
1814,8.410000206
1815,8.401221484
1816,8.385483308
1817,8.412402162
1818,8.40605564
1819,8.396937077
1820,8.367650769
1821,8.427231248
1822,8.391690039
1823,8.397401628
1824,8.401859132
1825,8.389084073
1826,8.399260405
1827,8.38221204
1828,8.434991288
1829,8.38814349
1830,8.39528714
1831,8.402462905
1832,8.429156439
1833,8.399844613
1834,8.409117037
1835,8.410579241
1836,8.419599472
1837,8.422347877
1838,8.415858912
1839,8.386148405
1840,8.434455894
1841,8.356682812
1842,8.40331569
1843,8.381141598
1844,8.375834274
1845,8.403187415
1846,8.395176255
1847,8.415810691
1848,8.41916772
1849,8.380139925
1850,8.373633074
1851,8.366615292
1852,8.437290357
1853,8.443251538
1854,8.450768467
1855,8.399911343
1856,8.392088137
1857,8.395527045
1858,8.384737532
1859,8.378636429
1860,8.448095404
1861,8.399869122
1862,8.381309529
1863,8.400736916
1864,8.412206407
1865,8.388266434
1866,8.384349588
1867,8.37051699
1868,8.408069576
1869,8.360988065
1870,8.420704216
1871,8.424965783
1872,8.423331218
1873,8.390545825
1874,8.416811658
1875,8.357463642
1876,8.433629794
1877,8.404005636
1878,8.434357414
1879,8.385329957
1880,8.403244576
1881,8.442121671
1882,8.385937562
1883,8.411944554
1884,8.350752719
1885,8.42111247
1886,8.421577341
1887,8.414431925
1888,8.401658238
1889,8.381403617
1890,8.376657208
1891,8.428754029
1892,8.442748738
1893,8.430547005
1894,8.41214656
1895,8.379560867
1896,8.363028738
1897,8.449509324
1898,8.378209534
1899,8.425648236
1900,8.374825148
1901,8.424078224
1902,8.398402673
1903,8.415818693
1904,8.467251078
1905,8.387104507
1906,8.381275135
1907,8.411741431
1908,8.395069998
1909,8.386062461
1910,8.397385227
1911,8.383321219
1912,8.395798395
1913,8.391786844
1914,8.335838055
1915,8.385071302
1916,8.429928054
1917,8.438043632
1918,8.404873633
1919,8.432677644
1920,8.415822691
1921,8.404107802
1922,8.396114272
1923,8.396311889
1924,8.422488575
1925,8.384691913
1926,8.409220476
1927,8.366186249
1928,8.379940857
1929,8.419426737
1930,8.421453501
1931,8.407263401
1932,8.432535028
1933,8.352396671
1934,8.385703612
1935,8.411037411
1936,8.394603311
1937,8.38848745
1938,8.393962555
1939,8.387295039
1940,8.402292363
1941,8.449172939
1942,8.418677496
1943,8.381010844
1944,8.40320791
1945,8.404430089
1946,8.428291236
1947,8.417721275
1948,8.447354033
1949,8.42857071
1950,8.371201821
1951,8.409901609
1952,8.408055536
1953,8.417947884
1954,8.386512662
1955,8.412817347
1956,8.410857814
1957,8.399680273
1958,8.388668789
1959,8.382108964
1960,8.394917395
1961,8.42881652
1962,8.403633434
1963,8.426973848
1964,8.414214891
1965,8.384979941
1966,8.35889296
1967,8.34487763
1968,8.39661217
1969,8.406808779
1970,8.403031704
1971,8.409783749
1972,8.367765408
1973,8.367328859
1974,8.383905043
1975,8.432073735
1976,8.408614745
1977,8.370513007
1978,8.336998113
1979,8.391349847
1980,8.369587181
1981,8.396831447
1982,8.408552212
1983,8.375925254
1984,8.419534297
1985,8.375566342
1986,8.431590652
1987,8.406320973
1988,8.396220542
1989,8.406451795
1990,8.394770591
1991,8.464033487
1992,8.443105845
1993,8.411084251
1994,8.361771905
1995,8.414982393
1996,8.411573097
1997,8.368376311
1998,8.405254588
1999,8.385634368
2000,8.41186254
2001,8.414270862
2002,8.377052202
2003,8.385101434
2004,8.396638207
2005,8.364275023
2006,8.398242288
2007,8.38122055
2008,8.395845154
2009,8.41960779
2010,8.38523458
2011,8.423297617
2012,8.421710816
2013,8.418853048
2014,8.400021553
2015,8.443669423
2016,8.386437153
2017,8.417154576
2018,8.430109082
2019,8.406033059
2020,8.442965512
2021,8.379015889
2022,8.389905514
2023,8.39430712
2024,8.416286821
2025,8.419701115
2026,8.406246558
2027,8.409185532
2028,8.41776517
2029,8.409592236
2030,8.393164892
2031,8.356234563
2032,8.407470242
2033,8.347277554
2034,8.420169264
2035,8.422844304
2036,8.410458958
2037,8.413869062
2038,8.403086879
2039,8.360403409
2040,8.372747325
2041,8.382612705
2042,8.411226365
2043,8.395754513
2044,8.36733454
2045,8.423997927
2046,8.428398323
2047,8.39315834
2048,8.374440864
2049,8.374245702
2050,8.375319553
2051,8.422544085
2052,8.417734335
2053,8.399175654
2054,8.416395794
2055,8.396304406
2056,8.37664027
2057,8.396928246
2058,8.394942573
2059,8.410298743
2060,8.38561792
2061,8.368561256
2062,8.392513626
2063,8.444447018
2064,8.407945032
2065,8.400137015
2066,8.432574012
2067,8.405037671
2068,8.355204221
2069,8.407288172
2070,8.388271794
2071,8.403310668
2072,8.409583489
2073,8.423187891
2074,8.387536839
2075,8.367975212
2076,8.416765222
2077,8.407607833
2078,8.454573824
2079,8.382530606
2080,8.394005405
2081,8.39380227
2082,8.394677754
2083,8.331187955
2084,8.394335758
2085,8.405321084
2086,8.391650014
2087,8.36453829
2088,8.415677672
2089,8.378021099
2090,8.403066948
2091,8.431977468
2092,8.371941908
2093,8.386015482
2094,8.408556088
2095,8.4213717
2096,8.411038197
2097,8.417875088
2098,8.416650002
2099,8.389230017
2100,8.391760216
2101,8.407383536
2102,8.391687165
2103,8.36641837
2104,8.409442782
2105,8.405022114
2106,8.383850166
2107,8.404828686
2108,8.41800595
2109,8.379478422
2110,8.364421674
2111,8.385678552
2112,8.396432864
2113,8.444620566
2114,8.377753559
2115,8.400765925
2116,8.394951878
2117,8.398822209
2118,8.407974228
2119,8.397938792
2120,8.387175737
2121,8.444130064
2122,8.440023897
2123,8.353733468
2124,8.410592656
2125,8.445678379
2126,8.404172193
2127,8.42838391
2128,8.431590598
2129,8.400259966
2130,8.396496793
2131,8.421182667
2132,8.390309596
2133,8.448411716
2134,8.428436474
2135,8.413981027
2136,8.412223955
2137,8.367144229
2138,8.440028595
2139,8.42975315
2140,8.402035406
2141,8.383213948
2142,8.403624838
2143,8.377542323
2144,8.389440296
2145,8.418456354
2146,8.358351407
2147,8.399487122
2148,8.415630127
2149,8.422787311
2150,8.391806774
2151,8.405131482
2152,8.396896062
2153,8.440076472
2154,8.406664676
2155,8.391378375
2156,8.469709688
2157,8.357388817
2158,8.384940386
2159,8.388208036
2160,8.44432955
2161,8.419351032
2162,8.417929498
2163,8.428934009
2164,8.416862096
2165,8.41732085
2166,8.340776503
2167,8.41232181
2168,8.371622992
2169,8.38128492
2170,8.373462659
2171,8.388959476
2172,8.393762965
2173,8.368169919
2174,8.342506597
2175,8.414573717
2176,8.388802964
2177,8.37689954
2178,8.444990048
2179,8.350154205
2180,8.439273239
2181,8.392059137
2182,8.399782712
2183,8.39562435
2184,8.366349392
2185,8.368932752
2186,8.435094065
2187,8.406744552
2188,8.402942147
2189,8.373904324
2190,8.446002309
2191,8.419384825
2192,8.370703627
2193,8.390572304
2194,8.341136061
2195,8.39848678
2196,8.41681907
2197,8.354933038
2198,8.402766621
2199,8.409760857
2200,8.429123648
2201,8.396299562
2202,8.379908177
2203,8.371078168
2204,8.402684299
2205,8.434748149
2206,8.392184459
2207,8.439461446
2208,8.37231306
2209,8.395912092
2210,8.389414869
2211,8.395894777
2212,8.372452517
2213,8.417652249
2214,8.434591003
2215,8.371142578
2216,8.423689609
2217,8.376059217
2218,8.362672062
2219,8.41013091
2220,8.403226296
2221,8.4313447
2222,8.382350636
2223,8.387670427
2224,8.399001784
2225,8.402916526
2226,8.416441972
2227,8.351860466
2228,8.444917013
2229,8.386488258
2230,8.376656992
2231,8.420898712
2232,8.38136587
2233,8.416722931
2234,8.365170353
2235,8.369746051
2236,8.400880989
2237,8.418941557
2238,8.38837389
2239,8.410444328
2240,8.385762765
2241,8.370319917
2242,8.387111258
2243,8.38166692
2244,8.417178419
2245,8.397425394
2246,8.438361291
2247,8.38148852
2248,8.384645256
2249,8.408466658
2250,8.389425448
2251,8.362650834
2252,8.437159383
2253,8.405773783
2254,8.427218576
2255,8.371323416
2256,8.406694721
2257,8.423325148
2258,8.404230011
2259,8.384715291
2260,8.462244483
2261,8.365431475
2262,8.37596055
2263,8.405710001
2264,8.368060818
2265,8.43081686
2266,8.412710348
2267,8.398596628
2268,8.421143516
2269,8.403296964
2270,8.430203533
2271,8.409756848
2272,8.39230689
2273,8.396141241
2274,8.393951695
2275,8.43118015
2276,8.409278437
2277,8.456391136
2278,8.409301302
2279,8.393147347
2280,8.387922776
2281,8.395272975
2282,8.354230505
2283,8.406410732
2284,8.407877303
2285,8.412395649
2286,8.373112687
2287,8.396231296
2288,8.439526123
2289,8.453056296
2290,8.414671377
2291,8.423607923
2292,8.431736716
2293,8.371080297
2294,8.440791438
2295,8.441707157
2296,8.419146084
2297,8.420613983
2298,8.436535478
2299,8.385050651
2300,8.387714906
2301,8.408411214
2302,8.403212674
2303,8.383127624
2304,8.383924449
2305,8.425096122
2306,8.390290365
2307,8.379105217
2308,8.386746635
2309,8.383394266
2310,8.413697565
2311,8.419870242
2312,8.374761175
2313,8.366340921
2314,8.355921171
2315,8.42903742
2316,8.414646287
2317,8.441228105
2318,8.375569623
2319,8.432173068
2320,8.447103392
2321,8.400262768
2322,8.390268674
2323,8.392160462
2324,8.420732538
2325,8.39676877
2326,8.371156857
2327,8.384477776
2328,8.372673823
2329,8.440685818
2330,8.375682608
2331,8.405548233
2332,8.430071737
2333,8.371656484
2334,8.402927062
2335,8.423910068
2336,8.428012201
2337,8.428853172
2338,8.445371215
2339,8.45832987
2340,8.42165414
2341,8.456615485
2342,8.404013445
2343,8.411085803
2344,8.360701295
2345,8.423616734
2346,8.398118408
2347,8.365261798
2348,8.371594371
2349,8.432737855
2350,8.42545066
2351,8.404077997
2352,8.415799688
2353,8.37598169
2354,8.385953541
2355,8.365936098
2356,8.397040051
2357,8.367307535
2358,8.363041756
2359,8.355767279
2360,8.380747316
2361,8.418369801
2362,8.417398577
2363,8.388182133
2364,8.411903912
2365,8.361204679
2366,8.3903979
2367,8.376309334
2368,8.379378239
2369,8.410821687
2370,8.379456578
2371,8.388996901
2372,8.398077642
2373,8.382124101
2374,8.410719357
2375,8.42251599
2376,8.40897636
2377,8.368666776
2378,8.426588405
2379,8.379540896
2380,8.408813667
2381,8.420400287
2382,8.409746805
2383,8.427357123
2384,8.380634455
2385,8.37937719
2386,8.441199353
2387,8.404412536
2388,8.404899429
2389,8.409706715
2390,8.406696837
2391,8.431127443
2392,8.378415651
2393,8.425858808
2394,8.384039828
2395,8.381911196
2396,8.407697451
2397,8.391064676
2398,8.395424688
2399,8.404656778
2400,8.381648963
2401,8.370550741
2402,8.376194588
2403,8.412767142
2404,8.412513288
2405,8.402116988
2406,8.402186814
2407,8.380349837
2408,8.361268788
2409,8.39516138
2410,8.371405754
2411,8.368300275
2412,8.362541726
2413,8.416752327
2414,8.413822639
2415,8.419037173
2416,8.391946519
2417,8.417639395
2418,8.393022588
2419,8.43498903
2420,8.477858043
2421,8.398428539
2422,8.3938832
2423,8.365170279
2424,8.415194462
2425,8.421044207
2426,8.381217776
2427,8.382137307
2428,8.411178981
2429,8.382910889
2430,8.370802916
2431,8.387426665
2432,8.387944049
2433,8.417324293
2434,8.368956677
2435,8.414299046
2436,8.385532704
2437,8.425194809
2438,8.412151725
2439,8.40856625
2440,8.409153328
2441,8.400612299
2442,8.381945966
2443,8.390142063
2444,8.402354751
2445,8.436466462
2446,8.401307146
2447,8.394534217
2448,8.363120309
2449,8.438144624
2450,8.40893565
2451,8.438073932
2452,8.417405349
2453,8.411907793
2454,8.413893992
2455,8.429816497
2456,8.421387099
2457,8.410268234
2458,8.394116006
2459,8.400147549
2460,8.350308923
2461,8.362541407
2462,8.415661775
2463,8.421595131
2464,8.445226253
2465,8.392017532
2466,8.417167349
2467,8.423737148
2468,8.414486425
2469,8.42407477
2470,8.431613889
2471,8.348055282
2472,8.436129186
2473,8.411596409
2474,8.429345683
2475,8.38027936
2476,8.426083337
2477,8.429756461
2478,8.420170527
2479,8.439152924
2480,8.363455226
2481,8.410835126
2482,8.388148294
2483,8.365475667
2484,8.388332792
2485,8.416543139
2486,8.434232322
2487,8.381454201
2488,8.333139913
2489,8.409234059
2490,8.401186717
2491,8.34511784
2492,8.379370415
2493,8.425620035
2494,8.409958166
2495,8.373489178
2496,8.371287328
2497,8.383463345
2498,8.445100049
2499,8.390419927
2500,8.405326977
2501,8.407575031
2502,8.401029183
2503,8.405082118
2504,8.419342817
2505,8.399350011
2506,8.365498555
2507,8.391332906
2508,8.43200364
2509,8.420507619
2510,8.415262473
2511,8.414436949
2512,8.406479024
2513,8.407454607
2514,8.384681868
2515,8.424304274
2516,8.374639455
2517,8.400769653
2518,8.36448591
2519,8.402086032
2520,8.403519474
2521,8.407542429
2522,8.408497628
2523,8.385541166
2524,8.407614182
2525,8.359809363
2526,8.413143737
2527,8.389314677
2528,8.406143091
2529,8.402926778
2530,8.446460034
2531,8.40269414
2532,8.389688131
2533,8.411432647
2534,8.422367889
2535,8.437198042
2536,8.400180862
2537,8.41040688
2538,8.432528737
2539,8.393182656
2540,8.401147785
2541,8.415947076
2542,8.394941793
2543,8.365984409
2544,8.416241359
2545,8.391900545
2546,8.390862835
2547,8.350987304
2548,8.343305173
2549,8.457624226
2550,8.431133118
2551,8.418294079
2552,8.391151774
2553,8.335732053
2554,8.387654276
2555,8.361068043
2556,8.43857721
2557,8.372561852
2558,8.370684844
2559,8.388512384
2560,8.372295382
2561,8.417435252
2562,8.406305175
2563,8.423294583
2564,8.375604822
2565,8.386186085
2566,8.405566361
2567,8.407948367
2568,8.397598016
2569,8.409377323
2570,8.399558088
2571,8.35710584
2572,8.385594311
2573,8.411766558
2574,8.433815885
2575,8.399881262
2576,8.446699392
2577,8.396885237
2578,8.400380115
2579,8.41378348
2580,8.371452534
2581,8.367191135
2582,8.396157459
2583,8.377388811
2584,8.428188203
2585,8.384336867
2586,8.371664455
2587,8.416556999
2588,8.391648517
2589,8.406429328
2590,8.421895609
2591,8.383859187
2592,8.373565769
2593,8.39576079
2594,8.39996624
2595,8.423870813
2596,8.41664258
2597,8.384488935
2598,8.384516426
2599,8.414717376
2600,8.364865364
2601,8.448335557
2602,8.397338827
2603,8.415804078
2604,8.416316949
2605,8.374225234
2606,8.365877226
2607,8.401039552
2608,8.400116933
2609,8.432106089
2610,8.402145603
2611,8.412303185
2612,8.436964721
2613,8.424120188
2614,8.409528875
2615,8.35997396
2616,8.383896027
2617,8.403974816
2618,8.396265298
2619,8.422913509
2620,8.403607253
2621,8.441349763
2622,8.438318549
2623,8.41868161
2624,8.391333528
2625,8.394948075
2626,8.435263743
2627,8.375551886
2628,8.312921065
2629,8.416557371
2630,8.39892899
2631,8.432235235
2632,8.409389493
2633,8.404681427
2634,8.37730836
2635,8.413920551
2636,8.390865289
2637,8.38935111
2638,8.421461471
2639,8.405091875
2640,8.394170683
2641,8.430673694
2642,8.420341391
2643,8.412949431
2644,8.388679977
2645,8.397139926
2646,8.380771617
2647,8.413828881
2648,8.34957141
2649,8.439185487
2650,8.383136358
2651,8.425506991
2652,8.388830381
2653,8.355348649
2654,8.430749529
2655,8.410446173
2656,8.383780729
2657,8.332705738
2658,8.416934225
2659,8.375590036
2660,8.395913402
2661,8.382969656
2662,8.413495825
2663,8.390995664
2664,8.418749544
2665,8.4318574
2666,8.409839084
2667,8.394456292
2668,8.453221591
2669,8.399734236
2670,8.468934791
2671,8.387276503
2672,8.417693694
2673,8.357811738
2674,8.418370049
2675,8.357096218
2676,8.42151209
2677,8.436548183
2678,8.397226474
2679,8.384163979
2680,8.368673362
2681,8.414365544
2682,8.407455086
2683,8.423093259
2684,8.407664118
2685,8.411322916
2686,8.421478424
2687,8.36428279
2688,8.449455662
2689,8.456143601
2690,8.401101567
2691,8.411352976
2692,8.381531649
2693,8.412660509
2694,8.363087003
2695,8.386905373
2696,8.380351114
2697,8.438169472
2698,8.439980606
2699,8.397678805
2700,8.382958456
2701,8.433671062
2702,8.426149988
2703,8.35470071
2704,8.397634394
2705,8.377354068
2706,8.395284884
2707,8.401116225
2708,8.378442592
2709,8.44342014
2710,8.355047822
2711,8.40729515
2712,8.423239612
2713,8.427026375
2714,8.423064218
2715,8.399226462
2716,8.373361784
2717,8.411402356
2718,8.359912916
2719,8.396539268
2720,8.367506096
2721,8.378495133
2722,8.382703352
2723,8.41139328
2724,8.366863642
2725,8.415054577
2726,8.390447835
2727,8.392925733
2728,8.42918152
2729,8.391436139
2730,8.379525037
2731,8.422947835
2732,8.378487533
2733,8.395332384
2734,8.408949787
2735,8.446865566
2736,8.432018784
2737,8.430043032
2738,8.414898977
2739,8.395799082
2740,8.399941101
2741,8.454919813
2742,8.461761636
2743,8.389424008
2744,8.377369541
2745,8.402635681
2746,8.406708295
2747,8.406610465
2748,8.424528376
2749,8.384414166
2750,8.392009504
2751,8.38764753
2752,8.359981222
2753,8.399565819
2754,8.412320337
2755,8.370496469
2756,8.434730347
2757,8.425097232
2758,8.384791849
2759,8.419278802
2760,8.44157712
2761,8.382768551
2762,8.405026145
2763,8.426754135
2764,8.361804464
2765,8.410881626
2766,8.404550923
2767,8.41529212
2768,8.377862101
2769,8.423943687
2770,8.42179777
2771,8.404504802
2772,8.425648929
2773,8.416117075
2774,8.405685369
2775,8.399509945
2776,8.395069713
2777,8.385569465
2778,8.435768417
2779,8.435494613
2780,8.401178862
2781,8.382139526
2782,8.428392963
2783,8.375341961
2784,8.402460417
2785,8.397080826
2786,8.381552618
2787,8.379895913
2788,8.451372568
2789,8.386778039
2790,8.399639894
2791,8.367892419
2792,8.393152349
2793,8.436636672
2794,8.422583235
2795,8.385299664
2796,8.416815982
2797,8.423282477
2798,8.369616753
2799,8.412776594
2800,8.396081544
2801,8.370269928
2802,8.385566522
2803,8.374058462
2804,8.418411372
2805,8.406556783
2806,8.379586483
2807,8.43060618
2808,8.366275477
2809,8.415031693
2810,8.38916727
2811,8.381896176
2812,8.42466517
2813,8.410990192
2814,8.39870195
2815,8.382614111
2816,8.439410337
2817,8.469250635
2818,8.378891174
2819,8.411520183
2820,8.387020024
2821,8.404593056
2822,8.410148578
2823,8.405236123
2824,8.404792884
2825,8.416711826
2826,8.43396267
2827,8.442566556
2828,8.372325489
2829,8.374734002
2830,8.387914264
2831,8.412886594
2832,8.359820227
2833,8.388360648
2834,8.348753799
2835,8.387751476
2836,8.426450122
2837,8.410312543
2838,8.385263897
2839,8.366797542
2840,8.434119951
2841,8.434759132
2842,8.457320431
2843,8.436503152
2844,8.417663487
2845,8.391184075
2846,8.372736233
2847,8.421210177
2848,8.415349223
2849,8.393746018
2850,8.460610029
2851,8.382746136
2852,8.385448135
2853,8.426791917
2854,8.358664978
2855,8.386098511
2856,8.409736831
2857,8.423638637
2858,8.36402636
2859,8.430283599
2860,8.419443414
2861,8.355196915
2862,8.41190591
2863,8.402988007
2864,8.444734122
2865,8.4263686
2866,8.419864426
2867,8.344775531
2868,8.386428846
2869,8.419266217
2870,8.42556231
2871,8.380232162
2872,8.441669342
2873,8.398846412
2874,8.448540718
2875,8.392450866
2876,8.407557222
2877,8.384630323
2878,8.423725022
2879,8.417337031
2880,8.380340668
2881,8.406962479
2882,8.391300525
2883,8.44342795
2884,8.391642158
2885,8.356635227
2886,8.406261383
2887,8.384093294
2888,8.400262155
2889,8.392106145
2890,8.385271496
2891,8.45049012
2892,8.412108298
2893,8.428536106
2894,8.423497212
2895,8.381502098
2896,8.340572827
2897,8.405617962
2898,8.38914689
2899,8.376109306
2900,8.424553742
2901,8.374720521
2902,8.401180793
2903,8.426619261
2904,8.39628568
2905,8.325452742
2906,8.380352506
2907,8.357664565
2908,8.409398024
2909,8.423849059
2910,8.400795208
2911,8.405899102
2912,8.378229421
2913,8.413052562
2914,8.397306065
2915,8.404113105
2916,8.387833096
2917,8.402940636
2918,8.409830629
2919,8.450874688
2920,8.390656732
2921,8.398565259
2922,8.401185417
2923,8.395979757
2924,8.333373796
2925,8.378263164
2926,8.418781385
2927,8.357334725
2928,8.406620845
2929,8.349007053
2930,8.396416994
2931,8.366889813
2932,8.411701299
2933,8.42527399
2934,8.369147058
2935,8.399983088
2936,8.404573095
2937,8.338777045
2938,8.397676722
2939,8.43112146
2940,8.395717002
2941,8.396775012
2942,8.415240166
2943,8.421262983
2944,8.405182651
2945,8.376443193
2946,8.422885889
2947,8.349456155
2948,8.411780626
2949,8.37346857
2950,8.420785402
2951,8.408743739
2952,8.401844065
2953,8.434856267
2954,8.405256243
2955,8.379634687
2956,8.428936703
2957,8.381926875
2958,8.348350108
2959,8.397910051
2960,8.378586289
2961,8.416361828
2962,8.390047779
2963,8.342132597
2964,8.435481011
2965,8.416167876
2966,8.410733628
2967,8.395210809
2968,8.434382733
2969,8.448018789
2970,8.417365723
2971,8.417412617
2972,8.352113029
2973,8.404414071
2974,8.421255002
2975,8.434905333
2976,8.46798085
2977,8.416418645
2978,8.402048494
2979,8.380217272
2980,8.325101465
2981,8.450235378
2982,8.421302363
2983,8.416162977
2984,8.379783844
2985,8.383034976
2986,8.403319572
2987,8.388876689
2988,8.379278141
2989,8.351569583
2990,8.403396458
2991,8.398989062
2992,8.411911683
2993,8.471815826
2994,8.407570607
2995,8.414078837
2996,8.363136226
2997,8.413703664
2998,8.39335643
2999,8.348190882
3000,8.411925794
3001,8.413885775
3002,8.360699497
3003,8.375501635
3004,8.356948641
3005,8.403542837
3006,8.462158055
3007,8.426585084
3008,8.400371785
3009,8.367011146
3010,8.390796495
3011,8.390820104
3012,8.375165602
3013,8.369433611
3014,8.406240527
3015,8.382400832
3016,8.410275394
3017,8.451592553
3018,8.388357061
3019,8.406619984
3020,8.418490413
3021,8.391622251
3022,8.392255834
3023,8.387231333
3024,8.35823973
3025,8.385259953
3026,8.412914438
3027,8.426764494
3028,8.426820658
3029,8.39824583
3030,8.371681115
3031,8.389620469
3032,8.442880947
3033,8.398705295
3034,8.411575651
3035,8.449640265
3036,8.406160792
3037,8.400759238
3038,8.384590045
3039,8.391216717
3040,8.407721764
3041,8.365573785
3042,8.388701961
3043,8.386599395
3044,8.389061585
3045,8.389014656
3046,8.406114426
3047,8.395650105
3048,8.382313957
3049,8.417720934
3050,8.403538886
3051,8.404286332
3052,8.404192278
3053,8.398009463
3054,8.376936542
3055,8.407375987
3056,8.43780876
3057,8.388471031
3058,8.378434804
3059,8.389266371
3060,8.377056225
3061,8.452078616
3062,8.433964501
3063,8.40927812
3064,8.409206448
3065,8.370411435
3066,8.375078942
3067,8.40796869
3068,8.394244081
3069,8.408789489
3070,8.412130505
3071,8.433552987
3072,8.398913349
3073,8.375749283
3074,8.385192421
3075,8.382181695
3076,8.392487312
3077,8.395498741
3078,8.39061756
3079,8.397582606
3080,8.328844284
3081,8.424582705
3082,8.371271393
3083,8.411512319
3084,8.378183597
3085,8.386480071
3086,8.430513615
3087,8.382746842
3088,8.40669417
3089,8.402377574
3090,8.376073872
3091,8.39648733
3092,8.425666212
3093,8.419541677
3094,8.408282158
3095,8.38497163
3096,8.435582889
3097,8.411802125
3098,8.363820795
3099,8.400617936
3100,8.42819472
3101,8.38723141
3102,8.376948387
3103,8.4263228
3104,8.434848223
3105,8.403527455
3106,8.424967793
3107,8.38456675
3108,8.409638857
3109,8.401533776
3110,8.459092889
3111,8.421797584
3112,8.381360411
3113,8.39253104
3114,8.433990748
3115,8.398898234
3116,8.44186732
3117,8.395854265
3118,8.431433599
3119,8.384075323
3120,8.359097497
3121,8.413129857
3122,8.390520775
3123,8.391869496
3124,8.404968261
3125,8.375999728
3126,8.358938367
3127,8.398733491
3128,8.385752787
3129,8.425145945
3130,8.363121804
3131,8.40320491
3132,8.438232984
3133,8.422384383
3134,8.433645625
3135,8.419947049
3136,8.417968236
3137,8.410869596
3138,8.423651185
3139,8.392522671
3140,8.430434585
3141,8.41939634
3142,8.385609889
3143,8.397200432
3144,8.407416238
3145,8.360779974
3146,8.405704499
3147,8.400944404
3148,8.40377011
3149,8.431719147
3150,8.389381894
3151,8.379022525
3152,8.447139951
3153,8.380269116
3154,8.378176601
3155,8.457906085
3156,8.415256214
3157,8.388037615
3158,8.374572662
3159,8.349160346
3160,8.361854381
3161,8.413842102
3162,8.405926866
3163,8.387481161
3164,8.4029339
3165,8.351464604
3166,8.397201236
3167,8.401482593
3168,8.385132662
3169,8.398412902
3170,8.385716951
3171,8.385031581
3172,8.365871389
3173,8.404476788
3174,8.413527147
3175,8.41368545
3176,8.404754779
3177,8.36300176
3178,8.325512485
3179,8.443347879
3180,8.378546043
3181,8.417048067
3182,8.422728094
3183,8.372372767
3184,8.402844369
3185,8.408193024
3186,8.42084047
3187,8.421684257
3188,8.398038957
3189,8.363982886
3190,8.377160053
3191,8.399940779
3192,8.472855874
3193,8.392936783
3194,8.388238868
3195,8.399059909
3196,8.401980924
3197,8.390458526
3198,8.410050099
3199,8.389507907
3200,8.399596274
3201,8.391498258
3202,8.437213498
3203,8.403739712
3204,8.41254819
3205,8.429052224
3206,8.410717391
3207,8.414448296
3208,8.447860136
3209,8.419197239
3210,8.381757611
3211,8.390838123
3212,8.427865604
3213,8.405468774
3214,8.423353413
3215,8.403144872
3216,8.35147088
3217,8.414173791
3218,8.4096436
3219,8.438832422
3220,8.40414372
3221,8.453994203
3222,8.394038243
3223,8.418724899
3224,8.424124445
3225,8.38223587
3226,8.420854325
3227,8.375115631
3228,8.420114793
3229,8.420361576
3230,8.380872512
3231,8.413206176
3232,8.376904744
3233,8.426347524
3234,8.445940209
3235,8.421309507
3236,8.393083969
3237,8.379623869
3238,8.434998391
3239,8.397541416
3240,8.436792651
3241,8.380937074
3242,8.440649794
3243,8.401833425
3244,8.424678383
3245,8.404871896
3246,8.381524523
3247,8.434670956
3248,8.378453088
3249,8.38462406
3250,8.347976915
3251,8.369856071
3252,8.401638786
3253,8.42157148
3254,8.3775733
3255,8.393480436
3256,8.382714506
3257,8.40437959
3258,8.395428106
3259,8.363172554
3260,8.394742551
3261,8.426408993
3262,8.361838113
3263,8.431238412
3264,8.367989222
3265,8.404155176
3266,8.407715383
3267,8.403944787
3268,8.392155325
3269,8.394766232
3270,8.388720678
3271,8.379936729
3272,8.354759789
3273,8.377160423
3274,8.383793363
3275,8.456409809
3276,8.409997848
3277,8.409346248
3278,8.405248909
3279,8.403807276
3280,8.434383967
3281,8.431214793
3282,8.438309913
3283,8.468651989
3284,8.407713517
3285,8.464559588
3286,8.477086447
3287,8.415333196
3288,8.405930011
3289,8.405738386
3290,8.40310751
3291,8.407725218
3292,8.41773536
3293,8.412199219
3294,8.392733748
3295,8.423024546
3296,8.357833941
3297,8.363208009
3298,8.449905396
3299,8.441938698
3300,8.408836971
3301,8.412366507
3302,8.405983248
3303,8.366403932
3304,8.393331118
3305,8.416358496
3306,8.363825592
3307,8.445365766
3308,8.417852374
3309,8.334306847
3310,8.399665928
3311,8.456876397
3312,8.392507759
3313,8.388920583
3314,8.368790397
3315,8.415839866
3316,8.400741164
3317,8.41001663
3318,8.385450472
3319,8.415657337
3320,8.372516329
3321,8.430617228
3322,8.376468975
3323,8.426935638
3324,8.370950507
3325,8.404595729
3326,8.381462308
3327,8.379992546
3328,8.420295665
3329,8.4067174
3330,8.424782465
3331,8.4342788
3332,8.474286591
3333,8.416784727
3334,8.419412585
3335,8.376695174
3336,8.428574328
3337,8.379215146
3338,8.377578911
3339,8.409533387
3340,8.403850348
3341,8.385438981
3342,8.393247085
3343,8.379242735
3344,8.358165606
3345,8.425652659
3346,8.39428367
3347,8.36506641
3348,8.422752079
3349,8.433716235
3350,8.41996102
3351,8.405589352
3352,8.412761829
3353,8.419215839
3354,8.3729483
3355,8.384141518
3356,8.425599234
3357,8.381376473
3358,8.388831072
3359,8.381331319
3360,8.402555189
3361,8.400265389
3362,8.401248883
3363,8.364935458
3364,8.42056509
3365,8.372873639
3366,8.425596452
3367,8.34740115
3368,8.427781798
3369,8.414396518
3370,8.381996329
3371,8.427171487
3372,8.38641936
3373,8.368631853
3374,8.404849695
3375,8.385210889
3376,8.37992518
3377,8.384221698
3378,8.373825657
3379,8.401122528
3380,8.434767699
3381,8.39640301
3382,8.404947001
3383,8.409614335
3384,8.402159392
3385,8.385079447
3386,8.384723373
3387,8.398472242
3388,8.404740172
3389,8.389705564
3390,8.405212963
3391,8.4151132
3392,8.390679193
3393,8.423472343
3394,8.365563596
3395,8.422841827
3396,8.399766667
3397,8.415360083
3398,8.372090232
3399,8.371455541
3400,8.401525582
3401,8.404649051
3402,8.404404135
3403,8.385875982
3404,8.386677447
3405,8.3978908
3406,8.411811028
3407,8.389274901
3408,8.431182368
3409,8.38355886
3410,8.382515762
3411,8.440225731
3412,8.390018229
3413,8.417142679
3414,8.395440931
3415,8.400108287
3416,8.392719508
3417,8.394707901
3418,8.429844316
3419,8.384159406
3420,8.36891735
3421,8.368057175
3422,8.433286788
3423,8.432200748
3424,8.429707315
3425,8.390285085
3426,8.349809579
3427,8.379693673
3428,8.399492298
3429,8.396807351
3430,8.368889632
3431,8.362818832
3432,8.357005012
3433,8.400306645
3434,8.373875897
3435,8.35718689
3436,8.430722856
3437,8.414496691
3438,8.418624356
3439,8.399067624
3440,8.394082638
3441,8.361613391
3442,8.387431413
3443,8.414008242
3444,8.392022012
3445,8.392723099
3446,8.395474132
3447,8.423313883
3448,8.424038512
3449,8.384849867
3450,8.332664737
3451,8.402904982
3452,8.424771365
3453,8.384060798
3454,8.427834411
3455,8.362355226
3456,8.364253226
3457,8.407902306
3458,8.401365345
3459,8.390299417
3460,8.430553072
3461,8.347989788
3462,8.365505996
3463,8.39824286
3464,8.391372197
3465,8.405156231
3466,8.408678577
3467,8.407565877
3468,8.383994296
3469,8.411583063
3470,8.405091128
3471,8.427932926
3472,8.397247007
3473,8.406610377
3474,8.417792752
3475,8.32725144
3476,8.387522337
3477,8.405548818
3478,8.346190624
3479,8.434076962
3480,8.428131621
3481,8.380649875
3482,8.429070285
3483,8.391824016
3484,8.420770225
3485,8.419631895
3486,8.452767688
3487,8.407161717
3488,8.395471619
3489,8.412620392
3490,8.348598947
3491,8.399862776
3492,8.387644971
3493,8.428161244
3494,8.416243675
3495,8.375779551
3496,8.444102582
3497,8.438093268
3498,8.435070513
3499,8.387921517
3500,8.440675512
3501,8.35769297
3502,8.388516489
3503,8.391659098
3504,8.402005752
3505,8.399314279
3506,8.3990503
3507,8.370936377
3508,8.379264487
3509,8.4218409
3510,8.434518524
3511,8.388621582
3512,8.429240838
3513,8.418437732
3514,8.406183215
3515,8.38452166
3516,8.418763694
3517,8.401329388
3518,8.36963604
3519,8.418681831
3520,8.40698768
3521,8.408400547
3522,8.405970407
3523,8.39890693
3524,8.396238407
3525,8.41811911
3526,8.387982369
3527,8.378260183
3528,8.378076421
3529,8.398016888
3530,8.367114593
3531,8.389868961
3532,8.38944872
3533,8.384963478
3534,8.402390071
3535,8.443003342
3536,8.429411583
3537,8.387195359
3538,8.438167304
3539,8.369487779
3540,8.389387461
3541,8.353090285
3542,8.408920619
3543,8.361823796
3544,8.421630166
3545,8.420133409
3546,8.38583781
3547,8.397462515
3548,8.349142731
3549,8.388688187
3550,8.368742439
3551,8.395372284
3552,8.364813369
3553,8.419213618
3554,8.423272272
3555,8.390130407
3556,8.412531585
3557,8.407553891
3558,8.402899254
3559,8.405195069
3560,8.416287877
3561,8.390680567
3562,8.423682474
3563,8.40058554
3564,8.374040249
3565,8.401328916
3566,8.421997065
3567,8.417335619
3568,8.377709623
3569,8.368759303
3570,8.415156367
3571,8.369475837
3572,8.405768432
3573,8.395480309
3574,8.415389907
3575,8.424764213
3576,8.413720899
3577,8.41694238
3578,8.364573805
3579,8.359411921
3580,8.443377058
3581,8.415683248
3582,8.411185654
3583,8.347726876
3584,8.401640118
3585,8.390847585
3586,8.392070378
3587,8.426197714
3588,8.402423871
3589,8.406869723
3590,8.431751891
3591,8.410822228
3592,8.388782413
3593,8.398258264
3594,8.362924431
3595,8.353126792
3596,8.397245548
3597,8.379111061
3598,8.377722062
3599,8.407572519
3600,8.37603495
3601,8.382428036
3602,8.349643032
3603,8.397672089
3604,8.408811109
3605,8.396579487
3606,8.433617407
3607,8.38561118
3608,8.409344954
3609,8.412870862
3610,8.371573479
3611,8.379473387
3612,8.438254355
3613,8.409247953
3614,8.398676396
3615,8.418464323
3616,8.407737309
3617,8.394634346
3618,8.387445021
3619,8.419434805
3620,8.3831664
3621,8.402249023
3622,8.400739544
3623,8.456520889
3624,8.403852528
3625,8.406295853
3626,8.40817802
3627,8.414066466
3628,8.391453289
3629,8.420206644
3630,8.366048628
3631,8.404282517
3632,8.406415345
3633,8.386650429
3634,8.409346385
3635,8.427073049
3636,8.405915542
3637,8.363502202
3638,8.395492255
3639,8.389213838
3640,8.406487113
3641,8.393588345
3642,8.436853131
3643,8.368232618
3644,8.395812622
3645,8.391248924
3646,8.396386895
3647,8.438519174
3648,8.428658507
3649,8.417585685
3650,8.401247893
3651,8.392197918
3652,8.452179196
3653,8.37775889
3654,8.358245511
3655,8.396645528
3656,8.368735107
3657,8.410206452
3658,8.439895264
3659,8.41154415
3660,8.374898868
3661,8.445271987
3662,8.385957255
3663,8.390688781
3664,8.414734411
3665,8.412884537
3666,8.385065281
3667,8.389079077
3668,8.390763363
3669,8.416373472
3670,8.372311082
3671,8.404094869
3672,8.364447827
3673,8.408550044
3674,8.419797285
3675,8.389209677
3676,8.356243997
3677,8.430437423
3678,8.409034325
3679,8.41230823
3680,8.364724505
3681,8.409057802
3682,8.413970027
3683,8.386779426
3684,8.396301396
3685,8.414593132
3686,8.427954439
3687,8.418354022
3688,8.42834471
3689,8.430955892
3690,8.373567751
3691,8.382218557
3692,8.396539535
3693,8.393270172
3694,8.403301315
3695,8.347558344
3696,8.410998966
3697,8.410916531
3698,8.367582323
3699,8.412611605
3700,8.341029342
3701,8.394454929
3702,8.345705409
3703,8.404775066
3704,8.379838303
3705,8.360002514
3706,8.414191143
3707,8.433778148
3708,8.415042195
3709,8.424909176
3710,8.379098168
3711,8.370972787
3712,8.400340315
3713,8.380730417
3714,8.424164846
3715,8.39275672
3716,8.447054095
3717,8.368471441
3718,8.351579226
3719,8.407454478
3720,8.431271332
3721,8.431409425
3722,8.40143354
3723,8.361625406
3724,8.441581633
3725,8.402741044
3726,8.359485802
3727,8.39073351
3728,8.387851157
3729,8.402725341
3730,8.406123529
3731,8.373355457
3732,8.372590276
3733,8.385579144
3734,8.429308331
3735,8.385513959
3736,8.406959375
3737,8.354419429
3738,8.381737059
3739,8.39759378
3740,8.376521007
3741,8.414229608
3742,8.419698267
3743,8.392179851
3744,8.428937559
3745,8.429227064
3746,8.374073568
3747,8.431878706
3748,8.36339605
3749,8.428804643
3750,8.384591861
3751,8.391545929
3752,8.407072795
3753,8.388575464
3754,8.432342125
3755,8.376467455
3756,8.403512065
3757,8.411182623
3758,8.399815788
3759,8.391297286
3760,8.413300742
3761,8.416832288
3762,8.427636477
3763,8.399558902
3764,8.439749822
3765,8.381881839
3766,8.405557565
3767,8.415191308
3768,8.397180867
3769,8.376347736
3770,8.403432469
3771,8.391597579
3772,8.468411294
3773,8.398396407
3774,8.417774731
3775,8.415643929
3776,8.414401394
3777,8.388572603
3778,8.366689421
3779,8.385783016
3780,8.413616826
3781,8.390943813
3782,8.375216259
3783,8.397696183
3784,8.383444848
3785,8.407818953
3786,8.395422524
3787,8.36389258
3788,8.40757966
3789,8.385536622
3790,8.395648851
3791,8.392844319
3792,8.366760879
3793,8.386728654
3794,8.439995711
3795,8.384853493
3796,8.392329761
3797,8.372004734
3798,8.44353198
3799,8.395459733
3800,8.411685355
3801,8.390343472
3802,8.436820376
3803,8.421290892
3804,8.395664729
3805,8.397696665
3806,8.427194777
3807,8.359911333
3808,8.396715836
3809,8.414962818
3810,8.353358069
3811,8.462711946
3812,8.398009109
3813,8.400904322
3814,8.356454624
3815,8.400318282
3816,8.403311866
3817,8.392758792
3818,8.372584369
3819,8.396884586
3820,8.384785915
3821,8.410320723
3822,8.359979847
3823,8.424370202
3824,8.429997546
3825,8.41192531
3826,8.397965609
3827,8.348041469
3828,8.402242856
3829,8.443345728
3830,8.399899964
3831,8.371374354
3832,8.368860873
3833,8.409482605
3834,8.382764539
3835,8.421230566
3836,8.369728424
3837,8.375942996
3838,8.427425328
3839,8.403000839
3840,8.358873601
3841,8.362005782
3842,8.389615998
3843,8.391155563
3844,8.403515648
3845,8.415258701
3846,8.393155594
3847,8.38598782
3848,8.412909482
3849,8.401041175
3850,8.420244338
3851,8.431665238
3852,8.390630835
3853,8.414660352
3854,8.398466796
3855,8.380627181
3856,8.401427198
3857,8.41119912
3858,8.387112561
3859,8.383413304
3860,8.440958572
3861,8.397803203
3862,8.391487561
3863,8.381855866
3864,8.430294322
3865,8.364503992
3866,8.397277658
3867,8.372869642
3868,8.363076918
3869,8.347191028
3870,8.390822079
3871,8.405673147
3872,8.367785806
3873,8.402068638
3874,8.343754912
3875,8.365054874
3876,8.384011795
3877,8.420533042
3878,8.416376853
3879,8.409200668
3880,8.447123944
3881,8.378751542
3882,8.407085374
3883,8.412660739
3884,8.381048119
3885,8.395772304
3886,8.414654631
3887,8.410138757
3888,8.437536832
3889,8.416995725
3890,8.402962261
3891,8.419550011
3892,8.385738386
3893,8.421593198
3894,8.412447307
3895,8.408729308
3896,8.464239873
3897,8.391623964
3898,8.436969809
3899,8.408610921
3900,8.368737662
3901,8.409976479
3902,8.433528976
3903,8.389086575
3904,8.411842131
3905,8.442424569
3906,8.451044114
3907,8.406149803
3908,8.366195018
3909,8.412213173
3910,8.395147204
3911,8.372497591
3912,8.37927567
3913,8.404799944
3914,8.381987041
3915,8.38621432
3916,8.394790362
3917,8.3674125
3918,8.426695403
3919,8.428573465
3920,8.428793692
3921,8.386847684
3922,8.398515032
3923,8.426594715
3924,8.422433524
3925,8.370508487
3926,8.386142116
3927,8.359730059
3928,8.357319036
3929,8.393076727
3930,8.377169468
3931,8.387467195
3932,8.398826853
3933,8.425537232
3934,8.392519722
3935,8.419178541
3936,8.390295247
3937,8.388379743
3938,8.373576936
3939,8.416105577
3940,8.414376185
3941,8.348990398
3942,8.388332047
3943,8.402492203
3944,8.441952778
3945,8.344148508
3946,8.381410356
3947,8.414799878
3948,8.420627229
3949,8.414912577
3950,8.383528137
3951,8.385263594
3952,8.3945552
3953,8.397197806
3954,8.388307155
3955,8.360208972
3956,8.410113416
3957,8.299058443
3958,8.435663713
3959,8.429123555
3960,8.387818104
3961,8.364783836
3962,8.375413686
3963,8.433324275
3964,8.359189738
3965,8.412111129
3966,8.402311492
3967,8.39416012
3968,8.394746572
3969,8.423014591
3970,8.371604958
3971,8.403896742
3972,8.418031247
3973,8.432990903
3974,8.435030133
3975,8.390463037
3976,8.386033073
3977,8.384539511
3978,8.388504306
3979,8.385965004
3980,8.428132547
3981,8.426660346
3982,8.390749421
3983,8.401352334
3984,8.404513485
3985,8.421784712
3986,8.399111917
3987,8.373387325
3988,8.37900947
3989,8.389765176
3990,8.352224637
3991,8.369195894
3992,8.375091457
3993,8.389147798
3994,8.409504647
3995,8.402286457
3996,8.371619092
3997,8.4106864
3998,8.359551199
3999,8.380863584
4000,8.413139888
