Raman Shift,Intensity
90.74744,518.0721
91.22955,521.1905
91.71167,526.2563
92.19379,533.3195
92.6759,542.0417
93.15802,547.6201
93.64014,543.8473
94.12225,533.9321
94.60437,527.0008
95.08649,527.1722
95.5686,530.5262
96.05072,527.6452
96.53284,518.6591
97.01495,508.4202
97.49707,501.1019
97.97919,496.5475
98.4613,493.4865
98.94342,491.1917
99.42554,489.7231
99.90765,491.4378
100.3898,497.4966
100.8719,504.3062
101.354,506.095
101.8361,501.5563
102.3182,497.3201
102.8004,495.8361
103.2825,497.5572
103.7646,499.6772
104.2467,501.5192
104.7288,504.0109
105.2109,509.293
105.6931,517.2233
106.1752,527.8737
106.6573,541.5001
107.1394,559.268
107.6215,577.7507
108.1036,598.0392
108.5858,619.4235
109.0679,637.7053
109.55,650.829
110.0321,662.5986
110.5142,674.952
110.9963,686.9864
111.4785,700.6179
111.9606,716.868
112.4427,735.6122
112.9248,753.1711
113.4069,766.8874
113.889,780.2654
114.3712,796.2993
114.8533,816.1307
115.3354,838.0297
115.8175,861.8793
116.2996,888.1318
116.7817,914.3953
117.2639,938.1258
117.746,962.0466
118.2281,989.6135
118.7102,1022.0
119.1923,1058.484
119.6744,1097.219
120.1566,1136.932
120.6387,1184.178
121.1208,1240.017
121.6029,1305.88
122.085,1384.39
122.5671,1471.951
123.0493,1574.946
123.5314,1698.886
124.0135,1843.362
124.4956,2012.871
124.9777,2201.54
125.4598,2414.522
125.942,2669.237
126.4241,2988.258
126.9062,3355.45
127.3883,3757.685
127.8704,4237.097
128.3525,4690.698
128.8347,4993.749
129.3168,5145.032
129.7989,5119.057
130.281,4827.963
130.7631,4323.583
131.2452,3799.703
131.7274,3279.249
132.2095,2783.514
132.6916,2370.976
133.1737,2041.606
133.6558,1780.43
134.1379,1573.454
134.6201,1420.301
135.1022,1297.402
135.5843,1203.809
136.0664,1136.811
136.5485,1080.865
137.0306,1036.42
137.5128,1001.531
137.9949,972.9636
138.477,950.7552
138.9591,934.4981
139.4412,925.1146
139.9233,923.217
140.4055,920.837
140.8876,917.884
141.3697,914.4893
141.8518,910.7392
142.3339,906.3518
142.816,902.2452
143.2982,898.6971
143.7803,895.7064
144.2624,893.431
144.7445,892.2286
145.2266,891.6355
145.7087,890.6991
146.1909,889.6589
146.673,887.9786
147.1551,885.3837
147.6372,881.3635
148.1193,877.3773
148.6014,873.8685
149.0836,870.4765
149.5657,865.7359
150.0478,858.4857
150.5299,850.9373
151.012,843.996
151.4941,837.6692
151.9763,831.9993
152.4584,827.6848
152.9405,824.2892
153.4226,819.5485
153.9047,811.2066
154.3868,802.8201
154.869,796.3251
155.3511,794.5378
155.8332,791.8804
156.3153,786.8536
156.7974,779.8057
157.2795,773.602
157.7617,768.4069
158.2438,764.5275
158.7259,762.1874
159.208,762.209
159.6901,763.0577
160.1722,764.5114
160.6544,766.5394
161.1365,768.6688
161.6186,768.9286
162.1007,769.9404
162.5828,774.1404
163.0649,785.3893
163.5471,797.4093
164.0292,807.3984
164.5113,815.2457
164.9934,822.4245
165.4755,828.5182
165.9576,834.6719
166.4398,842.2078
166.9219,853.7616
167.404,865.4659
167.8861,874.0286
168.3682,879.1522
168.8503,884.6803
169.3325,892.9265
169.8146,903.2712
170.2967,914.5638
170.7788,927.1786
171.2609,940.1929
171.743,952.3633
172.2252,963.542
172.7073,975.155
173.1894,988.3496
173.6715,1002.962
174.1536,1018.109
174.6357,1033.384
175.1179,1049.23
175.6,1066.375
176.0821,1084.823
176.5642,1103.951
177.0463,1123.02
177.5284,1142.281
178.0106,1162.168
178.4927,1181.705
178.9748,1202.391
179.4569,1226.757
179.939,1255.774
180.4211,1286.546
180.9033,1316.115
181.3854,1344.934
181.8675,1374.257
182.3496,1404.303
182.8317,1435.396
183.3138,1470.252
183.796,1509.242
184.2781,1550.852
184.7602,1591.851
185.2423,1632.835
185.7244,1675.508
186.2065,1721.002
186.6887,1769.287
187.1708,1821.373
187.6529,1877.74
188.135,1936.85
188.6171,1993.716
189.0992,2048.96
189.5814,2107.475
190.0635,2172.874
190.5456,2245.374
191.0277,2319.809
191.5098,2395.909
191.9919,2474.004
192.4741,2552.663
192.9562,2631.455
193.4383,2712.964
193.9204,2797.667
194.4025,2885.614
194.8846,2978.046
195.3668,3075.73
195.8489,3177.265
196.331,3279.544
196.8131,3382.528
197.2952,3485.998
197.7773,3590.919
198.2595,3696.834
198.7416,3804.818
199.2237,3914.873
199.7058,4025.919
200.1879,4133.462
200.67,4238.4
201.1522,4340.512
201.6343,4440.781
202.1164,4539.643
202.5985,4633.241
203.0806,4721.227
203.5627,4802.759
204.0449,4874.712
204.527,4937.938
205.0091,4988.668
205.4912,5023.596
205.9733,5041.773
206.4554,5049.805
206.9376,5048.981
207.4197,5038.362
207.9018,5013.199
208.3839,4971.403
208.866,4920.217
209.3481,4865.579
209.8303,4808.5
210.3124,4742.208
210.7945,4664.215
211.2766,4577.065
211.7587,4488.15
212.2408,4398.042
212.723,4304.491
213.2051,4205.111
213.6872,4099.535
214.1693,3988.196
214.6514,3870.349
215.1335,3746.672
215.6157,3626.004
216.0978,3507.286
216.5799,3391.443
217.062,3277.922
217.5441,3166.25
218.0262,3057.089
218.5084,2948.739
218.9905,2841.502
219.4726,2743.159
219.9547,2654.683
220.4368,2570.81
220.9189,2489.269
221.4011,2409.111
221.8832,2331.922
222.3653,2256.165
222.8474,2183.417
223.3295,2117.615
223.8116,2062.534
224.2938,2010.729
224.7759,1957.628
225.258,1901.711
225.7401,1849.172
226.2222,1800.234
226.7043,1754.944
227.1865,1711.394
227.6686,1670.727
228.1507,1631.35
228.6328,1592.807
229.1149,1554.986
229.597,1518.481
230.0792,1483.758
230.5613,1450.418
231.0434,1417.939
231.5255,1386.222
232.0076,1356.14
232.4897,1328.796
232.9719,1305.618
233.454,1281.995
233.9361,1256.665
234.4182,1230.735
234.9003,1207.826
235.3824,1189.193
235.8646,1171.769
236.3467,1154.078
236.8288,1135.826
237.3109,1117.888
237.793,1100.24
238.2751,1082.834
238.7573,1065.995
239.2394,1049.264
239.7215,1033.695
240.2036,1019.659
240.6857,1007.465
241.1678,996.1484
241.65,986.0798
242.1321,976.8187
242.6142,966.8425
243.0963,954.8565
243.5784,944.1601
244.0605,936.528
244.5427,933.464
245.0248,929.3755
245.5069,923.3424
245.989,916.649
246.4711,912.523
246.9532,913.0112
247.4354,912.6429
247.9175,909.015
248.3996,900.6677
248.8817,893.8089
249.3638,888.8145
249.8459,885.1135
250.3281,881.7762
250.8102,879.2073
251.2923,876.2946
251.7744,872.3423
252.2565,866.7879
252.7386,862.7957
253.2208,860.7794
253.7029,860.0252
254.185,859.3863
254.6671,858.6973
255.1492,858.3942
255.6313,858.3182
256.1135,858.1669
256.5956,860.0939
257.0777,864.0235
257.5598,870.0369
258.0419,878.2632
258.524,888.585
259.0062,901.1545
259.4883,916.2961
259.9704,933.806
260.4525,952.254
260.9346,969.6307
261.4167,990.1329
261.8989,1018.621
262.381,1055.515
262.8631,1098.803
263.3452,1148.491
263.8273,1205.235
264.3094,1266.14
264.7916,1340.78
265.2737,1406.077
265.7558,1442.436
266.2379,1449.951
266.72,1425.742
267.2021,1361.723
267.6843,1262.206
268.1664,1165.779
268.6485,1070.56
269.1306,982.6138
269.6127,908.3469
270.0948,849.0043
270.577,798.7186
271.0591,757.6742
271.5412,725.357
272.0233,699.2167
272.5054,680.7999
272.9875,665.495
273.4697,649.8209
273.9518,633.0824
274.4339,619.928
274.916,611.7254
275.3981,607.0003
275.8802,601.0856
276.3624,593.7528
276.8445,586.497
277.3266,580.3652
277.8087,575.4368
278.2908,570.4628
278.7729,565.2575
279.2551,560.0656
279.7372,555.6841
280.2193,552.213
280.7014,548.8238
281.1835,544.9719
281.6656,540.6675
282.1478,536.5148
282.6299,532.4453
283.112,528.7213
283.5941,525.9442
284.0762,524.1454
284.5583,522.4629
285.0405,520.4815
285.5226,518.2367
286.0047,516.0304
286.4868,513.8419
286.9689,511.7632
287.451,509.8881
287.9332,508.2169
288.4153,506.7958
288.8974,505.9438
289.3795,505.385
289.8616,504.0311
290.3438,501.8179
290.8259,499.2425
291.308,496.5032
291.7901,493.7436
292.2722,491.7108
292.7543,490.9655
293.2365,490.9809
293.7186,490.7037
294.2007,490.1398
294.6828,489.082
295.1649,486.9811
295.647,484.1776
296.1292,481.7039
296.6113,479.8306
297.0934,478.4579
297.5755,477.5509
298.0576,477.0742
298.5397,476.6758
299.0219,476.1866
299.504,475.5773
299.9861,474.7744
300.4682,473.7311
300.9503,472.5732
301.4324,471.1613
301.9146,469.6627
302.3967,468.7089
302.8788,469.6036
303.3609,471.0189
303.843,470.761
304.3251,468.1678
304.8073,465.2837
305.2894,464.1734
305.7715,464.2535
306.2536,464.0743
306.7357,461.7781
307.2178,459.4218
307.7,459.7419
308.1821,463.2475
308.6642,466.3735
309.1463,465.6834
309.6284,463.0139
310.1105,461.2192
310.5927,462.2632
311.0748,464.0823
311.5569,465.5776
312.039,466.6904
312.5211,466.9325
313.0032,465.0629
313.4854,462.5552
313.9675,461.0005
314.4496,462.0771
314.9317,463.2032
315.4138,462.845
315.8959,461.2876
316.3781,460.2474
316.8602,461.1963
317.3423,462.5446
317.8244,463.1161
318.3065,462.2558
318.7886,461.1629
319.2708,459.5603
319.7529,457.9312
320.235,457.6369
320.7171,461.2621
321.1992,464.6773
321.6813,465.5293
322.1635,461.9658
322.6456,459.3798
323.1277,460.0072
323.6098,462.0556
324.0919,462.5313
324.574,458.3719
325.0562,454.9354
325.5383,454.2445
326.0204,457.2671
326.5025,459.4369
326.9846,460.1515
327.4667,460.0064
327.9489,459.6404
328.431,458.6849
328.9131,457.9517
329.3952,457.7001
329.8773,457.9532
330.3594,457.8119
330.8416,456.3536
331.3237,455.285
331.8058,455.973
332.2879,460.2147
332.77,463.091
333.2521,463.5367
333.7343,462.2112
334.2164,462.3894
334.6985,464.7012
335.1806,467.5162
335.6627,469.9012
336.1448,471.4359
336.627,473.7831
337.1091,477.1172
337.5912,481.1532
338.0733,485.3204
338.5554,489.4405
339.0375,494.1559
339.5197,500.0494
340.0018,507.1837
340.4839,513.4684
340.966,518.7476
341.4481,523.2647
341.9302,526.7941
342.4124,529.2357
342.8945,532.4702
343.3766,537.296
343.8587,543.3531
344.3408,548.939
344.8229,553.8403
345.3051,559.5627
345.7872,567.7502
346.2693,578.0916
346.7514,588.7194
347.2335,598.7385
347.7156,609.382
348.1978,622.1972
348.6799,637.2723
349.162,655.692
349.6441,676.8643
350.1262,702.0012
350.6083,733.5888
351.0905,772.0615
351.5726,817.7441
352.0547,868.0498
352.5368,925.37
353.0189,996.9523
353.501,1085.483
353.9832,1190.74
354.4653,1321.804
354.9474,1481.431
355.4295,1631.021
355.9116,1773.352
356.3937,1880.159
356.8759,1907.648
357.358,1802.134
357.8401,1644.535
358.3222,1469.283
358.8043,1280.5
359.2864,1112.539
359.7686,983.7286
360.2507,882.7281
360.7328,802.173
361.2149,744.2129
361.697,698.4005
362.1791,663.876
362.6613,638.5533
363.1434,617.6329
363.6255,601.3525
364.1076,587.7252
364.5897,575.8373
365.0718,565.86
365.554,557.5402
366.0361,551.4479
366.5182,546.8035
367.0003,542.6727
367.4824,539.5135
367.9645,536.2913
368.4467,532.5283
368.9288,528.2333
369.4109,524.7919
369.893,522.4771
370.3751,520.8215
370.8572,519.5551
371.3394,519.0311
371.8215,518.3268
372.3036,517.2596
372.7857,515.9681
373.2678,514.9456
373.7499,514.2758
374.2321,513.6933
374.7142,512.9117
375.1963,511.6022
375.6784,511.5617
376.1605,513.152
376.6426,515.5477
377.1248,517.4015
377.6069,518.6241
378.089,519.9963
378.5711,522.0855
379.0532,524.6434
379.5353,525.2339
380.0175,523.4431
380.4996,521.8107
380.9817,523.368
381.4638,527.6624
381.9459,530.8497
382.428,531.7382
382.9102,531.6235
383.3923,532.7859
383.8744,535.1829
384.3565,538.3198
384.8386,542.2668
385.3207,546.6541
385.8029,550.3385
386.285,553.0355
386.7671,556.1473
387.2492,561.1572
387.7313,567.7126
388.2134,574.9288
388.6956,581.3812
389.1777,588.8703
389.6598,599.1003
390.1419,612.0317
390.624,626.8849
391.1061,641.567
391.5883,658.7698
392.0704,681.316
392.5525,710.1564
393.0346,744.1688
393.5167,793.2264
393.9988,848.7119
394.481,887.0883
394.9631,900.9192
395.4452,895.0609
395.9273,867.6776
396.4094,810.0192
396.8915,758.2795
397.3737,717.4537
397.8558,686.5875
398.3379,664.5084
398.82,653.7083
399.3021,649.0255
399.7842,650.1976
400.2664,657.1935
400.7485,667.3964
401.2306,680.5501
401.7127,697.0013
402.1948,717.6811
402.6769,746.515
403.1591,771.8721
403.6412,797.0595
404.1233,816.5358
404.6054,815.0544
405.0875,787.656
405.5696,753.9023
406.0518,719.4686
406.5339,684.1646
407.016,655.4727
407.4981,634.0992
407.9802,618.1228
408.4623,606.3537
408.9445,598.7133
409.4266,592.6512
409.9087,587.5226
410.3908,583.5342
410.8729,581.4268
411.355,581.1762
411.8372,581.9382
412.3193,583.7606
412.8014,586.0984
413.2835,587.5108
413.7656,587.6115
414.2477,587.5949
414.7299,588.7154
415.212,590.7106
415.6941,592.9258
416.1762,595.3181
416.6583,597.6263
417.1404,599.546
417.6226,601.0921
418.1047,602.5965
418.5868,603.9778
419.0689,605.5377
419.551,607.6364
420.0331,610.9589
420.5153,614.0139
420.9974,615.7445
421.4795,616.7298
421.9616,618.3652
422.4437,621.7074
422.9258,625.2178
423.408,628.2422
423.8901,630.6393
424.3722,633.06
424.8543,635.5449
425.3364,638.1041
425.8185,640.7327
426.3007,643.4855
426.7828,646.2728
427.2649,648.9671
427.747,651.6345
428.2291,654.8517
428.7112,658.751
429.1934,662.9193
429.6755,667.2773
430.1576,671.8716
430.6397,676.1533
431.1218,679.8546
431.6039,683.6143
432.0861,688.5994
432.5682,694.874
433.0503,701.4514
433.5324,708.0219
434.0145,714.678
434.4966,721.6278
434.9788,728.8669
435.4609,736.6939
435.943,745.3412
436.4251,754.8771
436.9072,765.4033
437.3893,777.0563
437.8715,789.5956
438.3536,802.3715
438.8357,815.7549
439.3178,830.7762
439.7999,847.9032
440.282,867.0192
440.7642,887.9871
441.2463,910.9705
441.7284,935.0529
442.2105,958.0233
442.6926,982.8397
443.1747,1012.37
443.6569,1048.652
444.139,1088.35
444.6211,1128.106
445.1032,1170.213
445.5853,1220.052
446.0674,1280.106
446.5496,1347.122
447.0317,1419.887
447.5138,1498.619
447.9959,1583.68
448.478,1676.394
448.9601,1775.045
449.4423,1879.627
449.9244,1989.38
450.4065,2104.618
450.8886,2226.468
451.3707,2353.31
451.8528,2481.671
452.335,2610.327
452.8171,2746.743
453.2992,2895.52
453.7813,3057.317
454.2634,3234.13
454.7455,3425.958
455.2277,3637.608
455.7098,3875.795
456.1919,4139.491
456.674,4438.188
457.1561,4763.94
457.6382,5128.932
458.1204,5539.453
458.6025,6000.204
459.0846,6516.715
459.5667,7093.817
460.0488,7735.085
460.5309,8447.603
461.0131,9229.255
461.4952,10084.61
461.9773,11031.8
462.4594,12039.74
462.9415,13077.07
463.4236,14242.0
463.9058,15315.43
464.3879,16291.23
464.87,17130.71
465.3521,17645.46
465.8342,17792.82
466.3163,17604.54
466.7985,17082.1
467.2806,16091.89
467.7627,15009.03
468.2448,13771.78
468.7269,12485.85
469.209,11278.95
469.6912,10125.49
470.1733,9075.507
470.6554,8140.668
471.1375,7319.071
471.6196,6596.454
472.1017,5977.597
472.5839,5442.478
473.066,4972.596
473.5481,4570.41
474.0302,4215.937
474.5123,3910.86
474.9944,3644.526
475.4766,3404.816
475.9587,3191.194
476.4408,2999.647
476.9229,2833.706
477.405,2687.846
477.8871,2556.582
478.3693,2439.442
478.8514,2332.179
479.3335,2232.685
479.8156,2140.606
480.2977,2056.573
480.7798,1981.188
481.262,1912.776
481.7441,1852.673
482.2262,1798.549
482.7083,1746.979
483.1904,1696.641
483.6725,1648.608
484.1547,1603.721
484.6368,1562.082
485.1189,1522.45
485.601,1483.963
486.0831,1447.952
486.5652,1415.549
487.0474,1388.458
487.5295,1360.696
488.0116,1331.154
488.4937,1302.082
488.9758,1276.503
489.4579,1255.041
489.9401,1235.063
490.4222,1215.905
490.9043,1197.683
491.3864,1180.234
491.8685,1163.558
492.3506,1147.19
492.8328,1130.023
493.3149,1112.731
493.797,1098.517
494.2791,1087.975
494.7612,1078.55
495.2433,1066.751
495.7255,1053.63
496.2076,1041.771
496.6897,1032.963
497.1718,1025.001
497.6539,1015.489
498.136,1005.022
498.6182,995.6813
499.1003,989.2393
499.5824,983.9186
500.0645,978.4279
500.5466,972.1465
501.0287,967.4012
501.5109,964.5729
501.993,963.7048
502.4751,964.8883
502.9572,967.808
503.4393,973.2061
503.9214,981.2159
504.4036,991.6744
504.8857,1003.938
505.3678,1016.511
505.8499,1033.655
506.332,1056.168
506.8141,1083.727
507.2963,1122.716
507.7784,1176.027
508.2605,1234.494
508.7426,1299.635
509.2247,1369.056
509.7068,1405.581
510.189,1400.635
510.6711,1363.128
511.1532,1296.381
511.6353,1205.584
512.1174,1117.729
512.5995,1041.938
513.0817,978.4764
513.5638,929.9763
514.0459,896.025
514.528,868.2744
515.0101,842.2803
515.4922,819.4947
515.9744,801.848
516.4565,791.2548
516.9386,782.4572
517.4207,774.249
517.9028,766.661
518.3849,759.7398
518.8671,754.0081
519.3492,748.3978
519.8313,742.4432
520.3134,736.2565
520.7955,730.7735
521.2776,726.1024
521.7598,721.9445
522.2419,718.3778
522.724,715.638
523.2061,711.9674
523.6882,707.0161
524.1703,701.7819
524.6525,697.4857
525.1346,694.0867
525.6167,691.3826
526.0988,689.8848
526.5809,688.4464
527.063,684.1013
527.5452,677.4827
528.0273,672.0953
528.5094,670.7912
528.9915,671.4091
529.4736,672.0827
529.9557,672.7236
530.4379,671.7664
530.92,666.213
531.4021,659.5652
531.8842,655.3138
532.3663,655.8442
532.8484,656.6035
533.3306,656.9437
533.8127,656.7155
534.2948,655.5787
534.7769,652.3278
535.259,649.525
535.7411,647.9405
536.2233,647.5358
536.7054,646.6425
537.1875,645.2181
537.6696,643.4279
538.1517,641.2037
538.6339,638.5074
539.116,636.204
539.5981,634.3386
540.0802,632.9255
540.5623,632.368
541.0444,632.4187
541.5266,631.5975
542.0087,629.0364
542.4908,625.8395
542.9729,623.1864
543.455,621.1943
543.9371,620.2415
544.4193,622.0462
544.9014,623.9667
545.3835,623.2308
545.8656,619.4387
546.3477,616.5707
546.8298,617.2289
547.312,618.9304
547.7941,619.6315
548.2762,618.5027
548.7583,617.0422
549.2404,615.2853
549.7225,613.2853
550.2047,611.1337
550.6868,608.8715
551.1689,606.3414
551.651,603.3837
552.1331,600.1151
552.6152,597.369
553.0974,595.1855
553.5795,593.3638
554.0616,591.8779
554.5437,590.6854
555.0258,589.4665
555.5079,588.1835
555.9901,587.0598
556.4722,586.8959
556.9543,587.0018
557.4364,585.7443
557.9185,581.662
558.4006,577.6804
558.8828,576.1478
559.3649,576.4665
559.847,577.2158
560.3291,579.0748
560.8112,580.0821
561.2933,578.8934
561.7755,575.4397
562.2576,572.5774
562.7397,570.7571
563.2218,569.6067
563.7039,569.059
564.186,569.5773
564.6682,569.4785
565.1503,568.6268
565.6324,567.3434
566.1145,565.8857
566.5966,564.1741
567.0787,563.1367
567.5609,563.2922
568.043,563.8575
568.5251,562.7403
569.0072,560.1912
569.4893,558.2547
569.9714,558.4965
570.4536,559.7949
570.9357,560.6389
571.4178,561.0022
571.8999,561.1591
572.382,561.1624
572.8641,561.0956
573.3463,560.9761
573.8284,560.6652
574.3105,560.6718
574.7926,561.5461
575.2747,562.6699
575.7568,563.2625
576.239,563.1953
576.7211,562.6494
577.2032,561.2964
577.6853,559.503
578.1674,558.6589
578.6495,559.0667
579.1317,559.5326
579.6138,559.4153
580.0959,558.862
580.578,559.321
581.0601,560.9031
581.5422,562.3528
582.0244,562.3957
582.5065,561.5178
582.9886,560.9366
583.4707,560.8436
583.9528,560.8604
584.4349,560.0756
584.9171,559.3235
585.3992,559.8654
585.8813,563.8415
586.3634,567.3562
586.8455,568.1672
587.3276,567.2231
587.8098,567.0819
588.2919,569.7114
588.774,571.6658
589.2561,571.4992
589.7382,569.1502
590.2203,568.3263
590.7025,569.6877
591.1846,571.3967
591.6667,572.3949
592.1488,572.6785
592.6309,572.1159
593.113,570.4872
593.5952,568.8326
594.0773,568.8912
594.5594,570.114
595.0415,570.2049
595.5236,568.0611
596.0057,565.5844
596.4879,565.1057
596.97,565.9594
597.4521,566.5921
597.9342,566.0259
598.4163,565.2685
598.8984,564.7028
599.3806,564.3713
599.8627,564.5203
600.3448,566.3683
600.8269,567.6963
601.309,567.2663
601.7911,564.4034
602.2733,562.45
602.7554,561.7556
603.2375,561.4765
603.7196,560.6725
604.2017,559.2014
604.6838,558.8273
605.166,560.1022
605.6481,561.7513
606.1302,561.3653
606.6123,559.3994
607.0944,557.9909
607.5765,558.2902
608.0587,559.1638
608.5408,559.327
609.0229,558.9335
609.505,558.5456
609.9871,558.1321
610.4692,558.069
610.9514,558.8355
611.4335,560.5247
611.9156,561.66
612.3977,561.9561
612.8798,561.5773
613.3619,560.5075
613.8441,557.9946
614.3262,556.683
614.8083,557.058
615.2904,557.9688
615.7725,557.6732
616.2546,556.041
616.7368,555.6632
617.2189,557.33
617.701,559.9959
618.1831,562.2422
618.6652,563.9509
619.1473,564.6098
619.6295,563.1822
620.1116,561.1053
620.5937,559.5794
621.0758,558.6222
621.5579,558.2758
622.04,558.7556
622.5222,559.713
623.0043,561.2299
623.4864,563.5773
623.9685,564.8842
624.4506,563.8351
624.9327,562.6417
625.4149,562.874
625.897,565.2395
626.3791,566.9376
626.8612,567.9355
627.3433,568.1433
627.8254,566.9298
628.3076,564.3983
628.7897,562.8147
629.2718,562.866
629.7539,563.9395
630.236,565.6227
630.7181,567.6049
631.2003,568.8705
631.6824,567.9966
632.1645,566.9332
632.6466,567.3585
633.1287,569.0781
633.6108,570.6138
634.093,571.4785
634.5751,572.0289
635.0572,572.3504
635.5393,572.3708
636.0214,572.636
636.5035,573.4939
636.9857,574.1658
637.4678,573.7184
637.9499,571.7882
638.432,571.5961
638.9141,573.7322
639.3962,576.5099
639.8784,577.5554
640.3605,577.2328
640.8426,577.2062
641.3247,578.114
641.8068,579.1677
642.2889,579.6183
642.7711,579.5614
643.2532,579.2219
643.7353,578.2567
644.2174,577.4601
644.6995,577.3392
645.1816,577.7957
645.6638,578.1015
646.1459,578.1987
646.628,578.0568
647.1101,577.4725
647.5922,576.3781
648.0743,576.177
648.5565,577.0923
649.0386,578.3145
649.5207,579.4147
650.0028,580.3361
650.4849,580.3229
650.967,579.1632
651.4492,578.1241
651.9313,578.8574
652.4134,580.632
652.8955,582.1739
653.3776,583.4809
653.8597,583.8398
654.3419,581.7277
654.824,578.6473
655.3061,576.935
655.7882,578.5762
656.2703,580.111
656.7524,580.9528
657.2346,581.1513
657.7167,580.7069
658.1988,579.2648
658.6809,577.9715
659.163,577.0346
659.6451,576.553
660.1273,577.532
660.6094,580.0748
661.0915,582.1712
661.5736,581.8124
662.0557,580.2574
662.5378,580.0535
663.02,581.3212
663.5021,582.9448
663.9842,584.6046
664.4663,585.9846
664.9484,586.6608
665.4305,586.2383
665.9127,586.0947
666.3948,586.9949
666.8769,588.1064
667.359,588.5133
667.8411,587.4434
668.3232,587.3906
668.8054,588.9687
669.2875,591.1735
669.7696,592.0468
670.2517,591.554
670.7338,591.512
671.2159,592.6384
671.6981,594.247
672.1802,595.0032
672.6623,595.1624
673.1444,595.6743
673.6265,597.8395
674.1086,599.8782
674.5908,600.1448
675.0729,598.9075
675.555,598.0936
676.0371,598.0799
676.5192,598.8469
677.0013,600.6268
677.4835,603.5535
677.9656,605.9066
678.4477,607.3211
678.9298,608.8626
679.4119,611.6715
679.894,615.7948
680.3762,618.082
680.8583,618.3174
681.3404,617.6259
681.8225,616.4766
682.3046,615.3745
682.7867,615.3754
683.2689,616.772
683.751,619.0573
684.2331,622.7051
684.7152,626.713
685.1973,629.7191
685.6794,630.1208
686.1616,631.0339
686.6437,633.1559
687.1258,636.1073
687.6079,639.2315
688.09,642.4308
688.5721,646.0211
689.0543,650.3145
689.5364,654.8356
690.0185,657.5911
690.5006,658.6752
690.9827,661.1962
691.4648,668.2957
691.947,677.012
692.4291,682.4617
692.9112,685.2083
693.3933,688.3725
693.8754,693.6063
694.3575,699.9495
694.8397,706.9799
695.3218,714.7315
695.8039,722.6005
696.286,732.8062
696.7681,740.9763
697.2502,744.9215
697.7324,744.2101
698.2145,740.9654
698.6966,734.754
699.1787,727.2394
699.6608,719.7941
700.1429,712.4402
700.6251,704.8259
701.1072,696.7983
701.5893,689.1138
702.0714,682.6379
702.5535,676.9441
703.0356,671.3021
703.5178,664.9131
703.9999,659.6891
704.482,657.1971
704.9641,656.1005
705.4462,654.2538
705.9283,650.8464
706.4105,647.7695
706.8926,645.2581
707.3747,643.2136
707.8568,641.3099
708.3389,639.5086
708.821,638.3077
709.3032,638.0339
709.7853,638.3213
710.2674,638.5622
710.7495,638.7427
711.2316,638.7889
711.7137,638.4262
712.1959,638.1063
712.678,637.7361
713.1601,637.5095
713.6422,638.6699
714.1243,644.7427
714.6064,649.1445
715.0886,648.6799
715.5707,643.1708
716.0528,639.0671
716.5349,636.4592
717.017,634.9482
717.4991,634.4975
717.9813,635.0033
718.4634,635.8235
718.9455,636.9766
719.4276,637.7007
719.9097,636.5852
720.3918,634.9686
720.874,634.8043
721.3561,636.5756
721.8382,638.5139
722.3203,640.1437
722.8024,641.3619
723.2845,642.0812
723.7667,642.0668
724.2488,641.9408
724.7309,641.6556
725.213,641.2986
725.6951,641.0366
726.1772,640.8997
726.6594,640.2177
727.1415,638.5887
727.6236,637.2904
728.1057,638.6841
728.5878,641.8307
729.0699,644.3906
729.5521,646.0231
730.0342,646.1658
730.5163,642.7747
730.9984,637.9315
731.4805,635.3451
731.9626,637.8154
732.4448,640.416
732.9269,642.4351
733.409,643.942
733.8911,645.0215
734.3732,645.5885
734.8553,646.0891
735.3375,646.8561
735.8196,647.4931
736.3017,646.4473
736.7838,644.0599
737.2659,642.4141
737.748,642.86
738.2302,644.4095
738.7123,646.7863
739.1944,649.6548
739.6765,651.5025
740.1586,650.864
740.6407,649.9421
741.1229,649.7768
741.605,650.3307
742.0871,650.4932
742.5692,650.2538
743.0513,649.6466
743.5334,648.3552
744.0156,646.5744
744.4977,645.9806
744.9798,646.5678
745.4619,647.8973
745.944,650.5226
746.4261,653.216
746.9083,654.235
747.3904,653.4021
747.8725,652.4567
748.3546,651.9972
748.8367,651.8603
749.3188,651.9057
749.801,652.0105
750.2831,652.8265
750.7652,655.0925
751.2473,656.916
751.7294,656.3819
752.2115,653.5369
752.6937,651.7079
753.1758,651.1356
753.6579,651.2562
754.14,651.8574
754.6221,652.6475
755.1042,653.2178
755.5864,653.5594
756.0685,653.4032
756.5506,651.7324
757.0327,649.9407
757.5148,649.4856
757.9969,652.1013
758.4791,653.607
758.9612,653.5704
759.4433,652.8983
759.9254,652.6224
760.4075,652.7448
760.8896,653.0887
761.3718,653.6946
761.8539,654.2691
762.336,654.0087
762.8181,653.4763
763.3002,653.9434
763.7823,656.3618
764.2645,658.8152
764.7466,660.8102
765.2287,662.0065
765.7108,661.9054
766.1929,658.3318
766.675,656.4691
767.1572,657.2888
767.6393,659.636
768.1214,661.5943
768.6035,663.1746
769.0856,664.075
769.5677,664.1381
770.0499,663.6542
770.532,662.6944
771.0141,661.5368
771.4962,660.9025
771.9783,661.3762
772.4604,662.1526
772.9426,662.6256
773.4247,663.0967
773.9068,664.3289
774.3889,667.9236
774.871,670.0286
775.3531,669.4251
775.8353,667.1658
776.3174,666.332
776.7995,666.9984
777.2816,667.7086
777.7637,667.8386
778.2458,667.8229
778.728,668.3276
779.2101,669.3061
779.6922,670.5806
780.1743,672.241
780.6564,674.0179
781.1385,676.056
781.6207,678.1783
782.1028,679.5427
782.5849,679.6166
783.067,679.7314
783.5491,680.138
784.0313,680.861
784.5134,682.0949
784.9955,683.8499
785.4776,685.6738
785.9597,687.2625
786.4418,688.8767
786.924,691.1148
787.4061,693.7742
787.8882,696.0963
788.3703,697.0252
788.8524,698.1183
789.3345,699.9597
789.8167,702.6266
790.2988,706.1067
790.7809,710.5363
791.263,715.6232
791.7451,721.7119
792.2272,728.3072
792.7094,733.1749
793.1915,736.3775
793.6736,740.4814
794.1557,748.0958
794.6378,756.6871
795.1199,762.7078
795.6021,766.572
796.0842,770.6653
796.5663,775.5393
797.0484,781.2549
797.5305,787.7953
798.0126,795.1293
798.4948,803.5548
798.9769,813.3398
799.459,823.4954
799.9411,833.4732
800.4232,843.4932
800.9053,853.1895
801.3875,862.8054
801.8696,874.6635
802.3517,889.5096
802.8338,907.9971
803.3159,931.2661
803.798,958.9423
804.2802,988.4171
804.7623,1017.056
805.2444,1049.351
805.7265,1086.741
806.2086,1128.93
806.6907,1174.575
807.1729,1225.052
807.655,1273.786
808.1371,1320.639
808.6192,1362.729
809.1013,1395.325
809.5834,1417.286
810.0656,1422.131
810.5477,1400.609
811.0298,1365.262
811.5119,1321.757
811.994,1271.105
812.4761,1217.735
812.9583,1157.967
813.4404,1100.974
813.9225,1048.459
814.4046,1001.141
814.8867,961.1053
815.3688,928.8093
815.851,900.9904
816.3331,876.4799
816.8152,855.1026
817.2973,837.5601
817.7794,823.2752
818.2615,810.2509
818.7437,797.1714
819.2258,785.6124
819.7079,776.6609
820.19,770.0397
820.6721,763.5601
821.1542,757.1279
821.6364,750.91
822.1185,744.7314
822.6006,738.9501
823.0827,734.7369
823.5648,731.9349
824.0469,728.9344
824.5291,724.0643
825.0112,719.2952
825.4933,716.8929
825.9754,716.1923
826.4575,715.0158
826.9396,711.9375
827.4218,709.1706
827.9039,707.5036
828.386,706.5553
828.8681,704.8528
829.3502,702.0695
829.8323,700.4582
830.3145,701.2194
830.7966,703.0396
831.2787,703.8204
831.7608,703.5742
832.2429,702.3271
832.725,698.4731
833.2072,695.244
833.6893,694.9435
834.1714,696.5604
834.6535,697.4365
835.1356,697.524
835.6177,696.5483
836.0999,693.8862
836.582,690.6514
837.0641,689.2142
837.5462,689.5213
838.0283,691.2039
838.5104,695.0237
838.9926,698.543
839.4747,698.39
839.9568,696.1602
840.4389,694.6312
840.921,695.5355
841.4031,696.274
841.8853,696.2249
842.3674,695.7156
842.8495,695.1032
843.3316,694.3041
843.8137,693.822
844.2958,693.7943
844.778,693.9528
845.2601,694.0941
845.7422,694.0964
846.2243,693.6236
846.7064,692.4327
847.1885,691.143
847.6707,689.6315
848.1528,688.4408
848.6349,688.2692
849.117,689.8782
849.5991,691.2756
850.0812,692.6094
850.5634,693.4708
851.0455,693.3094
851.5276,692.2228
852.0097,690.7903
852.4918,689.0202
852.9739,687.3871
853.4561,686.1565
853.9382,685.3855
854.4203,685.1921
854.9024,685.7047
855.3845,686.4246
855.8666,687.9285
856.3488,688.9807
856.8309,688.6633
857.313,686.8062
857.7951,684.5856
858.2772,681.889
858.7593,679.6846
859.2415,679.335
859.7236,679.8557
860.2057,679.2741
860.6878,677.4441
861.1699,676.4402
861.652,678.7744
862.1342,680.9928
862.6163,680.7752
863.0984,678.0677
863.5805,675.2469
864.0626,672.1439
864.5447,669.517
865.0269,667.8187
865.509,666.9377
865.9911,666.5646
866.4732,666.6998
866.9553,667.3112
867.4374,669.5905
867.9196,671.2985
868.4017,670.3311
868.8838,667.0574
869.3659,664.4814
869.848,662.6383
870.3301,661.8933
870.8123,662.6617
871.2944,664.4407
871.7765,665.6933
872.2586,666.3969
872.7407,666.4764
873.2228,665.316
873.705,664.1606
874.1871,664.8978
874.6692,666.5714
875.1513,667.1046
875.6334,664.3411
876.1155,662.2878
876.5977,661.8851
877.0798,662.419
877.5619,662.6903
878.044,662.7023
878.5261,662.3447
879.0082,661.374
879.4904,660.6515
879.9725,662.0468
880.4546,664.2826
880.9367,664.9151
881.4188,662.1664
881.9009,660.2051
882.3831,661.1822
882.8652,663.2376
883.3473,664.4861
883.8294,664.7742
884.3115,664.9282
884.7936,664.9957
885.2758,664.8826
885.7579,664.0099
886.24,662.9861
886.7221,663.5152
887.2042,665.8957
887.6863,667.9604
888.1685,668.3697
888.6506,668.1056
889.1327,667.7897
889.6148,667.4612
890.0969,667.1008
890.579,666.8188
891.0612,666.1556
891.5433,664.2034
892.0254,661.6599
892.5075,661.6136
892.9896,663.7763
893.4717,665.8614
893.9539,666.4466
894.436,666.5132
894.9181,666.9372
895.4002,667.543
895.8823,666.9262
896.3644,663.9388
896.8466,661.8974
897.3287,661.9711
897.8108,663.3402
898.2929,663.9973
898.775,663.9806
899.2571,663.5234
899.7393,662.7625
900.2214,661.5347
900.7035,658.8079
901.1856,655.7362
901.6677,654.3129
902.1498,656.3651
902.632,658.2784
903.1141,660.2546
903.5962,661.4883
904.0783,660.2568
904.5604,656.8068
905.0425,654.7958
905.5247,654.916
906.0068,655.4808
906.4889,654.1014
906.971,652.7111
907.4531,654.1005
907.9352,660.2224
908.4174,663.2443
908.8995,660.3275
909.3816,656.2066
909.8637,653.5453
910.3458,652.3074
910.8279,651.7748
911.3101,651.9576
911.7922,652.2139
912.2743,651.9299
912.7564,651.5641
913.2385,651.478
913.7206,651.726
914.2028,652.5403
914.6849,654.9968
915.167,656.8369
915.6491,657.1365
916.1312,656.381
916.6133,656.7747
917.0955,658.358
917.5776,658.7125
918.0597,656.1569
918.5418,653.1674
919.0239,653.3835
919.506,655.3514
919.9882,656.2502
920.4703,653.263
920.9524,651.6683
921.4345,653.2483
921.9166,655.8183
922.3987,656.5563
922.8809,655.3079
923.363,654.6225
923.8451,654.8415
924.3272,655.2668
924.8093,655.5035
925.2914,655.3293
925.7736,654.3282
926.2557,652.3171
926.7378,650.318
927.2199,647.7606
927.702,646.2186
928.1841,647.0334
928.6663,650.2
929.1484,651.1451
929.6305,649.8019
930.1126,647.9557
930.5947,646.451
931.0768,645.2657
931.559,644.5229
932.0411,644.11
932.5232,643.6273
933.0053,642.9675
933.4874,642.1269
933.9695,640.754
934.4517,639.3712
934.9338,639.8648
935.4159,642.3095
935.898,642.4117
936.3801,638.0872
936.8622,633.4672
937.3444,634.1493
937.8265,637.5703
938.3086,639.9896
938.7907,640.1806
939.2728,639.7132
939.7549,637.9806
940.2371,636.5577
940.7192,637.0839
941.2013,639.6461
941.6834,640.6492
942.1655,639.8837
942.6476,639.2833
943.1298,641.5724
943.6119,644.16
944.094,643.4155
944.5761,639.3315
945.0582,637.3932
945.5403,641.8502
946.0225,644.9375
946.5046,643.5914
946.9867,639.1607
947.4688,637.239
947.9509,637.7117
948.433,638.3707
948.9152,638.1302
949.3973,637.8981
949.8794,639.2069
950.3615,640.9965
950.8436,641.387
951.3257,637.611
951.8079,635.8536
952.29,637.3494
952.7721,639.7363
953.2542,640.0901
953.7363,638.6658
954.2184,637.2121
954.7006,635.8832
955.1827,635.0791
955.6648,635.4778
956.1469,636.2903
956.629,637.0617
957.1111,637.8328
957.5933,637.309
958.0754,634.7002
958.5575,632.3383
959.0396,631.4089
959.5217,631.5601
960.0038,631.5746
960.486,631.5231
960.9681,631.7762
961.4502,632.2518
961.9323,633.3696
962.4144,636.5261
962.8965,640.2893
963.3787,641.2328
963.8608,637.5563
964.3429,635.6494
964.825,636.6016
965.3071,638.6884
965.7892,640.1547
966.2714,640.8061
966.7535,639.9095
967.2356,637.162
967.7177,634.3007
968.1998,631.0605
968.6819,629.0923
969.1641,630.2634
969.6462,634.9216
970.1283,636.7257
970.6104,635.216
971.0925,633.5601
971.5746,633.8778
972.0568,635.0875
972.5389,635.1992
973.021,634.4851
973.5031,633.843
973.9852,634.3458
974.4673,634.0869
974.9495,631.6068
975.4316,628.5643
975.9137,628.2063
976.3958,630.7346
976.8779,632.3824
977.36,632.5106
977.8422,631.6216
978.3243,629.2082
978.8064,626.6341
979.2885,625.874
979.7706,627.6889
980.2527,629.0862
980.7349,629.1003
981.217,629.2611
981.6991,630.517
982.1812,632.6652
982.6633,634.3845
983.1454,635.6237
983.6276,635.877
984.1097,633.8727
984.5918,631.6433
985.0739,630.9297
985.556,631.1993
986.0381,630.9216
986.5203,628.9944
987.0024,628.8312
987.4845,631.6283
987.9666,634.8522
988.4487,634.5098
988.9308,631.5932
989.413,628.7129
989.8951,626.1936
990.3772,624.7164
990.8593,625.5074
991.3414,626.8474
991.8235,627.5201
992.3057,627.4832
992.7878,627.1694
993.2699,626.4336
993.752,626.3008
994.2341,627.9697
994.7162,630.0981
995.1984,630.2452
995.6805,628.9194
996.1626,627.5104
996.6447,626.0532
997.1268,625.2274
997.6089,625.5567
998.0911,626.2291
998.5732,625.9246
999.0553,624.6564
999.5374,624.291
1000.02,625.1732
1000.502,625.9466
1000.984,625.1539
1001.466,623.7726
1001.948,622.4744
1002.43,621.2835
1002.912,621.5508
1003.394,624.5965
1003.876,626.4906
1004.359,624.934
1004.841,621.4813
1005.323,621.1707
1005.805,623.3339
1006.287,625.255
1006.769,625.5721
1007.251,625.6105
1007.733,626.1375
1008.216,626.7438
1008.698,626.8726
1009.18,626.4481
1009.662,625.5348
1010.144,623.8657
1010.626,623.0328
1011.108,625.6176
1011.59,629.5693
1012.072,632.1354
1012.555,633.0939
1013.037,632.4379
1013.519,627.5878
1014.001,624.1913
1014.483,624.6175
1014.965,627.5826
1015.447,628.666
1015.929,628.0442
1016.411,627.5419
1016.894,627.8976
1017.376,628.2336
1017.858,627.9432
1018.34,627.1038
1018.822,625.6162
1019.304,622.29
1019.786,621.7004
1020.268,624.7758
1020.751,628.1378
1021.233,629.4074
1021.715,628.9233
1022.197,626.7842
1022.679,623.4189
1023.161,621.2306
1023.643,622.0045
1024.125,623.5528
1024.607,625.3959
1025.09,627.2568
1025.572,628.6068
1026.054,629.4371
1026.536,629.8123
1027.018,629.6901
1027.5,629.384
1027.982,629.3475
1028.464,629.2472
1028.947,628.4694
1029.429,626.6029
1029.911,625.9789
1030.393,627.2455
1030.875,628.8051
1031.357,630.1505
1031.839,631.0695
1032.321,630.4354
1032.803,628.5817
1033.286,626.8733
1033.768,625.6275
1034.25,625.1084
1034.732,625.8129
1035.214,627.1533
1035.696,628.363
1036.178,629.5546
1036.66,629.7278
1037.143,628.6058
1037.625,627.79
1038.107,629.5272
1038.589,631.9479
1039.071,632.4309
1039.553,630.9363
1040.035,630.0889
1040.517,631.5941
1041.0,631.8612
1041.482,629.1406
1041.964,625.3429
1042.446,625.9783
1042.928,629.8288
1043.41,631.6022
1043.892,628.8849
1044.374,626.4473
1044.856,627.7122
1045.339,630.2458
1045.821,632.0508
1046.303,633.1594
1046.785,632.7738
1047.267,630.7675
1047.749,628.4289
1048.231,625.7909
1048.713,623.9199
1049.195,624.6796
1049.677,627.3792
1050.16,630.0156
1050.642,633.2673
1051.124,634.3674
1051.606,632.152
1052.088,628.9725
1052.57,628.1779
1053.052,629.1609
1053.534,629.4578
1054.017,628.7436
1054.499,628.5099
1054.981,630.0753
1055.463,632.0767
1055.945,633.9773
1056.427,635.6326
1056.909,635.8367
1057.391,634.4258
1057.874,633.554
1058.356,634.0865
1058.838,635.217
1059.32,636.2825
1059.802,637.1813
1060.284,637.7203
1060.766,637.3578
1061.248,637.9786
1061.73,640.1468
1062.213,642.2963
1062.695,643.2809
1063.177,643.3398
1063.659,642.887
1064.141,642.1848
1064.623,642.5015
1065.105,645.3198
1065.587,648.3035
1066.07,650.5316
1066.552,652.4022
1067.034,654.547
1067.516,656.9766
1067.998,658.9573
1068.48,660.3672
1068.962,661.5147
1069.444,662.2248
1069.927,663.132
1070.409,665.0036
1070.891,667.8674
1071.373,670.2438
1071.855,671.26
1072.337,674.3057
1072.819,681.1175
1073.301,689.4795
1073.783,695.4594
1074.266,700.0363
1074.748,705.232
1075.23,711.4317
1075.712,718.6786
1076.194,726.2766
1076.676,735.7985
1077.158,748.4802
1077.64,764.1425
1078.122,781.246
1078.604,799.8748
1079.087,820.7488
1079.569,844.1531
1080.051,870.0372
1080.533,899.8408
1081.015,931.2917
1081.497,961.8558
1081.979,992.7239
1082.461,1015.991
1082.944,1031.554
1083.426,1036.043
1083.908,1022.911
1084.39,998.7792
1084.872,969.598
1085.354,936.1465
1085.836,902.3702
1086.318,866.8854
1086.801,833.5715
1087.283,802.8466
1087.765,775.4864
1088.247,753.6405
1088.729,736.1673
1089.211,720.4816
1089.693,705.8943
1090.175,693.1891
1090.657,682.7983
1091.14,674.457
1091.622,668.2574
1092.104,663.9875
1092.586,660.3134
1093.068,657.1315
1093.55,653.3483
1094.032,647.6429
1094.514,642.3557
1094.997,639.9554
1095.479,638.6431
1095.961,635.6901
1096.443,629.7959
1096.925,626.6312
1097.407,626.4681
1097.889,627.3025
1098.371,628.7263
1098.854,629.4542
1099.336,626.9153
1099.818,622.058
1100.3,618.6766
1100.782,617.8422
1101.264,618.4172
1101.746,621.0386
1102.228,623.4938
1102.71,622.0292
1103.193,618.2261
1103.675,616.0029
1104.157,615.8352
1104.639,615.899
1105.121,615.9368
1105.603,615.3869
1106.085,613.8875
1106.567,611.7607
1107.049,609.5786
1107.531,607.5089
1108.014,607.2663
1108.496,609.7719
1108.978,612.496
1109.46,614.3229
1109.942,615.0343
1110.424,613.9036
1110.906,610.8148
1111.388,610.329
1111.871,612.674
1112.353,614.2667
1112.835,612.6458
1113.317,610.2582
1113.799,609.8153
1114.281,610.4533
1114.763,610.7465
1115.245,610.3603
1115.728,609.8593
1116.21,609.2764
1116.692,608.5115
1117.174,607.0267
1117.656,605.538
1118.138,605.621
1118.62,606.9507
1119.102,608.0749
1119.584,609.2513
1120.067,608.813
1120.549,605.5348
1121.031,602.0554
1121.513,602.6442
1121.995,605.9994
1122.477,607.7231
1122.959,607.4099
1123.441,606.2502
1123.924,604.3139
1124.406,602.2198
1124.888,599.6732
1125.37,597.4291
1125.852,598.4166
1126.334,602.2336
1126.816,603.8561
1127.298,601.6837
1127.781,599.4111
1128.263,599.9043
1128.745,601.3641
1129.227,602.4523
1129.709,603.1369
1130.191,603.5328
1130.673,603.6234
1131.155,603.7458
1131.637,604.1089
1132.12,604.4264
1132.602,604.3417
1133.084,604.0336
1133.566,603.7032
1134.048,603.2078
1134.53,603.2581
1135.012,603.9186
1135.494,604.8515
1135.976,605.8947
1136.458,607.0471
1136.941,608.5595
1137.423,610.1522
1137.905,611.1377
1138.387,610.4904
1138.869,610.5759
1139.351,611.7786
1139.833,613.1357
1140.315,613.2449
1140.798,612.9128
1141.28,614.5207
1141.762,617.7783
1142.244,620.2429
1142.726,620.4283
1143.208,620.2902
1143.69,620.0462
1144.172,620.0095
1144.655,620.7414
1145.137,622.1038
1145.619,623.5992
1146.101,625.1649
1146.583,626.9065
1147.065,629.085
1147.547,631.2561
1148.029,632.9583
1148.511,634.63
1148.994,637.7351
1149.476,642.12
1149.958,646.3389
1150.44,650.0472
1150.922,653.8007
1151.404,657.3461
1151.886,661.6835
1152.368,667.9214
1152.851,675.7666
1153.333,682.2916
1153.815,687.4724
1154.297,694.5053
1154.779,705.0579
1155.261,716.7826
1155.743,726.7955
1156.225,736.9347
1156.708,750.0693
1157.19,767.1544
1157.672,779.8539
1158.154,787.6754
1158.636,795.4685
1159.118,806.6299
1159.6,818.2422
1160.082,829.0322
1160.564,837.3469
1161.047,839.9431
1161.529,835.1158
1162.011,828.0646
1162.493,818.7191
1162.975,807.3488
1163.457,793.214
1163.939,777.8304
1164.421,763.1669
1164.903,749.1141
1165.385,735.1493
1165.868,720.1904
1166.35,707.4474
1166.832,697.6224
1167.314,689.0192
1167.796,679.7165
1168.278,670.6511
1168.76,663.9075
1169.242,659.243
1169.725,654.5878
1170.207,648.764
1170.689,643.7209
1171.171,639.9598
1171.653,636.7366
1172.135,632.4285
1172.617,628.0431
1173.099,626.3739
1173.582,627.6596
1174.064,627.9137
1174.546,623.8492
1175.028,621.078
1175.51,621.7177
1175.992,623.5903
1176.474,621.7578
1176.956,617.5753
1177.438,615.1266
1177.921,615.3421
1178.403,615.7275
1178.885,614.998
1179.367,614.586
1179.849,615.2639
1180.331,616.5272
1180.813,616.6094
1181.295,615.866
1181.778,615.7435
1182.26,616.9283
1182.742,617.7025
1183.224,616.9084
1183.706,615.8254
1184.188,614.9664
1184.67,614.4309
1185.152,615.097
1185.635,616.7181
1186.117,618.0754
1186.599,618.6849
1187.081,618.9774
1187.563,618.9886
1188.045,618.8924
1188.527,618.8318
1189.009,618.7972
1189.491,618.6582
1189.974,618.4105
1190.456,617.9996
1190.938,616.9235
1191.42,616.3252
1191.902,617.4758
1192.384,618.8652
1192.866,618.8759
1193.348,617.4678
1193.83,616.4862
1194.313,615.9588
1194.795,616.1837
1195.277,618.6624
1195.759,620.4594
1196.241,619.1971
1196.723,616.7607
1197.205,615.5226
1197.687,615.5168
1198.169,615.3392
1198.652,614.9662
1199.134,615.3427
1199.616,618.5744
1200.098,621.2013
1200.58,620.3783
1201.062,617.9243
1201.544,616.7147
1202.026,616.7667
1202.509,617.7645
1202.991,619.6943
1203.473,621.2044
1203.955,620.8922
1204.437,620.2549
1204.919,620.5548
1205.401,621.1361
1205.883,619.9885
1206.365,617.0165
1206.848,616.9172
1207.33,620.4717
1207.812,623.9343
1208.294,624.3889
1208.776,623.7882
1209.258,623.1398
1209.74,622.5715
1210.222,622.4726
1210.705,622.8557
1211.187,622.4548
1211.669,620.9133
1212.151,619.8589
1212.633,621.1179
1213.115,622.916
1213.597,623.8929
1214.079,624.3049
1214.562,625.2068
1215.044,626.587
1215.526,627.7927
1216.008,628.6503
1216.49,629.4919
1216.972,630.1824
1217.454,631.3182
1217.936,633.4479
1218.418,636.3847
1218.901,639.6035
1219.383,643.0648
1219.865,645.4913
1220.347,646.448
1220.829,646.5733
1221.311,645.3235
1221.793,644.348
1222.275,645.1697
1222.757,647.4313
1223.24,648.3432
1223.722,648.0297
1224.204,648.0496
1224.686,649.0466
1225.168,650.1691
1225.65,650.7138
1226.132,651.3176
1226.614,652.5596
1227.096,654.3334
1227.579,655.6867
1228.061,656.6311
1228.543,657.209
1229.025,657.2197
1229.507,657.3532
1229.989,657.9572
1230.471,658.9141
1230.953,660.2128
1231.436,661.7759
1231.918,662.7933
1232.4,663.3412
1232.882,664.019
1233.364,665.6957
1233.846,666.3839
1234.328,664.9005
1234.81,662.1572
1235.292,658.1965
1235.775,653.4469
1236.257,651.7927
1236.739,652.6191
1237.221,652.5616
1237.703,649.1877
1238.185,646.2296
1238.667,645.3383
1239.149,645.1864
1239.632,645.2322
1240.114,645.2758
1240.596,643.5833
1241.078,640.6691
1241.56,638.6571
1242.042,639.2342
1242.524,639.8148
1243.006,639.7929
1243.489,639.5475
1243.971,639.4789
1244.453,639.4236
1244.935,638.5071
1245.417,636.9592
1245.899,635.6713
1246.381,635.0455
1246.863,634.7128
1247.345,634.8231
1247.828,634.7989
1248.31,634.0508
1248.792,632.8297
1249.274,631.1146
1249.756,629.4573
1250.238,629.6479
1250.72,634.5587
1251.202,638.018
1251.684,639.5725
1252.167,639.6195
1252.649,637.7336
1253.131,634.9597
1253.613,633.3137
1254.095,632.5563
1254.577,631.8293
1255.059,630.8901
1255.541,629.8582
1256.023,628.5128
1256.506,627.8654
1256.988,629.8597
1257.47,632.3774
1257.952,632.0735
1258.434,629.7642
1258.916,628.0081
1259.398,627.0634
1259.88,626.8975
1260.363,627.61
1260.845,628.5285
1261.327,629.2545
1261.809,629.758
1262.291,630.3287
1262.773,630.5797
1263.255,629.2899
1263.737,625.6991
1264.219,624.2585
1264.702,625.336
1265.184,627.4453
1265.666,631.3482
1266.148,633.975
1266.63,631.2899
1267.112,626.1257
1267.594,624.7499
1268.076,627.4902
1268.559,628.7941
1269.041,628.3059
1269.523,627.1432
1270.005,625.0421
1270.487,623.5965
1270.969,624.6556
1271.451,626.4088
1271.933,626.1022
1272.416,623.9677
1272.898,623.2286
1273.38,623.9736
1273.862,624.715
1274.344,624.2823
1274.826,624.1027
1275.308,624.7988
1275.79,625.8263
1276.272,626.5491
1276.755,627.0225
1277.237,627.6473
1277.719,628.3275
1278.201,628.2966
1278.683,626.7408
1279.165,624.9517
1279.647,622.704
1280.129,621.1837
1280.611,622.5794
1281.094,625.2841
1281.576,625.5081
1282.058,623.6588
1282.54,622.6931
1283.022,624.2213
1283.504,624.9613
1283.986,624.3847
1284.468,623.6874
1284.95,624.4473
1285.433,625.5348
1285.915,625.3834
1286.397,624.2109
1286.879,623.0574
1287.361,621.9708
1287.843,621.1253
1288.325,620.5392
1288.807,620.2479
1289.29,620.2562
1289.772,620.6
1290.254,621.7701
1290.736,623.1558
1291.218,623.376
1291.7,622.3412
1292.182,621.1172
1292.664,619.7765
1293.146,618.9988
1293.629,619.4391
1294.111,620.3835
1294.593,622.1654
1295.075,623.6956
1295.557,623.0643
1296.039,620.6896
1296.521,620.257
1297.003,621.7361
1297.486,623.1854
1297.968,624.123
1298.45,624.1193
1298.932,622.6999
1299.414,621.1096
1299.896,620.9647
1300.378,621.6957
1300.86,621.5217
1301.343,620.6946
1301.825,620.5626
