Wavenumber (cm⁻¹),Intensity
200.0,23.9928377162415
201.00097751710655,22.26961310147461
202.0019550342131,20.597999724782596
203.00293255131965,19.135184293967903
204.0039100684262,17.89939907076467
205.00488758553274,16.830776375092434
206.0058651026393,16.14977020655573
207.00684261974584,15.613909806441074
208.0078201368524,15.172877892999495
209.00879765395894,14.844062041149392
210.00977517106548,14.583402445502053
211.01075268817203,14.49073814733034
212.01173020527858,14.426661276581381
213.01270772238513,14.354207985925457
214.01368523949168,14.34606348400398
215.01466275659823,14.347911323109246
216.01564027370478,14.55139952003727
217.01661779081132,14.661693485731517
218.01759530791787,14.486327260281723
219.01857282502445,14.447714553406884
220.019550342131,14.607158727185947
221.02052785923755,14.551363862025923
222.0215053763441,14.368807130140759
223.02248289345064,14.547392612026258
224.0234604105572,14.514816372225376
225.02443792766374,14.698938915323012
226.0254154447703,14.866277103397064
227.02639296187684,14.785932001245772
228.02737047898339,14.859999136518447
229.02834799608993,14.96827411773101
230.02932551319648,15.178845267843942
231.03030303030303,15.361443512788117
232.03128054740958,15.281986603628773
233.03225806451613,15.278653880870653
234.03323558162268,15.584890285254128
235.03421309872923,15.85197609737141
236.03519061583577,15.855048355374612
237.03616813294232,16.045382442391677
238.03714565004887,16.327467638005604
239.03812316715542,16.4314593785619
240.03910068426197,16.465686620051613
241.04007820136852,16.762687943213574
242.04105571847506,17.112816053738495
243.0420332355816,17.36233089871353
244.0430107526882,17.62565231786116
245.04398826979474,18.024148913982764
246.0449657869013,18.552799720743586
247.04594330400784,18.9235580142108
248.04692082111438,19.354470923324836
249.04789833822093,19.998068351605276
250.04887585532748,20.862957118686726
251.04985337243403,21.409185826719735
252.05083088954058,21.92647147321419
253.05180840664713,22.74829596927788
254.05278592375367,23.86918610066785
255.05376344086022,24.837076170941206
256.05474095796677,25.714187074346665
257.0557184750733,26.867132470222856
258.05669599217987,28.156113572879743
259.0576735092864,29.3049961130972
260.05865102639297,30.415780290006907
261.0596285434995,31.728361695195467
262.06060606060606,33.356207610265656
263.0615835777126,34.97299120331933
264.06256109481916,36.040185887327404
265.0635386119257,37.15689444427613
266.06451612903226,38.067543973944616
267.0654936461388,38.98885103490492
268.06647116324535,40.00902103724885
269.0674486803519,40.648946570940545
270.06842619745845,40.57029842645497
271.069403714565,40.68604542387157
272.07038123167155,41.1924079976593
273.0713587487781,41.816828431595
274.07233626588464,42.86784368426015
275.0733137829912,43.98134074632275
276.07429130009774,45.156433629214256
277.0752688172043,46.39354032561398
278.07624633431084,47.541887480268215
279.0772238514174,48.452780550699714
280.07820136852393,49.57058389733088
281.0791788856305,50.144518218181574
282.08015640273703,49.698563677256374
283.0811339198436,49.198178365015984
284.08211143695013,47.755606987373866
285.0830889540567,45.61075869498227
286.0840664711632,42.977184417610964
287.0850439882698,39.96957183066398
288.0860215053764,37.29832712784336
289.0869990224829,34.2997743893153
290.0879765395895,31.453865277795458
291.088954056696,29.009040975754996
292.0899315738026,26.692638437274287
293.0909090909091,24.812004444758674
294.09188660801567,23.360748466500457
295.0928641251222,21.83242144946861
296.09384164222877,20.27235729608545
297.0948191593353,19.557940930743868
298.09579667644186,18.520480069407505
299.0967741935484,17.508453957484353
300.09775171065496,16.813699687652765
301.0987292277615,16.34053228465071
302.09970674486806,15.606827743875487
303.1006842619746,14.993043419107869
304.10166177908116,14.638121642812694
305.1026392961877,14.413190386328058
306.10361681329425,14.125279980755826
307.1045943304008,14.032015774133326
308.10557184750735,13.689997900939114
309.1065493646139,13.284185496472638
310.10752688172045,13.035959266359315
311.108504398827,12.87172739800839
312.10948191593354,12.681075401308176
313.1104594330401,12.638892125125436
314.11143695014664,12.6212740557349
315.1124144672532,12.481290361097365
316.11339198435974,12.27973481883086
317.1143695014663,12.393361047135544
318.11534701857283,12.368967833648936
319.1163245356794,12.217177844679203
320.11730205278593,12.244998713375804
321.1182795698925,12.516628058248743
322.119257086999,12.31088140607959
323.1202346041056,12.206346972063207
324.1212121212121,12.351806643284117
325.1221896383187,12.389439660292021
326.1231671554252,12.595381384053516
327.12414467253177,12.660930714376233
328.1251221896383,12.666068574576528
329.12609970674487,12.705037021991398
330.1270772238514,12.775325608105465
331.12805474095796,12.808973145448139
332.1290322580645,12.869420818796797
333.13000977517106,12.862976312771409
334.1309872922776,12.675227667208743
335.13196480938416,12.31827167857389
336.1329423264907,12.35017354918598
337.13391984359725,12.265318593875499
338.1348973607038,12.228446774236124
339.13587487781035,12.460585400618786
340.1368523949169,12.309639031244465
341.13782991202345,12.167212140616474
342.13880742913,12.210073580427593
343.13978494623655,12.30531956547631
344.1407624633431,12.293880008327447
345.14173998044964,12.451335928794334
346.1427174975562,12.436306208965217
347.14369501466274,12.39888206392974
348.1446725317693,12.461360016894155
349.14565004887584,12.601216879275118
350.1466275659824,12.848022854757504
351.14760508308893,12.998293028431535
352.1485826001955,13.009236646252559
353.14956011730203,12.977830152144728
354.1505376344086,13.057944456500895
355.1515151515151,13.277694319046084
356.1524926686217,13.495336349463269
357.1534701857282,13.624499212423668
358.1544477028348,13.676321411556195
359.1554252199413,13.776809062021533
360.15640273704787,14.250319626084487
361.1573802541544,14.43503825094391
362.15835777126097,14.258222099885593
363.1593352883675,14.064351552881812
364.16031280547406,14.253899489014637
365.1612903225806,14.664822352610544
366.16226783968716,14.714206829974058
367.1632453567937,14.497408634205236
368.16422287390026,14.292292540662462
369.1652003910068,14.27597102041553
370.16617790811335,14.203884763829558
371.1671554252199,14.208822421608541
372.16813294232645,14.214685084976674
373.169110459433,14.073759556704827
374.17008797653955,13.747399696543912
375.1710654936461,13.694440363463611
376.1720430107527,13.393475056908283
377.17302052785925,13.056663077901483
378.1739980449658,13.034995323644134
379.17497556207235,13.06736299296435
380.1759530791789,13.058857179289449
381.17693059628544,12.849528921726238
382.177908113392,12.656809968884096
383.17888563049854,12.723261343512327
384.1798631476051,12.905701274505097
385.18084066471164,12.979282528510916
386.1818181818182,12.953360990535803
387.18279569892474,13.054050509196987
388.1837732160313,13.30269615299674
389.18475073313783,13.298867864212292
390.1857282502444,13.562956260122142
391.18670576735093,13.858214755635926
392.1876832844575,14.045904204118221
393.188660801564,14.218478747310101
394.1896383186706,14.609065051786501
395.1906158357771,15.063698422134102
396.1915933528837,15.448453486045794
397.1925708699902,15.779491303927136
398.19354838709677,16.09775611136761
399.1945259042033,16.354141671513702
400.19550342130987,16.990260279141754
401.1964809384164,17.3946439558846
402.19745845552296,17.75176018400072
403.1984359726295,18.29626241609949
404.19941348973606,18.350255099051147
405.2003910068426,18.357114179865988
406.20136852394916,18.026947128571376
407.2023460410557,17.52216366913815
408.20332355816225,17.160853135836764
409.20430107526886,16.9541370060198
410.2052785923754,16.435868271887205
411.20625610948196,15.711382952057035
412.2072336265885,15.130628718854435
413.20821114369505,14.68749144074583
414.2091886608016,13.857347040994256
415.21016617790815,13.253946661084608
416.2111436950147,12.837001010881627
417.21212121212125,12.489743395561074
418.2130987292278,12.247044826458772
419.21407624633434,12.248356968650704
420.2150537634409,11.967671663086888
421.21603128054744,11.884127284264084
422.217008797654,11.942546461448904
423.21798631476054,11.929037945543307
424.2189638318671,11.816223754002204
425.21994134897363,11.982834052285913
426.2209188660802,12.055862601653365
427.22189638318673,12.168194739784223
428.2228739002933,12.45128476552668
429.2238514173998,12.765603306134798
430.2248289345064,12.943106881513659
431.2258064516129,13.444615304748725
432.2267839687195,13.919850568385344
433.227761485826,14.225310210680194
434.22873900293257,14.712717061919363
435.2297165200391,15.223493044630224
436.23069403714567,15.799503840308077
437.2316715542522,16.724047265488693
438.23264907135876,17.74795779416099
439.2336265884653,18.43533728906995
440.23460410557186,19.476952049622874
441.2355816226784,20.598882216786198
442.23655913978496,21.665475501736346
443.2375366568915,22.803400736824027
444.23851417399806,24.16453312735323
445.2394916911046,25.67427794725868
446.24046920821115,27.27069393576245
447.2414467253177,29.07505327915024
448.24242424242425,30.873224752754684
449.2434017595308,32.43246311490965
450.24437927663735,34.078546119078695
451.2453567937439,35.75193741783819
452.24633431085044,37.40317779414475
453.247311827957,38.516935590996475
454.24828934506354,38.883025906595925
455.2492668621701,39.14815583732826
456.25024437927664,39.187198002528326
457.2512218963832,38.5900950461497
458.25219941348973,37.59838078921579
459.2531769305963,36.69830984258752
460.25415444770283,36.22018122597192
461.2551319648094,35.59965292561684
462.2561094819159,34.86992738184382
463.2570869990225,34.497082808979854
464.258064516129,34.451021123244416
465.2590420332356,34.47558260882101
466.2600195503421,35.456188343369035
467.26099706744867,36.26358370801374
468.2619745845552,37.41610335510797
469.26295210166177,39.081127866251066
470.2639296187683,40.83354397598845
471.26490713587486,42.17288012761049
472.2658846529814,44.13835162437348
473.26686217008796,45.85561279019911
474.2678396871945,47.24845637366905
475.26881720430106,48.35329902746274
476.2697947214076,48.40999346165122
477.27077223851416,47.037119604266856
478.2717497556207,44.71828931056352
479.27272727272725,41.56128644017955
480.2737047898338,38.3769196773201
481.27468230694035,36.330037056986235
482.2756598240469,34.19477597100783
483.27663734115345,32.44760573656355
484.27761485826,31.06423828263368
485.27859237536654,30.111247077576667
486.2795698924731,29.645985073056305
487.28054740957964,28.585951684634473
488.2815249266862,28.100222100220144
489.2825024437928,28.009123040769623
490.28347996089934,28.1681743217692
491.2844574780059,28.579892182442308
492.28543499511244,29.238241377688844
493.286412512219,30.433993004546185
494.28739002932554,32.35451608798505
495.2883675464321,34.71665467136395
496.28934506353863,37.581267444495474
497.2903225806452,41.323753556282675
498.29130009775173,45.09619246058148
499.2922776148583,49.48224802574382
500.2932551319648,53.73449337692322
501.2942326490714,58.35807413896074
502.2952101661779,64.4149952355772
503.2961876832845,70.82372207769538
504.297165200391,77.80680838596949
505.29814271749757,86.29219551819978
506.2991202346041,95.89696216305032
507.30009775171067,106.19301033893157
508.3010752688172,117.77686372985856
509.30205278592376,128.9528044198132
510.3030303030303,139.61722614382808
511.30400782013686,148.50016800619548
512.3049853372434,154.06533429387906
513.3059628543499,154.75432705457555
514.3069403714564,149.42052910951116
515.307917888563,138.75038259003784
516.3088954056695,123.29618974631087
517.3098729227761,106.52142689110924
518.3108504398826,91.2947644115103
519.3118279569892,76.75610436513246
520.3128054740957,65.00193949613607
521.3137829912023,56.250970319977306
522.3147605083088,48.95218542369328
523.3157380254154,42.53574725066686
524.3167155425219,37.84753015720614
525.3176930596285,33.95288135254834
526.318670576735,31.188263765960713
527.3196480938416,28.900513582694686
528.3206256109481,26.70515689383568
529.3216031280547,24.72269423992282
530.3225806451612,23.200466708085024
531.3235581622678,21.850954013817944
532.3245356793743,20.675524376546065
533.3255131964809,19.666585245617192
534.3264907135874,18.852760378855336
535.327468230694,18.277342704868104
536.3284457478005,17.803135890139746
537.3294232649071,17.174375235829828
538.3304007820136,16.63171529107038
539.3313782991202,16.292499953307903
540.3323558162267,15.978047692120871
541.3333333333333,15.28538696397709
542.3343108504398,15.098535086909006
543.3352883675464,14.802207288394742
544.3362658846529,14.46516887808776
545.3372434017595,14.146993425117795
546.338220918866,13.657374409597752
547.3391984359725,13.458325141178337
548.3401759530791,13.400399110903486
549.3411534701856,13.2059704099327
550.3421309872922,13.031429084556548
551.3431085043987,12.978117313896153
552.3440860215054,12.653299604367069
553.345063538612,12.422109626110343
554.3460410557185,12.284428981727666
555.347018572825,12.367596197198985
556.3479960899316,12.437613033405285
557.3489736070381,12.20924848745195
558.3499511241447,12.169008367388308
559.3509286412512,11.953671608314712
560.3519061583578,12.133382271769232
561.3528836754643,12.26232990466724
562.3538611925709,12.088798647954542
563.3548387096774,12.176520198928078
564.355816226784,12.272214271611878
565.3567937438905,12.198406230188345
566.3577712609971,12.164293413046996
567.3587487781036,12.256700283131215
568.3597262952102,12.330392109036243
569.3607038123167,12.201811238671485
570.3616813294233,12.501131410412624
571.3626588465298,12.585085678064544
572.3636363636364,12.655752927114367
573.3646138807429,12.87881506622927
574.3655913978495,13.002254346106751
575.366568914956,12.918933851628227
576.3675464320626,12.977630463376768
577.3685239491691,13.17446817056893
578.3695014662757,13.321289097028458
579.3704789833822,13.32932856909217
580.3714565004888,13.311780244411718
581.3724340175953,13.326825982690588
582.3734115347019,13.30287584865456
583.3743890518084,13.23518986002304
584.375366568915,13.051268092837969
585.3763440860215,12.79374670070235
586.377321603128,12.694078943713793
587.3782991202346,12.531415914124485
588.3792766373411,12.227717712942507
589.3802541544477,12.076541348969553
590.3812316715542,12.010012840973724
591.3822091886608,11.784694350117391
592.3831867057673,11.72647901342738
593.3841642228739,11.73189084668067
594.3851417399804,11.692930369270721
595.386119257087,11.681642540461949
596.3870967741935,11.680245140748475
597.3880742913001,11.575120179724463
598.3890518084066,11.492490969714405
599.3900293255132,11.431042966810043
600.3910068426197,11.265419663651805
601.3919843597263,11.338151079761086
602.3929618768328,11.512336489497013
603.3939393939394,10.995069046972525
604.3949169110459,11.129938831949174
605.3958944281525,11.18311168783201
606.396871945259,11.203494433039063
607.3978494623656,11.158042448338698
608.3988269794721,11.019620938410341
609.3998044965787,10.999371012098218
610.4007820136852,11.141402646587512
611.4017595307918,11.205945771560273
612.4027370478983,11.249496438670585
613.4037145650049,11.22016368799504
614.4046920821114,11.125654362694737
615.405669599218,11.25810570739005
616.4066471163245,11.15128149333632
617.4076246334312,11.189875270033783
618.4086021505377,11.23519459885917
619.4095796676443,11.252594891740138
620.4105571847508,11.32419575697964
621.4115347018574,11.337433703883672
622.4125122189639,11.276082703129815
623.4134897360705,11.291905960190059
624.414467253177,11.457934593511439
625.4154447702836,11.523311958939399
626.4164222873901,11.369042884003933
627.4173998044967,11.544137948217546
628.4183773216032,11.793976636130692
629.4193548387098,11.574764973402612
630.4203323558163,11.328636846496561
631.4213098729228,11.425359296094422
632.4222873900294,11.622544174545498
633.423264907136,11.339634829267023
634.4242424242425,11.180080211197222
635.425219941349,11.206448201064386
636.4261974584556,11.341838719511406
637.4271749755621,11.403249841677098
638.4281524926687,11.24334058090793
639.4291300097752,11.06338357725436
640.4301075268818,11.250572627460976
641.4310850439883,11.285525080339491
642.4320625610949,11.34991063554835
643.4330400782014,11.443149578280739
644.434017595308,11.377671831828964
645.4349951124145,11.58888995864867
646.4359726295211,11.698300816592777
647.4369501466276,11.772374151536646
648.4379276637342,11.778369257184321
649.4389051808407,11.77985179363136
650.4398826979473,11.90428841290105
651.4408602150538,12.00645397818237
652.4418377321604,11.731490775458361
653.4428152492669,11.690076089891036
654.4437927663735,11.706181726944857
655.44477028348,11.628011462702982
656.4457478005866,11.52643335719032
657.4467253176931,11.274306577629682
658.4477028347997,11.4127413015029
659.4486803519062,11.340586372724152
660.4496578690128,10.994346782598015
661.4506353861193,10.758294984155143
662.4516129032259,10.824514252832032
663.4525904203324,10.722480399997318
664.453567937439,10.658524700681259
665.4545454545455,10.550983258848593
666.455522971652,10.553720029668185
667.4565004887586,10.4818028060256
668.4574780058651,10.228201432387985
669.4584555229717,10.245794246357827
670.4594330400782,10.14226628052511
671.4604105571848,10.241575157452038
672.4613880742913,10.262680620673681
673.4623655913979,10.203187086717241
674.4633431085044,10.132075894373397
675.464320625611,9.914170000473852
676.4652981427175,9.89439957673266
677.4662756598241,9.800144894032153
678.4672531769306,9.550246629075945
679.4682306940372,9.5541931570328
680.4692082111437,9.8359823372501
681.4701857282503,9.884677397404399
682.4711632453568,9.779251742679412
683.4721407624634,9.52287303136753
684.4731182795699,9.481778191712785
685.4740957966765,9.596280523625563
686.475073313783,9.654061677205846
687.4760508308896,9.61876851899893
688.4770283479961,9.670547823915735
689.4780058651027,9.631079191767931
690.4789833822092,9.761061274991315
691.4799608993158,9.772901755937843
692.4809384164223,9.620914944545522
693.4819159335289,9.55025933711039
694.4828934506354,9.580913995054425
695.483870967742,9.62103585846197
696.4848484848485,9.722217001369984
697.485826001955,9.89655419117891
698.4868035190616,9.952943783003974
699.4877810361681,9.889726868121953
700.4887585532747,10.033437132944963
701.4897360703812,9.938200806797727
702.4907135874878,10.139019840317244
703.4916911045943,10.175684417481113
704.4926686217009,10.281254390907073
705.4936461388074,10.495249827006637
706.494623655914,10.438854680731477
707.4956011730205,10.659659056522623
708.4965786901271,10.638715379886344
709.4975562072336,10.664598752298057
710.4985337243402,10.743205157354705
711.4995112414467,10.917315371477784
712.5004887585533,11.18167508087073
713.5014662756598,11.285028835081855
714.5024437927664,11.471786207022753
715.5034213098729,11.471977008256278
716.5043988269795,11.579281116541091
717.505376344086,11.625775995253738
718.5063538611926,11.589321216190653
719.5073313782991,11.839056561524275
720.5083088954057,11.793482369531066
721.5092864125122,11.954941549670727
722.5102639296188,12.143169839138512
723.5112414467253,12.199182275757556
724.5122189638319,12.301935954036201
725.5131964809384,12.639221881011768
726.514173998045,12.781606787073006
727.5151515151515,12.870976954234314
728.516129032258,13.060182405939065
729.5171065493646,13.370405661871938
730.5180840664711,13.688843315871443
731.5190615835777,13.978095342736232
732.5200391006842,14.34676053330746
733.5210166177908,14.879140450797404
734.5219941348973,15.149336510860056
735.5229716520039,15.700825046508088
736.5239491691104,16.182348918301596
737.524926686217,16.51703998193388
738.5259042033235,17.039605595687412
739.5268817204301,17.485061267104246
740.5278592375366,17.797208817490198
741.5288367546432,18.21943321748073
