Wavenumber (cm⁻¹),Intensity
200.0,44.357
201.00097751710655,39.93468132942327
202.0019550342131,35.51236265884654
203.00293255131965,31.090043988269805
204.0039100684262,26.667725317693076
205.00488758553274,22.245406647116344
206.0058651026393,17.823087976539615
207.00684261974584,13.400769305962882
208.0078201368524,8.97845063538615
209.00879765395894,4.55613196480942
210.00977517106548,0.220597262952062
211.01075268817203,4.6892903225805975
212.01173020527858,9.516715542521979
213.01270772238513,10.918353861192578
214.01368523949168,10.390764418377332
215.01466275659823,9.555486803519084
216.01564027370478,7.814020527859262
217.01661779081132,6.1552013685239135
218.01759530791787,8.52660703812312
219.01857282502445,11.443121212121234
220.019550342131,13.316556207233635
221.02052785923755,14.219806451612913
222.0215053763441,15.363161290322603
223.02248289345064,17.930488758553295
224.0234604105572,20.505472140762485
225.02443792766374,23.730602150537653
226.0254154447703,27.208369501466308
227.02639296187684,32.825527859237575
228.02737047898339,41.721637341153496
229.02834799608993,50.77535972629524
230.02932551319648,63.49978592375369
231.03030303030303,76.29584848484849
232.03128054740958,91.41827272727274
233.03225806451613,107.40790322580645
234.03323558162268,119.6267008797654
235.03421309872923,122.68004398826979
236.03519061583577,124.92389149560121
237.03616813294232,112.37879081133927
238.03714565004887,98.29244086021514
239.03812316715542,82.15029325513207
240.03910068426197,64.38255913978506
241.04007820136852,48.16553079178894
242.04105571847506,38.07434017595317
243.0420332355816,28.401198435972688
244.0430107526882,22.60436559139776
245.04398826979474,17.571090909090838
246.0449657869013,13.267362658846476
247.04594330400784,9.835613880742866
248.04692082111438,6.733099706744856
249.04789833822093,5.839322580645149
250.04887585532748,4.932446725317678
251.04985337243403,3.727692082111422
252.05083088954058,2.440505376344077
253.05180840664713,1.6452385141739978
254.05278592375367,1.6107829912023457
255.05376344086022,1.523795698924724
256.05474095796677,0.6650273704789798
257.0557184750733,0.18406158357771282
258.05669599217987,0.2170156402737046
259.0576735092864,0.19265102639296253
260.05865102639297,0.32068621700879685
261.0596285434995,0.1332365591397861
262.06060606060606,0.5736666666666674
263.0615835777126,1.014035190615836
264.06256109481916,1.4058553274682306
265.0635386119257,1.0506275659824056
266.06451612903226,0.29096774193548314
267.0654936461388,0.7651114369501433
268.06647116324535,2.035551319648089
269.0674486803519,3.2576011730205257
270.06842619745845,3.7649442815249246
271.069403714565,4.172394916911045
272.07038123167155,4.3520703812316714
273.0713587487781,4.335231671554254
274.07233626588464,4.011771260997079
275.0733137829912,2.735671554252212
276.07429130009774,1.461352883675478
277.0752688172043,0.3352903225806369
278.07624633431084,1.0376539589442737
279.0772238514174,1.614227761485826
280.07820136852393,1.5988220918866092
281.0791788856305,1.4912404692082177
282.08015640273703,1.051651026392969
283.0811339198436,0.6383734115347035
284.08211143695013,0.5506041055718478
285.0830889540567,0.49802541544477863
286.0840664711632,0.19928641251219345
287.0850439882698,1.5104222873900002
288.0860215053764,2.9914623655914743
289.0869990224829,5.149569892473193
290.0879765395895,7.278029325513258
291.088954056696,9.091157380254211
292.0899315738026,10.843567937438966
293.0909090909091,12.79681818181825
294.09188660801567,14.95005962854356
295.0928641251222,16.86109188660804
296.09384164222877,17.746049853372458
297.0948191593353,18.536526881720427
298.09579667644186,18.388872922776137
299.0967741935484,17.971999999999984
300.09775171065496,17.359452590420315
301.0987292277615,16.539682306940353
302.09970674486806,15.80401466275659
303.1006842619746,15.412833822091878
304.10166177908116,14.989498533724325
305.1026392961877,14.25645161290321
306.10361681329425,13.501857282502439
307.1045943304008,13.342786901270781
308.10557184750735,13.819357771261005
309.1065493646139,14.297143695014672
310.10752688172045,14.777612903225815
311.108504398827,15.295299120234617
312.10948191593354,16.128956989247325
313.1104594330401,17.160267839687222
314.11143695014664,19.262005865102676
315.1124144672532,22.34066959921802
316.11339198435974,25.285592375366598
317.1143695014663,27.87652492668624
318.11534701857283,30.48479863147608
319.1163245356794,33.818391006842646
320.11730205278593,37.38128445747804
321.1182795698925,41.583494623655945
322.119257086999,46.420925708699926
323.1202346041056,51.90036950146631
324.1212121212121,59.27981818181821
325.1221896383187,66.79506842619749
326.1231671554252,75.2989824046921
327.12414467253177,84.31675268817206
328.1251221896383,96.03106744868035
329.12609970674487,110.09850146627565
330.1270772238514,126.356917888563
331.12805474095796,148.00205571847502
332.1290322580645,171.08396774193537
333.13000977517106,204.0559638318669
334.1309872922776,238.63095112414447
335.13196480938416,276.09479472140737
336.1329423264907,315.1441163245354
337.13391984359725,350.8495415444768
338.1348973607038,379.8768885630496
339.13587487781035,404.81249951124147
340.1368523949169,403.4428220918866
341.13782991202345,398.10937829912046
342.13880742913,376.57710068426235
343.13978494623655,345.99946236559185
344.1407624633431,312.69662756598296
345.14173998044964,275.06252199413547
346.1427174975562,238.51793743890568
347.14369501466274,208.24666275659877
348.1446725317693,178.93570283480003
349.14565004887584,155.71852883675504
350.1466275659824,135.46110557184787
351.14760508308893,118.8621114369504
352.1485826001955,106.83135483870993
353.14956011730203,95.69970381231688
354.1505376344086,87.95444086021523
355.1515151515151,80.4145151515153
356.1524926686217,74.07558651026407
357.1534701857282,68.16079569892487
358.1544477028348,62.87163245356806
359.1554252199413,58.17522580645174
360.15640273704787,53.595847507331506
361.1573802541544,49.319986314760634
362.15835777126097,45.1645806451614
363.1593352883675,41.65946334310861
364.16031280547406,38.404714565004966
365.1612903225806,36.07774193548393
366.16226783968716,34.44748191593357
367.1632453567937,33.28139491691106
368.16422287390026,32.920401759530804
369.1652003910068,32.61728641251222
370.16617790811335,32.6478220918866
371.1671554252199,32.71530791788855
372.16813294232645,33.033509286412496
373.169110459433,33.61232258064512
374.17008797653955,34.957589442815156
375.1710654936461,37.20473802541535
376.1720430107527,39.067838709677424
377.17302052785925,39.59687390029327
378.1739980449658,40.12839296187684
379.17497556207235,40.660261974584564
380.1759530791789,41.08099706744868
381.17693059628544,40.855055718475064
382.177908113392,40.11125513196481
383.17888563049854,39.63588856304985
384.1798631476051,39.736346041055725
385.18084066471164,39.90409090909091
386.1818181818182,40.37136363636363
387.18279569892474,40.99580645161291
388.1837732160313,42.38024046920822
389.18475073313783,44.26342815249267
390.1857282502444,46.68697262952102
391.18670576735093,49.852898338220925
392.1876832844575,53.210489736070386
393.188660801564,57.252510263929615
394.1896383186706,61.3042248289345
395.1906158357771,65.35994721407624
396.1915933528837,69.26180449657868
397.1925708699902,72.32414956011729
398.19354838709677,74.58629032258064
399.1945259042033,76.31535386119258
400.19550342130987,76.9077605083089
401.1964809384164,77.18116129032258
402.19745845552296,76.13519648093842
403.1984359726295,74.84491202346042
404.19941348973606,73.04141642228741
405.2003910068426,70.9962492668622
406.20136852394916,69.13216520039103
407.2023460410557,67.5101143695015
408.20332355816225,66.1034907135875
409.20430107526886,65.34795698924728
410.2052785923754,64.52198826979468
411.20625610948196,63.40114271749751
412.2072336265885,62.01980938416414
413.20821114369505,59.74098533724329
414.2091886608016,56.789102639296075
415.21016617790815,53.83700977517096
416.2111436950147,50.88433724340165
417.21212121212125,47.75193939393926
418.2130987292278,43.94204496578678
419.21407624633434,40.3704750733137
420.2150537634409,37.875053763440796
421.21603128054744,35.763417399804425
422.217008797654,33.44930791788849
423.21798631476054,30.93685434995105
424.2189638318671,28.424400782013613
425.21994134897363,25.91216715542515
426.2209188660802,23.745127077223824
427.22189638318673,22.83990909090907
428.2228739002933,22.337222873900302
429.2238514173998,22.831552297165224
430.2248289345064,23.957646138807462
431.2258064516129,25.637967741935537
432.2267839687195,28.021052785923807
433.227761485826,30.888010752688256
434.22873900293257,35.006489736070456
435.2297165200391,39.12697262952109
436.23069403714567,43.24945943304015
437.2316715542522,46.97524340175957
438.23264907135876,49.05916324535681
439.2336265884653,49.723944281524915
440.23460410557186,48.31289442815243
441.2355816226784,44.02541251221891
442.23655913978496,39.626440860215
443.2375366568915,34.90182697947209
444.23851417399806,30.258307917888516
445.2394916911046,25.897975562072293
446.24046920821115,21.833580645161263
447.2414467253177,18.671693059628524
448.24242424242425,16.221878787878772
449.2434017595308,14.130266862170078
450.24437927663735,12.585453567937432
451.2453567937439,11.402872922776147
452.24633431085044,11.212718475073313
453.247311827957,11.020978494623655
454.24828934506354,10.848515151515151
455.2492668621701,10.748202346041055
456.25024437927664,10.86706842619746
457.2512218963832,11.091319648093842
458.25219941348973,10.975870967741937
459.2531769305963,10.341169110459434
460.25415444770283,10.003476050830887
461.2551319648094,10.601589442815246
462.2561094819159,10.867137829912028
463.2570869990225,10.03392277614859
464.258064516129,8.97029032258065
465.2590420332356,8.347913978494626
466.2600195503421,8.061894428152495
467.26099706744867,7.776354838709681
468.2619745845552,7.490337243401763
469.26295210166177,7.0885708699902334
470.2639296187683,6.359595307917898
471.26490713587486,5.718361681329429
472.2658846529814,5.3530205278592415
473.26686217008796,4.950390029325525
474.2678396871945,4.0996275659824235
475.26881720430106,3.0556344086021623
476.2697947214076,2.7135425219941234
477.27077223851416,3.3367741935483752
478.2717497556207,3.8521544477028304
479.27272727272725,4.067454545454541
480.2737047898338,4.283478005865098
481.27468230694035,4.495331378299116
482.2756598240469,4.717607038123162
483.27663734115345,4.9583294232649004
484.27761485826,5.194466275659819
485.27859237536654,5.394703812316711
486.2795698924731,5.580795698924726
487.28054740957964,5.782878787878782
488.2815249266862,5.999246334310844
489.2825024437928,6.105822091886603
490.28347996089934,5.915696969696963
491.2844574780059,5.66603225806451
492.28543499511244,5.4116432062561035
493.286412512219,5.060162267839673
494.28739002932554,4.310064516129006
495.2883675464321,3.2084369501466066
496.28934506353863,2.5843665689149606
497.2903225806452,2.8018387096774235
498.29130009775173,2.661408602150518
499.2922776148583,1.6179266862169879
500.2932551319648,0.6480029325513101
501.2942326490714,0.1849706744867993
502.2952101661779,0.07821212121212512
503.2961876832845,0.3303049853372473
504.297165200391,0.5924516129032296
505.29814271749757,0.8558152492668656
506.2991202346041,1.1137800586510294
507.30009775171067,1.2301808406647095
508.3010752688172,1.0376021505376325
509.30205278592376,0.8549325513196464
510.3030303030303,0.6748484848484833
511.30400782013686,0.4194046920821082
512.3049853372434,0.4543841642228199
513.3059628543499,1.5345219941348427
514.3069403714564,2.611653958944226
515.307917888563,3.6611466275659303
516.3088954056695,4.399821114369493
517.3098729227761,4.57191788856304
518.3108504398826,4.745777126099697
519.3118279569892,4.918322580645151
520.3128054740957,4.997524926686224
521.3137829912023,4.825140762463359
522.3147605083088,4.6059305962854395
523.3157380254154,4.600675464320615
524.3167155425219,4.709715542521995
525.3176930596285,4.4614486803519515
526.318670576735,3.7284144672532227
527.3196480938416,3.138859237536675
528.3206256109481,2.856583577712628
529.3216031280547,2.802002932551292
530.3225806451612,3.2913225806451205
531.3235581622678,3.9964076246333726
532.3245356793743,4.939226783968647
533.3255131964809,6.118741935483775
534.3264907135874,7.706798631475913
535.327468230694,9.62189345063526
536.3284457478005,11.02296480938412
537.3294232649071,11.644571847507287
538.3304007820136,11.986329423264923
539.3313782991202,11.740888563049875
540.3323558162267,11.128243401759626
541.3333333333333,9.731000000000124
542.3343108504398,8.399645161290376
543.3352883675464,7.986993157380241
544.3362658846529,8.011915933528858
545.3372434017595,7.439668621700974
546.338220918866,6.278309872922864
547.3391984359725,5.455989247311852
548.3401759530791,5.169369501466299
549.3411534701856,4.88208895405672
550.3421309872922,4.595150537634432
551.3431085043987,4.09065395894436
552.3440860215054,3.0734731182795363
553.345063538612,1.9542883675464058
554.3460410557185,1.062237536656872
555.347018572825,0.4340283479960794
556.3479960899316,0.42321309872924595
557.3489736070381,1.1362756598240624
558.3499511241447,1.5062580645161252
559.3509286412512,1.3417986314760473
560.3519061583578,1.3229208211143748
561.3528836754643,1.5871006842619806
562.3538611925709,1.7698611925708696
563.3548387096774,1.6992903225806422
564.355816226784,1.5428484848484822
565.3567937438905,1.3880537634408576
566.3577712609971,1.1333695014662688
567.3587487781036,0.6226070381231577
568.3597262952102,0.5723235581622819
569.3607038123167,1.4379472140762544
570.3616813294233,2.0451788856305058
571.3626588465298,2.6517712609970743
572.3636363636364,3.2583636363636423
573.3646138807429,3.743174975562075
574.3655913978495,3.970473118279571
575.366568914956,3.9385337243401737
576.3675464320626,3.438459433040073
577.3685239491691,2.7310430107526846
578.3695014662757,2.234454545454544
579.3704789833822,1.9237810361681318
580.3714565004888,1.6128484848484839
581.3724340175953,1.301800586510263
582.3734115347019,0.9894956011730202
583.3743890518084,0.6768162267839686
584.375366568915,0.3635102639296189
585.3763440860215,0.1597204301075269
586.377321603128,0.160338220918866
587.3782991202346,0.13065982404692122
588.3792766373411,0.06310166177908093
589.3802541544477,0.21692082111436795
590.3812316715542,0.45212316715542467
591.3822091886608,0.3488856304985366
592.3831867057673,0.2889208211143655
593.3841642228739,0.49791495601173286
594.3851417399804,0.19347116324535932
595.386119257087,0.03619745845552268
596.3870967741935,0.10509677419354693
597.3880742913001,0.23722580645161134
598.3890518084066,0.3693548387096757
599.3900293255132,0.5007038123167138
600.3910068426197,0.630830889540565
601.3919843597263,0.6978484848484853
602.3929618768328,0.5489296187683339
603.3939393939394,0.2479393939393983
604.3949169110459,0.14375953079178658
605.3958944281525,0.2694868035190592
606.396871945259,0.39460899315737774
607.3978494623656,0.5189354838709651
608.3988269794721,0.6420557184750706
609.3998044965787,0.7643763440860187
610.4007820136852,0.8842922776148554
611.4017595307918,0.9991935483870941
612.4027370478983,1.0166715542522025
613.4037145650049,0.7956256109482012
614.4046920821114,0.5369589442815275
615.405669599218,0.7033069403714411
616.4066471163245,1.2006050830889419
617.4076246334312,1.3026246334310545
618.4086021505377,0.9407204301074971
619.4095796676443,0.9559071358749234
620.4105571847508,1.5194809384164691
621.4115347018574,2.0956324535679838
622.4125122189639,2.6711945259042493
623.4134897360705,2.9994897360703794
624.414467253177,2.840936461388047
625.4154447702836,2.6750518084066544
626.4164222873901,2.9681935483871404
627.4173998044967,3.5411700879765826
628.4183773216032,4.1138934506354286
629.4193548387098,4.685451612903267
630.4203323558163,5.257009775171107
631.4213098729228,5.828146627566023
632.4222873900294,6.203607038123175
633.423264907136,6.31086608015641
634.4242424242425,6.747030303030364
635.425219941349,7.695677419354909
636.4261974584556,8.86494037145659
637.4271749755621,10.278053763440958
638.4281524926687,11.671046920821196
639.4291300097752,12.829433040078268
640.4301075268818,14.007677419354925
641.4310850439883,15.633064516129155
642.4320625610949,17.67852688172056
643.4330400782014,20.153186705767524
644.434017595308,23.055161290322754
645.4349951124145,26.162233626588662
646.4359726295211,29.515944281525123
647.4369501466276,33.60866568914985
648.4379276637342,38.73210654936491
649.4389051808407,44.429224828934856
650.4398826979473,50.88646041055755
651.4408602150538,58.648602150538125
652.4418377321604,68.54738220918924
653.4428152492669,80.31667155425288
654.4437927663735,94.41290029325592
655.44477028348,110.376157380255
656.4457478005866,127.90790322580737
657.4467253176931,146.3840068426206
658.4477028347997,162.905791788857
659.4486803519062,177.4011260997074
660.4496578690128,187.26827370479003
661.4506353861193,191.60101075268835
662.4516129032259,190.80548387096744
663.4525904203324,182.98264418377283
664.453567937439,172.79482013685188
665.4545454545455,160.3403636363631
666.455522971652,148.11881915933483
667.4565004887586,137.56199120234567
668.4574780058651,128.97387390029297
669.4584555229717,123.38028739002918
670.4594330400782,120.58571847507325
671.4604105571848,121.1989677419356
672.4613880742913,125.06776930596301
673.4623655913979,132.73011827957026
674.4633431085044,144.06042521994175
675.464320625611,158.27846432062617
676.4652981427175,175.68886119257144
677.4662756598241,193.69536656891552
678.4672531769306,212.45136852394972
679.4682306940372,229.6178592375371
680.4692082111437,244.36601173020566
681.4701857282503,253.66957966764429
682.4711632453568,254.6268152492668
683.4721407624634,248.95263343108482
684.4731182795699,235.9915698924727
685.4740957966765,218.02030107526835
686.475073313783,196.8020351906153
687.4760508308896,173.4910459433035
688.4770283479961,150.62631085043944
689.4780058651027,128.50405278592334
690.4789833822092,110.01113978494595
691.4799608993158,95.02406549364586
692.4809384164223,81.34887096774172
693.4819159335289,69.11317986314741
694.4828934506354,58.824996089931446
695.483870967742,50.94945161290312
696.4848484848485,44.264939393939315
697.485826001955,38.75842130987286
698.4868035190616,34.11711730205273
699.4877810361681,30.4379315738025
700.4887585532747,27.397919843597236
701.4897360703812,24.834281524926666
702.4907135874878,22.50422091886606
703.4916911045943,20.165392961876815
704.4926686217009,17.993170087976527
705.4936461388074,16.52927565982404
706.494623655914,15.569430107526877
707.4956011730205,14.144615835777119
708.4965786901271,12.299302052785919
709.4975562072336,10.920716520039099
710.4985337243402,10.008343108504397
711.4995112414467,9.49705083088954
712.5004887585533,9.454509286412513
713.5014662756598,8.936958944281526
714.5024437927664,7.715105571847511
715.5034213098729,6.7873919843597275
716.5043988269795,6.574175953079179
717.505376344086,6.489387096774195
718.5063538611926,6.169774193548389
719.5073313782991,5.741876832844578
720.5083088954057,5.3134271749755655
721.5092864125122,4.8763861192570905
722.5102639296188,4.431422287390033
723.5112414467253,3.993677419354843
724.5122189638319,3.566819159335293
725.5131964809384,3.1598533724340223
726.514173998045,2.9885102639296184
727.5151515151515,3.029696969696969
728.516129032258,3.0772903225806445
729.5171065493646,3.1273724340175946
730.5180840664711,2.9660078201368583
731.5190615835777,2.5739560117302127
732.5200391006842,2.525971652003905
733.5210166177908,2.9425337243401657
734.5219941348973,3.143888563049855
735.5229716520039,2.876782991202355
736.5239491691104,2.590120234604109
737.524926686217,2.539771260997066
738.5259042033235,2.5908211143695006
739.5268817204301,2.6413440860215043
740.5278592375366,2.6042961876832873
741.5288367546432,2.3247155425220054
742.5298142717497,1.9597575757575842
743.5307917888563,1.8400087976539576
