Raman Shift,Intensity
214.3785040343428,-26.556
224.78145843945092,132.78
235.01908334044856,-570.954
245.41130867789616,-278.838
255.63837774522108,61.079
265.8602158678186,347.884
276.23642015571386,576.266
286.44772684514464,1019.751
296.8132434111685,77.012
307.0140349346475,-744.326
317.209615658554,-1063.348
327.399989574551,-1006.863
337.7442627077253,-701.672
347.9241537664129,-274.582
358.09885002992814,147.606
368.2683554736213,438.082
378.5914504125685,470.042
388.7505051753542,209.793
398.90438108190574,416.93
409.0530820913264,3627.552
419.196612158652,647.967
429.3349752349313,-400.996
439.626465572117,-95.602
449.75442592354375,403.652
459.8772311743669,-268.216
469.994885259468,-313.361
480.1073921097559,849.793
490.2147556521086,-45.145
500.31697980943136,18.589
510.41406850063504,-13.278
520.5060256406359,-79.668
530.5928551403995,-419.585
540.6745609068894,-77.012
550.7511468431039,124.813
560.8226168481124,-29.212
570.888974816975,-18.589
580.9502246408374,223.071
590.8492821665859,-395.685
600.9004070215597,223.071
610.9464353206786,1019.751
620.9873709393651,6830.208
631.0232177491416,767.469
641.0539796175653,-326.639
650.9230482019848,82.324
660.9437310766662,90.29
670.9593405290361,-605.477
680.9698804110958,698.423
690.8190579752118,239.004
700.8195493193562,69.046
710.8149825658329,-207.137
720.805361551138,-402.032
730.6347081696804,-466.536
740.6150689503047,-427.334
750.4345613154874,-311.104
760.404918953056,-144.536
770.3702413346182,45.687
780.174941402227,232.886
790.1302832356378,390.373
799.925166080895,443.486
809.8705423523497,239.004
819.6556227125038,29.212
829.5910483782136,164.647
839.3663409610526,254.938
849.2918309472952,-50.456
859.0573504311833,74.357
868.972919634427,204.986
878.7286806683987,267.706
888.6343439553166,276.45
898.3803611591502,245.16
908.12155022542,187.772
918.0124213310264,118.224
927.743888384779,50.456
937.4705381077074,90.29
947.3466501411676,416.93
957.0635996041163,124.813
966.7757425107702,371.784
976.6371284824854,-10.622
986.3395928168538,-185.892
996.0372613373548,-233.693
1005.7301375988682,-650.622
1015.5719657306544,-400.996
1025.255192198514,-525.809
1034.9336371072422,209.793
1044.6073039976543,-21.245
1054.2761964070742,-331.95
1063.9403178693246,-536.432
1073.5996719147442,45.145
1083.4074711432768,-220.415
1093.057225399156,379.751
1102.70222286418,331.95
1112.3424670547538,-204.481
1121.9779614837898,-331.95
1131.6087096607444,-310.705
1141.2347150916105,13.278
1150.855981278939,-292.116
1160.4725117218331,-204.481
1170.0843099159465,151.369
1179.6913793534914,-717.013
1189.293723523253,-92.946
1198.739039559725,-393.029
1208.3320185130287,778.091
1217.9202825891407,61.079
1227.5038352631818,122.158
1237.0826800068826,339.917
1246.6568202885535,520.498
1256.226259573108,45.145
1265.639216696829,-34.523
1275.1993388504195,-23.9
1284.7547703264208,5.311
1294.3055145761757,-470.042
1303.7000868433097,84.979
1313.241541245312,-347.884
1322.778318700337,-350.539
1332.310422646282,0.0
1341.686663866676,-23.9
1351.2095051416618,21.245
1360.727683146746,-37.178
1370.0902294598782,448.797
1379.5991650801443,-382.407
1388.9526223370776,-140.747
1398.4523290278594,-334.606
1407.7967104575073,84.979
1417.287201648047,374.44
1426.7730533080105,-98.257
1436.1038095471376,369.129
1445.5804658554116,-111.535
1454.9021792800197,53.112
1464.369653600741,135.436
1473.6823373500883,-329.295
1482.9905472474493,257.593
1492.444310209452,472.697
1501.7435100404182,-5.311
1511.1881242589734,419.585
1520.4783270994303,63.734
1529.764072276041,154.025
1539.1950247490097,-382.407
1548.4717924494323,-735.602
1557.7441121511074,640.0
1567.1614324998736,695.768
1576.4247941832873,31.867
1585.6837175051332,-90.29
1594.9382056544855,310.705
1604.3374199708342,454.108
1613.5829759239496,-316.017
1622.8241063047317,215.104
1632.0608142900164,679.834
1641.2931030535765,-549.71
1650.6697762525291,90.29
1659.8931649322622,2509.544
1669.1121439444323,496.598
1678.3267164506542,-161.992
1687.53688560953,-220.415
1696.7426545766284,236.349
1705.9440265045123,-185.892
1715.1410045427183,-435.519
1724.3335918377925,172.614
1733.5217915332687,74.357
1742.705606769683,-167.303
1751.8850406845886,-69.046
1761.0600964125188,-260.249
1770.230777085024,313.361
1779.397085830693,223.071
1788.55902577511,276.183
1797.7166000408906,116.846
1806.8698117476447,-167.303
1816.0186640120735,400.996
1825.163159947857,-69.046
1834.1559155330324,95.602
1843.29177827917,478.008
1852.4232939699289,-517.842
1861.550465707216,321.328
1870.673296589972,666.556
1879.644751645923,87.635
1888.758979994156,21.988
1897.8688767172423,21.988
1906.974444902422,21.988
1915.9289277003045,21.988
1925.025917750907,21.988
1934.118588458099,21.988
1943.060390766601,21.988
1952.144501554074,21.988
1961.2243021666216,21.988
1970.153450902042,21.988
1979.224709758193,21.988
1988.1454604369865,21.988
1997.208189584475,21.988
2006.120554048888,21.988
2015.1747655127983,21.988
2024.0787555828572,21.988
2033.12446136566,21.988
2042.0200888391555,21.988
2051.057300920809,21.988
2059.9445775734057,21.988
2068.9733079113576,21.988
2077.852245496608,21.988
2086.8725060258803,21.988
2095.743116275291,21.988
2104.6096010526526,13.278
2113.6172135316083,-100.913
2122.4753884816528,-7.967
2131.329446630596,-331.95
2140.324437642892,366.473
2149.170203423979,-71.701
2158.011861050589,15.934
2166.994257105456,-302.739
2175.8276397748195,-21.245
2184.656922912145,-318.672
2193.48210937062,-241.66
2202.303202000803,-268.216
2211.2647105948345,-92.946
2220.077557114586,254.938
2228.886318388424,-135.436
2237.6909972563008,799.336
2246.4915965555265,448.797
2255.2881191208,-353.195
2264.0805677841927,108.88
2272.8689453751285,-355.851
2281.6532547204406,-79.668
2290.5774032157133,-84.979
2299.353517963282,-398.34
2308.125572976198,278.838
2316.893571070781,50.456
2325.6575150607823,249.627
2334.273835606975,940.083
2343.029746164546,-34.523
2351.781610997117,-273.527
2360.5294329081007,-71.701
2369.273214698267,331.95
2378.0129591658333,-185.892
2386.7486691064114,236.349
2395.48034731306,618.755
2404.2079965762314,-225.726
2412.788641914361,241.66
2421.5083075861257,-326.639
2430.2239526247795,555.021
2438.9355798105607,-135.436
2447.64319192111,-18.589
2456.204142101211,55.768
2464.9037980916983,-191.203
2473.5994472792227,-393.029
2482.148638712344,-74.357
2490.836348166158,600.166
2499.5200590665554,53.112
2508.0575159626023,4774.772
2516.7333034706826,3444.316
2525.405100652257,5491.785
2533.930847154741,719.668
2542.5947372405863,-135.436
2551.112711590584,-185.892
2559.768705390503,10.622
2568.2789182109263,-84.979
2576.927026515033,451.452
2585.5711635713087,10162.989
2594.069721988235,2690.125
2602.5644435408976,207.137
2611.196813145194,-334.606
2619.683804921093,430.208
2628.3083212822166,-53.112
2636.7875938271245,217.759
2645.404267656864,254.938
2653.875831497382,252.282
2662.343576738021,82.324
2670.948539131641,217.759
2679.408591378582,66.39
2687.8648328054915,-270.871
2696.4581076233444,440.83
2704.906671724595,-204.481
2713.351432764532,-493.942
2721.792393310454,50.456
2730.370143142005,90.29
2738.8034471581705,-161.992
2747.232958411034,629.378
2755.658679458633,5.311
2764.220946338093,-148.714
2772.639031576786,159.336
2781.053334313052,-146.058
2789.463857095703,-669.212
2797.8706024712737,-347.884
2806.2735729839987,-84.979
2814.672771175843,-2.656
2823.0681995864725,-90.29
2831.459860753297,345.228
2839.847757211428,201.826
2848.231891493713,-140.747
2856.612266130724,-164.647
2864.988883650767,-629.378
2873.3617465798743,2.656
2881.7308574418275,233.693
2890.096218758139,191.203
2898.457833048058,-183.237
2906.815702828586,-185.892
2915.169830614461,-114.191
2923.5202189181878,-294.772
2931.8668702499926,34.523
2940.209787117892,337.261
2948.41001618022,-69.046
2956.7455337723804,278.838
2965.077324369493,172.614
2973.405390470638,18.589
2981.7297345726547,55.768
2989.9117125592966,323.983
2998.2286820744484,474.992
3006.5419370261297,460.076
3014.8514799023105,336.261
3023.0189130185245,160.574
3031.3211009634906,-9.955
3039.619584242202,-118.302
3047.776149306213,-107.435
3056.067292329164,79.668
3064.2166442633534,369.129
3072.500456765243,361.162
3080.780576892153,316.017
3088.919096831967,406.307
3097.1919010483834,138.091
3105.3232317767324,462.075
3113.588729774354,-169.959
3121.712880813,454.108
3129.9710822664056,-87.635
3138.0880631202745,-313.361
3146.338977686973,385.062
3154.448797844241,-448.797
3162.692435164703,377.095
3170.7951040967964,-138.091
3178.894230970407,265.56
3187.127000956163,209.793
3195.218990740796,485.975
3203.3074454664093,260.249
3211.5293695924192,276.183
3219.610701328027,5603.32
3227.688504985643,111.535
3235.899604670318,286.805
3243.9702993997853,326.639
3252.03747301393,61.079
3260.1011278165533,281.494
3268.297848330192,257.593
3276.354412870096,177.925
3284.407465536773,395.685
3292.4570086259846,130.124
3300.5030444314834,135.436
3308.545575245,236.349
3316.720827896272,-345.228
3324.756296283769,-15.934
3332.788266581294,-2.656
3340.816741072602,-148.714
3348.8417220394404,58.423
3356.8632117615925,29.212
3364.8812125168406,13.49
3372.895726580995,83.428
3380.906756227865,207.854
3388.91430372934,355.601
3396.918371355256,495.496
3404.9189613735507,596.374
3412.9160760501472,627.062
3420.909717649003,556.391
3428.8998884321263,353.195
3436.886590659553,39.834
3444.734546370892,-124.813
3452.714376952972,100.913
3460.690745709508,339.917
3468.663654892749,-116.846
3476.633106752961,4238.341
3484.5991035384795,-127.469
3492.4267178764712,-462.075
3500.385869715596,-146.058
3508.341573175334,278.838
3516.293830496281,-132.78
3524.1079469444667,63.734
3532.0533770164475,119.502
3539.9953676218797,-77.012
3547.7993978646555,-180.581
3555.734574435446,345.228
3563.666318194715,-212.448
3571.460281747888,-74.357
3579.385224652753,-504.564
3587.30674138396,334.606
3595.090657713052,220.415
3603.00538673612,273.527
3610.782634691175,-79.668
3618.6905847266535,47.801
3626.461172873067,-116.846
3634.362352626544,-292.116
3642.1262895150494,-262.905
3650.020707677235,209.793
3657.778001843908,398.34
3665.665667090652,414.577
3673.416327056992,319.586
3681.163701429177,161.756
3689.041282322214,-10.521
3696.782035212709,-148.855
3704.6528847781447,-204.853
3712.3870246721344,-130.124
3720.117889469839,-29.212
3727.845481251112,-188.548
3735.702951367959,671.867
3743.4239470074463,-185.892
3751.141675895298,15.934
3758.989119491133,350.539
3766.700264858686,504.564
3774.408149723422,-50.456
3782.1127761528696,-50.456
3789.814146212797,122.158
3797.644959575024,92.946
3805.339767031168,-647.967
3813.03132434014,66.39
3820.7196335607214,-1327.801
3828.404696749953,-1896.1
3836.086515963114,268.216
3843.76509325378,18.589
3851.4404306737633,509.876
3859.112530273167,74.357
3866.7813941003615,2814.938
3874.4470242019815,371.784
3882.109422622947,-127.469
3889.7685914064414,55.768
3897.4245325939337,387.718
3905.0772482251705,169.959
3912.7267403381848,-1282.656
3920.373010969284,-92.946
3928.016062153074,159.336
3935.655895922435,252.282
3943.292514308545,135.436
3950.925919340858,-114.191
3958.424585178429,116.846
3966.051624900327,159.336
3973.675457311714,-334.606
3981.296084435249,39.834
3988.913508291902,-217.759
3996.396478310664,58.423
4004.007556831755,371.784
4011.615438103967,209.793
4019.220124141517,47.801
4026.690583777876,-520.498
4034.288940385857,-122.158
4041.8841077570687,260.249
4049.3452186808136,254.938
4056.934068499933,-379.751
4064.519735065173,-313.361
4071.971514814119,-212.448
4079.550875675057,-151.369
4086.996462302253,-331.95
4094.5695253181984,114.191
4102.008926541021,-50.456
4109.575699558212,-217.759
4117.008923081237,95.602
4124.569413932906,63.734
4131.996467447912,-446.141
4139.550683954272,212.448
4146.971575140262,-188.548
4154.519525108568,169.959
4161.93426163181,0.0
4169.475952856366,-2.656
4228.011654085007,618.755
4235.396210255021,175.27
4242.907210725418,-2.656
4250.415076793586,-177.925
4257.7904449892885,316.017
4265.292102093408,-21.245
4272.790630641473,108.88
4280.156827999919,100.913
4287.649159161061,310.705
4295.138367597785,-23.9
4302.4954112134365,175.27
4309.978433811593,337.261
4317.329402006981,79.668
4324.8062464273535,-369.129
4332.151146724958,122.158
4339.621820615692,143.403
4346.960660525576,122.158
4354.425171522191,164.647
4361.757958542046,-138.091
4369.216314267462,2.656
4376.543055882612,119.502
4383.9952639471885,-37.178
4391.315967630617,393.029
4398.762035632179,499.253
4406.07670884455,-331.95
4413.516644368407,0.0
4420.825294558097,358.506
4428.130962180556,-302.739
4435.561739780205,66.39
4442.861395497304,228.382
4450.1580741507205,95.602
4457.579710724684,114.191
4464.870388562711,63.734
4472.158094827057,-13.278
4479.570607232323,172.614
4486.852323743988,-257.593
4494.131074158497,53.112
4501.534479210626,363.817
4508.807250907994,-58.423
4516.077061971264,-7.967
4523.3439142079005,-135.436
4530.735219799091,-7.967
4537.996107969229,-108.88
4545.254042757973,-127.469
4552.509025966887,316.017
4559.888261734326,313.361
4567.13729547953,209.793
4574.383383072374,440.83
4581.626526308552,225.726
4588.866726982291,5.311
4596.103986886381,225.726
4603.338307812148,143.403
4610.69653172473,100.913
4617.92492857972,-143.403
4625.150391852971,-193.859
4632.372923329975,594.855
4639.592524794789,-13.278
4646.809198030001,-2.656
4654.022944816745,-316.017
4661.233766934747,-233.693
4668.441666162253,-111.535
4675.646644276094,-10.622
4682.8487030516335,448.797
4690.047844262837,-361.162
4697.244069682201,-185.892
4704.437381080781,-193.859
4711.627780228235,-69.046
4718.815268892759,119.502
4725.999848841122,-265.56
4733.181521838655,-244.315
4740.3602896492885,-13.278
4747.536154035501,408.963
4754.583300303697,270.871
4761.753413983191,37.178
4768.9206294863325,260.249
4776.084948569973,151.369
4783.246372989488,241.66
4790.404904498872,-29.212
4797.435032206777,135.436
4804.5878338284165,-223.071
4811.73774776268,209.793
4818.884775757928,687.79
4826.028919561082,1044.586
4833.044920461813,1258.819
4840.183351639585,1309.129
4847.3189038270575,1174.156
4854.451578765569,832.533
4861.456318765864,262.905
4868.58329482688,-286.805
4875.707398824052,10.622
4882.703723295803,260.249
4889.822138682386,308.05
4896.937687177771,-478.008
4903.925611277555,122.158
4911.035481404608,-310.705
4918.142489800703,-138.091
4925.122028648751,-114.191
4932.223368894192,-855.104
4939.197342363797,61.079
4946.293021236786,-90.29
4953.385846941688,-379.751
4960.35146024984,626.722
4967.43863475923,377.095
4974.398699333346,-225.726
4981.480229398396,-228.382
4988.43475186592,-169.959
4995.510644227063,87.635
5002.459631204903,443.486
5009.529892591847,-39.834
5016.473350686378,53.112
5023.537987818112,-239.004
5030.475923625207,31.867
5037.534943210041,169.959
5044.467363315067,132.78
5051.397052412052,-61.079
5058.447683028528,228.382
5065.371866252855,61.079
5072.416896017057,-193.859
5079.335579928018,278.838
5086.251540943114,135.436
5093.288206657562,-273.527
5100.198678149784,-318.672
5107.106431592307,-18.589
5114.134748143202,318.672
5121.037021830118,138.091
5127.93658230202,-738.257
5134.833431158368,419.585
5141.85065500065,369.129
5148.742037069234,0.0
5155.630712341699,199.17
5162.516682412504,709.046
5169.522839786696,-106.224
5176.403355996677,77.012
5183.281171809234,-13.278
5190.156288813778,305.394
5197.028708598496,228.382
5204.021081907653,-130.124
5210.888063918697,-159.336
5217.752353495271,34.523
5224.613952220541,151.369
5231.472861676462,180.581
5238.329083443728,148.714
5245.182619101804,87.635
5252.033470228904,-300.083
5258.881638402017,239.004
5265.727125196914,71.701
5272.569932188097,717.013
5279.532181775125,-254.938
5286.369586094326,-252.282
5293.204315354014,207.137
5300.036371123795,278.838
5306.865754971979,-82.324
5313.692468465706,-34.523
5320.516513170878,-154.025
5327.216103720151,-265.56
5334.034863128356,326.639
5340.850958410447,-621.411
5347.664391127459,111.535
5354.475162839211,39.834
5361.283275104273,-5.311
5368.088729480027,-29.212
5374.891527522632,523.154
5381.6916707870405,-244.315
5388.489160826968,122.158
5395.162686039381,188.548
5401.954921596684,-233.693
5408.744508555763,-254.938
5415.531448465517,207.137
5422.31574287366,-114.191
5428.976315601984,31.867
5435.7553708175255,276.183
5442.531785139763,-26.556
5449.305560111599,323.983
5456.076697274744,-254.938
5462.724355191152,-292.116
5469.490268392445,5.311
5476.253548375513,276.183
5482.893493883399,485.975
5489.651558992991,-265.56
5496.406995464167,-435.519
5503.039241977291,387.718
5509.789472642318,7.967
5516.5370792381145,167.303
5523.161640139158,-326.639
5529.904049975114,124.813
5536.643840300443,77.012
5543.260728941095,217.759
5549.995331531944,-13.278
5556.607128017575,661.245
5563.336548861262,544.398
5569.943259067753,730.291
5576.667504142417,217.759
5583.269133936614,185.892
5589.988209211173,106.224
5596.58476445092,647.967
5603.298675885118,679.834
5609.890162419251,246.971
5616.598915963696,177.925
5623.185339632037,212.448
5629.888941228186,815.27
5636.470307861637,475.353
5643.16876344182,416.93
5649.745078862296,451.452
5656.438394349752,29.212
5663.009664370256,610.788
5669.578436568787,377.095
5676.264076103718,188.548
5682.827811578958,47.801
5689.3890535265455,228.382
5696.067030305661,517.842
5702.623244186747,172.614
5709.176968824671,-172.614
5715.847296014435,-382.407
5722.39600122282,-252.282
5728.942221462719,207.137
5735.4859581482815,-42.49
5742.146121627004,-98.257
5748.684850350968,337.261
5755.221099782248,-180.581
5761.754871330697,-167.303
5768.404894310675,403.652
5774.933669330552,682.49
5781.459970716278,586.888
5787.983799873429,353.195
5794.505158206499,34.523
5801.142549523138,-308.05
5807.658925557145,42.49
5814.172834999641,568.299
5820.684279250832,209.793
5827.193259709879,1192.365
5833.699777774898,395.685
5840.203834842934,276.183
5846.7054323099655,-600.166
5853.204571570954,-496.598
5859.701254019747,-239.004
5866.195481049195,-50.456
5872.687254051074,47.801
5879.176574416102,337.261
5885.663443533944,339.917
5892.14786279323,-122.158
5898.629833581537,15.934
5905.109357285379,-337.261
5911.586435290243,305.394
5918.061068980562,600.166
5924.533259739736,-268.216
5931.003008950094,-331.95
5937.470317992949,555.021
5943.935188248557,969.295
5950.397621096134,180.581
5956.857617913869,-193.859
5963.315180078898,87.635
5969.7703089673305,385.062
5976.105705888956,342.573
5982.556016527509,39.834
5989.003897986593,491.286
5995.449351638199,87.635
6001.8923788532775,241.66
6008.215900781644,400.996
6014.654123287393,21.245
6021.089923438405,106.224
6027.523302601519,-464.73
6033.954262142564,504.564
6040.265942433929,204.481
6046.692110755517,-209.793
6053.115863521547,-191.203
6059.420472023492,422.241
6065.839441620141,361.162
6072.255999718647,204.481
6078.553548309683,385.062
6084.965331270854,326.639
6091.374706782226,719.668
6097.665207314269,-119.502
6104.06981570238,565.643
6110.472020679961,39.834
6116.755484978421,21.245
6123.152930828903,499.253
6129.431725134898,-995.851
6135.824417162912,2.656
6142.098546680769,119.502
6148.486490183052,-440.83
6154.872039648391,-135.436
6161.139160374798,29.212
6167.519969269015,-71.701
6173.782438208022,345.228
6180.158511808193,-77.012
6186.416334137088,-329.295
6192.787677712448,-249.627
6199.040858600842,122.158
6205.291741972564,169.959
6211.656022022646,74.357
6217.902271670246,310.705
6224.261834810408,7.967
6230.503455884398,-169.959
6236.742785809074,223.071
6243.095304999864,485.975
6249.330014038809,209.793
6255.677829386121,209.793
6261.907922670827,355.851
6268.1357311500615,337.261
6274.476522051649,132.78
6280.699722436162,66.39
6286.920641805642,87.635
6293.139281413962,-151.369
6299.470738832184,-47.801
6305.684780516531,350.539
6311.896546218988,111.535
6318.106037189755,-183.237
6324.428181717434,640.0
6330.633084905065,-459.419
6336.835717129172,2.656
6343.036079636258,233.693
6349.234173671932,246.971
6355.544716640681,-37.178
6361.738235515753,592.199
6367.929489673777,390.373
6374.118480356665,440.83
6380.305208805476,-82.324
6386.489676260331,63.734
6392.671883960451,300.083
6398.851833144166,45.145
6405.143905470883,-71.701
6411.319299566196,650.622
6417.492438877496,-55.768
6423.663324639478,257.593
6429.831958085924,140.747
6435.998340449718,289.461
6442.162472962846,180.581
6448.324356856407,268.216
6454.483993360576,1035.685
6460.641383704664,217.759
6466.79652911704,316.017
6472.949430825232,419.585
6479.100090055821,-21.245
6485.248508034543,-193.859
6491.280888225534,29.212
6497.424868822251,-7.967
6503.5666118162335,616.1
6509.706118429633,-313.361
6515.843389883739,246.971
6521.978427398899,82.324
6528.111232194642,339.917
6534.241805489546,231.037
6540.256680928833,-161.992
6546.382836142315,462.075
6552.506763482961,231.037
6558.628464165849,29.212
6564.747939405184,326.639
6570.751928194237,531.12
6576.866997341494,353.195
6582.979844660076,377.095
6589.090471360658,201.826
6595.0857801617385,-15.934
6601.192010321647,-132.299
6607.296023467985,-146.552
6613.39782080795,-85.449
6619.384468430493,24.249
6625.481878753591,155.783
6631.577076864334,282.397
6637.5572509579,377.331
6643.64806916556,413.83
6649.623946782151,365.133
6655.71038980603,204.481
6661.794626582923,58.423
6667.764048126817,270.871
6673.843916808139,111.535
6679.809053455574,-122.158
6685.884558743659,730.291
6691.957863728712,79.668
6697.916561697035,156.681
6703.985510351609,-47.801
6709.939934962422,701.079
6716.004531971987,-95.602
6721.954687820689,47.801
6728.014937863976,204.481
6733.960829539363,-50.456
6739.904610751524,154.025
6745.95836937274,212.448
6751.897893261092,-400.996
6757.947316561804,21.245
6763.8825876987685,114.191
6769.927680334353,475.353
6775.858703285812,159.336
6781.787623684751,-39.834
6787.826249230238,427.552
6793.750928258974,-276.183
6799.673508107371,74.357
6805.705676935038,79.668
6811.624022213946,-103.568
6817.540271677499,233.693
6823.5659941374615,616.1
6829.478015817709,-377.095
6835.387945040406,-735.602
6841.407231460638,108.88
6847.312939671727,841.826
6853.216558775894,698.423
6859.118089881435,321.328
6865.017534095896,677.179
6871.026143398485,95.602
6876.921377827312,361.162
6882.814528703813,217.759
6888.705597132364,-122.158
6894.594584216582,-154.025
6900.592544785228,-387.718
6906.477333270021,-432.863
6912.360043737404,570.954
6918.240677287846,-446.141
6924.119235021055,207.137
6929.995718035963,164.647
6935.870127430717,1171.12
6941.742464302697,528.465
6947.6127297485,345.228
6953.480924863958,119.502
6959.347050744116,-305.394
6965.21110848328,1394.191
6971.073099174937,8431.536
6976.93302391185,4944.731
6982.79088378598,377.095
6988.64667988853,448.797
6994.500413309928,831.203
7000.35208513985,491.286
7006.201696467178,135.436
7012.049248380063,106.224
7017.894741965851,-201.826
7023.738178311156,13.278
7029.579558501813,204.481
7035.418883622879,244.315
7041.2561547586665,1338.423
7047.091372992727,2923.818
7052.924539407839,5661.743
7058.645653010426,-191.203
7064.474757695687,387.718
7070.301813785409,265.56
7076.126822359336,-45.145
7081.949784496486,-98.257
7087.660891581778,180.581
7093.479802640664,353.195
7099.296670474898,464.73
7105.111496160462,-183.237
7110.814624476749,-74.357
7116.625407570507,435.519
7122.434151718757,284.149
7128.2408579944895,345.228
7133.936024250346,374.44
7139.73869639702,711.701
7145.53933386541,84.979
7151.22854892195,570.954
7157.025158582874,268.216
7162.819736753059,714.357
7168.503009933542,292.116
7174.293566604632,430.208
7180.082094965896,47.801
7185.759435574095,23.9
7191.54394873148,265.56
7197.2173519438,204.481
7202.997854073568,679.834
7208.667323984642,608.133
7214.443819257263,329.295
7220.109359956041,329.295
7225.881852536215,2.656
7231.54346810597,308.05
7237.311962152613,905.56
7242.969656670975,-100.913
7248.734156337254,124.813
7254.387933876205,499.253
7260.148443309525,-201.826
7265.798307935409,77.012
7271.554831277448,228.382
7277.20078705097,313.361
7282.953328437674,783.403
7288.59537941395,34.523
7294.235498085545,921.494
7299.982093204053,316.017
7305.618313131272,-161.992
7311.252603748333,201.826
7316.993261813666,-212.448
7322.623659726734,77.012
7328.252131317968,-63.734
7333.9868615261075,215.104
7339.611446441268,480.664
7345.234108016753,342.573
7350.962919544712,374.44
7356.581700459581,-339.917
7362.198561010817,95.602
7367.813502182726,435.519
7373.426524958988,-103.568
7379.145517410223,278.838
7384.7546694986595,308.05
7390.361906157261,292.116
7395.967228366993,762.158
7401.570637108154,-31.867
7407.279835705631,1014.44
7412.879383697611,-53.112
7418.477021176703,183.237
7424.072749120482,130.124
7429.666568505905,427.552
7435.258480309247,403.652
7440.848485506111,865.726
7446.436585071431,825.892
7452.022779979503,701.079
7457.607071203925,966.639
7463.296794702215,4187.884
7468.877244915177,658.589
7474.455794380043,-3144.063
7480.032444067743,-5257.653
7485.607194948596,-6002.59
7491.18004799222,-5699.281
7496.751004167574,-4668.134
7502.2129850032,-3229.56
7507.7801867781745,-1703.967
7513.345494569261,-411.765
7518.908909342786,326.639
7524.470432064445,440.83
7530.03006369928,456.764
7535.587805211653,84.979
7541.1436575652915,828.548
7546.697621723266,-23.9
7552.249698647978,334.606
7557.693172648,233.693
7563.241514237732,-430.208
7568.787971459049,-1042.722
7574.332545271769,-1486.016
7579.87523663506,-1775.419
7585.416046507413,-1926.259
7590.848475703144,-1953.864
7596.385561603231,-1873.562
7601.920768865631,-1700.679
7607.454098446255,-1450.546
7612.879194899509,-1138.488
7618.4088080453,-779.839
7623.936546354853,-389.922
7629.462410781522,15.934
7634.880189328982,342.573
7640.402344837916,334.606
7645.9226293018255,281.494
7651.334937948188,379.751
7656.851519109852,-7.967
7662.260197498763,172.614
7667.773079083498,98.257
7673.284094334183,87.635
7678.687316594296,-159.336
7684.194637864675,966.639
7689.7000956236625,7.967
7695.097870006797,228.382
7700.599639370841,871.037
7705.993798107356,366.473
7711.491882781789,151.369
7716.882429503323,103.568
7722.376833188511,326.639
7727.763771521855,616.1
7733.254497913214,1027.718
7738.637831480286,82.324
7744.124884268305,881.66
7749.504616686187,5329.793
7754.987999556393,693.112
7760.364134437317,183.237
7765.738489349154,616.1
7771.216392021717,164.647
7776.587154788423,265.56
7782.061396717661,621.411
7787.428570939446,565.643
7792.793969640064,701.079
7798.262745065967,-159.336
7803.624560595526,225.726
7808.984603262106,236.349
7814.447920368751,-21.245
7819.804385227417,188.548
7825.159079875983,66.39
7830.616946831127,440.83
7835.968069024231,132.78
7841.317423654822,488.631
7846.665011598543,605.477
7852.115636126822,634.689
7857.459658723532,403.652
7862.801917273948,424.896
7868.142412651388,-21.245
7873.481145728587,-523.154
7878.922746278997,748.88
7884.257922859626,-262.905
7889.59133977185,-124.813
7894.922997886111,-82.324
7900.252898072242,817.925
7905.581041199541,640.0
7910.907428136696,435.519
7916.336446752692,177.925
7921.65928952102,-783.403
7926.980378718883,-281.494
7932.29971521271,246.971
7937.617299868325,-111.535
7942.933133550996,-63.734
7948.247217125423,215.104
7953.559551455743,273.527
7958.870137405502,342.573
7964.178975837705,507.22
7969.486067614758,-201.826
7974.791413598527,557.676
7980.0950146503055,-422.241
7985.396871630804,-488.631
7990.696985400187,71.701
7995.995356818043,228.382
8001.291986743403,536.432
8006.586876034729,371.784
8011.880025549901,525.809
8017.067699705829,-193.859
8022.357406311574,23.9
8027.645375694708,398.34
8032.931608710882,-289.461
8038.216106215201,422.241
8043.498869062179,804.647
8048.779898105804,408.963
8053.955695240969,618.755
8059.233293192043,82.324
8064.509159881611,300.083
8069.783296161415,196.515
8074.952338977277,454.108
8080.223050878609,37.178
8085.492034905405,411.618
8090.759291907168,685.145
8095.921593616502,956.017
8101.185432936367,66.39
8106.447547759821,-71.701
8111.604810570996,119.502
8116.863512715307,29.212
8122.120492886879,172.614
8127.272724173963,1009.129
8132.526296659391,305.394
8137.778149690843,454.108
8142.925356813517,400.996
8148.173807142077,154.025
8153.4205405305,-300.083
8158.562730834117,177.925
8163.806066493191,369.129
8168.944927307508,342.573
8174.184868536668,485.975
8179.32040309432,154.025
8184.55695318873,326.639
8189.689164718173,26.556
8194.922326968728,140.747
8200.051218694258,42.49
8205.280996387602,276.183
8210.406571529322,-138.091
8215.632967947844,809.959
8220.7552297217,225.726
8225.978248143558,-212.448
8231.097199761349,347.884
8236.316843460441,318.672
8241.43248812982,626.722
8246.546496881761,608.133
8251.76110130029,921.494
8256.871807891675,42.49
8261.98088093357,100.913
8267.190453365733,653.278
8272.296229025691,464.73
8277.400373499535,270.871
8282.604921225458,685.145
8287.705773086778,608.133
8292.804996120794,515.187
8298.004526406577,491.286
8303.100461588281,183.237
8308.194770296956,485.975
8313.28745331115,233.693
8318.48031600209,-66.39
8323.569717486189,783.403
8328.657495624051,239.004
8333.743651192239,809.959
8338.828184966831,451.452
8344.012739449463,-122.158
8349.093999566121,-470.042
8354.17364022991,77.012
8359.251662214898,464.73
8364.328066294685,393.029
8369.402853242376,435.519
8374.476023830553,379.751
8379.547578831349,321.328
8384.718901354245,791.369
8389.787195221597,-39.834
8394.853875830348,167.303
8399.91894395064,570.954
8404.98240035212,281.494
8410.044245803958,262.905
8415.104481074803,-98.257
8420.163106932847,-228.382
8425.220124145773,385.062
8430.275533480788,262.905
8435.32933570461,-167.303
8440.381531583458,775.436
8445.432121883085,395.685
8450.48110736873,400.996
8455.528488805172,90.29
8460.473367100913,552.365
8465.51757477424,151.369
8470.560180674485,371.784
8475.601185564497,276.183
8480.64059020661,228.382
8485.67839536271,223.071
8490.714601794163,517.842
8495.749210261878,252.282
8500.681576948675,114.191
8505.713023691114,241.66
8510.742874734438,387.718
8515.771130837642,-15.934
8520.797792759218,353.195
8525.722375497866,624.066
8530.745883175656,398.34
8535.7677989293,366.473
8540.788123515384,260.249
8545.706498587671,132.78
8550.723674892208,374.44
8555.739262280982,385.062
8560.652997083213,398.34
8565.665440644778,106.224
8570.676297538128,515.187
8575.585398634048,161.992
8580.593116146138,284.149
8585.599249233324,77.012
8590.503723174297,430.208
8595.506721317797,1056.93
8600.508137275468,844.481
8605.40799060051,533.776
8610.406276043708,-231.037
8615.303062904772,488.631
8620.298220771765,281.494
8625.191944046568,50.456
8630.18397727198,478.008
8635.074639834631,507.22
8640.063551349394,794.025
8644.951156070434,34.523
8649.936948801806,881.66
8654.821498548154,215.104
8659.804175419777,775.436
8664.685673054784,-100.913
8669.665236986599,613.444
8674.543685370048,31.867
8679.520139278378,302.739
8684.395541266465,655.934
8689.2694364983,841.826
8694.241246509358,565.643
8699.112099609058,-79.668
8703.981448060618,223.071
8708.948620671701,562.988
8713.81493124642,-29.212
8718.779005433622,414.274
8723.642280973501,597.51
8728.504055374753,472.697
8733.364329332315,478.008
8738.32224658698,355.851
8743.179491154478,671.867
8748.035237374625,679.834
8752.889485940628,92.946
8757.8412577103,-254.938
8762.692482517024,1102.075
8767.542211760752,655.934
8772.39044613298,427.552
8777.336083836857,273.527
8782.18130006664,334.606
8787.02502351089,217.759
8791.867254859393,871.037
8796.707994801498,562.988
8801.547244026118,1269.378
8806.385003221756,815.27
8811.319956958603,942.739
8816.154707786565,53.112
8820.987970662514,547.054
8825.819746273257,-55.768
8830.650035305174,151.369
8835.478838444196,509.876
8840.306156375878,424.896
8845.131989785303,273.527
8849.956339357173,252.282
8854.779205775758,621.411
8859.60058972489,63.734
8864.420491888006,1141.909
8869.238912948098,416.93
8874.055853587757,130.124
8878.871314489159,-1123.32
8883.685296334032,334.606
8888.497799803714,318.672
8893.308825579123,15.934
8898.118374340735,578.921
8902.926446768637,512.531
8907.634964476681,140.747
8912.440116370435,446.141
8917.243793954342,50.456
8922.045997906822,573.61
8926.846728905857,499.253
8931.645987629043,775.436
8936.443774753548,382.407
8941.142221650607,605.477
8945.937097605834,154.025
8950.73050397759,249.627
8955.522441441404,278.838
8960.215160665939,350.539
8965.004192282166,37.178
8969.791757000756,310.705
8974.577855495572,456.764
8979.26485751475,650.622
8984.048055470721,669.212
8988.829789208343,103.568
8993.51251749025,403.652
8998.291354655303,706.39
9003.068729603765,594.855
9007.747189991118,289.461
9012.521672326067,937.427
9017.294694442531,403.652
9021.968892767374,45.145
9026.739026222178,331.95
9031.41039612206,3664.731
9036.17764353675,823.237
9040.943434050514,21.245
9045.610551571128,156.681
9050.373459984672,302.739
9055.037755503963,289.461
9059.797784430888,318.672
9064.45926050758,836.515
9069.216412558366,592.199
9073.87507174812,403.652
9078.629349530078,504.564
9083.285194385431,-244.315
9088.036600502714,321.328
9092.689633573158,0.0
9097.438170626783,416.93
9102.088394458704,833.859
9106.73722909284,517.842
9111.481482183284,592.199
9116.12751137963,58.423
9120.868901881862,377.095
9125.512128179163,199.17
9130.153968412898,512.531
9134.891084617178,390.373
9139.53012574118,422.241
9144.167782675046,913.527
9148.9006303586,634.689
9153.535491965213,440.83
9158.168971251744,966.639
9162.801068836525,79.668
9167.528243916331,138.091
9172.157551197888,116.846
9176.785478643267,119.502
9181.412026869286,531.12
9186.13353953768,347.884
9190.757302472506,323.983
9195.37968804908,451.452
9200.000696882766,103.568
9204.620329588544,379.751
9209.334785850184,201.826
9213.951639506451,-427.552
9218.567118890363,658.589
9223.181224615444,719.668
9227.79395729483,193.859
9232.40531754132,212.448
9237.015305967328,416.93
9241.623923184923,557.676
9246.23116980579,-624.066
9250.932987640888,1370.291
9255.537466379788,292.116
9260.140576367572,220.415
9264.742318214474,621.411
9269.342692530376,119.502
9273.941699924766,570.954
9278.539341006806,-31.867
9283.135616385269,358.506
9287.730526668583,562.988
9292.324072464791,414.274
9296.91625438162,642.656
9301.411444872112,531.12
9306.00092923447,323.983
9310.589051525738,942.739
9315.175812352172,-175.27
9319.761212319692,982.573
9324.345252033823,446.141
9328.927932099774,493.942
9333.509253122353,669.212
9338.08921570604,1099.419
9342.572446701386,520.498
9347.149722488744,-188.548
9351.7256416359,1407.469
9356.300204745894,605.477
9360.873412421412,942.739
9365.350032145325,488.631
9369.920558965528,371.784
9374.489732144635,504.564
9379.05755228394,578.392
9383.528899030936,562.52
9388.09404305015,478.59
9392.657835818722,348.24
9397.125240831178,193.107
9401.6863610176,34.836
9406.246131739394,-104.939
9410.80455359534,-204.577
9415.266701898625,-242.435
9419.822455888205,-196.881
9424.281993052333,-46.268
9428.835081516963,231.037
9433.38682407955,446.141
9437.84243511156,114.191
9442.391515668474,252.282
9446.84452129656,573.61
9451.390942182352,475.353
9455.93602012123,408.963
9460.385108237591,175.27
9464.927530014324,451.452
9469.374018445214,297.427
9473.913786387537,74.357
9478.35767741084,831.203
9482.894793843763,488.631
9487.33608973474,220.415
9491.87055698055,369.129
9496.30926001177,313.361
9500.74668109923,966.639
9505.277192831463,1072.863
9509.71202445114,12146.723
9514.23989277796,1439.336
9518.672137195834,496.598
9523.103102466685,379.751
9527.62702390948,66.39
9532.05540536064,804.647
9536.57668916292,443.486
9541.002489053764,634.689
9545.42701258622,557.676
9549.850260312329,863.071
9554.36630345335,483.32
9558.78697410632,114.191
9563.206370618926,759.502
9567.718482324255,478.008
9572.13530512818,45.145
9576.550855454823,337.261
9580.965133854,562.988
9585.47202083257,55.768
9589.883729992052,374.44
9594.294168883298,-42.49
9598.703338054846,326.639
9603.111238054931,-74.357
9607.611613766734,302.739
9612.016950092931,557.676
9616.421018902103,632.033
9620.823820741218,881.66
9625.225356156909,507.22
9629.625625695517,47.801
9634.02462990307,393.029
9638.422369325252,273.527
9642.81884450748,281.494
9647.21405599481,642.656
9651.701478874824,-172.614
9656.094137748323,132.78
9660.485534571855,-92.946
9664.875669889248,130.124
9669.264544244,663.9
9673.65215817932,501.909
9678.03851223808,419.585
9682.423606962846,666.556
9686.807442895892,310.705
9691.19002057915,666.556
9695.478134071804,273.527
9699.858223622705,523.154
9704.23705653629,154.025
9708.614633353289,459.419
9712.990954614088,597.51
9717.36602085878,432.863
9721.739832627154,361.162
9726.112390458671,363.817
9730.483694892511,600.166
9734.760779687776,424.896
9739.129605581998,488.631
9743.497179682729,0.0
9747.863502527893,278.838
9752.228574655115,297.427
9756.499562339395,817.925
9760.862161224974,29.212
9765.223510992222,756.847
9769.583612177565,249.627
9773.849736751828,849.793
9778.207368918504,1070.208
9782.563754099236,9082.159
9786.918892829211,2403.32
9791.18016259473,454.108
9795.532836519418,-345.228
9799.884265585692,647.967
9804.14190615754,411.618
9808.490873566669,592.199
9812.83859770701,717.013
9817.09261371952,573.61
9821.437879345483,260.249
9825.689490172908,650.622
9830.032299369228,-69.046
9834.373867936378,756.847
9838.621861899856,215.104
9842.960977171238,934.772
9847.206571054325,618.755
9851.543235108787,491.286
9855.786430944943,329.295
9860.12064585897,374.44
9864.361445679362,836.515
9868.693213527116,358.506
9872.931619360628,284.149
9877.26094221391,589.544
9881.49695608711,358.506
9885.823836015392,342.573
9890.057459952584,647.967
9894.289902518456,400.996
9898.613135046206,913.527
9902.843190697367,204.481
9907.163985452502,690.457
9911.391656207565,448.797
9915.61814808206,-180.581
9919.935303126713,674.523
9924.15941311792,151.369
9928.38234571751,669.212
9932.695865648708,-39.834
9936.91641937277,-74.357
9941.135797191648,528.465
9945.445686598703,183.237
9949.662688544726,339.917
9953.878516069532,719.668
9958.09316966365,3561.162
9962.398234183594,1524.316
9966.61051589339,528.465
9970.821625153134,169.959
9975.031562452265,167.303
9979.240328279942,892.282
9983.53937957713,345.228
9987.745778488254,576.266
9991.95100740443,464.73
9996.155066813732,148.714
10000.357957203963,483.32
10004.55967906266,483.32
10008.760232877092,316.017
10013.050897176752,268.216
10017.249090997648,337.261
10021.446118245014,6386.723
10025.641979405023,1649.129
10029.83667496358,456.764
10034.03020540632,430.208
10038.222571218605,382.407
10042.413772885537,374.44
10046.603810891938,809.959
10050.79268572236,740.913
10054.980397861098,594.855
10059.16694779218,39.834
10063.352335999334,361.162
10067.536562966066,400.996
10071.719629175575,140.747
10075.90153511081,589.544
10080.082281254454,432.863
10084.26186808891,100.913
10088.440296096323,-177.925
10092.52676786215,794.025
10096.702904826674,475.353
10100.877884398516,775.436
10105.051707058765,188.548
10109.224373288234,382.407
10113.395883567471,321.328
10117.475590772649,993.195
10121.64481569536,7010.789
10125.812886097472,3672.698
10129.979802458443,241.66
10134.145565257517,562.988
10138.219652237512,424.896
10142.383134400929,1011.784
10146.545464428116,507.22
10150.706642797257,709.046
10154.776246850048,9804.482
10158.935148346747,2761.826
10163.092899607942,562.988
10167.159152430871,1051.618
10171.314629631466,220.415
10175.468958016776,-111.535
10179.531863747628,10.622
10183.683920879565,597.51
10187.834830614069,740.913
10191.894393383842,541.743
10196.043034667582,847.137
10200.190529969435,531.12
10204.246753902304,860.415
10208.391983551395,499.253
10212.44599199288,602.822
10216.588957845182,331.95
10220.640752609928,217.759
10224.781456519388,345.228
10228.831039420063,512.531
10232.969483238625,562.988
10237.016856085897,682.49
10241.15304166346,743.569
10245.19820626604,339.917
10249.332135450502,440.83
10253.375093615126,690.457
10257.506768252357,693.112
10261.547521783785,385.062
10265.58718577827,302.739
10269.715494418666,185.892
10273.752956473523,897.593
10277.87901516247,138.091
10281.91427707755,308.05
10285.948451675904,254.938
10290.0711512271,239.004
10294.10312837192,406.307
10298.13401952729,42.49
10302.253364041218,268.216
10306.282060424935,451.452
10310.309672144327,799.336
10314.425665714796,69.046
10318.451085340042,135.436
10322.475421623927,223.071
10326.498675003731,339.917
10330.610215200984,690.457
10334.631280043344,260.249
10338.651263301725,501.909
10342.670165412448,294.772
10346.687986811625,937.427
10350.704727935088,435.519
10354.80961387438,555.021
10358.824171771252,679.834
10362.837650708272,456.764
10366.850051120337,857.759
10370.86137344214,464.73
10374.871618108127,629.378
10378.880785552512,-196.515
10382.888876209276,39.834
10386.984923052532,1086.141
10390.990837530662,562.988
10394.995676531347,146.058
10398.999440487634,281.494
10403.00212983234,398.34
10407.003744998048,953.361
10411.004286417105,650.622
10415.003754521616,406.307
10419.002149743475,956.017
10422.999472514348,358.506
10426.995723265634,568.299
10430.990902428544,400.996
10434.985010434026,411.618
10438.889325180557,589.544
10442.881315942828,501.909
10446.872236829608,321.328
10450.86208827093,161.992
10454.85087069661,347.884
10458.838584536235,313.361
10462.82523021915,475.353
10466.810808174472,-188.548
10470.706785742112,600.166
10474.690253232264,-69.046
10478.672654271297,361.162
10482.653989287404,164.647
10486.634258708573,-111.535
10490.525047770485,-31.867
10494.50321094102,462.075
10498.480309789697,395.685
10502.45634474356,308.05
10506.342995080442,833.859
10510.316927143493,114.191
10514.2897965821,363.817
10518.261603822417,403.652
10522.144122034457,53.112
10526.113829736623,156.681
10530.082476508169,1056.93
10533.961905709137,146.058
10537.92845544769,196.515
10541.89394552126,69.046
10545.770289396216,164.647
10549.733684937964,294.772
10553.607981637546,358.506
10557.569284306495,-220.415
10561.52952941227,-111.535
10565.400746905443,-84.979
10569.35890163298,308.05
10573.22807600992,462.075
10577.184142013864,600.166
10581.05127489159,523.154
10585.005253824836,501.909
10588.87034681866,618.755
10592.822240332363,209.793
10596.685295055897,193.859
10600.635104799476,496.598
10604.496122864624,47.801
10608.443850485746,374.44
10612.302833502728,345.228
10616.160811022752,419.585
10620.10543022464,709.046
10623.9613750996,408.963
10627.903916281392,167.303
10631.757830117263,-294.772
10635.61074043666,353.195
10639.550179321655,512.531
10643.401060998756,-228.382
10647.250940343372,265.56
10651.187280591832,297.427
10655.035133687184,92.946
10658.881985632182,-316.017
10662.815230898605,390.373
10666.660058983602,371.784
10670.50388709854,180.581
10674.346715633475,594.855
10678.275847672114,331.95
10682.116655520924,164.647
10685.956464967534,273.527
10689.795276401208,2.656
10693.633090210977,159.336
10697.557095575656,148.714
10701.39289265285,-31.867
10705.227693280882,127.469
10709.061497847986,408.963
10712.894306742182,382.407
10716.726120351308,2.656
10720.55693906298,23.9
10724.386763264632,942.739
10728.302600658342,454.108
10732.130414421008,204.481
10735.957234843503,714.357
10739.783062312445,106.224
10743.60789721425,-435.519
10747.431739935131,379.751
10751.254590861114,379.751
10755.076450378,63.734
10758.897318871408,154.025
10762.717196726757,666.556
10766.536084329256,270.871
10770.353982063916,116.846
10774.170890315563,220.415
10777.98680946881,265.56
10781.801739908076,159.336
10785.615682017564,313.361
10789.341989100834,-175.27
10793.153978142976,-228.382
10796.964979998098,50.456
10800.774995049622,326.639
10804.58402368077,393.029
10808.392066274577,154.025
10812.199123213884,63.734
10816.005194881312,358.506
10819.723813349112,-130.124
10823.52793799081,-252.282
10827.331078498672,-156.681
10831.133235254529,18.589
10834.848029253728,209.793
10838.64824198676,-419.585
10842.447472103491,199.17
10846.24571998498,331.95
10849.956695412544,366.473
10853.753002267928,361.162
10857.548328021428,0.0
10861.342673053316,300.083
10865.049835794096,-169.959
10868.842242790466,-217.759
10872.63367019626,183.237
10876.337982712816,462.075
10880.12747431772,225.726
10883.82989575329,501.909
10887.617453039476,-647.967
10891.404032613404,289.461
10895.103609289945,-313.361
10898.88825677408,-217.759
10902.585945994537,748.88
10906.368662867266,-374.44
10910.150403901262,549.71
10913.845253813895,-284.149
10917.62506645972,440.83
10921.318032531915,233.693
10925.095918264182,47.801
10928.787001936307,-201.826
10932.562962228116,496.598
10936.252164939066,358.506
10939.940438510435,-451.452
10943.713524449233,-180.581
10947.399919206764,-5.311
10951.171083372872,637.344
10954.855600751816,-244.315
10958.62484461311,339.917
10962.307486047235,138.091
10965.989200819247,440.83
10969.755577991731,1046.307
10973.435418958636,260.249
10977.114334320191,-140.747
10980.877848072992,98.257
10984.554891765896,-270.871
10988.231010908596,29.212
10991.991664505884,499.253
10995.665914113146,111.535
10999.33924022374,366.473
11003.011643185791,400.996
11006.768495629847,45.145
11010.439031890255,-175.27
11014.108646053544,613.444
11017.777338467138,-84.979
11021.530395518184,161.992
11025.197224058184,260.249
11028.863131897786,124.813
11032.528119383707,-106.224
11036.192186862492,209.793
11039.855334680517,77.012
11043.602720353196,199.17
11047.264008520897,393.029
11050.924378073953,-61.079
11054.58382935806,0.0
11058.242362718707,507.22
11061.899978501227,-111.535
11065.556677050785,23.9
11069.21245871235,-98.257
11072.867323830738,294.772
11076.521272750586,212.448
11080.174305816368,79.668
11083.826423372368,2.656
11087.477625762698,950.706
11091.127913331318,61.079
11094.777286422,268.216
11098.425745378345,541.743
11102.073290543767,-61.079
11105.719922261547,-268.216
11109.36564087477,-305.394
11113.010446726335,98.257
11116.654340159006,-172.614
11120.29732151534,634.689
11123.93939113774,316.017
11127.580549368427,148.714
11131.22079654947,143.403
11134.77550763161,71.701
11138.413954906267,-122.158
11142.051492148485,605.477
11145.688119699626,66.39
11149.323837900913,337.261
11152.958647093375,-108.88
11156.508048620988,-2.656
11160.141061938251,-185.892
11163.773167260852,515.187
11167.40436492916,42.49
11170.950240228543,-236.349
11174.579644697213,438.174
11178.208142523734,55.768
11181.751381744987,-273.527
11185.378088371155,191.203
11189.003889365817,100.913
11192.628785068173,289.461
11196.16850723805,172.614
11199.79161440632,422.241
11203.413817290922,-618.755
11206.950910239968,66.39
11210.571326582844,-1901.411
11214.10667518314,215.104
11217.725306305692,223.071
11221.343034819707,239.004
11224.875759069631,252.282
11228.49170435076,-13.278
11232.022687482247,940.083
11235.636850848638,-61.079
11239.166094148528,361.162
11242.778476917028,-438.174
11246.305981670925,31.867
11249.91658515709,-47.801
11253.442352649325,15.934
11257.05117816741,-164.647
11260.575209681025,26.556
11264.182258544,98.257
11267.704555360804,552.365
11271.309828880325,18.589
11274.83039228086,148.714
11278.350099642112,-318.672
11281.952723030843,-100.913
11285.470698886753,300.083
11288.987819646914,-547.054
11292.587795825824,-45.145
11296.103186988752,77.012
11299.70139304264,92.946
11303.215055883851,-305.394
11306.727865201254,478.008
11310.23982130582,225.726
11313.834511810855,-215.104
11317.34474212601,74.357
11320.8541201677,183.237
11324.446172200132,87.635
11327.953826352135,-2.656
11331.460629168672,132.78
11334.96658095964,-71.701
11338.471682034791,-84.979
11342.059356881087,246.971
11345.562737216636,-29.212
11349.06526777208,347.884
11352.566948856567,233.693
11356.067780779093,-12.154
11359.56776384851,-224.186
11363.1502007606,-388.977
11366.648466857394,-493.103
11370.145885034064,-523.146
11373.642455598843,-465.676
11377.138178859836,-307.278
11380.633055125,-34.523
11384.1270847021,225.726
11387.620267898808,18.589
11391.112605022612,-318.672
11394.60409638087,-616.1
11398.094742280777,430.208
11401.584543029392,-138.091
11405.073498933603,127.469
11408.561610300185,276.183
11412.048877435727,42.49
11415.5353006467,61.079
11419.020880239405,127.469
11422.505616520008,79.668
11425.989509794525,-682.49
11429.472560368817,-98.257
11432.954768548592,7.967
11436.43613463944,-491.286
11439.916658946764,23.9
11443.313501961433,26.556
11446.79236364179,294.772
11450.270384446749,281.494
11453.74756468115,496.598
11457.22390464968,143.403
11460.699404656869,37.178
11464.091344754375,419.585
11467.565185732994,132.78
11471.038187655771,55.768
11474.51035082668,140.747
11477.981675549512,0.0
11481.369541233144,7.967
11484.839209915755,-560.332
11488.30804105362,92.946
11491.693473394258,167.303
11495.16065027576,-448.797
11498.626990514544,-13.278
11502.092494413417,-605.477
11505.474679896604,693.112
11508.938531918346,600.166
11512.401548500471,-602.822
11515.78130675673,154.025
11519.242673239612,193.859
11522.620821260369,-169.959
11526.080538823127,-103.568
11529.5394224415,339.917
11532.915147579475,-549.71
11536.372384051368,-321.328
11539.74650183491,95.602
11543.202092336618,164.647
11546.574603913472,21.245
11550.028549620163,478.008
11553.399456136987,209.793
11556.85175822272,26.556
11560.221060825072,350.539
11563.67172046279,-193.859
11567.039420295116,-15.934
11570.488438656655,-45.145
11573.854536862347,183.237
11577.301915118398,414.274
11580.666412839755,515.118
11584.030120381583,495.179
11587.475050538147,393.661
11590.837159300165,249.767
11594.280452266124,102.703
11597.64096338792,-8.328
11601.000685734118,-44.122
11604.441534950183,34.523
11607.79966135666,135.436
11611.156999826935,-74.357
11614.59540789372,79.668
11617.951152122365,124.813
11621.306109253032,-148.714
11624.66027956261,278.838
11628.09544335218,148.714
11631.44802167594,485.975
11634.799814015252,-103.568
11638.15082064648,337.261
11641.58274474832,-427.552
11644.932161645294,119.502
11648.280793669244,0.0
11651.62864109602,37.178
11654.975704201344,-18.589
11658.403590030808,-31.867
11661.749066206958,-480.664
11665.093758894744,207.137
11668.43766836938,-831.203
11671.780794905935,-220.415
11675.12313877933,257.593
11678.4647002644,302.739
11681.805479635816,302.739
11685.145477168146,-236.349
11688.484693135812,4288.797
11691.904543291126,1473.859
11695.24217790648,215.104
11698.579031786354,138.091
11701.915105204676,-39.834
11705.25039843522,-146.058
11708.584911751648,-7.967
11711.918645427471,47.801
11715.251599736104,387.718
11718.502511651865,294.772
11721.83392703817,-361.162
11725.164563870054,358.506
11728.4944224204,95.602
11731.823502961994,77.012
11735.15180576744,438.174
11738.479331109273,597.51
11741.806079259855,66.39
11745.132050491462,-140.747
11748.457245076206,-310.705
11751.70058915004,-18.589
11755.024250183047,-71.701
11758.34713537819,0.0
11761.669245007088,-161.992
11764.990579341233,146.058
11768.230158619372,215.104
11771.549962071174,-265.56
11774.86899103535,13.278
11778.187245782876,-722.324
11781.423821624776,555.021
11784.740547618409,517.842
11788.05650020102,-53.112
11791.371679643096,-355.851
11794.605256223578,414.274
11797.91890903626,424.896
11801.231789512534,334.606
11804.46312397414,-50.456
11807.774479408556,-103.568
11811.085063309589,-438.174
11814.314157983485,220.415
11817.623218427994,-103.568
11820.850827315822,-1001.162
11824.158365355152,-132.78
11827.4651331948,-403.652
11830.690506166697,-385.062
11833.995753182851,292.116
11837.219642936305,241.66
11840.52337017791,440.83
11843.745777735792,-127.469
11847.047986250807,509.876
11850.26891263506,-746.224
11853.569603470474,-246.971
11856.789049702087,-204.481
11860.088223903953,130.124
11863.30619100298,-15.934
11866.603849616356,-361.162
11869.820338601929,-55.768
11873.11648267094,138.091
11876.331494561222,114.191
11879.545777396996,-164.647
11882.839660941268,132.78
11886.052468201013,-151.369
11889.26454715598,-111.535
11892.55617250015,30.033
11895.766777396242,161.477
11899.056892350098,275.577
11902.26602420178,365.103
11905.474428998024,422.828
11908.682106985869,441.529
11911.969222890988,413.973
11915.17542984806,332.941
11918.380910743392,191.203
11921.66577540321,122.158
11924.869786778698,374.44
11928.07307283808,82.324
11931.27563382762,69.046
11934.477469993468,470.042
11937.758600089848,520.498
11940.95896924119,55.768
11944.158614312782,-379.751
11947.35753555032,536.432
11950.55573319941,-385.062
11953.753207505528,313.361
11957.029868231695,-270.871
11960.225878519712,-183.237
11963.42116620667,-199.17
11966.615731537608,87.635
11969.809574757444,-79.668
11973.002696111003,1102.075
11976.195095842992,119.502
11979.386774197992,-31.867
11982.577731420495,-467.386
11985.767967754866,225.726
11988.957483445382,-475.353
11992.146278736183,-215.104
11995.334353871312,-127.469
11998.521709094712,-231.037
12001.708344650193,273.527
12004.894260781464,262.905
12008.079457732136,34.523
12011.2639357457,10.622
12014.44769506553,-151.369
12017.630735934905,-353.195
12020.81305859698,2.656
12023.994663294816,-135.436
12027.175550271351,177.925
12030.27622427429,-459.419
12033.455694464548,-15.934
12036.634447655608,536.432
12039.812484089987,-326.639
12042.989804010074,21.245
12046.166407658158,159.336
12049.26290681064,257.593
12052.4380965329,-10.622
12055.612570703324,-618.755
12058.786329563762,-531.12
12061.880055974125,302.739
12065.052402807443,901.393
12068.224035049663,1091.197
12071.394952942192,982.711
12074.485910333004,686.487
12077.655418093736,313.083
12080.824212222367,-26.946
12083.913099633974,-223.041
12087.080485047096,-164.647
12090.247157544738,21.245
12093.333977055809,-321.328
