Wavenumber (cm⁻¹),Intensity
200.0,8345.044930319365
201.00097751710655,7920.476076933092
202.0019550342131,7729.3680532855315
203.00293255131965,7677.79941299459
204.0039100684262,7887.726978873587
205.00488758553274,8093.936074228645
206.0058651026393,8282.371272750384
207.00684261974584,8557.820943918172
208.0078201368524,8837.446494322148
209.00879765395894,9114.575388737321
210.00977517106548,9467.244388629246
211.01075268817203,9904.007311569223
212.01173020527858,10277.926035836615
213.01270772238513,10452.890068523522
214.01368523949168,10178.259397063968
215.01466275659823,9400.424760433512
216.01564027370478,8241.555295379274
217.01661779081132,7183.551571588589
218.01759530791787,6379.0444967301655
219.01857282502445,5786.2821053994985
220.019550342131,5336.090203002179
221.02052785923755,5032.696009111526
222.0215053763441,4799.330022377456
223.02248289345064,4617.005444350159
224.0234604105572,4475.836338261065
225.02443792766374,4359.455405148498
226.0254154447703,4295.41439904576
227.02639296187684,4224.910257413041
228.02737047898339,4152.835375073983
229.02834799608993,4108.270774714647
230.02932551319648,4044.176519103555
231.03030303030303,4017.8166964417037
232.03128054740958,3987.7292728813404
233.03225806451613,3936.2862886431003
234.03323558162268,3925.6616286613043
235.03421309872923,3936.404691212644
236.03519061583577,3927.2438404779678
237.03616813294232,3915.512343915296
238.03714565004887,3938.6649785897193
239.03812316715542,3921.481157598629
240.03910068426197,3910.706529910584
241.04007820136852,3926.2266467014724
242.04105571847506,3954.7456033093245
243.0420332355816,3951.059854814277
244.0430107526882,3963.9189192946315
245.04398826979474,4018.058090826364
246.0449657869013,4063.464923918713
247.04594330400784,4030.7377137966955
248.04692082111438,4100.001715422082
249.04789833822093,4105.3610740512295
250.04887585532748,4119.0894344228345
251.04985337243403,4214.126150429361
252.05083088954058,4275.067843389433
253.05180840664713,4372.0026861975475
254.05278592375367,4466.342924619258
255.05376344086022,4546.202329300798
256.05474095796677,4634.688244031813
257.0557184750733,4744.625730747265
258.05669599217987,4813.650146450151
259.0576735092864,4900.542775987993
260.05865102639297,5054.232270354342
261.0596285434995,5204.813128073191
262.06060606060606,5318.2004087420555
263.0615835777126,5469.311275399474
264.06256109481916,5637.552770137286
265.0635386119257,5716.4770238047
266.06451612903226,5702.263810165205
267.0654936461388,5694.516613286853
268.06647116324535,5736.542642610135
269.0674486803519,5813.575662483478
270.06842619745845,5860.041049470354
271.069403714565,5971.381480243895
272.07038123167155,6102.932040253389
273.0713587487781,6229.588052904133
274.07233626588464,6347.228888389927
275.0733137829912,6440.576104394813
276.07429130009774,6461.229205488045
277.0752688172043,6442.278802080964
278.07624633431084,6398.721499517933
279.0772238514174,6289.8073187261325
280.07820136852393,6210.024872109058
281.0791788856305,6106.332801649191
282.08015640273703,6009.280448252932
283.0811339198436,5971.049612514532
284.08211143695013,5888.224151425126
285.0830889540567,5869.224908807447
286.0840664711632,5867.931831433552
287.0850439882698,5881.665516931969
288.0860215053764,5975.395739214416
289.0869990224829,6002.359561442355
290.0879765395895,6077.814570707583
291.088954056696,6158.180473588486
292.0899315738026,6185.552281625297
293.0909090909091,6267.1840586638045
294.09188660801567,6285.102290582318
295.0928641251222,6261.427166539231
296.09384164222877,6193.389229785249
297.0948191593353,6057.219432367448
298.09579667644186,5959.66832657932
299.0967741935484,5901.315252959163
300.09775171065496,5902.267094299387
301.0987292277615,5936.66176134369
302.09970674486806,5934.948892521174
303.1006842619746,6064.986180196219
304.10166177908116,6188.630306306538
305.1026392961877,6298.474579017995
306.10361681329425,6448.710903242839
307.1045943304008,6564.980771493568
308.10557184750735,6709.474107674699
309.1065493646139,6834.454716309417
310.10752688172045,6903.973982696671
311.108504398827,6921.4838380545525
312.10948191593354,6890.163808973569
313.1104594330401,6809.821632836177
314.11143695014664,6718.232586995066
315.1124144672532,6646.396608668939
316.11339198435974,6597.514720404965
317.1143695014663,6615.8094275965195
318.11534701857283,6664.391859226995
319.1163245356794,6773.537174819637
320.11730205278593,6972.143164317764
321.1182795698925,7164.244342973055
322.119257086999,7406.458535065815
323.1202346041056,7760.432915785712
324.1212121212121,8199.682556942293
325.1221896383187,8642.878539077268
326.1231671554252,9323.093231021903
327.12414467253177,10021.675861108233
328.1251221896383,10759.042899592314
329.12609970674487,11642.095398704718
330.1270772238514,12768.428510222187
331.12805474095796,13908.367409823002
332.1290322580645,15110.181704237522
333.13000977517106,16369.754313453874
334.1309872922776,17661.279345623185
335.13196480938416,19046.94659715166
336.1329423264907,20515.725065176903
337.13391984359725,21827.638453341217
338.1348973607038,22990.68772954113
339.13587487781035,24075.669780558448
340.1368523949169,24605.125121283287
341.13782991202345,24725.601973585148
342.13880742913,24327.65596574169
343.13978494623655,23402.657702658413
344.1407624633431,22172.563439222242
345.14173998044964,20836.564979426726
346.1427174975562,19539.150585553238
347.14369501466274,18134.79723696741
348.1446725317693,16569.162786436736
349.14565004887584,15204.101812522727
350.1466275659824,13905.208757863786
351.14760508308893,12796.063024031628
352.1485826001955,11985.017019203415
353.14956011730203,11497.954447252705
354.1505376344086,11253.24441145705
355.1515151515151,11178.582095441032
356.1524926686217,11257.279610538206
357.1534701857282,11492.788497644802
358.1544477028348,11853.625825628857
359.1554252199413,12203.060123287578
360.15640273704787,12696.066714788229
361.1573802541544,13289.525032138818
362.15835777126097,13908.564351621513
363.1593352883675,14509.630792176118
364.16031280547406,15114.466794277136
365.1612903225806,15695.021651034891
366.16226783968716,16202.172748201843
367.1632453567937,16518.338267039177
368.16422287390026,16435.307351885484
369.1652003910068,16039.375256902897
370.16617790811335,15349.332033730338
371.1671554252199,14560.208987594773
372.16813294232645,13849.296402126776
373.169110459433,13200.471098034981
374.17008797653955,12884.421225042612
375.1710654936461,12766.912075351343
376.1720430107527,12770.57652265068
377.17302052785925,12890.467938983957
378.1739980449658,13163.283162783871
379.17497556207235,13521.589606959451
380.1759530791789,13924.362207528045
381.17693059628544,14351.230718194252
382.177908113392,14777.462657579268
383.17888563049854,15148.960240200353
384.1798631476051,15461.432053822044
385.18084066471164,15582.135832851265
386.1818181818182,15420.156587090562
387.18279569892474,14987.83035976116
388.1837732160313,14415.508969283002
389.18475073313783,13584.467407730494
390.1857282502444,12730.366417850928
391.18670576735093,11954.00260513883
392.1876832844575,11180.34281243956
393.188660801564,10439.821649191612
394.1896383186706,9739.124147693507
395.1906158357771,9124.53011189185
396.1915933528837,8576.05735924515
397.1925708699902,8038.707988526503
398.19354838709677,7625.577312198127
399.1945259042033,7237.830945032762
400.19550342130987,6862.6922147240775
401.1964809384164,6534.1163417386415
402.19745845552296,6300.676963867757
403.1984359726295,6059.408088559686
404.19941348973606,5835.149524291633
405.2003910068426,5653.056443435296
406.20136852394916,5520.2493546712285
407.2023460410557,5418.818303987748
408.20332355816225,5312.5013915907975
409.20430107526886,5186.572817338116
410.2052785923754,5099.4381859046525
411.20625610948196,5051.564677392386
412.2072336265885,4961.893500387372
413.20821114369505,4909.1188102473225
414.2091886608016,4897.713124059309
415.21016617790815,4851.62359715186
416.2111436950147,4759.883378359947
417.21212121212125,4712.017396560501
418.2130987292278,4651.18205202491
419.21407624633434,4595.156302282108
420.2150537634409,4587.123680193956
421.21603128054744,4593.237932237101
422.217008797654,4507.473400421905
423.21798631476054,4533.259419929266
424.2189638318671,4536.995201437854
425.21994134897363,4503.373202088126
426.2209188660802,4473.803866679115
427.22189638318673,4476.660086804006
428.2228739002933,4441.593641140514
429.2238514173998,4470.283791997298
430.2248289345064,4484.71269401626
431.2258064516129,4443.261306160548
432.2267839687195,4464.051791572104
433.227761485826,4480.689659808028
434.22873900293257,4482.228278200639
435.2297165200391,4489.410669906403
436.23069403714567,4500.7204574994985
437.2316715542522,4487.882510517585
438.23264907135876,4480.762533404583
439.2336265884653,4507.617240821
440.23460410557186,4503.601195605004
441.2355816226784,4474.611759425558
442.23655913978496,4518.006775848151
443.2375366568915,4502.543171806995
444.23851417399806,4501.675037248451
445.2394916911046,4509.876889392582
446.24046920821115,4508.354740393476
447.2414467253177,4501.136129485229
448.24242424242425,4485.513116158473
449.2434017595308,4530.929122342317
450.24437927663735,4538.557570270828
451.2453567937439,4505.499566233627
452.24633431085044,4541.026484927562
453.247311827957,4545.488323443804
454.24828934506354,4621.915664351324
455.2492668621701,4656.734338172864
456.25024437927664,4665.998102651053
457.2512218963832,4779.076780001474
458.25219941348973,4836.325828742288
459.2531769305963,4784.7534191715795
460.25415444770283,4806.678650741311
461.2551319648094,4877.236589251814
462.2561094819159,4865.034842627651
463.2570869990225,4891.711479421551
464.258064516129,4896.930791831437
465.2590420332356,4888.5791399438785
466.2600195503421,4865.9834601567
467.26099706744867,4824.003755627416
468.2619745845552,4796.438580852588
469.26295210166177,4820.895960425258
470.2639296187683,4807.580687634927
471.26490713587486,4783.586470250004
472.2658846529814,4806.4463417356
473.26686217008796,4836.600615517642
474.2678396871945,4842.743321628068
475.26881720430106,4891.853240274961
476.2697947214076,4951.000569394893
477.27077223851416,4986.431341850566
478.2717497556207,5044.763501506017
479.27272727272725,5140.872964549036
480.2737047898338,5242.356526909896
481.27468230694035,5367.663600063101
482.2756598240469,5532.485905220378
483.27663734115345,5733.706359939147
484.27761485826,5992.803214160379
485.27859237536654,6257.102595643692
486.2795698924731,6521.2212534508
487.28054740957964,6815.051777360884
488.2815249266862,7167.497897737215
489.2825024437928,7549.455952361962
490.28347996089934,7924.596180080719
491.2844574780059,8323.476741040091
492.28543499511244,8725.863964096226
493.286412512219,9118.845414969914
494.28739002932554,9608.014642944094
495.2883675464321,10062.054643528665
496.28934506353863,10482.851647080854
497.2903225806452,10753.029692273723
498.29130009775173,10782.30483628261
499.2922776148583,10636.98835111862
500.2932551319648,10228.897735889095
501.2942326490714,9678.19355876549
502.2952101661779,9063.846171614152
503.2961876832845,8454.315443797004
504.297165200391,7920.940959524385
505.29814271749757,7436.7076705641675
506.2991202346041,7065.853278012194
507.30009775171067,6775.9221608401895
508.3010752688172,6535.509765048968
509.30205278592376,6341.248478476582
510.3030303030303,6199.589362567805
511.30400782013686,6108.972615504464
512.3049853372434,6080.084537438986
513.3059628543499,6058.261531829125
514.3069403714564,6016.631506412055
515.307917888563,6030.663767060429
516.3088954056695,6068.842503394746
517.3098729227761,6123.273851549395
518.3108504398826,6221.169530640962
519.3118279569892,6374.544013533973
520.3128054740957,6567.0882734103725
521.3137829912023,6726.662273044185
522.3147605083088,6957.1184148297825
523.3157380254154,7222.464613510082
524.3167155425219,7532.450745532273
525.3176930596285,7967.416355943946
526.318670576735,8509.789233523152
527.3196480938416,9006.449421281242
528.3206256109481,9668.838677339225
529.3216031280547,10451.756366691945
530.3225806451612,11219.099056346178
531.3235581622678,12000.617568821024
532.3245356793743,12907.223107727757
533.3255131964809,13815.082902495813
534.3264907135874,14824.421485483263
535.327468230694,15945.545024946781
536.3284457478005,17102.261423312244
537.3294232649071,18516.51663898712
538.3304007820136,19869.421303538522
539.3313782991202,21267.065254266847
540.3323558162267,22561.30018620049
541.3333333333333,23527.22069971644
542.3343108504398,24228.520982882146
543.3352883675464,24341.704131816026
544.3362658846529,23703.16306535869
545.3372434017595,22355.93877339564
546.338220918866,20545.373477002766
547.3391984359725,18615.09070706275
548.3401759530791,16934.04971492038
549.3411534701856,15442.915767963359
550.3421309872922,14200.976165205127
551.3431085043987,13248.804203554762
552.3440860215054,12513.943877168207
553.345063538612,11849.733737625163
554.3460410557185,11355.727753334755
555.347018572825,10975.56976225105
556.3479960899316,10773.134870044565
557.3489736070381,10641.274792266975
558.3499511241447,10312.1062147115
559.3509286412512,10155.541263156487
560.3519061583578,10006.6680391242
561.3528836754643,9795.618760605834
562.3538611925709,9480.555354904198
563.3548387096774,9053.342802618368
564.355816226784,8630.197470537914
565.3567937438905,8241.649873006709
566.3577712609971,7816.188538967915
567.3587487781036,7412.435765084637
568.3597262952102,7085.573462681481
569.3607038123167,6813.169950159408
570.3616813294233,6615.886072058488
571.3626588465298,6388.8614600042065
572.3636363636364,6237.161207237278
573.3646138807429,6144.644265034068
574.3655913978495,6043.24154112647
575.366568914956,5969.210597568313
576.3675464320626,5932.16183611351
577.3685239491691,5824.602332222628
578.3695014662757,5724.712410630179
579.3704789833822,5660.5512490847805
580.3714565004888,5586.282854857562
581.3724340175953,5600.766294815997
582.3734115347019,5530.713272857443
583.3743890518084,5448.81846505103
584.375366568915,5405.81519699129
585.3763440860215,5382.1763711116
586.377321603128,5338.499134685477
587.3782991202346,5269.834331759698
588.3792766373411,5214.367341035059
589.3802541544477,5172.085011800362
590.3812316715542,5136.668342444255
591.3822091886608,5104.209866019733
592.3831867057673,5070.658912280157
593.3841642228739,5025.028452803321
594.3851417399804,5001.981868762905
595.386119257087,4975.254995034756
596.3870967741935,4943.167779713752
597.3880742913001,4936.392441981287
598.3890518084066,4905.955664976846
599.3900293255132,4895.776284004912
600.3910068426197,4874.045361818976
601.3919843597263,4842.555120725287
602.3929618768328,4815.556354918395
603.3939393939394,4798.664499679499
604.3949169110459,4817.035360347153
605.3958944281525,4803.568971256619
606.396871945259,4779.027522911038
607.3978494623656,4775.097783677147
608.3988269794721,4783.28740035743
609.3998044965787,4767.2063137319055
610.4007820136852,4734.867014293527
611.4017595307918,4670.8533188956435
612.4027370478983,4660.397254268198
613.4037145650049,4677.326763934181
614.4046920821114,4628.429977983054
615.405669599218,4605.825938788288
616.4066471163245,4630.345747503134
617.4076246334312,4638.777041681036
618.4086021505377,4623.82296633233
619.4095796676443,4595.203190230584
620.4105571847508,4565.567579053274
621.4115347018574,4622.4893342761825
622.4125122189639,4600.422786286087
623.4134897360705,4563.332295667596
624.414467253177,4544.221309337022
625.4154447702836,4532.840387161847
626.4164222873901,4526.78665432331
627.4173998044967,4569.859232136895
628.4183773216032,4556.727277871095
629.4193548387098,4551.662934399905
630.4203323558163,4564.956104163257
631.4213098729228,4563.532668456484
632.4222873900294,4567.977329432998
633.423264907136,4585.989721879859
634.4242424242425,4570.070737528749
635.425219941349,4522.870724087734
636.4261974584556,4488.96519480531
637.4271749755621,4489.706053718234
638.4281524926687,4465.811738598422
639.4291300097752,4482.008431454478
640.4301075268818,4500.7683799149345
641.4310850439883,4521.3056826986785
642.4320625610949,4545.584008483576
643.4330400782014,4566.7319987714645
644.434017595308,4585.388946502382
645.4349951124145,4590.247944876836
646.4359726295211,4621.539985179698
647.4369501466276,4666.479205992115
648.4379276637342,4679.305840519128
649.4389051808407,4650.692584210736
650.4398826979473,4687.500086434533
651.4408602150538,4743.505486680671
652.4418377321604,4788.902099659299
653.4428152492669,4806.52011302458
654.4437927663735,4807.358496908719
655.44477028348,4828.424522570795
656.4457478005866,4929.796510535232
657.4467253176931,5066.489782121946
658.4477028347997,5124.754508612025
659.4486803519062,5195.794679156631
660.4496578690128,5304.861214749683
661.4506353861193,5396.21202152038
662.4516129032259,5576.333537835159
663.4525904203324,5681.179954564713
664.453567937439,5862.872371288004
665.4545454545455,6036.20192542098
666.455522971652,6192.887981747342
667.4565004887586,6435.655391977267
668.4574780058651,6680.984543031133
669.4584555229717,6908.0853226007275
670.4594330400782,7145.51186335585
671.4604105571848,7417.709159733117
672.4613880742913,7699.638753601226
673.4623655913979,7954.538468862718
674.4633431085044,8190.585038006388
675.464320625611,8378.503132219492
676.4652981427175,8489.925631983977
677.4662756598241,8501.947489517128
678.4672531769306,8347.966178554525
679.4682306940372,8013.9484700492485
680.4692082111437,7718.163188571178
681.4701857282503,7354.641650349572
682.4711632453568,6916.394412088243
683.4721407624634,6514.048319090408
684.4731182795699,6182.452901854113
685.4740957966765,5888.931384235388
686.475073313783,5639.366445757523
687.4760508308896,5431.390986718859
688.4770283479961,5289.972645802826
689.4780058651027,5148.930424127067
690.4789833822092,5027.830303784575
691.4799608993158,4968.13454882425
692.4809384164223,4906.969816077141
693.4819159335289,4837.4157800158655
694.4828934506354,4774.340624859104
695.483870967742,4743.594061853049
696.4848484848485,4733.735901114442
697.485826001955,4699.530192642037
698.4868035190616,4627.941837083726
699.4877810361681,4649.288062152934
700.4887585532747,4595.197931054123
701.4897360703812,4560.106180611949
702.4907135874878,4550.960838990241
703.4916911045943,4533.997426120814
704.4926686217009,4524.255672129083
705.4936461388074,4496.631253394089
706.494623655914,4534.790383811416
707.4956011730205,4532.217227918423
708.4965786901271,4497.335410181466
709.4975562072336,4498.156710240085
710.4985337243402,4526.77412599204
711.4995112414467,4476.3118135588375
712.5004887585533,4442.740280839387
713.5014662756598,4413.810442831674
714.5024437927664,4403.341046306654
715.5034213098729,4409.564729777653
716.5043988269795,4414.600876246578
717.505376344086,4410.874331435275
718.5063538611926,4399.938676786331
719.5073313782991,4426.677230096417
720.5083088954057,4443.614970089315
721.5092864125122,4439.295884899743
722.5102639296188,4442.679193781312
723.5112414467253,4461.032582512196
724.5122189638319,4437.549830134454
725.5131964809384,4439.3753737817015
726.514173998045,4439.192882901521
727.5151515151515,4456.243697529117
728.516129032258,4446.5487197522125
729.5171065493646,4370.277488684948
730.5180840664711,4434.791637084254
731.5190615835777,4405.961730370124
732.5200391006842,4463.090265978328
733.5210166177908,4479.734424133137
734.5219941348973,4436.880700523918
735.5229716520039,4432.550538563668
736.5239491691104,4448.995166739154
737.524926686217,4448.910651786752
738.5259042033235,4411.205617680105
739.5268817204301,4420.505745165083
740.5278592375366,4437.973477851969
741.5288367546432,4432.63422895535
742.5298142717497,4448.838290099136
743.5307917888563,4437.4047298530795
744.5317693059628,4477.08845789833
745.5327468230694,4523.751973646162
746.5337243401759,4511.9097680133555
747.5347018572825,4508.425419203778
748.535679374389,4579.727269296839
