Raman shift,Intensity
415.55379,1362.7359
417.76603,1362.7359
419.97826,1362.7359
422.1905,1362.7359
424.40273,1362.7359
426.61497,1362.7359
428.8272,1362.7359
431.03944,1362.7359
433.25168,1362.7359
435.46391,1362.7359
437.67615,1362.7359
439.88838,1362.7359
442.10062,1363.51681
444.31285,1363.51681
446.52509,1363.51681
448.73732,1363.51681
450.94956,1364.29773
453.1618,1364.29773
455.37403,1364.29773
457.58627,1364.29773
459.7985,1365.07864
462.01074,1365.07864
464.22297,1365.85955
466.43521,1365.85955
468.64745,1365.85955
470.85968,1366.64046
473.07192,1366.64046
475.28415,1367.42138
477.49639,1367.42138
479.70862,1367.42138
481.92086,1368.20229
484.1331,1368.20229
486.34533,1368.20229
488.55757,1368.9832
490.7698,1368.9832
492.98204,1368.9832
495.19427,1368.9832
497.40651,1368.9832
499.61874,1368.9832
501.83098,1368.20229
504.04322,1368.20229
506.25545,1368.20229
508.46769,1368.20229
510.67992,1368.20229
512.89216,1367.42138
515.10439,1367.42138
517.31663,1367.42138
519.52887,1367.42138
521.7411,1366.64046
523.95334,1366.64046
526.16557,1366.64046
528.37781,1365.85955
530.59004,1365.85955
532.80228,1365.85955
535.01451,1365.85955
537.22675,1365.07864
539.43899,1365.07864
541.65122,1365.07864
543.86346,1365.07864
546.07569,1364.29773
548.28793,1364.29773
550.50016,1364.29773
552.7124,1364.29773
554.92464,1364.29773
557.13687,1364.29773
559.34911,1364.29773
561.56134,1364.29773
563.77358,1365.07864
565.98581,1365.07864
568.19805,1365.07864
570.41029,1365.07864
572.62252,1365.07864
574.83476,1365.07864
577.04699,1365.07864
579.25923,1365.85955
581.47146,1365.85955
583.6837,1365.85955
585.89593,1366.64046
588.10817,1366.64046
590.32041,1366.64046
592.53264,1366.64046
594.74488,1366.64046
596.95711,1366.64046
599.16935,1366.64046
601.38158,1366.64046
603.59382,1367.42138
605.80606,1367.42138
625.87586,1370.34008
640.02972,1363.07377
682.49128,1360.3489
697.93185,1363.07377
712.0857,1363.07377
762.87479,1361.17407
765.08702,1361.17407
767.29926,1361.17407
769.51149,1361.17407
771.72373,1361.17407
773.93596,1361.17407
776.1482,1361.17407
778.36044,1361.17407
780.57267,1361.17407
782.78491,1361.17407
784.99714,1360.39316
787.20938,1360.39316
789.42161,1360.39316
791.63385,1360.39316
793.84609,1360.39316
796.05832,1360.39316
798.27056,1360.39316
800.48279,1360.39316
802.69503,1360.39316
804.90726,1360.39316
807.1195,1360.39316
809.33173,1360.39316
811.54397,1360.39316
813.75621,1360.39316
815.96844,1360.39316
818.18068,1360.39316
820.39291,1361.17407
822.60515,1361.95499
824.81738,1361.95499
827.02962,1361.95499
829.24186,1361.95499
831.45409,1361.95499
833.66633,1362.7359
835.87856,1362.7359
838.0908,1362.7359
840.30303,1362.7359
842.51527,1361.95499
844.72751,1361.17407
846.93974,1360.39316
849.15198,1359.61225
851.36421,1359.61225
853.57645,1359.61225
855.78868,1359.61225
858.00092,1359.61225
860.21315,1359.61225
862.42539,1359.61225
864.63763,1359.61225
866.84986,1359.61225
869.0621,1359.61225
871.27433,1359.61225
873.48657,1359.61225
875.6988,1359.61225
877.91104,1359.61225
880.12328,1359.61225
882.33551,1360.39316
884.54775,1360.39316
886.75998,1360.39316
888.97222,1360.39316
891.18445,1360.39316
893.39669,1360.39316
895.60892,1360.39316
897.82116,1360.39316
900.0334,1361.17407
902.24563,1361.17407
904.45787,1361.17407
906.6701,1361.17407
908.88234,1361.17407
911.09457,1361.17407
913.30681,1361.17407
915.51905,1360.39316
917.73128,1360.39316
919.94352,1360.39316
922.15575,1360.39316
924.36799,1360.39316
926.58022,1361.17407
928.79246,1360.39316
931.0047,1360.39316
933.21693,1360.39316
935.42917,1360.39316
937.6414,1360.39316
939.85364,1360.39316
942.06587,1361.17407
944.27811,1361.17407
946.49034,1361.17407
948.70258,1361.17407
950.91482,1361.17407
953.12705,1361.95499
953.12705,1362.7359
953.12705,1363.51681
953.12705,1364.29773
953.12705,1365.07864
955.33929,1365.07864
957.55152,1365.07864
957.55152,1365.85955
959.76376,1365.85955
959.76376,1366.64046
961.97599,1366.64046
961.97599,1367.42138
964.18823,1367.42138
966.40047,1367.42138
968.6127,1367.42138
970.82494,1367.42138
973.03717,1367.42138
975.24941,1367.42138
975.24941,1368.20229
975.24941,1368.9832
977.46164,1368.9832
979.67388,1369.76411
979.67388,1370.54503
979.67388,1371.32594
981.88611,1371.32594
981.88611,1372.10685
981.88611,1372.88777
984.09835,1372.88777
984.09835,1373.66868
984.09835,1374.44959
986.31059,1374.44959
986.31059,1375.2305
986.31059,1376.01142
988.52282,1380.69689
988.52282,1381.47781
988.52282,1376.79233
988.52282,1376.01142
990.73506,1384.60146
990.73506,1383.03963
990.73506,1383.82054
990.73506,1377.57324
990.73506,1385.38237
990.73506,1379.91598
990.73506,1378.35416
990.73506,1379.13507
990.73506,1382.25872
992.94729,1388.50602
992.94729,1379.91598
992.94729,1380.69689
992.94729,1386.9442
992.94729,1387.72511
992.94729,1386.16328
992.94729,1379.13507
995.15953,1382.25872
995.15953,1387.72511
995.15953,1386.9442
995.15953,1390.06785
995.15953,1388.50602
995.15953,1389.28693
995.15953,1381.47781
995.15953,1383.03963
995.15953,1390.84876
995.15953,1393.1915
995.15953,1386.16328
995.15953,1393.97241
997.37176,1391.62967
997.37176,1394.75332
997.37176,1395.53424
997.37176,1390.84876
997.37176,1389.28693
997.37176,1390.06785
997.37176,1383.82054
997.37176,1392.41059
997.37176,1385.38237
997.37176,1396.31515
997.37176,1393.97241
997.37176,1384.60146
999.584,1397.09606
999.584,1397.87698
999.584,1394.75332
999.584,1399.4388
999.584,1396.31515
999.584,1398.65789
999.584,1393.1915
999.584,1391.62967
999.584,1395.53424
1001.79624,1399.4388
1001.79624,1401.00063
1001.79624,1397.09606
1001.79624,1400.21971
1001.79624,1392.41059
1001.79624,1401.78154
1001.79624,1404.12428
1001.79624,1403.34336
1001.79624,1402.56245
1001.79624,1397.87698
1004.00847,1398.65789
1004.00847,1400.21971
1004.00847,1401.78154
1004.00847,1402.56245
1004.00847,1403.34336
1004.00847,1404.12428
1004.00847,1405.6861
1004.00847,1404.90519
1004.00847,1401.00063
1004.00847,1409.59067
1004.00847,1408.80975
1004.00847,1408.02884
1004.00847,1407.24793
1004.00847,1406.46702
1006.22071,1404.90519
1006.22071,1405.6861
1006.22071,1409.59067
1006.22071,1408.80975
1006.22071,1408.02884
1006.22071,1410.37158
1006.22071,1411.15249
1006.22071,1406.46702
1008.43294,1413.49523
1008.43294,1414.27614
1008.43294,1411.15249
1008.43294,1411.93341
1008.43294,1410.37158
1008.43294,1407.24793
1008.43294,1415.05706
1010.64518,1418.18071
1010.64518,1415.83797
1010.64518,1418.96162
1010.64518,1411.93341
1010.64518,1412.71432
1010.64518,1413.49523
1010.64518,1417.39979
1010.64518,1416.61888
1010.64518,1414.27614
1012.85741,1415.05706
1012.85741,1415.83797
1012.85741,1418.18071
1012.85741,1418.96162
1012.85741,1412.71432
1012.85741,1419.74253
1012.85741,1417.39979
1012.85741,1416.61888
1012.85741,1422.08527
1012.85741,1422.86618
1012.85741,1420.52345
1012.85741,1423.6471
1015.06965,1422.86618
1015.06965,1422.08527
1015.06965,1420.52345
1015.06965,1423.6471
1015.06965,1421.30436
1015.06965,1419.74253
1015.06965,1424.42801
1015.06965,1426.77075
1015.06965,1425.98984
1017.28189,1425.20892
1017.28189,1427.55166
1017.28189,1421.30436
1019.49412,1428.33257
1019.49412,1427.55166
1019.49412,1429.11349
1021.70636,1429.8944
1021.70636,1429.11349
1023.91859,1430.67531
1026.13083,1431.45623
1026.13083,1430.67531
1028.34306,1432.23714
1028.34306,1433.01805
1028.34306,1433.79896
1028.34306,1431.45623
1030.5553,1433.79896
1030.5553,1433.01805
1030.5553,1432.23714
1030.5553,1429.8944
1030.5553,1430.67531
1032.76753,1431.45623
1032.76753,1429.8944
1034.97977,1429.8944
1037.19201,1427.55166
1037.19201,1429.11349
1037.19201,1428.33257
1039.40424,1427.55166
1039.40424,1426.77075
1041.61648,1425.98984
1041.61648,1425.20892
1041.61648,1424.42801
1041.61648,1412.71432
1041.61648,1411.93341
1041.61648,1411.15249
1043.82871,1410.37158
1043.82871,1418.18071
1043.82871,1423.6471
1043.82871,1422.86618
1043.82871,1422.08527
1043.82871,1413.49523
1046.04095,1418.18071
1046.04095,1418.96162
1046.04095,1420.52345
1046.04095,1421.30436
1046.04095,1416.61888
1046.04095,1415.83797
1046.04095,1415.05706
1046.04095,1414.27614
1046.04095,1417.39979
1046.04095,1419.74253
1046.04095,1409.59067
1046.04095,1408.80975
1046.04095,1403.34336
1046.04095,1404.12428
1046.04095,1404.90519
1046.04095,1407.24793
1048.25318,1406.46702
1048.25318,1405.6861
1048.25318,1408.02884
1048.25318,1402.56245
1048.25318,1418.96162
1048.25318,1401.00063
1048.25318,1413.49523
1048.25318,1414.27614
1048.25318,1415.05706
1048.25318,1400.21971
1048.25318,1399.4388
1048.25318,1417.39979
1048.25318,1416.61888
1048.25318,1412.71432
1048.25318,1415.83797
1050.46542,1395.53424
1050.46542,1396.31515
1050.46542,1411.93341
1050.46542,1411.15249
1050.46542,1398.65789
1050.46542,1397.87698
1050.46542,1401.78154
1052.67766,1408.02884
1052.67766,1409.59067
1052.67766,1410.37158
1052.67766,1408.80975
1052.67766,1407.24793
1052.67766,1405.6861
1052.67766,1404.90519
1052.67766,1402.56245
1052.67766,1401.78154
1052.67766,1406.46702
1052.67766,1394.75332
1052.67766,1397.09606
1054.88989,1400.21971
1054.88989,1404.12428
1054.88989,1403.34336
1054.88989,1399.4388
1054.88989,1397.09606
1054.88989,1401.00063
1054.88989,1389.28693
1054.88989,1390.06785
1054.88989,1392.41059
1054.88989,1393.1915
1054.88989,1393.97241
1054.88989,1388.50602
1054.88989,1397.87698
1054.88989,1398.65789
1057.10213,1387.72511
1057.10213,1386.9442
1057.10213,1396.31515
1057.10213,1391.62967
1057.10213,1390.84876
1057.10213,1386.16328
1059.31436,1385.38237
1059.31436,1395.53424
1059.31436,1384.60146
1059.31436,1383.82054
1061.5266,1384.60146
1061.5266,1392.41059
1061.5266,1383.03963
1061.5266,1390.06785
1061.5266,1389.28693
1061.5266,1388.50602
1061.5266,1393.97241
1061.5266,1394.75332
1061.5266,1383.82054
1061.5266,1390.84876
1061.5266,1391.62967
1061.5266,1393.1915
1063.73883,1387.72511
1063.73883,1383.82054
1063.73883,1385.38237
1063.73883,1383.03963
1063.73883,1382.25872
1063.73883,1381.47781
1063.73883,1386.9442
1063.73883,1386.16328
1065.95107,1381.47781
1065.95107,1380.69689
1065.95107,1383.82054
1068.16331,1379.91598
1068.16331,1379.13507
1068.16331,1383.82054
1068.16331,1380.69689
1070.37554,1381.47781
1070.37554,1382.25872
1070.37554,1383.03963
1070.37554,1383.82054
1070.37554,1379.13507
1072.58778,1381.47781
1072.58778,1379.13507
1072.58778,1380.69689
1074.80001,1380.69689
1074.80001,1379.13507
1077.01225,1380.69689
1077.01225,1379.13507
1077.01225,1378.35416
1077.01225,1377.57324
1077.01225,1376.79233
1077.01225,1376.01142
1077.01225,1375.2305
1079.22448,1375.2305
1079.22448,1379.13507
1079.22448,1380.69689
1079.22448,1379.91598
1081.43672,1375.2305
1083.64895,1374.44959
1085.86119,1374.44959
1088.07343,1375.2305
1090.28566,1374.44959
1092.4979,1374.44959
1094.71013,1374.44959
1096.92237,1374.44959
1099.1346,1374.44959
1101.34684,1374.44959
1103.55908,1374.44959
1105.77131,1374.44959
1107.98355,1373.66868
1110.19578,1372.88777
1112.40802,1373.66868
1114.62025,1372.88777
1116.83249,1372.88777
1119.04472,1372.10685
1121.25696,1372.10685
1123.4692,1372.88777
1125.68143,1373.66868
1127.89367,1374.44959
1130.1059,1374.44959
1132.31814,1374.44959
1134.53037,1374.44959
1136.74261,1373.66868
1138.95485,1372.88777
1141.16708,1373.66868
1141.16708,1372.88777
1143.37932,1373.66868
1145.59155,1373.66868
1145.59155,1374.44959
1147.80379,1374.44959
1147.80379,1375.2305
1150.01602,1375.2305
1152.22826,1375.2305
1152.22826,1376.01142
1154.4405,1376.01142
1156.65273,1376.79233
1156.65273,1376.01142
1158.86497,1376.79233
1161.0772,1379.91598
1161.0772,1376.79233
1161.0772,1377.57324
1161.0772,1378.35416
1161.0772,1379.13507
1163.28944,1379.91598
1165.50167,1379.91598
1167.71391,1379.91598
1169.92614,1379.13507
1172.13838,1378.35416
1174.35062,1378.35416
1176.56285,1379.13507
1178.77509,1379.91598
1180.98732,1379.91598
1183.19956,1379.91598
1185.41179,1378.35416
1185.41179,1379.13507
1187.62403,1378.35416
1187.62403,1377.57324
1189.83627,1377.57324
1189.83627,1376.79233
1192.0485,1376.01142
1192.0485,1376.79233
1194.26074,1375.2305
1194.26074,1376.01142
1196.47297,1375.2305
1198.68521,1374.44959
1198.68521,1375.2305
1200.89744,1372.88777
1200.89744,1374.44959
1200.89744,1373.66868
1203.10968,1372.88777
1205.32192,1372.88777
1207.53415,1371.32594
1207.53415,1372.10685
1209.74639,1371.32594
1209.74639,1370.54503
1211.95862,1370.54503
1214.17086,1369.76411
1214.17086,1370.54503
1216.38309,1368.9832
1216.38309,1369.76411
1218.59533,1368.20229
1218.59533,1368.9832
1220.80756,1368.20229
1223.0198,1368.20229
1223.0198,1367.42138
1225.23204,1367.42138
1225.23204,1366.64046
1227.44427,1366.64046
1229.65651,1366.64046
1231.86874,1365.07864
1231.86874,1365.85955
1231.86874,1364.29773
1231.86874,1362.7359
1231.86874,1363.51681
1234.08098,1362.7359
1236.29321,1361.95499
1238.50545,1361.95499
1240.71769,1361.95499
1242.92992,1361.17407
1245.14216,1361.17407
1247.35439,1361.17407
1249.56663,1361.95499
1251.77886,1361.95499
1253.9911,1361.17407
1256.20333,1360.39316
1258.41557,1360.39316
1260.62781,1360.39316
1262.84004,1361.17407
1265.05228,1361.95499
1267.26451,1361.95499
1269.47675,1361.95499
1271.68898,1361.95499
1273.90122,1361.17407
1276.11346,1361.17407
1278.32569,1361.17407
1280.53793,1360.39316
1282.75016,1360.39316
1284.9624,1360.39316
1287.17463,1360.39316
1289.38687,1360.39316
1291.59911,1359.61225
1293.81134,1359.61225
1296.02358,1359.61225
1298.23581,1359.61225
1300.44805,1359.61225
1302.66028,1359.61225
1304.87252,1359.61225
1307.08475,1359.61225
1309.29699,1359.61225
1311.50923,1358.83134
1313.72146,1358.83134
1315.9337,1359.61225
1318.14593,1359.61225
1320.35817,1359.61225
1322.5704,1359.61225
1324.78264,1359.61225
1326.99488,1359.61225
1329.20711,1359.61225
1331.41935,1359.61225
1333.63158,1359.61225
1335.84382,1358.83134
1338.05605,1358.83134
1340.26829,1358.83134
1342.48052,1358.83134
1344.69276,1358.83134
1346.905,1358.83134
1349.11723,1358.83134
1351.32947,1358.83134
1353.5417,1358.83134
1355.75394,1358.83134
1357.96617,1358.83134
1360.17841,1358.83134
1362.39065,1359.61225
1364.60288,1359.61225
1366.81512,1359.61225
1369.02735,1359.61225
1371.23959,1360.39316
1373.45182,1360.39316
1375.66406,1359.61225
1377.8763,1358.83134
1380.08853,1358.05042
1382.30077,1358.83134
1384.513,1359.61225
1386.72524,1359.61225
1388.93747,1359.61225
1391.14971,1359.61225
1393.36194,1359.61225
1395.57418,1359.61225
1397.78642,1358.83134
1399.99865,1358.05042
1402.21089,1358.05042
1404.42312,1358.05042
1406.63536,1358.05042
1408.84759,1358.05042
1411.05983,1358.05042
1413.27207,1358.05042
1415.4843,1358.05042
1417.69654,1357.26951
1419.90877,1357.26951
1422.12101,1357.26951
1424.33324,1357.26951
1426.54548,1358.05042
1428.75772,1358.83134
1430.96995,1359.61225
1433.18219,1360.39316
1435.39442,1360.39316
1437.60666,1360.39316
1439.81889,1360.39316
1442.03113,1360.39316
1444.24336,1360.39316
1446.4556,1360.39316
1448.66784,1359.61225
1450.88007,1359.61225
1453.09231,1359.61225
1455.30454,1358.83134
1457.51678,1358.83134
1459.72901,1358.05042
1461.94125,1358.05042
1464.15349,1358.05042
1466.36572,1358.05042
1468.57796,1357.26951
1470.79019,1357.26951
1473.00243,1357.26951
1475.21466,1358.05042
1477.4269,1358.05042
1479.63913,1358.05042
1481.85137,1357.26951
1484.06361,1357.26951
1486.27584,1357.26951
1488.48808,1358.05042
1490.70031,1358.05042
1492.91255,1358.05042
1495.12478,1358.05042
1497.33702,1358.05042
1499.54926,1357.26951
1501.76149,1357.26951
1503.97373,1357.26951
1506.18596,1357.26951
1508.3982,1357.26951
1510.61043,1358.05042
1512.82267,1358.05042
1515.03491,1358.05042
1517.24714,1358.83134
1519.45938,1359.61225
1521.67161,1359.61225
1523.88385,1359.61225
1526.09608,1359.61225
1528.30832,1360.39316
1530.52055,1359.61225
1532.73279,1359.61225
1534.94503,1360.39316
1537.15726,1360.39316
1539.3695,1360.39316
1541.58173,1360.39316
1543.79397,1361.17407
1546.0062,1361.17407
1548.21844,1361.17407
1550.43068,1360.39316
1552.64291,1360.39316
1554.85515,1360.39316
1557.06738,1359.61225
1559.27962,1360.39316
1561.49185,1361.17407
1563.70409,1361.17407
1565.91633,1361.17407
1568.12856,1361.17407
1570.3408,1361.17407
1572.55303,1361.17407
1574.76527,1361.17407
1576.9775,1361.17407
1579.18974,1361.17407
1581.40197,1361.17407
1583.61421,1361.17407
1585.82645,1361.17407
1588.03868,1361.17407
1590.25092,1361.17407
1592.46315,1361.17407
1594.67539,1361.17407
1596.88762,1361.17407
1599.09986,1361.17407
1601.3121,1361.95499
1603.52433,1361.95499
1605.73657,1361.95499
1607.9488,1361.95499
1610.16104,1361.95499
1612.37327,1361.17407
1614.58551,1360.39316
1616.79774,1359.61225
1619.00998,1358.83134
1621.22222,1358.83134
1623.43445,1358.83134
1625.64669,1358.83134
1627.85892,1358.83134
1630.07116,1358.83134
1632.28339,1358.83134
1634.49563,1359.61225
1636.70787,1359.61225
1638.9201,1359.61225
1641.13234,1359.61225
1643.34457,1359.61225
1645.55681,1359.61225
1647.76904,1359.61225
1649.98128,1359.61225
1652.19352,1359.61225
1654.40575,1358.83134
1656.61799,1358.83134
1658.83022,1358.83134
1661.04246,1358.83134
1663.25469,1358.83134
1665.46693,1358.83134
1667.67916,1358.83134
1669.8914,1358.83134
1672.10364,1358.83134
1674.31587,1358.83134
1676.52811,1358.05042
1678.74034,1358.05042
1680.95258,1358.05042
1683.16481,1358.05042
1685.37705,1357.26951
1687.58929,1357.26951
1689.80152,1357.26951
1692.01376,1357.26951
1694.22599,1357.26951
1696.43823,1357.26951
1698.65046,1358.05042
1700.8627,1357.26951
1703.07493,1357.26951
1705.28717,1357.26951
1707.49941,1357.26951
1709.71164,1357.26951
1711.92388,1358.05042
1714.13611,1358.05042
1716.34835,1358.05042
1718.56058,1357.26951
1720.77282,1357.26951
1722.98506,1357.26951
1725.19729,1357.26951
1727.40953,1356.4886
1729.62176,1356.4886
1731.834,1356.4886
1734.04623,1356.4886
1736.25847,1357.26951
1738.47071,1357.26951
1740.68294,1356.4886
1742.89518,1356.4886
1745.10741,1357.26951
1747.31965,1357.26951
1749.53188,1356.4886
1751.74412,1356.4886
1753.95635,1356.4886
1756.16859,1357.26951
1758.38083,1357.26951
1760.59306,1357.26951
1762.8053,1357.26951
1765.01753,1357.26951
1767.22977,1357.26951
1769.442,1357.26951
1771.65424,1357.26951
1773.86648,1357.26951
1776.07871,1356.4886
1778.29095,1356.4886
1780.50318,1356.4886
1782.71542,1356.4886
1784.92765,1356.4886
1787.13989,1356.4886
1789.35213,1356.4886
1791.56436,1356.4886
1793.7766,1356.4886
1795.98883,1356.4886
1798.20107,1355.70768
1800.4133,1355.70768
1802.62554,1355.70768
1804.83777,1355.70768
1807.05001,1356.4886
1809.26225,1356.4886
1811.47448,1356.4886
1813.68672,1356.4886
1815.89895,1356.4886
1818.11119,1356.4886
1820.32342,1356.4886
1822.53566,1356.4886
1824.7479,1356.4886
1826.96013,1356.4886
1829.17237,1355.70768
1831.3846,1355.70768
1833.59684,1355.70768
1835.80907,1355.70768
1838.02131,1355.70768
1840.23354,1355.70768
1842.44578,1355.70768
1844.65802,1355.70768
1846.87025,1355.70768
1849.08249,1355.70768
1851.29472,1355.70768
1853.50696,1355.70768
1855.71919,1355.70768
1857.93143,1355.70768
1860.14367,1355.70768
1862.3559,1355.70768
1864.56814,1355.70768
1866.78037,1355.70768
1868.99261,1355.70768
1871.20484,1355.70768
1873.41708,1355.70768
1875.62932,1355.70768
1877.84155,1355.70768
1880.05379,1355.70768
1882.26602,1355.70768
1884.47826,1355.70768
1886.69049,1355.70768
1888.90273,1355.70768
1891.11496,1355.70768
1893.3272,1355.70768
1895.53944,1355.70768
1897.75167,1355.70768
1899.96391,1355.70768
1902.17614,1355.70768
1904.38838,1355.70768
1906.60061,1355.70768
1908.81285,1355.70768
1911.02509,1355.70768
1913.23732,1355.70768
1915.44956,1355.70768
1917.66179,1355.70768
1919.87403,1354.92677
1922.08626,1354.92677
1924.2985,1354.92677
1926.51073,1354.92677
1928.72297,1354.92677
1930.93521,1354.92677
1933.14744,1354.92677
1935.35968,1354.92677
1937.57191,1354.92677
1939.78415,1354.92677
1941.99638,1354.92677
1944.20862,1354.92677
1946.42086,1354.92677
1948.63309,1354.92677
1950.84533,1354.92677
1953.05756,1354.92677
1955.2698,1354.92677
1957.48203,1354.92677
1959.69427,1354.92677
1961.90651,1354.92677
1964.11874,1354.92677
1966.33098,1354.92677
1968.54321,1354.92677
1970.75545,1355.70768
1972.96768,1356.4886
1975.17992,1356.4886
1977.39215,1356.4886
1979.60439,1357.26951
1981.81663,1357.26951
1984.02886,1356.4886
1986.2411,1356.4886
1988.45333,1356.4886
1990.66557,1356.4886
1992.8778,1356.4886
1995.09004,1356.4886
1997.30228,1356.4886
1999.51451,1356.4886
2001.72675,1355.70768
2003.93898,1354.92677
2006.15122,1354.92677
2008.36345,1354.92677
2010.57569,1354.92677
2012.78793,1354.92677
2015.00016,1354.92677
2017.2124,1354.92677
2019.42463,1354.92677
2021.63687,1354.92677
2023.8491,1354.92677
2026.06134,1354.14586
2028.27357,1354.14586
2030.48581,1354.14586
2032.69805,1354.14586
2034.91028,1354.14586
2037.12252,1354.14586
2039.33475,1354.92677
2041.54699,1355.70768
2043.75922,1356.4886
2045.97146,1357.26951
2048.1837,1357.26951
2050.39593,1357.26951
2052.60817,1357.26951
2054.8204,1357.26951
2057.03264,1357.26951
2059.24487,1357.26951
2061.45711,1357.26951
2063.66934,1357.26951
2065.88158,1357.26951
2068.09382,1357.26951
2070.30605,1357.26951
2072.51829,1357.26951
2074.73052,1357.26951
2076.94276,1357.26951
2079.15499,1357.26951
2081.36723,1357.26951
2083.57947,1357.26951
2085.7917,1357.26951
2088.00394,1357.26951
2090.21617,1357.26951
2092.42841,1357.26951
2094.64064,1357.26951
2096.85288,1357.26951
2099.06512,1357.26951
2101.27735,1357.26951
2103.48959,1357.26951
2105.70182,1357.26951
2107.91406,1357.26951
2110.12629,1357.26951
2112.33853,1357.26951
2114.55076,1357.26951
2116.763,1357.26951
2118.97524,1357.26951
2121.18747,1357.26951
2123.39971,1357.26951
2125.61194,1357.26951
2127.82418,1357.26951
2130.03641,1357.26951
2132.24865,1356.4886
2134.46089,1356.4886
2136.67312,1356.4886
2138.88536,1357.26951
2141.09759,1356.4886
2143.30983,1356.4886
2145.52206,1356.4886
2147.7343,1357.26951
2149.94654,1357.26951
2152.15877,1356.4886
2154.37101,1356.4886
2156.58324,1356.4886
2158.79548,1357.26951
2161.00771,1356.4886
2163.21995,1356.4886
2165.43218,1355.70768
2167.64442,1356.4886
2169.85666,1356.4886
2172.06889,1356.4886
2174.28113,1357.26951
2176.49336,1357.26951
2178.7056,1357.26951
2180.91783,1357.26951
2183.13007,1357.26951
2185.34231,1358.05042
2187.55454,1358.05042
2189.76678,1358.05042
2191.97901,1358.05042
2194.19125,1358.05042
2196.40348,1358.05042
2198.61572,1357.26951
2200.82795,1356.4886
2203.04019,1355.70768
2205.25243,1354.92677
2207.46466,1354.92677
2209.6769,1354.92677
2211.88913,1354.92677
2214.10137,1354.92677
2216.3136,1354.92677
2218.52584,1354.92677
2220.73808,1354.92677
2222.95031,1354.92677
2225.16255,1354.92677
2227.37478,1354.92677
2229.58702,1354.92677
2231.79925,1354.92677
2234.01149,1354.92677
2236.22373,1354.92677
2238.43596,1354.92677
2240.6482,1354.92677
2242.86043,1354.92677
2245.07267,1354.92677
2247.2849,1354.92677
2249.49714,1355.70768
2251.70937,1355.70768
2253.92161,1355.70768
2256.13385,1355.70768
2258.34608,1355.70768
2260.55832,1355.70768
2262.77055,1355.70768
2264.98279,1355.70768
2267.19502,1355.70768
2269.40726,1354.92677
2271.6195,1354.92677
2273.83173,1354.92677
2276.04397,1354.92677
2278.2562,1354.92677
2280.46844,1354.92677
2282.68067,1355.70768
2284.89291,1356.4886
2287.10514,1356.4886
2289.31738,1357.26951
2291.52962,1357.26951
2293.74185,1357.26951
2295.95409,1357.26951
2298.16632,1357.26951
2300.37856,1357.26951
2302.59079,1357.26951
2304.80303,1357.26951
2307.01527,1358.05042
2309.2275,1357.26951
2311.43974,1357.26951
2313.65197,1357.26951
2315.86421,1357.26951
2318.07644,1357.26951
2320.28868,1356.4886
2322.50092,1357.26951
2324.71315,1357.26951
2326.92539,1357.26951
2329.13762,1357.26951
2331.34986,1357.26951
2333.56209,1358.05042
2335.77433,1358.05042
2337.98656,1357.26951
2340.1988,1358.05042
2342.41104,1358.05042
2344.62327,1358.05042
2346.83551,1357.26951
2349.04774,1356.4886
2351.25998,1355.70768
2353.47221,1354.92677
2355.68445,1354.92677
2357.89669,1354.92677
2360.10892,1354.92677
2362.32116,1354.92677
2364.53339,1354.92677
2366.74563,1354.92677
2368.95786,1354.92677
2371.1701,1354.92677
2373.38234,1354.14586
2375.59457,1354.14586
2377.80681,1354.92677
2380.01904,1354.92677
2382.23128,1354.92677
2384.44351,1355.70768
2386.65575,1356.4886
2388.86798,1356.4886
2391.08022,1356.4886
2393.29246,1356.4886
2395.50469,1357.26951
2397.71693,1357.26951
2399.92916,1357.26951
2402.1414,1356.4886
2404.35363,1355.70768
2406.56587,1354.92677
2408.77811,1354.14586
2410.99034,1354.14586
2413.20258,1354.14586
2415.41481,1354.14586
2417.62705,1354.14586
2419.83928,1354.14586
2422.05152,1354.92677
2424.26375,1354.92677
2426.47599,1354.92677
2428.68823,1354.92677
2430.90046,1354.92677
2433.1127,1354.92677
2435.32493,1354.92677
2437.53717,1354.92677
2439.7494,1354.92677
2441.96164,1355.70768
2444.17388,1356.4886
2446.38611,1356.4886
2448.59835,1356.4886
2450.81058,1356.4886
2453.02282,1356.4886
2455.23505,1356.4886
2457.44729,1356.4886
2459.65953,1356.4886
2461.87176,1356.4886
2464.084,1356.4886
2466.29623,1356.4886
2468.50847,1356.4886
2470.7207,1357.26951
2472.93294,1357.26951
2475.14517,1357.26951
2477.35741,1357.26951
2479.56965,1357.26951
2481.78188,1356.4886
2483.99412,1355.70768
2486.20635,1354.92677
2488.41859,1354.92677
2490.63082,1354.92677
2492.84306,1354.92677
2495.0553,1354.14586
2497.26753,1354.14586
2499.47977,1354.14586
2501.692,1354.92677
2503.90424,1354.92677
2506.11647,1354.92677
2508.32871,1354.92677
2510.54095,1354.92677
2512.75318,1354.92677
2514.96542,1354.92677
2517.17765,1354.92677
2519.38989,1354.92677
2521.60212,1355.70768
2523.81436,1356.4886
2526.02659,1356.4886
2528.23883,1356.4886
2530.45107,1356.4886
2532.6633,1356.4886
2534.87554,1356.4886
2537.08777,1356.4886
2539.30001,1356.4886
2541.51224,1356.4886
2543.72448,1356.4886
2545.93672,1356.4886
2548.14895,1356.4886
2550.36119,1356.4886
2552.57342,1356.4886
2554.78566,1356.4886
2556.99789,1356.4886
2559.21013,1356.4886
2561.42236,1356.4886
2563.6346,1356.4886
2565.84684,1356.4886
2568.05907,1356.4886
2570.27131,1356.4886
2572.48354,1356.4886
2574.69578,1356.4886
2576.90801,1356.4886
2579.12025,1356.4886
2581.33249,1356.4886
2583.54472,1356.4886
2585.75696,1356.4886
2587.96919,1356.4886
2590.18143,1356.4886
2592.39366,1356.4886
2594.6059,1356.4886
2596.81814,1356.4886
2599.03037,1356.4886
2601.24261,1356.4886
2603.45484,1356.4886
2605.66708,1356.4886
2607.87931,1356.4886
2610.09155,1356.4886
2612.30378,1356.4886
2614.51602,1356.4886
2616.72826,1356.4886
2618.94049,1356.4886
2621.15273,1356.4886
2623.36496,1356.4886
2625.5772,1356.4886
2627.78943,1356.4886
2630.00167,1356.4886
2632.21391,1356.4886
2634.42614,1356.4886
2636.63838,1356.4886
2638.85061,1356.4886
2641.06285,1356.4886
2643.27508,1356.4886
2645.48732,1356.4886
2647.69955,1356.4886
2649.91179,1356.4886
2652.12403,1356.4886
2654.33626,1356.4886
2656.5485,1356.4886
2658.76073,1356.4886
2660.97297,1356.4886
2663.1852,1356.4886
2665.39744,1356.4886
2667.60968,1356.4886
2669.82191,1356.4886
2672.03415,1356.4886
2674.24638,1356.4886
2676.45862,1356.4886
2678.67085,1356.4886
2680.88309,1356.4886
2683.09533,1356.4886
2685.30756,1356.4886
2687.5198,1356.4886
2689.73203,1356.4886
2691.94427,1356.4886
2694.1565,1356.4886
2696.36874,1356.4886
2698.58097,1356.4886
2700.79321,1356.4886
2703.00545,1356.4886
2705.21768,1356.4886
2707.42992,1356.4886
2709.64215,1357.26951
2711.85439,1357.26951
2714.06662,1357.26951
2716.27886,1357.26951
2718.4911,1357.26951
2720.70333,1357.26951
2722.91557,1357.26951
2725.1278,1357.26951
2727.34004,1357.26951
2729.55227,1357.26951
2731.76451,1357.26951
2733.97675,1357.26951
2736.18898,1357.26951
2738.40122,1357.26951
2740.61345,1357.26951
2742.82569,1357.26951
2745.03792,1357.26951
2747.25016,1356.4886
2749.46239,1356.4886
2751.67463,1356.4886
2753.88687,1357.26951
2756.0991,1356.4886
2758.31134,1356.4886
2760.52357,1357.26951
2762.73581,1356.4886
2764.94804,1356.4886
2767.16028,1357.26951
2769.37252,1356.4886
2771.58475,1356.4886
2773.79699,1357.26951
2776.00922,1357.26951
2778.22146,1356.4886
2780.43369,1356.4886
2782.64593,1356.4886
2784.85816,1356.4886
2787.0704,1356.4886
2789.28264,1356.4886
2791.49487,1356.4886
2793.70711,1357.26951
2795.91934,1357.26951
2798.13158,1357.26951
2800.34381,1357.26951
2802.55605,1357.26951
2804.76829,1357.26951
2806.98052,1357.26951
2809.19276,1357.26951
2811.40499,1357.26951
2813.61723,1357.26951
2815.82946,1357.26951
2818.0417,1358.05042
2820.25394,1358.05042
2822.46617,1357.26951
2824.67841,1357.26951
2826.89064,1357.26951
2829.10288,1357.26951
2831.31511,1357.26951
2833.52735,1357.26951
2835.73958,1357.26951
2837.95182,1357.26951
2840.16406,1357.26951
2842.37629,1358.05042
2844.58853,1358.05042
2846.80076,1358.05042
2849.013,1358.05042
2851.22523,1358.05042
2853.43747,1358.05042
2855.64971,1358.05042
2857.86194,1358.05042
2860.07418,1358.05042
2862.28641,1358.05042
2864.49865,1358.05042
2866.71088,1358.05042
2868.92312,1358.05042
2871.13536,1358.05042
2873.34759,1358.05042
2875.55983,1358.05042
2877.77206,1358.05042
2879.9843,1358.05042
2882.19653,1358.05042
2884.40877,1358.83134
2886.621,1358.83134
2888.83324,1358.83134
2891.04548,1358.83134
2893.25771,1358.05042
2895.46995,1357.26951
2897.68218,1357.26951
2899.89442,1358.05042
2902.10665,1358.05042
2904.31889,1358.05042
2906.53113,1358.83134
2908.74336,1358.83134
2910.9556,1358.83134
2913.16783,1358.83134
2915.38007,1359.61225
2917.5923,1359.61225
2919.80454,1359.61225
2922.01677,1359.61225
2924.22901,1359.61225
2926.44125,1359.61225
2928.65348,1359.61225
2930.86572,1359.61225
2933.07795,1359.61225
2935.29019,1360.39316
2937.50242,1360.39316
2939.71466,1360.39316
2941.9269,1359.61225
2944.13913,1359.61225
2946.35137,1359.61225
2948.5636,1359.61225
2950.77584,1360.39316
2952.98807,1360.39316
2955.20031,1360.39316
2957.41255,1359.61225
2959.62478,1358.83134
2961.83702,1358.83134
2964.04925,1359.61225
2966.26149,1359.61225
2968.47372,1359.61225
2970.68596,1360.39316
2972.89819,1360.39316
2975.11043,1360.39316
2977.32267,1360.39316
2979.5349,1360.39316
2981.74714,1360.39316
2983.95937,1360.39316
2986.17161,1361.17407
2988.38384,1361.17407
2990.59608,1361.17407
2992.80832,1361.17407
2995.02055,1361.17407
2997.23279,1361.17407
2999.44502,1361.17407
3001.65726,1361.17407
3003.86949,1361.17407
3006.08173,1361.17407
3008.29396,1360.39316
3010.5062,1361.17407
3012.71844,1361.95499
3014.93067,1361.95499
3017.14291,1361.95499
3019.35514,1361.95499
3021.56738,1361.95499
3023.77961,1361.95499
3025.99185,1361.95499
3028.20409,1361.95499
3030.41632,1361.95499
3032.62856,1361.17407
3034.84079,1360.39316
3037.05303,1360.39316
3039.26526,1361.17407
3041.4775,1361.17407
3043.68974,1361.17407
3045.90197,1361.95499
3048.11421,1361.95499
3050.32644,1361.95499
3052.53868,1362.7359
3054.75091,1362.7359
3056.96315,1362.7359
3059.17538,1362.7359
3061.38762,1362.7359
3063.59986,1362.7359
3065.81209,1362.7359
3068.02433,1362.7359
3070.23656,1362.7359
3072.4488,1362.7359
3074.66103,1362.7359
3076.87327,1363.51681
3079.08551,1363.51681
3081.29774,1363.51681
3083.50998,1363.51681
3085.72221,1363.51681
3087.93445,1363.51681
3090.14668,1363.51681
3092.35892,1363.51681
3094.57116,1363.51681
3096.78339,1363.51681
3098.99563,1363.51681
3101.20786,1363.51681
3103.4201,1364.29773
3105.63233,1364.29773
3107.84457,1364.29773
3110.0568,1364.29773
3112.26904,1364.29773
3114.48128,1364.29773
3116.69351,1364.29773
3118.90575,1364.29773
3121.11798,1364.29773
3123.33022,1364.29773
3125.54245,1364.29773
3127.75469,1365.07864
3129.96693,1365.07864
3132.17916,1365.07864
3134.3914,1365.07864
3136.60363,1365.07864
3138.81587,1365.07864
3141.0281,1365.07864
3143.24034,1365.07864
3145.45257,1365.07864
3147.66481,1365.07864
3149.87705,1365.07864
3152.08928,1365.85955
3154.30152,1365.85955
3156.51375,1365.85955
3158.72599,1365.85955
3160.93822,1365.07864
3163.15046,1365.85955
3165.3627,1366.64046
3167.57493,1366.64046
3169.78717,1366.64046
3171.9994,1366.64046
3174.21164,1367.42138
3176.42387,1367.42138
3178.63611,1367.42138
3180.84835,1367.42138
3183.06058,1367.42138
3185.27282,1367.42138
3187.48505,1367.42138
3189.69729,1367.42138
3191.90952,1368.20229
3194.12176,1368.20229
3196.33399,1368.20229
3198.54623,1368.20229
3200.75847,1368.20229
3202.9707,1368.20229
3205.18294,1368.20229
3207.39517,1368.20229
3209.60741,1368.20229
3211.81964,1368.20229
3214.03188,1368.20229
3216.24412,1368.20229
3218.45635,1368.9832
3220.66859,1368.9832
3222.88082,1368.9832
3225.09306,1368.20229
3227.30529,1367.42138
3229.51753,1367.42138
3231.72976,1368.20229
3233.942,1368.20229
3236.15424,1368.20229
3238.36647,1368.9832
3240.57871,1368.9832
3242.79094,1368.9832
3245.00318,1368.9832
3247.21541,1368.9832
3249.42765,1369.76411
3251.63989,1369.76411
3253.85212,1369.76411
3256.06436,1369.76411
3258.27659,1369.76411
3260.48883,1370.54503
3262.70106,1370.54503
3264.9133,1370.54503
3267.12554,1370.54503
3269.33777,1370.54503
3271.55001,1370.54503
3273.76224,1370.54503
3275.97448,1370.54503
3278.18671,1371.32594
3280.39895,1371.32594
3282.61118,1371.32594
3284.82342,1371.32594
3287.03566,1370.54503
3289.24789,1370.54503
3291.46013,1371.32594
3293.67236,1372.10685
3295.8846,1372.10685
3298.09683,1372.10685
3300.30907,1372.10685
3302.52131,1372.10685
3304.73354,1372.88777
3306.94578,1372.88777
3309.15801,1372.88777
3311.37025,1372.88777
3313.58248,1373.66868
3315.79472,1373.66868
3318.00696,1373.66868
3320.21919,1372.88777
3322.43143,1373.66868
3324.64366,1373.66868
3326.8559,1373.66868
3329.06813,1372.88777
3331.28037,1373.66868
3333.4926,1374.44959
3335.70484,1374.44959
3337.91708,1374.44959
3340.12931,1375.2305
3342.34155,1375.2305
3344.55378,1376.01142
3346.76602,1375.2305
3348.97825,1374.44959
3351.19049,1374.44959
3353.40273,1375.2305
3353.40273,1374.44959
3355.61496,1376.01142
3355.61496,1375.2305
3357.8272,1376.79233
3357.8272,1376.01142
3360.03943,1376.79233
3362.25167,1376.79233
3362.25167,1377.57324
3364.4639,1377.57324
3366.67614,1377.57324
3368.88837,1377.57324
3371.10061,1377.57324
3373.31285,1378.35416
3373.31285,1377.57324
3375.52508,1379.13507
3375.52508,1378.35416
3377.73732,1379.91598
3377.73732,1379.13507
3379.94955,1382.25872
3379.94955,1379.91598
3379.94955,1380.69689
3379.94955,1381.47781
3382.16179,1383.82054
3382.16179,1382.25872
3382.16179,1383.03963
3384.37402,1384.60146
3386.58626,1385.38237
3386.58626,1384.60146
3388.7985,1385.38237
3391.01073,1385.38237
3391.01073,1386.16328
3393.22297,1386.16328
3393.22297,1386.9442
3395.4352,1386.9442
3395.4352,1387.72511
3395.4352,1388.50602
3395.4352,1389.28693
3397.64744,1389.28693
3397.64744,1390.06785
3399.85967,1390.06785
3399.85967,1390.84876
3399.85967,1391.62967
3402.07191,1391.62967
3402.07191,1392.41059
3404.28415,1392.41059
3406.49638,1392.41059
3408.70862,1392.41059
3410.92085,1392.41059
3410.92085,1393.1915
3413.13309,1393.97241
3413.13309,1394.75332
3413.13309,1395.53424
3413.13309,1396.31515
3415.34532,1397.09606
3415.34532,1397.87698
3415.34532,1401.00063
3417.55756,1398.65789
3417.55756,1400.21971
3417.55756,1399.4388
3417.55756,1401.78154
3419.76979,1402.56245
3421.98203,1403.34336
3421.98203,1404.12428
3421.98203,1404.90519
3421.98203,1408.02884
3424.19427,1406.46702
3424.19427,1405.6861
3424.19427,1407.24793
3424.19427,1408.80975
3424.19427,1409.59067
3426.4065,1410.37158
3426.4065,1411.15249
3428.61874,1411.93341
3428.61874,1412.71432
3428.61874,1413.49523
3428.61874,1414.27614
3428.61874,1417.39979
3428.61874,1422.08527
3430.83097,1416.61888
3430.83097,1415.05706
3430.83097,1418.18071
3430.83097,1418.96162
3430.83097,1422.86618
3430.83097,1415.83797
3430.83097,1421.30436
3433.04321,1420.52345
3433.04321,1419.74253
3433.04321,1423.6471
3435.25544,1424.42801
3435.25544,1425.20892
3435.25544,1425.98984
3437.46768,1426.77075
3437.46768,1427.55166
3437.46768,1428.33257
3439.67992,1429.11349
3439.67992,1429.8944
3439.67992,1430.67531
3439.67992,1431.45623
3439.67992,1432.23714
3439.67992,1433.01805
3441.89215,1433.79896
3441.89215,1441.60809
3441.89215,1440.82718
3441.89215,1440.04627
3441.89215,1436.92261
3441.89215,1437.70353
3441.89215,1434.57988
3441.89215,1435.36079
3441.89215,1436.1417
3444.10439,1439.26535
3444.10439,1438.48444
3444.10439,1442.389
3444.10439,1444.73174
3446.31662,1443.95083
3446.31662,1443.16992
3446.31662,1445.51266
3446.31662,1446.29357
3446.31662,1447.07448
3448.52886,1447.85539
3450.74109,1448.63631
3450.74109,1449.41722
3450.74109,1450.19813
3450.74109,1450.97904
3450.74109,1451.75996
3450.74109,1454.1027
3450.74109,1455.66452
3450.74109,1454.88361
3452.95333,1452.54087
3452.95333,1453.32178
3452.95333,1456.44543
3455.16557,1456.44543
3455.16557,1457.22635
3455.16557,1458.00726
3455.16557,1458.78817
3455.16557,1459.56909
3457.3778,1459.56909
3457.3778,1460.35
3457.3778,1461.13091
3459.59004,1461.13091
3459.59004,1461.91182
3461.80227,1461.91182
3461.80227,1462.69274
3461.80227,1463.47365
3464.01451,1463.47365
3464.01451,1464.25456
3466.22674,1464.25456
3466.22674,1465.03548
3468.43898,1465.81639
3470.65121,1465.81639
3472.86345,1465.81639
3475.07569,1465.03548
3477.28792,1464.25456
3479.50016,1465.03548
3481.71239,1465.81639
3481.71239,1465.03548
3483.92463,1465.03548
3486.13686,1465.03548
3486.13686,1464.25456
3486.13686,1463.47365
3486.13686,1462.69274
3486.13686,1461.91182
3486.13686,1461.13091
3486.13686,1460.35
3488.3491,1460.35
3490.56134,1460.35
3492.77357,1460.35
3494.98581,1460.35
3494.98581,1459.56909
3497.19804,1458.78817
3497.19804,1456.44543
3497.19804,1457.22635
3497.19804,1453.32178
3499.41028,1455.66452
3499.41028,1450.97904
3499.41028,1454.1027
3499.41028,1458.00726
3499.41028,1452.54087
3499.41028,1451.75996
3499.41028,1450.19813
3501.62251,1454.88361
3501.62251,1449.41722
3503.83475,1448.63631
3503.83475,1447.85539
3503.83475,1444.73174
3503.83475,1447.07448
3506.04698,1446.29357
3506.04698,1438.48444
3506.04698,1445.51266
3506.04698,1443.95083
3506.04698,1443.16992
3506.04698,1435.36079
3506.04698,1436.1417
3506.04698,1436.92261
3506.04698,1439.26535
3508.25922,1440.04627
3508.25922,1440.82718
3508.25922,1437.70353
3508.25922,1442.389
3508.25922,1441.60809
3508.25922,1434.57988
3510.47146,1433.79896
3512.68369,1429.11349
3512.68369,1433.01805
3512.68369,1432.23714
3512.68369,1431.45623
3512.68369,1430.67531
3512.68369,1429.8944
3514.89593,1422.86618
3514.89593,1426.77075
3514.89593,1427.55166
3514.89593,1428.33257
3517.10816,1415.83797
3517.10816,1418.18071
3517.10816,1425.98984
3517.10816,1425.20892
3517.10816,1416.61888
3517.10816,1423.6471
3517.10816,1424.42801
3517.10816,1422.08527
3517.10816,1415.05706
3517.10816,1418.96162
3519.3204,1404.90519
3519.3204,1417.39979
3519.3204,1405.6861
3519.3204,1407.24793
3519.3204,1419.74253
3519.3204,1420.52345
3519.3204,1421.30436
3519.3204,1414.27614
3519.3204,1410.37158
3519.3204,1404.12428
3519.3204,1408.02884
3519.3204,1409.59067
3519.3204,1408.80975
3521.53263,1401.78154
3521.53263,1413.49523
3521.53263,1403.34336
3521.53263,1411.15249
3521.53263,1406.46702
3521.53263,1401.00063
3523.74487,1412.71432
3523.74487,1402.56245
3523.74487,1400.21971
3523.74487,1411.93341
3525.95711,1398.65789
3525.95711,1397.87698
3525.95711,1399.4388
3528.16934,1396.31515
3528.16934,1395.53424
3528.16934,1397.09606
3528.16934,1392.41059
3528.16934,1393.1915
3530.38158,1393.97241
3530.38158,1391.62967
3530.38158,1390.84876
3530.38158,1394.75332
3532.59381,1389.28693
3532.59381,1390.06785
3534.80605,1388.50602
3534.80605,1387.72511
3534.80605,1386.9442
3534.80605,1389.28693
3537.01828,1386.16328
3537.01828,1385.38237
3537.01828,1388.50602
3537.01828,1386.9442
3537.01828,1389.28693
3539.23052,1384.60146
3539.23052,1388.50602
3539.23052,1385.38237
3541.44276,1383.03963
3541.44276,1384.60146
3541.44276,1383.82054
3541.44276,1388.50602
3541.44276,1387.72511
3541.44276,1382.25872
3543.65499,1381.47781
3543.65499,1382.25872
3543.65499,1387.72511
3545.86723,1381.47781
3545.86723,1379.13507
3545.86723,1380.69689
3545.86723,1387.72511
3545.86723,1379.91598
3548.07946,1386.16328
3548.07946,1386.9442
3548.07946,1379.13507
3548.07946,1378.35416
3548.07946,1377.57324
3550.2917,1385.38237
3550.2917,1377.57324
3552.50393,1377.57324
3552.50393,1376.79233
3552.50393,1384.60146
3552.50393,1383.82054
3554.71617,1376.79233
3554.71617,1376.01142
3554.71617,1383.03963
3556.9284,1375.2305
3556.9284,1382.25872
3556.9284,1376.01142
3559.14064,1381.47781
3559.14064,1380.69689
3559.14064,1375.2305
3561.35288,1375.2305
3561.35288,1379.91598
3563.56511,1378.35416
3563.56511,1379.13507
3563.56511,1375.2305
3563.56511,1374.44959
3563.56511,1377.57324
3565.77735,1373.66868
3565.77735,1374.44959
3567.98958,1372.88777
3567.98958,1373.66868
3570.20182,1372.88777
3572.41405,1372.88777
3574.62629,1372.10685
3574.62629,1372.88777
3576.83853,1372.10685
3579.05076,1371.32594
3579.05076,1370.54503
3581.263,1370.54503
3583.47523,1370.54503
3585.68747,1369.76411
3587.8997,1368.9832
3587.8997,1368.20229
3590.11194,1368.20229
3592.32417,1367.42138
3592.32417,1368.20229
3594.53641,1367.42138
3594.53641,1366.64046
3596.74865,1366.64046
3598.96088,1366.64046
3601.17312,1365.07864
3601.17312,1364.29773
3601.17312,1363.51681
3601.17312,1362.7359
3601.17312,1365.85955
3603.38535,1362.7359
3605.59759,1361.95499
3607.80982,1361.95499
3610.02206,1361.95499
3612.2343,1361.17407
3614.44653,1361.17407
3616.65877,1361.17407
3618.871,1360.39316
3621.08324,1360.39316
3623.29547,1360.39316
3625.50771,1360.39316
3627.71995,1359.61225
3629.93218,1359.61225
3632.14442,1360.39316
3634.35665,1359.61225
3636.56889,1359.61225
3638.78112,1358.83134
3640.99336,1358.83134
3643.20559,1358.83134
3645.41783,1358.83134
3647.63007,1359.61225
3649.8423,1359.61225
3652.05454,1358.83134
3654.26677,1358.83134
3656.47901,1358.83134
3658.69124,1358.83134
3660.90348,1358.83134
3663.11572,1358.83134
3665.32795,1358.05042
3667.54019,1358.05042
3669.75242,1358.83134
3671.96466,1359.61225
3674.17689,1358.83134
3676.38913,1358.05042
3678.60137,1358.05042
3680.8136,1358.05042
3683.02584,1358.05042
3685.23807,1358.83134
3687.45031,1358.05042
3689.66254,1357.26951
3691.87478,1357.26951
3694.08701,1358.05042
3696.29925,1358.05042
3698.51149,1358.05042
3700.72372,1358.05042
3702.93596,1358.05042
3705.14819,1358.05042
3707.36043,1358.05042
3709.57266,1358.05042
3711.7849,1358.05042
3713.99714,1358.83134
3716.20937,1359.61225
3718.42161,1359.61225
3720.63384,1359.61225
3722.84608,1359.61225
3725.05831,1359.61225
3727.27055,1359.61225
3729.48278,1359.61225
3731.69502,1359.61225
3733.90726,1359.61225
3736.11949,1359.61225
3738.33173,1359.61225
3740.54396,1359.61225
3742.7562,1359.61225
3744.96843,1359.61225
3747.18067,1359.61225
3749.39291,1359.61225
3751.60514,1359.61225
3753.81738,1359.61225
3756.02961,1359.61225
3758.24185,1359.61225
3760.45408,1359.61225
3762.66632,1359.61225
3764.87856,1359.61225
3767.09079,1359.61225
3769.30303,1359.61225
3771.51526,1359.61225
3773.7275,1359.61225
3775.93973,1359.61225
3778.15197,1359.61225
3780.3642,1359.61225
3782.57644,1359.61225
3784.78868,1359.61225
3787.00091,1359.61225
3789.21315,1359.61225
3791.42538,1359.61225
3793.63762,1359.61225
3795.84985,1359.61225
3798.06209,1359.61225
3800.27433,1359.61225
3802.48656,1359.61225
3804.6988,1359.61225
3806.91103,1359.61225
3809.12327,1359.61225
3811.3355,1359.61225
3813.54774,1359.61225
3815.75998,1359.61225
3817.97221,1359.61225
3820.18445,1359.61225
3822.39668,1359.61225
3824.60892,1359.61225
3826.82115,1359.61225
3829.03339,1359.61225
3831.24562,1359.61225
3833.45786,1359.61225
3835.6701,1359.61225
3837.88233,1359.61225
3840.09457,1359.61225
3842.3068,1359.61225
3844.51904,1359.61225
3846.73127,1359.61225
3848.94351,1358.83134
3851.15575,1358.05042
3853.36798,1357.26951
3855.58022,1357.26951
3857.79245,1357.26951
3860.00469,1357.26951
3862.21692,1357.26951
3864.42916,1357.26951
3866.64139,1357.26951
3868.85363,1357.26951
3871.06587,1357.26951
3873.2781,1357.26951
3875.49034,1357.26951
3877.70257,1357.26951
3879.91481,1357.26951
3882.12704,1357.26951
3884.33928,1357.26951
3886.55152,1357.26951
3888.76375,1358.05042
3890.97599,1358.05042
3893.18822,1358.05042
3895.40046,1358.05042
3897.61269,1358.05042
3899.82493,1358.05042
3902.03717,1358.05042
3904.2494,1358.05042
3906.46164,1358.05042
3908.67387,1358.05042
3910.88611,1357.26951
3913.09834,1357.26951
3915.31058,1357.26951
3917.52281,1357.26951
3919.73505,1357.26951
3921.94729,1357.26951
3924.15952,1357.26951
3926.37176,1358.05042
3928.58399,1357.26951
3930.79623,1357.26951
3933.00846,1357.26951
3935.2207,1357.26951
3937.43294,1357.26951
3939.64517,1357.26951
3941.85741,1357.26951
3944.06964,1357.26951
3946.28188,1358.05042
3948.49411,1358.83134
3950.70635,1358.05042
3952.91858,1358.05042
3955.13082,1358.83134
3957.34306,1358.83134
3959.55529,1358.05042
3961.76753,1358.05042
3963.97976,1358.83134
3966.192,1359.61225
3968.40423,1359.61225
3970.61647,1359.61225
3972.82871,1360.39316
3975.04094,1360.39316
3977.25318,1359.61225
3979.46541,1359.61225
3981.67765,1359.61225
3983.88988,1358.83134
3986.10212,1358.83134
