Raman Shift,Intensity
123.861,0.011864
124.3431,0.142246
124.8252,0.203572
125.3074,0.111081
125.7895,0.010491
126.2716,0.022221001
126.7537,0.125443
127.2358,0.303306
127.7179,0.495421
128.2001,0.680564
128.6822,0.837976
129.1643,0.958793
129.6464,1.041279
130.1285,1.048754
130.6106,0.821015
131.0928,0.669765
131.5749,0.713361
132.057,0.900065
132.5391,1.103148
133.0212,1.208173
133.5033,1.19379
133.9855,1.226307
134.4676,1.261903
134.9497,1.365835
135.4318,1.630341
135.9139,2.045683
136.396,2.460089
136.8782,2.698212
137.3603,2.711811
137.8424,2.78943
138.3245,3.028685
138.8066,3.303254
139.2887,3.453154
139.7709,3.417161
140.253,3.325924
140.7351,3.345342
141.2172,3.462606
141.6993,3.593191
142.1814,3.705916
142.6636,3.80427
143.1457,3.906853
143.6278,4.048413
144.1099,3.559698
144.592,4.214237
145.0741,4.549288
145.5563,4.576291
146.0384,3.371495
146.5205,3.755672
147.0026,3.527718
147.4847,3.287757
147.9668,3.96803
148.449,3.061258
148.9311,3.734158
149.4132,3.686469
149.8953,3.949224
150.3774,3.677175
150.8595,3.642011
151.3417,4.166721
151.8238,4.358069
152.3059,4.018732
152.788,4.417022
153.2701,3.509108
153.7522,3.736074
154.2344,4.376529
154.7165,3.982738
155.1986,4.439177
155.6807,4.476593
156.1628,3.256986
156.6449,4.180978
157.1271,4.185624
157.6092,3.2383
158.0913,4.096795
158.5734,3.285757
159.0555,3.074154
159.5376,3.314276
160.0198,3.088706
160.5019,3.603892
160.984,3.410402
161.4661,2.850489
161.9482,2.457199
162.4303,2.176878
162.9125,1.84933
163.3946,1.374469
163.8767,1.016729
164.3588,1.036267
164.8409,1.250833
165.323,1.346995
165.8052,1.222665
166.2873,1.005255
166.7694,0.843941
167.2515,0.733716
167.7336,0.699326
168.2157,0.86455
168.6979,1.078993
169.18,1.150884
169.6621,0.95898
170.1442,0.601237
170.6263,0.355396
171.1084,0.285083
171.5906,0.234827
172.0727,0.153217
172.5548,0.056271002
173.0369,0.040008999
173.519,0.135472
174.0011,0.220705
174.4833,0.214315
174.9654,0.052067999
175.4475,0.24544
175.9296,0.286163
176.4117,0.201498
176.8938,0.037501998
177.376,0.187724
177.8581,0.479572
178.3402,0.612705
178.8223,0.432635
179.3044,0.264487
179.7865,0.229472
180.2687,0.309493
180.7508,0.403247
181.2329,0.465581
181.715,0.491746
182.1971,0.512009
182.6792,0.534845
183.1614,0.546709
183.6435,0.551749
184.1256,0.544883
184.6077,0.490773
185.0898,0.321157
185.5719,0.035197999
186.054,0.047371
186.5362,0.366259
187.0183,0.821638
187.5004,0.822844
187.9825,0.297137
188.4646,0.289739
188.9467,0.502509
189.4289,0.413847
189.911,0.292699
190.3931,0.084665
190.8752,0.087545998
191.3573,0.037519
191.8394,0.599993
192.3216,1.114525
192.8037,1.071958
193.2858,0.686126
193.7679,0.440532
194.25,0.639382
194.7321,1.154041
195.2143,1.576097
195.6964,1.87023
196.1785,2.104147
196.6606,2.283365
197.1427,2.439146
197.6248,2.636111
198.107,2.891626
198.5891,3.213173
199.0712,3.679129
199.5533,4.33828
200.0354,5.111741
200.5175,5.916286
200.9997,6.795579
201.4818,7.823393
201.9639,8.976904
202.446,10.23952
202.9281,12.17747
203.4102,15.00065
203.8924,18.364
204.3745,22.24564
204.8566,26.61959
205.3387,31.43206
205.8208,36.73761
206.3029,42.68482
206.7851,47.90068
207.2672,52.85712
207.7493,56.77549
208.2314,59.02853
208.7135,59.83094
209.1956,59.83866
209.6778,59.53955
210.1599,58.82312
210.642,58.75668
211.1241,59.30964
211.6062,60.38131
212.0883,62.02395
212.5705,64.17472
213.0526,66.6545
213.5347,69.3593
214.0168,72.32229
214.4989,75.20545
214.981,77.7776
215.4632,80.45896
215.9453,83.64741
216.4274,87.32698
216.9095,90.99412
217.3916,94.17974
217.8737,96.88414
218.3559,99.75594
218.838,102.7107
219.3201,105.9252
219.8022,109.6613
220.2843,113.9382
220.7664,118.3227
221.2486,122.3344
221.7307,126.1677
222.2128,130.4771
222.6949,135.5378
223.177,141.0379
223.6591,147.2518
224.1413,154.5147
224.6234,160.2605
225.1055,163.5317
225.5876,163.8257
226.0697,159.2734
226.5518,147.7828
227.034,132.0087
227.5161,115.0354
227.9982,96.16531
228.4803,78.5327
228.9624,63.72275
229.4445,51.35749
229.9267,41.269
230.4088,33.88044
230.8909,28.47983
231.373,23.89028
231.8551,20.1747
232.3372,17.19539
232.8194,15.02938
233.3015,13.42517
233.7836,12.14417
234.2657,11.1201
234.7478,10.30991
235.2299,9.63962
235.7121,9.157137
236.1942,8.720617
236.6763,8.303778
237.1584,7.918257
237.6405,7.568901
238.1227,7.253971
238.6048,6.964838
239.0869,6.679335
239.569,6.360598
240.0511,6.124184
240.5332,5.977776
241.0154,5.914368
241.4975,5.97197
241.9796,6.170589
242.4617,6.408844
242.9438,6.413467
243.4259,5.965225
243.9081,5.621763
244.3902,5.465401
244.8723,5.381304
245.3544,5.338203
245.8365,5.340014
246.3186,5.303123
246.8007,5.044674
247.2829,4.310471
247.765,3.717379
248.2471,3.29274
248.7292,3.006287
249.2113,2.861874
249.6934,2.85076
250.1756,2.922632
250.6577,2.978577
251.1398,2.967758
251.6219,3.018978
252.104,3.181675
252.5861,3.376394
253.0683,3.541279
253.5504,3.655725
254.0325,3.725128
254.5146,3.750141
254.9967,3.644361
255.4788,3.667976
255.961,3.887268
256.4431,4.194798
256.9252,4.533836
257.4073,4.883142
257.8894,5.181131
258.3716,5.31871
258.8537,5.140903
259.3358,5.252165
259.8179,5.84236
260.3,6.607555
260.7821,7.289515
261.2643,7.84474
261.7464,8.38508
262.2285,9.049147
262.7106,9.884182
263.1927,10.61709
263.6748,11.02402
264.157,11.46526
264.6391,12.31536
265.1212,13.59385
265.6033,14.91062
266.0854,15.79582
266.5675,16.24265
267.0497,17.26391
267.5318,19.14176
268.0139,21.41535
268.496,23.74496
268.9781,26.10654
269.4602,28.61473
269.9424,31.30368
270.4245,34.23603
270.9066,37.55879
271.3887,41.29794
271.8708,45.42698
272.3529,50.07217
272.8351,55.19581
273.3172,60.33332
273.7993,65.46603
274.2814,70.30151
274.7635,74.21442
275.2456,76.67715
275.7278,78.76721
276.2099,81.1662
276.692,83.84483
277.1741,86.53867
277.6562,88.98118
278.1383,91.47955
278.6204,94.50752
279.1025,98.1639
279.5847,102.1891
280.0668,106.5166
280.5489,111.1266
281.031,115.7915
281.5131,120.4469
281.9952,125.1157
282.4774,129.8725
282.9595,134.7674
283.4416,139.4297
283.9237,143.5011
284.4058,147.1111
284.8879,150.7876
285.3701,154.4917
285.8522,158.5089
286.3343,163.2314
286.8164,168.6245
287.2985,173.9935
287.7806,179.2485
288.2628,184.2211
288.7449,188.3299
289.227,191.4356
289.7091,193.7373
290.1912,195.8648
290.6733,197.5849
291.1555,197.8384
291.6376,196.5186
292.1197,193.3645
292.6018,187.4536
293.0839,178.2516
293.566,167.4249
294.0482,154.7447
294.5303,141.4218
295.0124,129.6063
295.4945,120.5237
295.9766,113.3148
296.4587,106.5421
296.9409,100.1788
297.423,94.36738
297.9051,89.51363
298.3872,85.10494
298.8693,80.56023
299.3514,75.68433
299.8336,70.63223
300.3157,65.45594
300.7978,60.03888
301.2799,55.05077
301.762,50.99617
302.2441,47.37263
302.7263,43.71606
303.2084,39.89921
303.6905,36.22216
304.1726,33.01138
304.6547,30.28891
305.1368,27.71986
305.619,25.15453
306.1011,22.78636
306.5832,20.79651
307.0653,19.18874
307.5474,17.75802
308.0295,16.33135
308.5117,14.92433
308.9938,13.70312
309.4759,12.77466
309.958,11.95569
310.4401,11.09378
310.9222,10.21811
311.4044,9.444723
311.8865,8.867399
312.3686,8.461702
312.8507,8.127577
313.3328,7.923807
313.8149,7.686235
314.2971,7.320574
314.7792,6.862749
315.2613,6.367231
315.7434,5.823718
316.2255,5.277946
316.7076,4.833607
317.1898,4.509228
317.6719,4.225635
318.154,3.99797
318.6361,3.771317
319.1182,3.464348
319.6003,3.02298
320.0825,2.573689
320.5646,2.297678
321.0467,2.217673
321.5288,2.167023
322.0109,2.129603
322.493,2.079046
322.9752,1.978008
323.4573,1.819557
323.9394,1.674131
324.4215,1.641419
324.9036,1.71804
325.3857,1.702312
325.8679,1.49685
326.35,1.248056
326.8321,1.063708
327.3142,0.936913
327.7963,0.809137
328.2784,0.591813
328.7606,0.325954
329.2427,0.229773
329.7248,0.406954
330.2069,0.597657
330.689,0.646892
331.1711,0.593523
331.6533,0.51451
332.1354,0.437504
332.6175,0.360079
333.0996,0.278685
333.5817,0.194188
334.0638,0.10085
334.546,0.039282002
335.0281,0.177635
335.5102,0.252157
335.9923,0.238139
336.4744,0.178048
336.9565,0.103319
337.4387,0.01095
337.9208,0.042962
338.4029,0.036274001
338.885,0.01912
339.3671,0.135799
339.8492,0.322673
340.3314,0.466864
340.8135,0.433034
341.2956,0.25905
341.7777,0.201764
342.2598,0.393346
342.7419,0.585066
343.2241,0.501898
343.7062,0.204804
344.1883,0.0072579999
344.6704,0.179605
345.1525,0.535816
345.6346,0.651023
346.1168,0.451449
346.5989,0.180289
347.081,0.045359001
347.5631,0.217214
348.0452,0.299922
348.5273,0.22544
349.0095,0.111162
349.4916,0.110447
349.9737,0.226729
350.4558,0.304786
350.9379,0.273705
351.42,0.156013
351.9022,0.022523999
352.3843,0.30499
352.8664,0.523452
353.3485,0.510468
353.8306,0.325399
354.3127,0.205813
354.7949,0.228513
355.277,0.320356
355.7591,0.418304
356.2412,0.525681
356.7233,0.554192
357.2054,0.417126
357.6876,0.198983
358.1697,0.024777999
358.6518,0.090527996
359.1339,0.152862
359.616,0.111162
360.0981,0.00342
360.5803,0.036187001
361.0624,0.408025
361.5445,0.799006
362.0266,0.919117
362.5087,0.793159
362.9908,0.63685
363.473,0.538086
363.9551,0.514407
364.4372,0.606501
364.9193,0.88486
365.4014,1.150212
365.8835,1.326869
366.3657,1.431525
366.8478,1.484485
367.3299,1.482763
367.812,1.469771
368.2941,1.516816
368.7762,1.632972
369.2584,1.761763
369.7405,1.93646
370.2226,2.09646
370.7047,2.146485
371.1868,2.086054
371.6689,2.056524
372.1511,2.201125
372.6332,2.530227
373.1153,2.760549
373.5974,2.881559
374.0795,2.928349
374.5616,2.854895
375.0438,2.717587
375.5259,2.651754
376.008,2.735929
376.4901,2.933475
376.9722,3.117437
377.4543,3.32056
377.9365,3.468405
378.4186,3.472941
378.9007,3.454548
379.3828,3.574114
379.8649,3.867561
380.347,4.201904
380.8292,4.383667
381.3113,4.333626
381.7934,4.366613
382.2755,4.514134
382.7576,4.705009
383.2397,4.91498
383.7219,5.134115
384.204,5.341493
384.6861,5.511272
385.1682,5.651785
385.6503,5.894037
386.1324,6.318863
386.6146,6.761796
387.0967,7.170072
387.5788,7.586876
388.0609,8.084316
388.543,8.690927
389.0251,9.351483
389.5073,9.946879
389.9894,10.3974
390.4715,10.95706
390.9536,11.74316
391.4357,12.54549
391.9178,13.1839
392.4,13.67443
392.8821,14.21514
393.3642,15.05085
393.8463,16.20306
394.3284,17.14353
394.8105,17.75943
395.2927,18.29122
395.7748,18.68434
396.2569,19.07402
396.739,19.70693
397.2211,20.7537
397.7032,21.99336
398.1854,22.94211
398.6675,23.5529
399.1496,24.07873
399.6317,24.42659
400.1138,24.79188
400.5959,25.42354
401.078,26.37198
401.5602,27.27603
402.0423,27.6418
402.5244,27.50237
403.0065,27.64062
403.4886,28.31212
403.9707,29.16284
404.4529,30.02759
404.935,30.86079
405.4171,31.52136
405.8992,31.88313
406.3813,32.0659
406.8634,32.27207
407.3456,32.51205
407.8277,32.68239
408.3098,32.81321
408.7919,32.79076
409.274,32.41601
409.7561,31.55701
410.2383,30.64263
410.7204,30.1056
411.2025,29.73607
411.6846,28.84782
412.1667,27.16909
412.6488,25.19416
413.131,23.48847
413.6131,22.02989
414.0952,20.64534
414.5773,19.34306
415.0594,18.09408
415.5415,16.87948
416.0237,15.69397
416.5058,14.5227
416.9879,13.33067
417.47,12.14762
417.9521,11.15171
418.4342,10.35264
418.9164,9.716978
419.3985,9.293529
419.8806,8.992475
420.3627,8.704232
420.8448,8.391323
421.3269,8.047091
421.8091,7.658365
422.2912,7.20776
422.7733,6.767934
423.2554,6.297635
423.7375,5.872255
424.2196,5.571003
424.7018,5.364429
425.1839,5.152954
425.666,4.862578
426.1481,4.508872
426.6302,4.185815
427.1123,3.792497
427.5945,3.573003
428.0766,3.720786
428.5587,3.970719
429.0408,4.032937
429.5229,3.829286
430.005,3.537288
430.4872,3.409367
430.9693,3.485226
431.4514,3.560467
431.9335,3.68587
432.4156,3.75874
432.8977,3.706338
433.3799,3.564663
433.862,3.429406
434.3441,3.372497
434.8262,3.353403
435.3083,3.242599
435.7904,3.000065
436.2726,2.777738
436.7547,2.613922
437.2368,2.502772
437.7189,2.45982
438.201,2.491989
438.6831,2.53265
439.1653,2.544805
439.6474,2.523101
440.1295,2.41831
440.6116,2.172694
441.0937,1.940695
441.5758,1.879949
442.058,1.94383
442.5401,2.000286
443.0222,2.027317
443.5043,2.020659
443.9864,1.962948
444.4685,1.859687
444.9507,1.749253
445.4328,1.629424
445.9149,1.534972
446.397,1.572755
446.8791,1.824671
447.3612,1.95632
447.8434,1.767943
448.3255,1.460401
448.8076,1.311085
449.2897,1.357316
449.7718,1.37999
450.2539,1.126235
450.7361,0.568844
451.2182,0.404224
451.7003,1.069903
452.1824,1.588693
452.6645,1.4706
453.1466,0.995234
453.6288,0.656743
454.1109,0.671437
454.593,0.871861
455.0751,0.920601
455.5572,0.712208
456.0393,0.554103
456.5215,0.483783
457.0036,0.423151
457.4857,0.328026
457.9678,0.199355
458.4499,0.046693999
458.932,0.150427
459.4142,0.355224
459.8963,0.323595
460.3784,0.144988
460.8605,0.49162
461.3426,0.549705
461.8247,0.445018
462.3069,0.25948
462.789,0.014285
463.2711,0.199115
463.7532,0.273116
464.2353,0.216478
464.7174,0.140653
465.1996,0.040681999
465.6817,0.049499001
466.1638,0.128695
466.6459,0.182542
467.128,0.162873
467.6101,0.028974
468.0923,0.226377
468.5744,0.222528
469.0565,0.035696
469.5386,0.143973
470.0207,0.228838
470.5028,0.285741
470.985,0.446172
471.4671,0.730947
471.9492,0.980569
472.4313,1.138206
472.9134,1.253719
473.3955,1.371184
473.8777,1.497375
474.3598,1.636837
474.8419,1.792239
475.324,1.963683
475.8061,2.152669
476.2882,2.379835
476.7704,2.602663
477.2525,2.793574
477.7346,2.98385
478.2167,3.18049
478.6988,3.398644
479.1809,3.707795
479.6631,4.237748
480.1452,5.071293
480.6273,5.690187
481.1094,5.86999
481.5915,6.060345
482.0736,6.487825
482.5558,7.022847
483.0379,7.388775
483.52,7.432199
484.0021,7.361771
484.4842,7.588036
484.9663,8.184213
485.4485,8.754648
485.9306,9.21174
486.4127,9.631335
486.8948,10.06473
487.3769,10.50928
487.859,10.93047
488.3412,11.26695
488.8233,11.57729
489.3054,12.00676
489.7875,12.57386
490.2696,13.08499
490.7517,13.47936
491.2339,13.71682
491.716,13.74039
492.1981,13.47459
492.6802,13.2179
493.1623,13.01961
493.6444,12.94148
494.1266,13.14695
494.6087,13.65293
495.0908,14.15072
495.5729,14.377
496.055,14.33236
496.5371,14.23754
497.0193,14.0967
497.5014,13.91037
497.9835,13.63953
498.4656,13.33622
498.9477,13.09096
499.4298,12.9324
499.912,12.76856
500.3941,12.46779
500.8762,11.99483
501.3583,11.53245
501.8404,11.18368
502.3225,10.74143
502.8047,10.02807
503.2868,9.182377
503.7689,8.464327
504.251,8.002158
504.7331,7.711495
505.2152,7.46997
505.6974,7.295895
506.1795,7.066549
506.6616,6.735085
507.1437,6.360432
507.6258,5.953192
508.1079,5.527002
508.5901,5.166371
509.0722,4.975493
509.5543,4.845072
510.0364,4.574589
510.5185,4.166353
511.0006,3.802958
511.4828,3.583834
511.9649,3.450453
512.447,3.270514
512.9291,3.012378
513.4112,2.818346
513.8933,2.800049
514.3754,2.81828
514.8575,2.713419
515.3397,2.482548
515.8218,2.237632
516.3039,2.055347
516.786,1.925102
517.2681,1.817923
517.7502,1.854678
518.2324,1.81962
518.7145,1.577232
519.1966,1.282864
519.6787,1.083199
520.1608,1.001671
520.6429,0.972375
521.1251,0.941025
521.6072,0.915418
522.0893,0.869616
522.5714,0.789941
523.0535,0.715836
523.5356,0.665941
524.0178,0.622814
524.4999,0.562746
524.982,0.475734
525.4641,0.382786
525.9462,0.291393
526.4283,0.222222
526.9105,0.247148
527.3926,0.411409
527.8747,0.538853
528.3568,0.452751
528.8389,0.215669
529.321,0.042163
529.8032,0.024165999
530.2853,0.048048999
530.7674,0.046861999
531.2495,0.030664001
531.7316,0.027129
532.2137,0.044736002
532.6959,0.045727
533.178,0.026066
533.6601,0.194889
534.1422,0.283395
534.6243,0.263041
535.1064,0.208135
535.5886,0.093443997
536.0707,0.021992
536.5528,0.029594
537.0349,0.109902
537.517,0.286621
537.9991,0.321077
538.4813,0.190577
538.9634,0.029367
539.4455,0.27258
539.9276,0.471454
540.4097,0.374234
540.8918,0.106185
541.374,0.074500002
541.8561,0.039645001
542.3382,0.063449003
542.8203,0.038674001
543.3024,0.096407004
543.7845,0.17002
544.2667,0.13191
544.7488,0.035994999
545.2309,0.100273
545.713,0.266706
546.1951,0.331511
546.6772,0.17829
547.1594,0.0070759999
547.6415,0.040259998
548.1236,0.001542
548.6057,0.0092770001
549.0878,0.05542
549.5699,0.131414
550.0521,0.104325
550.5342,0.085437
551.0163,0.194654
551.4984,0.212429
551.9805,0.174188
552.4626,0.061765
552.9448,0.089427002
553.4269,0.22754
553.909,0.329519
554.3911,0.391492
554.8732,0.40877
555.3553,0.382653
555.8375,0.292827
556.3196,0.032825999
556.8017,0.168253
557.2838,0.136545
557.7659,0.063969001
558.248,0.255824
558.7302,0.391413
559.2123,0.473403
559.6944,0.507967
560.1765,0.492055
560.6586,0.380549
561.1407,0.125857
561.6229,0.111307
562.105,0.096568003
562.5871,0.228229
563.0692,0.381595
563.5513,0.20645
564.0334,0.011223
564.5156,0.076264001
564.9977,0.065794997
565.4798,0.034986001
565.9619,0.219569
566.444,0.409129
566.9261,0.464078
567.4083,0.33493
567.8904,0.271708
568.3725,0.281789
568.8546,0.356588
569.3367,0.60248
569.8188,0.884
570.301,0.949068
570.7831,0.670812
571.2652,0.336155
571.7473,0.314629
572.2294,0.564708
572.7115,0.743317
573.1937,0.778983
573.6758,0.776772
574.1579,0.818541
574.64,0.894168
575.1221,0.963899
575.6042,1.010704
576.0864,1.065883
576.5685,1.140396
577.0506,1.234284
577.5327,1.356273
578.0148,1.506356
578.4969,1.655805
578.9791,1.773355
579.4612,1.857877
579.9433,1.939955
580.4254,1.990378
580.9075,2.073711
581.3896,2.229039
581.8718,2.40998
582.3539,2.556313
582.836,2.659359
583.3181,2.772792
583.8002,2.960817
584.2823,3.212799
584.7645,3.452456
585.2466,3.688469
585.7287,3.886298
586.2108,3.975343
586.6929,4.041645
587.175,4.237301
587.6572,4.621766
588.1393,4.910587
588.6214,4.822361
589.1035,4.642727
589.5856,4.791668
590.0677,5.277742
590.5499,5.796888
591.032,6.163946
591.5141,6.404137
591.9962,6.61103
592.4783,6.59397
592.9604,6.822718
593.4426,7.57707
593.9247,8.347468
594.4068,8.729592
594.8889,8.795196
595.371,8.890518
595.8531,9.242467
596.3353,9.75602
596.8174,10.22181
597.2995,10.621
597.7816,10.98459
598.2637,11.24092
598.7458,11.58937
599.228,12.29572
599.7101,13.26415
600.1922,13.99577
600.6743,14.14691
601.1564,14.16748
601.6385,14.40432
602.1207,14.81831
602.6028,15.32272
603.0849,15.89329
603.567,16.4195
604.0491,16.75112
604.5313,16.85462
605.0134,17.03817
605.4955,17.34279
605.9776,17.6581
606.4597,18.01597
606.9418,18.33713
607.424,18.48998
607.9061,18.44884
608.3882,18.35699
608.8703,18.40717
609.3524,18.58361
609.8345,18.63654
610.3167,18.5751
610.7988,18.36645
611.2809,17.9405
611.763,17.37604
612.2451,16.74703
612.7272,16.03117
613.2094,15.38902
613.6915,15.0
614.1736,14.66465
614.6557,14.07603
615.1378,13.25754
615.6199,12.5101
616.1021,12.01964
616.5842,11.70383
617.0663,11.34083
617.5484,10.94011
618.0305,10.46269
618.5126,9.79238
618.9948,9.160099
619.4769,8.720356
619.959,8.425793
620.4411,8.145623
620.9232,7.808918
621.4053,7.456972
621.8875,7.137951
622.3696,6.851806
622.8517,6.656432
623.3338,6.607659
623.8159,6.564537
624.298,6.396719
624.7802,6.139376
625.2623,5.905157
625.7444,5.719873
626.2265,5.543303
626.7086,5.286304
627.1907,5.05534
627.6729,5.03838
628.155,5.250728
628.6371,5.522604
629.1192,5.719471
629.6013,5.836327
630.0834,5.818562
630.5656,5.562155
631.0477,5.341526
631.5298,5.134422
632.0119,5.020638
632.494,5.135009
632.9761,5.425959
633.4583,5.632868
633.9404,5.558483
634.4225,5.346758
634.9046,5.189699
635.3867,5.090622
635.8688,5.133394
636.351,5.401417
636.8331,5.677921
637.3152,5.656717
637.7973,5.293406
638.2794,5.152981
638.7615,5.477011
639.2437,5.762766
639.7258,5.750527
640.2079,5.59404
640.69,5.485353
641.1721,5.48772
641.6542,5.615538
642.1364,5.951477
642.6185,6.446346
643.1006,6.651291
643.5827,6.448138
644.0648,6.239709
644.5469,6.10935
645.0291,6.039931
645.5112,6.053585
645.9933,6.157917
646.4754,6.288733
646.9575,6.487339
647.4396,6.640516
647.9218,6.550741
648.4039,6.29767
648.886,6.212684
649.3681,6.434811
649.8502,6.758302
650.3323,6.871696
650.8145,6.721284
651.2966,6.626245
651.7787,6.62324
652.2608,6.636045
652.7429,6.627894
653.225,6.622592
653.7072,6.712541
654.1893,6.915476
654.6714,7.027241
655.1535,6.716486
655.6356,6.145424
656.1177,5.949596
656.5999,6.210599
657.082,6.44762
657.5641,6.428249
658.0462,6.228332
658.5283,5.973334
659.0104,5.643016
659.4926,5.421867
659.9747,5.49029
660.4568,5.511198
660.9389,5.18934
661.421,4.680902
661.9031,4.324892
662.3853,4.248983
662.8674,4.300307
663.3495,4.262125
663.8316,4.125811
664.3137,4.086317
664.7958,4.208761
665.278,4.281671
665.7601,4.222246
666.2422,4.07009
666.7243,3.826078
667.2064,3.472067
667.6885,3.183578
668.1707,3.085348
668.6528,3.066173
669.1349,3.020392
669.617,2.946709
670.0991,2.836978
670.5812,2.671638
671.0634,2.473107
671.5455,2.253862
672.0276,1.98255
672.5097,1.820026
672.9918,1.847856
673.4739,1.897091
673.9561,2.006358
674.4382,2.073865
674.9203,1.899483
675.4024,1.433416
675.8845,1.045403
676.3666,1.165344
676.8488,1.542466
677.3309,1.584407
677.813,1.270532
678.2951,1.006161
678.7772,0.995555
679.2593,1.114106
679.7415,1.134562
680.2236,1.01726
680.7057,0.919879
681.1878,0.841733
681.6699,0.783525
682.152,0.760976
682.6342,0.752108
683.1163,0.714079
683.5984,0.637117
684.0805,0.577992
684.5626,0.630853
685.0447,0.762686
685.5269,0.776768
686.009,0.646817
686.4911,0.530851
686.9732,0.481403
687.4553,0.498114
687.9374,0.632066
688.4196,0.918801
688.9017,1.011615
689.3838,0.692104
689.8659,0.329127
690.348,0.101713
690.8301,0.00072800001
691.3123,0.0067139999
691.7944,0.108826
692.2765,0.220201
692.7586,0.224364
693.2407,0.135039
693.7228,0.167474
694.205,0.392509
694.6871,0.547235
695.1692,0.490185
695.6513,0.354058
696.1334,0.264397
696.6155,0.223915
697.0977,0.241507
697.5798,0.445771
698.0619,0.590079
698.544,0.393244
699.0261,0.020788999
699.5082,0.157578
699.9904,0.046698
700.4725,0.117843
700.9546,0.065747
701.4367,0.180414
701.9188,0.263657
702.4009,0.080909997
702.8831,0.060387
703.3652,0.045616001
703.8473,0.009637
704.3294,0.011442
704.8115,0.031226
705.2936,0.033082001
705.7758,0.098607004
706.2579,0.225904
706.74,0.228006
707.2221,0.139795
707.7042,0.016964
708.1863,0.121536
708.6685,0.205515
709.1505,0.160028
709.6326,0.0074609998
710.1147,0.079182997
710.5969,0.043249998
711.079,0.044911001
711.5611,0.17818
712.0432,0.289279
712.5253,0.229908
713.0074,0.060846001
713.4896,0.0085619995
713.9717,0.165087
714.4538,0.345546
714.9359,0.273731
715.418,0.059847999
715.9001,0.028906001
716.3823,0.043853998
716.8644,0.109204
717.3465,0.035826001
717.8286,0.127741
718.3107,0.199985
718.7928,0.120868
719.275,0.061783001
719.7571,0.064441003
720.2392,0.051537
720.7213,0.056212001
721.2034,0.198128
721.6855,0.246858
722.1677,0.145707
722.6498,0.027164999
723.1319,0.0097580003
723.614,0.051546
724.0961,0.077497996
724.5782,0.079306997
725.0604,0.03757
725.5425,0.071482003
726.0246,0.188903
726.5067,0.17977
726.9888,0.046317
727.4709,0.121754
727.9531,0.116469
728.4352,0.316406
728.9173,0.328786
729.3994,0.251732
729.8815,0.220901
730.3636,0.263997
730.8458,0.289539
731.3279,0.193331
731.81,0.059323002
732.2921,0.035211001
732.7742,0.108726
733.2563,0.185338
733.7385,0.232463
734.2206,0.257864
734.7027,0.269146
735.1848,0.265191
735.6669,0.263778
736.149,0.2394
736.6312,0.251985
737.1133,0.328972
737.5954,0.433561
738.0775,0.552119
738.5596,0.671945
739.0417,0.753665
739.5239,0.775219
740.006,0.752397
740.4881,0.684534
740.9702,0.58744
741.4523,0.500773
741.9344,0.433165
742.4166,0.418455
742.8987,0.501763
743.3808,0.648393
743.8629,0.678728
744.345,0.491279
744.8271,0.372271
745.3093,0.388547
745.7914,0.422685
746.2735,0.374022
746.7556,0.303907
747.2377,0.368179
747.7198,0.655885
748.202,0.907717
748.6841,0.870516
749.1662,0.690773
749.6483,0.631353
750.1304,0.694153
750.6125,0.721265
751.0947,0.62709
751.5768,0.485321
752.0589,0.422376
752.541,0.43913
753.0231,0.537417
753.5052,0.837815
753.9874,1.056594
754.4695,1.091563
754.9516,1.017925
755.4337,0.886548
755.9158,0.709815
756.3979,0.56813
756.8801,0.479781
757.3622,0.44858
757.8443,0.577555
758.3264,0.77909
758.8085,0.811231
759.2906,0.612907
759.7728,0.420436
760.2549,0.491191
760.737,0.762517
761.2191,0.849567
761.7012,0.669316
762.1833,0.524502
762.6655,0.516042
763.1476,0.507574
763.6297,0.356221
764.1118,0.126988
764.5939,0.0095600002
765.076,0.066573001
765.5582,0.207306
766.0403,0.475499
766.5224,0.736044
767.0045,0.833044
767.4866,0.774235
767.9688,0.641324
768.4509,0.481439
768.933,0.34024
769.4151,0.310183
769.8972,0.399044
770.3793,0.432227
770.8615,0.399641
771.3436,0.343659
771.8257,0.21379
772.3078,0.098504998
772.7899,0.185464
773.272,0.507766
773.7542,0.706922
774.2363,0.676614
774.7184,0.54806
775.2005,0.282372
775.6826,0.026071999
776.1647,0.0082029998
776.6469,0.184441
777.129,0.407691
777.6111,0.528493
778.0932,0.553552
778.5753,0.44775
779.0574,0.21592
779.5396,0.098878004
780.0217,0.177175
780.5038,0.291238
780.9859,0.313473
781.468,0.259173
781.9501,0.210966
782.4323,0.137086
782.9144,0.128855
783.3965,0.278002
783.8786,0.409732
784.3607,0.411902
784.8428,0.319243
785.325,0.211238
785.8071,0.128383
786.2892,0.078625999
786.7713,0.080911003
787.2534,0.11973
787.7355,0.161259
788.2177,0.210855
788.6998,0.321314
789.1819,0.517858
789.664,0.712338
790.1461,0.802779
790.6282,0.792984
791.1104,0.747085
791.5925,0.643751
792.0746,0.537661
792.5567,0.427058
793.0388,0.325796
793.5209,0.225186
794.0031,0.14083
794.4852,0.127111
794.9673,0.22775
795.4494,0.348265
795.9315,0.441597
796.4136,0.512834
796.8958,0.56285
797.3779,0.596788
797.86,0.640382
798.3421,0.708555
798.8242,0.756285
799.3063,0.674152
799.7885,0.452613
800.2706,0.38608
800.7527,0.518611
801.2348,0.6832
801.7169,0.863553
802.199,0.998889
802.6812,0.968388
803.1633,0.772165
803.6454,0.646766
804.1275,0.645666
804.6096,0.679009
805.0917,0.728567
805.5739,0.788911
806.056,0.861542
806.5381,0.940988
807.0202,1.012913
807.5023,1.069873
807.9844,1.11192
808.4666,1.13745
808.9487,1.147988
809.4308,1.14683
809.9129,1.134166
810.395,1.122135
810.8771,1.120385
811.3593,1.116536
811.8414,1.08197
812.3235,0.99861
812.8056,0.952293
813.2877,0.99234
813.7698,1.007517
814.252,0.950192
814.7341,0.86593
815.2162,0.777691
815.6983,0.698077
816.1804,0.691028
816.6625,0.897428
817.1447,1.066938
817.6268,0.926913
818.1089,0.666644
818.591,0.611798
819.0731,0.777406
819.5552,0.937071
820.0374,0.940797
820.5195,0.864259
821.0016,0.888961
821.4837,1.020939
821.9658,0.992933
822.4479,0.718858
822.9301,0.515275
823.4122,0.579982
823.8943,0.773712
824.3764,0.850604
824.8585,0.783928
825.3406,0.741285
825.8228,0.770787
826.3049,0.773283
826.787,0.68259
827.2691,0.569443
827.7512,0.502246
828.2333,0.488701
828.7155,0.507554
829.1976,0.555434
829.6797,0.615685
830.1618,0.699152
830.6439,0.774482
831.126,0.726687
831.6082,0.561925
832.0903,0.465633
832.5724,0.552445
833.0545,0.723593
833.5366,0.790325
834.0187,0.745477
834.5009,0.627268
834.983,0.316509
835.4651,0.178097
835.9472,0.515332
836.4293,0.956244
836.9114,1.083276
837.3936,0.908463
837.8757,0.715098
838.3578,0.462849
838.8399,0.304765
839.322,0.349337
839.8041,0.477118
840.2863,0.60482
840.7684,0.702416
841.2505,0.724941
841.7326,0.641244
842.2147,0.548668
842.6968,0.591558
843.179,0.715741
843.6611,0.756172
844.1432,0.709606
844.6253,0.690821
845.1074,0.757144
845.5895,0.80727
846.0717,0.679848
846.5538,0.373642
847.0359,0.278304
847.518,0.538208
848.0001,0.72733
848.4822,0.737556
848.9644,0.673423
849.4465,0.55326
849.9286,0.41785
850.4107,0.390172
850.8928,0.537874
851.3749,0.684732
851.8571,0.787618
852.3392,0.848864
852.8213,0.85528
853.3034,0.825784
853.7855,0.803367
854.2676,0.798416
854.7498,0.763044
855.2319,0.618049
855.714,0.427568
856.1961,0.336481
856.6782,0.337364
857.1603,0.390714
857.6425,0.491579
858.1246,0.574447
858.6067,0.584443
859.0888,0.537982
859.5709,0.495678
860.053,0.461527
860.5352,0.415433
861.0173,0.299393
861.4994,0.236729
861.9815,0.336241
862.4636,0.497469
862.9457,0.586058
863.4279,0.590673
863.91,0.5918
864.3921,0.652511
864.8742,0.66051
865.3563,0.450699
865.8384,0.221581
866.3206,0.260046
866.8027,0.538742
867.2848,0.781086
867.7669,0.813159
868.249,0.74819
868.7311,0.718548
869.2133,0.701638
869.6954,0.605446
870.1775,0.434083
870.6596,0.330835
871.1417,0.364653
871.6238,0.460717
872.106,0.525167
872.5881,0.557527
873.0702,0.500968
873.5523,0.26986
874.0344,0.176791
874.5165,0.403278
874.9987,0.659137
875.4808,0.706157
875.9629,0.602513
876.445,0.494225
876.9271,0.359653
877.4092,0.286502
877.8914,0.329831
878.3735,0.39884
878.8556,0.446489
879.3377,0.478895
879.8198,0.522007
880.3019,0.576772
880.7841,0.597691
881.2662,0.538586
881.7483,0.443767
882.2304,0.349792
882.7125,0.266959
883.1946,0.226002
883.6768,0.233751
884.1589,0.253674
884.641,0.264063
885.1231,0.266125
885.6052,0.24802
886.0873,0.209061
886.5695,0.175016
887.0516,0.140153
887.5337,0.141132
888.0158,0.210335
888.4979,0.303255
888.98,0.35156
889.4622,0.363897
889.9443,0.366701
890.4264,0.298619
890.9085,0.309401
891.3906,0.521725
891.8727,0.711053
892.3549,0.729545
892.837,0.62617
893.3191,0.491913
893.8012,0.336528
894.2833,0.234536
894.7654,0.269667
895.2476,0.328217
895.7297,0.290759
896.2118,0.218933
896.6939,0.2599
897.176,0.409404
897.6581,0.472709
898.1403,0.288752
898.6224,0.025679
899.1045,0.043244001
899.5866,0.049529001
900.0687,0.197691
900.5508,0.38608
901.033,0.458638
901.5151,0.326751
901.9972,0.125696
902.4793,0.050421
902.9614,0.101183
903.4435,0.21556
903.9257,0.475438
904.4078,0.573347
904.8899,0.311659
905.372,0.044108
905.8541,0.078350998
906.3362,0.318074
906.8184,0.48165
907.3005,0.571622
907.7826,0.580111
908.2647,0.419647
908.7468,0.274309
909.2289,0.245491
909.7111,0.275789
910.1932,0.301221
910.6753,0.307996
911.1574,0.293381
911.6395,0.251845
912.1216,0.193889
912.6038,0.098334
913.0859,0.0092630005
913.568,0.012597
914.0501,0.084918
914.5322,0.121024
915.0143,0.075139999
915.4965,0.0029589999
915.9786,0.058302999
916.4607,0.102758
916.9428,0.155869
917.4249,0.213483
917.907,0.211864
918.3892,0.130604
918.8713,0.041576002
919.3534,0.00072299998
919.8355,0.003732
920.3176,0.015277
920.7997,0.072734997
921.2819,0.079669997
921.764,0.022394
922.2461,0.042959001
922.7282,0.133572
923.2103,0.198777
923.6924,0.131753
924.1746,0.056143001
924.6567,0.128797
925.1388,0.021771999
925.6209,0.149615
926.103,0.191078
926.5851,0.215963
927.0673,0.289756
927.5494,0.374985
928.0315,0.392948
928.5136,0.3233
928.9957,0.248367
929.4778,0.179893
929.96,0.155883
930.4421,0.288361
930.9242,0.457424
931.4063,0.461475
931.8884,0.301153
932.3705,0.110631
932.8527,0.045178
933.3348,0.131834
933.8169,0.068437003
934.299,0.092234999
934.7811,0.213674
935.2632,0.287603
935.7454,0.284413
936.2275,0.193671
936.7096,0.125394
937.1917,0.211702
937.6738,0.376326
938.1559,0.387983
938.6381,0.222789
939.1202,0.143158
939.6023,0.216747
940.0844,0.255971
940.5665,0.120335
941.0486,0.053082
941.5308,0.038162999
942.0129,0.190592
942.495,0.3342
942.9771,0.334005
943.4592,0.349021
943.9413,0.438796
944.4235,0.476
944.9056,0.288102
945.3877,0.0021190001
945.8698,0.087369002
946.3519,0.105704
946.834,0.277084
947.3162,0.324431
947.7983,0.32516
948.2804,0.286643
948.7625,0.251418
949.2446,0.243448
949.7267,0.267409
950.2089,0.312817
950.691,0.393157
951.1731,0.431618
951.6552,0.307736
952.1373,0.151642
952.6194,0.13946
953.1016,0.231753
953.5837,0.321565
954.0658,0.371082
954.5479,0.365038
955.03,0.27211
955.5121,0.153043
955.9943,0.103266
956.4763,0.124453
956.9584,0.261488
957.4406,0.514024
957.9227,0.697356
958.4048,0.728462
958.8869,0.654573
959.369,0.509651
959.8511,0.31166
960.3333,0.216187
960.8154,0.23793
961.2975,0.258472
961.7796,0.265221
962.2617,0.237181
962.7438,0.134794
963.226,0.018216999
963.7081,0.02389
964.1902,0.183484
964.6723,0.298329
965.1544,0.374657
965.6365,0.393847
966.1187,0.287317
966.6008,0.183362
967.0829,0.208983
967.565,0.314612
968.0471,0.339593
968.5292,0.221987
969.0114,0.164901
969.4935,0.202696
969.9756,0.298158
970.4577,0.5374
970.9398,0.754749
971.4219,0.746503
971.9041,0.536994
972.3862,0.320095
972.8683,0.115498
973.3504,0.019355999
973.8325,0.167057
974.3146,0.362285
974.7968,0.456448
975.2789,0.45545
975.761,0.368801
976.2431,0.223722
976.7252,0.125753
977.2073,0.173102
977.6895,0.234625
978.1716,0.125515
978.6537,0.04792
979.1358,0.090127997
979.6179,0.0097390004
980.1,0.072912998
980.5822,0.11318
981.0643,0.169086
981.5464,0.332685
982.0285,0.512741
982.5106,0.158261
982.9927,0.51821
983.4749,0.712193
983.957,0.749112
984.4391,0.156407
984.9212,0.378338
985.4033,0.274787
985.8854,0.158566
986.3676,0.497163
986.8497,0.000344
987.3318,0.332433
987.8139,0.334747
988.296,0.489334
988.7781,0.316423
989.2603,0.245584
989.7424,0.503764
990.2245,0.58086
990.7066,0.368795
991.1887,0.527545
991.6708,0.019804001
992.153,0.107438
992.6351,0.449875
993.1172,0.262015
993.5993,0.43998
994.0814,0.479594
994.5635,0.11204
995.0457,0.395983
995.5278,0.429418
996.0099,0.024467001
996.492,0.447985
996.9741,0.062757
997.4562,0.015376
997.9384,0.137746
998.4205,0.051120002
998.9026,0.338115
999.3847,0.261608
999.8668,0.158445
1000.349,0.198343
1000.831,0.164432
1001.313,0.221748
1001.795,0.097448997
1002.277,0.227956
1002.76,0.416781
1003.242,0.161834
1003.724,0.368815
1004.206,0.138687
1004.688,0.039453
1005.17,0.0047780001
1005.652,0.417817
1006.134,0.083157003
1006.616,0.001982
1007.099,0.337124
1007.581,0.324154
1008.063,0.457728
1008.545,0.160283
1009.027,0.269129
1009.509,0.266894
1009.991,0.651407
1010.473,0.731599
1010.956,0.332491
1011.438,0.4535
1011.92,0.531588
1012.402,0.415415
1012.884,0.235905
1013.366,0.154719
1013.848,0.124896
1014.33,0.018012
1014.812,0.123172
1015.295,0.085152
1015.777,0.176448
1016.259,0.400279
1016.741,0.342601
1017.223,0.153208
1017.705,0.119524
1018.187,0.189651
1018.669,0.158491
1019.151,0.030936999
1019.634,0.015576
1020.116,0.083688997
1020.598,0.244663
1021.08,0.39464
1021.562,0.512366
1022.044,0.486867
1022.526,0.336856
1023.008,0.325259
1023.491,0.478158
1023.973,0.574378
1024.455,0.515436
1024.937,0.41525
1025.419,0.400706
1025.901,0.458937
1026.383,0.557277
1026.865,0.706299
1027.348,0.69674
1027.83,0.467043
1028.312,0.347423
1028.794,0.515337
1029.276,0.764866
1029.758,0.836573
1030.24,0.754036
1030.722,0.693578
1031.204,0.651816
1031.687,0.649967
1032.169,0.711261
1032.651,0.722335
1033.133,0.589635
1033.615,0.456088
1034.097,0.532193
1034.579,0.796951
1035.061,0.92312
1035.543,0.850266
1036.026,0.793539
1036.508,0.765919
1036.99,0.751097
1037.472,0.758846
1037.954,0.767597
1038.436,0.732546
1038.918,0.657437
1039.4,0.665116
1039.883,0.838698
1040.365,0.938231
1040.847,0.921834
1041.329,0.866835
1041.811,0.781759
1042.293,0.69284
1042.775,0.621757
1043.257,0.569726
1043.74,0.588684
1044.222,0.777408
1044.704,0.882078
1045.186,0.83792
1045.668,0.780275
1046.15,0.77036
1046.632,0.779405
1047.114,0.761333
1047.596,0.720222
1048.078,0.726351
1048.561,0.880786
1049.043,0.937736
1049.525,0.759901
1050.007,0.602551
1050.489,0.62229
1050.971,0.703163
1051.453,0.693083
1051.935,0.597644
1052.418,0.535347
1052.9,0.577794
1053.382,0.609368
1053.864,0.59069
1054.346,0.577723
1054.828,0.603632
1055.31,0.633534
1055.792,0.627343
1056.275,0.586213
1056.757,0.560503
1057.239,0.570758
1057.721,0.574696
1058.203,0.526586
1058.685,0.496413
1059.167,0.603304
1059.649,0.731392
1060.131,0.758899
1060.614,0.690343
1061.096,0.597128
1061.578,0.454621
1062.06,0.395949
1062.542,0.583832
1063.024,0.770117
1063.506,0.820683
1063.988,0.781726
1064.47,0.703211
1064.953,0.607754
1065.435,0.557112
1065.917,0.578468
1066.399,0.606704
1066.881,0.618204
1067.363,0.626976
1067.845,0.673032
1068.327,0.69709
1068.81,0.55634
1069.292,0.339216
1069.774,0.364705
1070.256,0.783998
1070.738,1.079329
1071.22,0.912097
1071.702,0.691761
1072.184,0.690279
1072.667,0.721439
1073.149,0.530178
1073.631,0.2271
1074.113,0.17107
1074.595,0.499139
1075.077,0.735049
1075.559,0.537828
1076.041,0.338792
1076.523,0.436377
1077.005,0.606605
1077.488,0.616729
1077.97,0.521619
1078.452,0.497982
1078.934,0.587133
1079.416,0.633429
1079.898,0.512482
1080.38,0.402729
1080.862,0.445288
1081.344,0.498446
1081.827,0.365635
1082.309,0.172056
1082.791,0.206675
1083.273,0.503086
1083.755,0.715583
1084.237,0.621783
1084.719,0.522195
1085.201,0.565766
1085.684,0.653525
1086.166,0.727611
1086.648,0.781086
1087.13,0.826083
1087.612,0.856236
1088.094,0.815257
1088.576,0.614417
1089.058,0.472589
1089.541,0.547512
1090.023,0.64886
1090.505,0.625895
1090.987,0.558187
1091.469,0.584803
1091.951,0.688491
1092.433,0.712441
1092.915,0.581993
1093.397,0.446977
1093.88,0.342286
1094.362,0.279302
1094.844,0.261055
1095.326,0.291806
1095.808,0.42133
1096.29,0.597699
1096.772,0.665668
1097.254,0.570081
1097.736,0.475846
1098.219,0.409516
1098.701,0.395553
1099.183,0.482931
1099.665,0.590971
1100.147,0.639745
1100.629,0.65409
1101.111,0.716364
1101.593,0.85088
1102.076,0.897472
1102.558,0.7021
1103.04,0.566572
1103.522,0.671076
1104.004,0.782581
1104.486,0.699792
1104.968,0.530219
1105.45,0.465384
1105.932,0.521193
1106.415,0.561597
1106.897,0.533737
1107.379,0.529565
1107.861,0.613706
1108.343,0.67176
1108.825,0.624488
1109.307,0.532629
1109.789,0.467435
1110.271,0.429554
1110.754,0.38871
1111.236,0.318162
1111.718,0.289385
1112.2,0.337098
1112.682,0.390876
1113.164,0.425229
1113.646,0.457203
1114.128,0.509858
1114.611,0.572963
1115.093,0.616571
1115.575,0.658463
1116.057,0.621532
1116.539,0.406744
1117.021,0.26358
1117.503,0.246127
1117.985,0.306761
1118.468,0.482415
1118.95,0.675624
1119.432,0.674644
1119.914,0.453234
1120.396,0.366182
1120.878,0.5164
1121.36,0.570884
1121.842,0.438177
1122.324,0.302172
1122.807,0.241879
1123.289,0.233983
1123.771,0.254323
1124.253,0.30063
1124.735,0.358898
1125.217,0.447519
1125.699,0.485714
1126.181,0.470784
1126.663,0.388621
1127.146,0.196094
1127.628,0.041563001
1128.11,0.075501002
1128.592,0.229912
1129.074,0.30002
1129.556,0.275511
1130.038,0.309833
1130.52,0.43458
1131.003,0.342607
1131.485,0.080952004
1131.967,0.415187
1132.449,0.376893
1132.931,0.139091
1133.413,0.028997
1133.895,0.135526
1134.377,0.238134
1134.859,0.335183
1135.342,0.391589
1135.824,0.402973
1136.306,0.322846
1136.788,0.126243
1137.27,0.045007002
1137.752,0.030348999
1138.234,0.093780003
1138.716,0.149133
1139.198,0.147499
1139.681,0.131223
1140.163,0.106775
1140.645,0.089198001
1141.127,0.082892999
1141.609,0.080596
1142.091,0.074426003
1142.573,0.093075
1143.055,0.21668
1143.538,0.370624
1144.02,0.395862
1144.502,0.326341
1144.984,0.217132
1145.466,0.106901
1145.948,0.120055
1146.43,0.304746
1146.912,0.44411
1147.395,0.261861
1147.877,0.034554001
1148.359,0.138442
1148.841,0.351446
1149.323,0.348182
1149.805,0.188674
1150.287,0.069656
1150.769,0.036539
1151.251,0.019641001
1151.734,0.024165001
1152.216,0.065922
1152.698,0.092023998
1153.18,0.092400998
1153.662,0.063409001
1154.144,0.00027399999
1154.626,0.139568
1155.108,0.316591
1155.59,0.406841
1156.073,0.064608
1156.555,0.449249
1157.037,0.667082
1157.519,0.727192
1158.001,0.157132
1158.483,0.400607
1158.965,0.317061
1159.447,0.220006
1159.93,0.577925
1160.412,0.099647
1160.894,0.450108
1161.376,0.468888
1161.858,0.639369
1162.34,0.482022
1162.822,0.426167
1163.304,0.698516
1163.786,0.789309
1164.269,0.594972
1164.751,0.775713
1165.233,0.28455
1165.715,0.381892
1166.197,0.733264
1166.679,0.55377
1167.161,0.739641
1167.643,0.786832
1168.125,0.203155
1168.608,0.72157
1169.09,0.765322
1169.572,0.318165
1170.054,0.794223
1170.536,0.411006
1171.018,0.334155
1171.5,0.488262
1171.982,0.402587
1172.465,0.696527
1172.947,0.625688
1173.429,0.521779
1173.911,0.559654
1174.393,0.193455
1174.875,0.575179
1175.357,0.445937
1175.839,0.571394
1176.322,0.754688
1176.804,0.496533
1177.286,0.705242
1177.768,0.190857
1178.25,0.282707
1178.732,0.308131
1179.214,0.720307
1179.696,0.207991
1180.178,0.281037
1180.661,0.603338
1181.143,0.576829
1181.625,0.696116
1182.107,0.383621
1182.589,0.476778
1183.071,0.458311
1183.553,0.826336
1184.035,0.889676
1184.517,0.585019
1185.0,0.281445
1185.482,0.67572
1185.964,0.407466
1186.446,0.497114
1186.928,0.217572
1187.41,0.256895
1187.892,0.292902
1188.374,0.503798
1188.857,0.215345
1189.339,0.556409
1189.821,0.503813
1190.303,0.562843
1190.785,0.624549
1191.267,0.195557
1191.749,0.175983
1192.231,0.740799
1192.714,0.413926
1193.196,0.178088
1193.678,0.133499
1194.16,0.496802
1194.642,0.708157
1195.124,0.621245
1195.606,0.474437
1196.088,0.388875
1196.57,0.344081
1197.052,0.315254
1197.535,0.300831
1198.017,0.281679
1198.499,0.260179
1198.981,0.343637
1199.463,0.531165
1199.945,0.666697
1200.427,0.705045
1200.909,0.638353
1201.392,0.449156
1201.874,0.252475
1202.356,0.234624
1202.838,0.314374
1203.32,0.317564
1203.802,0.279619
1204.284,0.278349
1204.766,0.316919
1205.249,0.379213
1205.731,0.453075
1206.213,0.512931
1206.695,0.566072
1207.177,0.545612
1207.659,0.318012
1208.141,0.078441001
1208.623,0.020698
1209.105,0.015007
1209.588,0.087343
1210.07,0.23279
1210.552,0.288262
1211.034,0.21444
1211.516,0.182329
1211.998,0.298831
1212.48,0.366043
1212.962,0.290853
1213.444,0.207772
1213.927,0.188381
1214.409,0.196823
1214.891,0.180857
1215.373,0.157255
1215.855,0.213767
1216.337,0.40264
1216.819,0.425422
1217.301,0.212262
1217.784,0.119666
1218.266,0.248789
1218.748,0.360946
1219.23,0.317888
1219.712,0.216649
1220.194,0.182113
1220.676,0.19178
1221.158,0.155993
1221.641,0.095703997
1222.123,0.143043
1222.605,0.277685
1223.087,0.361372
1223.569,0.362566
1224.051,0.317565
1224.533,0.245233
1225.015,0.163161
1225.497,0.063703999
1225.979,0.011777
1226.462,0.022967
1226.944,0.027728001
1227.426,0.206525
1227.908,0.416807
1228.39,0.456577
1228.872,0.311516
1229.354,0.175948
1229.836,0.104891
1230.319,0.080982
1230.801,0.113168
1231.283,0.175171
1231.765,0.319147
1232.247,0.425769
1232.729,0.355142
1233.211,0.206102
1233.693,0.17074
1234.176,0.242779
1234.658,0.241948
1235.14,0.114847
1235.622,0.084958002
1236.104,0.193528
1236.586,0.289343
1237.068,0.332973
1237.55,0.34718
1238.032,0.348464
1238.515,0.342337
1238.997,0.345157
1239.479,0.35029
1239.961,0.324817
1240.443,0.277789
1240.925,0.226429
1241.407,0.183618
1241.889,0.204074
1242.371,0.296329
1242.854,0.410266
1243.336,0.523231
1243.818,0.579832
1244.3,0.524063
1244.782,0.394748
1245.264,0.117973
1245.746,0.120674
1246.228,0.058324002
1246.711,0.195114
1247.193,0.416235
1247.675,0.569064
1248.157,0.607833
1248.639,0.387682
1249.121,0.288904
1249.603,0.595545
1250.085,0.71934
1250.568,0.29233
1251.05,0.13992
1251.532,0.234492
1252.014,0.104324
1252.496,0.091603003
1252.978,0.340311
1253.46,0.578231
1253.942,0.823081
1254.424,0.818564
1254.906,0.535265
1255.389,0.288356
1255.871,0.157719
1256.353,0.12608
1256.835,0.202439
1257.317,0.321988
1257.799,0.444327
1258.281,0.537499
1258.763,0.510451
1259.246,0.434572
1259.728,0.437675
1260.21,0.503836
1260.692,0.579379
1261.174,0.642077
1261.656,0.595599
1262.138,0.372313
1262.62,0.193027
1263.103,0.18282
1263.585,0.204705
1264.067,0.160047
1264.549,0.177539
1265.031,0.428461
1265.513,0.729767
1265.995,0.776915
1266.477,0.719824
1266.959,0.622689
1267.442,0.433601
1267.924,0.413912
1268.406,0.569211
1268.888,0.53664
1269.37,0.403641
1269.852,0.271818
1270.334,0.226683
1270.816,0.207671
1271.298,0.159441
1271.781,0.131327
1272.263,0.219357
1272.745,0.363266
1273.227,0.423257
1273.709,0.417069
1274.191,0.371257
1274.673,0.314517
1275.155,0.332856
1275.638,0.464711
1276.12,0.509204
1276.602,0.292027
1277.084,0.081866004
1277.566,0.0091690002
1278.048,0.019385001
1278.53,0.081941999
1279.012,0.211666
1279.495,0.328438
1279.977,0.396549
1280.459,0.316079
1280.941,0.079869002
1281.423,0.064037003
1281.905,0.349473
1282.387,0.502192
1282.869,0.459674
1283.351,0.373343
1283.833,0.286559
1284.316,0.187727
1284.798,0.061705999
1285.28,0.0
