Raman Shift,Intensity
136.057,160.0
136.898,290.0
137.739,260.0
138.58,270.0
139.421,330.0
140.261,380.0
141.102,380.0
141.943,470.0
142.783,610.0
143.623,600.0
144.464,650.0
145.304,720.0
146.144,690.0
146.984,800.0
147.824,760.0
148.663,960.0
149.503,1010.0
150.342,830.0
151.182,990.0
152.021,1010.0
152.86,1170.0
153.699,1260.0
154.538,1200.0
155.377,1170.0
156.216,1340.0
157.055,1430.0
157.893,1280.0
158.732,1450.0
159.57,1520.0
160.408,1390.0
161.246,1650.0
162.084,1590.0
162.922,1470.0
163.76,1690.0
164.598,1780.0
165.435,1710.0
166.273,1940.0
167.11,1860.0
167.948,1960.0
168.785,2130.0
169.622,2290.0
170.459,2110.0
171.296,2260.0
172.133,2270.0
172.969,2320.0
173.806,2380.0
174.642,2290.0
175.479,2430.0
176.315,2290.0
177.151,2270.0
177.987,2370.0
178.823,2440.0
179.659,2230.0
180.495,2350.0
181.33,2520.0
182.166,2350.0
183.001,2500.0
183.836,2710.0
184.672,2650.0
185.507,2670.0
186.342,2770.0
187.177,2740.0
188.011,2920.0
188.846,3010.0
189.681,3180.0
190.515,3200.0
191.35,3400.0
192.184,3950.0
193.018,4150.0
193.852,4770.0
194.686,4830.0
195.52,4630.0
196.354,4430.0
197.187,4000.0
198.021,3650.0
198.854,3580.0
199.688,3570.0
200.521,3370.0
201.354,3460.0
202.187,3380.0
203.02,3490.0
203.853,3510.0
204.685,3530.0
205.518,3760.0
206.351,3540.0
207.183,3700.0
208.015,3590.0
208.847,3750.0
209.68,3780.0
210.512,3960.0
211.343,4150.0
212.175,4190.0
213.007,4350.0
213.838,4600.0
214.67,4670.0
215.501,4800.0
216.333,4610.0
217.164,4540.0
217.995,4430.0
218.826,4150.0
219.657,4160.0
220.487,4270.0
221.318,4080.0
222.148,4020.0
222.979,4210.0
223.809,3960.0
224.639,4080.0
225.47,4020.0
226.3,4240.0
227.129,4060.0
227.959,4220.0
228.789,4130.0
229.619,4220.0
230.448,4320.0
231.278,4180.0
232.107,4220.0
232.936,4470.0
233.765,4230.0
234.594,4420.0
235.423,4390.0
236.252,4330.0
237.08,4550.0
237.909,4670.0
238.737,4450.0
239.566,4690.0
240.394,4390.0
241.222,4730.0
242.05,4610.0
242.878,4640.0
243.706,4620.0
244.534,4450.0
245.361,4810.0
246.189,4700.0
247.016,4760.0
247.844,4960.0
248.671,4890.0
249.498,4810.0
250.325,5000.0
251.152,4950.0
251.979,5110.0
252.806,5220.0
253.632,5180.0
254.459,5150.0
255.285,5320.0
256.112,5540.0
256.938,5740.0
257.764,6010.0
258.59,6720.0
259.416,7630.0
260.242,9450.0
261.067,10770.0
261.893,10700.0
262.718,9730.0
263.544,8240.0
264.369,7290.0
265.194,6550.0
266.019,5950.0
266.844,5810.0
267.669,5780.0
268.494,5710.0
269.318,5670.0
270.143,5560.0
270.967,5710.0
271.792,5440.0
272.616,5500.0
273.44,5790.0
274.264,5640.0
275.088,5650.0
275.912,5770.0
276.736,5920.0
277.559,5710.0
278.383,5930.0
279.206,5720.0
280.03,5770.0
280.853,5980.0
281.676,5740.0
282.499,5910.0
283.322,6090.0
284.145,6230.0
284.968,5950.0
285.79,5890.0
286.613,6030.0
287.435,6150.0
288.257,6110.0
289.08,6140.0
289.902,6270.0
290.724,6240.0
291.546,6340.0
292.368,6460.0
293.189,6330.0
294.011,6380.0
294.832,6230.0
295.654,6240.0
296.475,6520.0
297.296,6460.0
298.117,6450.0
298.938,6220.0
299.759,6510.0
300.58,6420.0
301.401,6560.0
302.221,6580.0
303.042,6540.0
303.862,6500.0
304.682,6650.0
305.502,6750.0
306.323,6780.0
307.143,6820.0
307.962,6990.0
308.782,6760.0
309.602,6920.0
310.421,7020.0
311.241,6910.0
312.06,7030.0
312.879,6750.0
313.699,7160.0
314.518,6970.0
315.337,7040.0
316.155,6970.0
316.974,7120.0
317.793,7150.0
318.611,7240.0
319.43,7100.0
320.248,7060.0
321.066,7270.0
321.885,7310.0
322.703,7350.0
323.521,7340.0
324.338,7410.0
325.156,7300.0
325.974,7490.0
326.791,7290.0
327.609,7520.0
328.426,7390.0
329.243,7450.0
330.06,7480.0
330.877,7660.0
331.694,7770.0
332.511,7770.0
333.328,7610.0
334.145,7670.0
334.961,7720.0
335.777,7780.0
336.594,7690.0
337.41,8010.0
338.226,7850.0
339.042,7830.0
339.858,7890.0
340.674,7890.0
341.49,7930.0
342.305,8050.0
343.121,8020.0
343.936,8260.0
344.751,8110.0
345.567,8080.0
346.382,8320.0
347.197,8130.0
348.012,8330.0
348.826,8320.0
349.641,8240.0
350.456,8210.0
351.27,8210.0
352.085,8680.0
352.899,8340.0
353.713,8330.0
354.527,8510.0
355.341,8530.0
356.155,8510.0
356.969,8630.0
357.783,8400.0
358.596,8580.0
359.41,8670.0
360.223,8640.0
361.036,8690.0
361.85,8690.0
362.663,8950.0
363.476,8870.0
364.289,8530.0
365.101,8980.0
365.914,8900.0
366.727,9100.0
367.539,8940.0
368.351,8850.0
369.164,9140.0
369.976,8980.0
370.788,8930.0
371.6,9090.0
372.412,8900.0
373.224,9180.0
374.035,9130.0
374.847,9080.0
375.658,9230.0
376.47,8950.0
377.281,9200.0
378.092,9340.0
378.903,9040.0
379.714,9300.0
380.525,9270.0
381.336,9380.0
382.147,9280.0
382.957,9360.0
383.768,9200.0
384.578,9460.0
385.388,9320.0
386.199,9440.0
387.009,9420.0
387.819,9750.0
388.629,9630.0
389.438,9630.0
390.248,9540.0
391.058,9770.0
391.867,9760.0
392.676,9640.0
393.486,9420.0
394.295,9840.0
395.104,9540.0
395.913,9710.0
396.722,9790.0
397.531,9800.0
398.339,9890.0
399.148,9900.0
399.956,9990.0
400.765,9880.0
401.573,9970.0
402.381,10020.0
403.189,10120.0
403.997,10000.0
404.805,9990.0
405.613,10110.0
406.421,10070.0
407.228,10030.0
408.036,10170.0
408.843,10120.0
409.65,10190.0
410.458,10450.0
411.265,10150.0
412.072,10170.0
412.879,10230.0
413.685,10430.0
414.492,10160.0
415.299,10390.0
416.105,10190.0
416.912,10280.0
417.718,10310.0
418.524,10520.0
419.33,10530.0
420.136,10360.0
420.942,10540.0
421.748,10620.0
422.554,10370.0
423.359,10580.0
424.165,10630.0
424.97,10570.0
425.775,10680.0
426.58,10700.0
427.386,10600.0
428.191,10840.0
428.996,10530.0
429.8,10670.0
430.605,10850.0
431.41,10830.0
432.214,10890.0
433.019,10900.0
433.823,10960.0
434.627,11050.0
435.431,11070.0
436.235,10900.0
437.039,11180.0
437.843,11150.0
438.647,10850.0
439.45,11170.0
440.254,11040.0
441.057,11340.0
441.86,11040.0
442.664,11040.0
443.467,11180.0
444.27,11310.0
445.073,11220.0
445.876,11230.0
446.678,11260.0
447.481,11400.0
448.283,11300.0
449.086,11420.0
449.888,11430.0
450.69,11490.0
451.493,11410.0
452.295,11460.0
453.097,11640.0
453.898,11610.0
454.7,11540.0
455.502,11510.0
456.303,11710.0
457.105,11710.0
457.906,11690.0
458.707,11650.0
459.508,11850.0
460.309,12020.0
461.11,12000.0
461.911,11770.0
462.712,12130.0
463.513,12040.0
464.313,11990.0
465.114,12380.0
465.914,12070.0
466.714,12090.0
467.514,12150.0
468.315,12210.0
469.115,12150.0
469.914,12170.0
470.714,12460.0
471.514,12100.0
472.313,12400.0
473.113,12530.0
473.912,12440.0
474.711,12220.0
475.511,12510.0
476.31,12330.0
477.109,12490.0
477.908,12450.0
478.706,12400.0
479.505,12530.0
480.304,12380.0
481.102,12650.0
481.901,12440.0
482.699,12520.0
483.497,12650.0
484.295,12580.0
485.093,12710.0
485.891,12450.0
486.689,12750.0
487.487,12820.0
488.284,12750.0
489.082,12720.0
489.879,13010.0
490.676,12830.0
491.474,12600.0
492.271,12790.0
493.068,12880.0
493.865,12740.0
494.661,12880.0
495.458,12970.0
496.255,13070.0
497.051,12830.0
497.848,13080.0
498.644,13080.0
499.44,12950.0
500.237,13050.0
501.033,13100.0
501.829,13210.0
502.624,13120.0
503.42,13050.0
504.216,13330.0
505.011,13380.0
505.807,13490.0
506.602,13000.0
507.397,13350.0
508.193,13510.0
508.988,13330.0
509.783,13440.0
510.577,13390.0
511.372,13650.0
512.167,13480.0
512.961,13650.0
513.756,13470.0
514.55,13180.0
515.345,13730.0
516.139,13480.0
516.933,13650.0
517.727,13740.0
518.521,13780.0
519.315,13790.0
520.108,13620.0
520.902,13680.0
521.695,13750.0
522.489,14210.0
523.282,13730.0
524.075,13960.0
524.868,13960.0
525.661,13890.0
526.454,13800.0
527.247,13830.0
528.04,13840.0
528.833,14220.0
529.625,14120.0
530.418,13900.0
531.21,14150.0
532.002,14120.0
532.794,13950.0
533.586,14100.0
534.378,13990.0
535.17,14360.0
535.962,14180.0
536.754,14030.0
537.545,14390.0
538.337,14460.0
539.128,14230.0
539.919,14190.0
540.71,14550.0
541.502,14250.0
542.293,14380.0
543.083,14470.0
543.874,14500.0
544.665,14370.0
545.455,14310.0
546.246,14440.0
547.036,14350.0
547.827,14530.0
548.617,14400.0
549.407,14390.0
550.197,14530.0
550.987,14660.0
551.777,14380.0
552.566,14730.0
553.356,14650.0
554.146,14480.0
554.935,14500.0
555.724,14540.0
556.514,14700.0
557.303,14670.0
558.092,14690.0
558.881,14550.0
559.67,14790.0
560.458,14920.0
561.247,14860.0
562.036,14770.0
562.824,14920.0
563.612,14790.0
564.401,14860.0
565.189,14940.0
565.977,14960.0
566.765,14790.0
567.553,14990.0
568.341,15310.0
569.128,14920.0
569.916,14990.0
570.704,15080.0
571.491,14800.0
572.278,15010.0
573.065,15070.0
573.853,15080.0
574.64,15110.0
575.427,15400.0
576.213,15260.0
577.0,15220.0
577.787,15300.0
578.573,15440.0
579.36,15210.0
580.146,15300.0
580.932,15610.0
581.718,15370.0
582.505,15330.0
583.291,15710.0
584.076,15650.0
584.862,15580.0
585.648,15640.0
586.433,15680.0
587.219,15850.0
588.004,15770.0
588.79,15770.0
589.575,15740.0
590.36,15850.0
591.145,15790.0
591.93,15880.0
592.715,16120.0
593.499,15910.0
594.284,16030.0
595.069,15870.0
595.853,16080.0
596.637,15720.0
597.422,16040.0
598.206,16280.0
598.99,15940.0
599.774,16350.0
600.558,15920.0
601.341,16010.0
602.125,16190.0
602.909,16210.0
603.692,16280.0
604.475,16070.0
605.259,16020.0
606.042,16610.0
606.825,16390.0
607.608,16320.0
608.391,16290.0
609.174,16490.0
609.956,16340.0
610.739,16570.0
611.522,16180.0
612.304,16610.0
613.086,16490.0
613.868,16450.0
614.651,16480.0
615.433,16740.0
616.215,16600.0
616.996,16680.0
617.778,16480.0
618.56,16590.0
619.341,16820.0
620.123,16740.0
620.904,16990.0
621.686,17000.0
622.467,17280.0
623.248,16830.0
624.029,16880.0
624.81,17030.0
625.591,17240.0
626.371,17020.0
627.152,16910.0
627.932,17170.0
628.713,17170.0
629.493,17370.0
630.273,17030.0
631.054,17360.0
631.834,17260.0
632.614,17260.0
633.393,17260.0
634.173,17340.0
634.953,17140.0
635.732,17360.0
636.512,17490.0
637.291,17360.0
638.07,17740.0
638.85,17590.0
639.629,17650.0
640.408,17460.0
641.187,17490.0
641.965,17790.0
642.744,17370.0
643.523,17820.0
644.301,17680.0
645.08,17920.0
645.858,17730.0
646.636,17960.0
647.414,17640.0
648.193,17920.0
648.97,17720.0
649.748,18180.0
650.526,17930.0
651.304,17710.0
652.081,17780.0
652.859,18210.0
653.636,17780.0
654.414,18390.0
655.191,18190.0
655.968,18320.0
656.745,18140.0
657.522,18320.0
658.299,18440.0
659.075,18190.0
659.852,18420.0
660.628,18400.0
661.405,18280.0
662.181,18520.0
662.957,18610.0
663.734,18390.0
664.51,18440.0
665.286,18650.0
666.062,18620.0
666.837,18510.0
667.613,18670.0
668.389,18620.0
669.164,18560.0
669.94,18690.0
670.715,18690.0
671.49,18820.0
672.265,18560.0
673.04,18470.0
673.815,18530.0
674.59,19020.0
675.365,18840.0
676.139,18990.0
676.914,18640.0
677.688,19010.0
678.463,19030.0
679.237,19010.0
680.011,18820.0
680.785,18970.0
681.559,19290.0
682.333,18780.0
683.107,19130.0
683.881,19200.0
684.654,19170.0
685.428,19210.0
686.201,19250.0
686.975,19420.0
687.748,19220.0
688.521,19570.0
689.294,19440.0
690.067,19310.0
690.84,19450.0
691.613,19580.0
692.385,19420.0
693.158,19830.0
693.93,19400.0
694.703,19670.0
695.475,19730.0
696.247,19530.0
697.019,19810.0
697.791,19740.0
698.563,19900.0
699.335,20060.0
700.107,20050.0
700.878,20500.0
701.65,20240.0
702.421,20550.0
703.193,20790.0
703.964,20940.0
704.735,20940.0
705.506,21220.0
706.277,21100.0
707.048,21330.0
707.819,21400.0
708.59,21210.0
709.36,20990.0
710.131,20930.0
710.901,20820.0
711.672,20840.0
712.442,20750.0
713.212,20620.0
713.982,20560.0
714.752,20870.0
715.522,20300.0
716.292,20690.0
717.061,20740.0
717.831,20620.0
718.6,20520.0
719.37,20540.0
720.139,20460.0
720.908,20660.0
721.677,20670.0
722.446,20570.0
723.215,20710.0
723.984,20360.0
724.753,20940.0
725.522,20710.0
726.29,20530.0
727.059,20870.0
727.827,20620.0
728.595,20670.0
729.364,21020.0
730.132,20680.0
730.9,20970.0
731.668,20690.0
732.435,20910.0
733.203,20950.0
733.971,20850.0
734.738,20940.0
735.506,21070.0
736.273,21010.0
737.04,21010.0
737.807,20990.0
738.575,21020.0
739.341,21200.0
740.108,20980.0
740.875,20940.0
741.642,20950.0
742.408,21160.0
743.175,21090.0
743.941,21220.0
744.708,21150.0
745.474,21260.0
746.24,21060.0
747.006,21160.0
747.772,21060.0
748.538,21270.0
749.304,21330.0
750.069,21020.0
750.835,21040.0
751.6,21110.0
752.366,21120.0
753.131,21260.0
753.896,21460.0
754.662,21280.0
755.427,21210.0
756.191,21160.0
756.956,21400.0
757.721,21190.0
758.486,21140.0
759.25,21410.0
760.015,21430.0
760.779,21240.0
761.543,21430.0
762.308,21570.0
763.072,21260.0
763.836,21330.0
764.6,21230.0
765.364,21560.0
766.127,21300.0
766.891,21660.0
767.654,21290.0
768.418,21410.0
769.181,21740.0
769.945,21760.0
770.708,21810.0
771.471,21420.0
772.234,21770.0
772.997,21840.0
773.76,21160.0
774.522,21330.0
775.285,21800.0
776.047,21400.0
776.81,21800.0
777.572,21450.0
778.334,21720.0
779.097,21840.0
779.859,21380.0
780.621,21850.0
781.383,21890.0
782.144,21740.0
782.906,21700.0
783.668,21860.0
784.429,21860.0
785.191,21640.0
785.952,22220.0
786.713,21960.0
787.474,21620.0
788.235,21900.0
788.996,21900.0
789.757,21790.0
790.518,21730.0
791.279,21910.0
792.039,22270.0
792.8,21680.0
793.56,21720.0
794.321,22070.0
795.081,22210.0
795.841,21740.0
796.601,21920.0
797.361,21830.0
798.121,21770.0
798.881,22140.0
799.64,21780.0
800.4,21920.0
801.159,22000.0
801.919,21880.0
802.678,21980.0
803.437,22140.0
804.196,21920.0
804.955,21930.0
805.714,21920.0
806.473,21960.0
807.232,22200.0
807.991,22390.0
808.749,22070.0
809.508,22180.0
810.266,22570.0
811.025,22440.0
811.783,22880.0
812.541,22530.0
813.299,22570.0
814.057,22950.0
814.815,22650.0
815.572,22730.0
816.33,22760.0
817.088,22630.0
817.845,22750.0
818.603,22950.0
819.36,22450.0
820.117,22640.0
820.874,22820.0
821.631,22610.0
822.388,22580.0
823.145,22510.0
823.902,23080.0
824.658,23090.0
825.415,22330.0
826.171,22520.0
826.928,22970.0
827.684,23060.0
828.44,23170.0
829.196,22880.0
829.953,22840.0
830.708,23080.0
831.464,23550.0
832.22,23140.0
832.976,23300.0
833.731,23250.0
834.487,23100.0
835.242,23040.0
835.997,23300.0
836.753,23260.0
837.508,23570.0
838.263,23340.0
839.018,23500.0
839.773,23430.0
840.527,23510.0
841.282,23320.0
842.037,23270.0
842.791,23310.0
843.545,23690.0
844.3,23410.0
845.054,23670.0
845.808,23230.0
846.562,23810.0
847.316,23480.0
848.07,23470.0
848.824,23480.0
849.577,23600.0
850.331,23660.0
851.084,23480.0
851.838,23610.0
852.591,23910.0
853.344,23670.0
854.097,23900.0
854.85,23750.0
855.603,23670.0
856.356,23830.0
857.109,23780.0
857.861,24150.0
858.614,23880.0
859.367,23880.0
860.119,24390.0
860.871,23650.0
861.623,24220.0
862.376,23900.0
863.128,24140.0
863.879,24020.0
864.631,23950.0
865.383,24150.0
866.135,24250.0
866.886,24160.0
867.638,24310.0
868.389,23920.0
869.141,24420.0
869.892,24650.0
870.643,24090.0
871.394,24470.0
872.145,24490.0
872.896,24400.0
873.646,24650.0
874.397,24120.0
875.148,24470.0
875.898,24680.0
876.649,24980.0
877.399,24660.0
878.149,24490.0
878.899,24690.0
879.649,25140.0
880.399,24620.0
881.149,24820.0
881.899,24770.0
882.649,24860.0
883.398,24980.0
884.148,25070.0
884.897,24890.0
885.646,25020.0
886.396,25230.0
887.145,24860.0
887.894,24780.0
888.643,25080.0
889.392,25050.0
890.14,24920.0
890.889,25100.0
891.638,25080.0
892.386,25280.0
893.135,25320.0
893.883,25050.0
894.631,25060.0
895.379,25200.0
896.127,25660.0
896.875,25270.0
897.623,25170.0
898.371,25190.0
899.119,25380.0
899.866,25480.0
900.614,25440.0
901.361,24990.0
902.109,25850.0
902.856,25480.0
903.603,25470.0
904.35,25380.0
905.097,25720.0
905.844,25680.0
906.591,25610.0
907.337,25860.0
908.084,25720.0
908.831,25980.0
909.577,25730.0
910.323,25730.0
911.07,26070.0
911.816,26220.0
912.562,26080.0
913.308,25800.0
914.054,26170.0
914.8,26310.0
915.545,26310.0
916.291,26290.0
917.037,26070.0
917.782,26300.0
918.527,26550.0
919.273,26670.0
920.018,26500.0
920.763,26680.0
921.508,26940.0
922.253,26440.0
922.998,26670.0
923.743,26750.0
924.487,27010.0
925.232,27130.0
925.976,26930.0
926.721,26790.0
927.465,27070.0
928.209,27390.0
928.953,27020.0
929.697,27180.0
930.441,27030.0
931.185,27310.0
931.929,27550.0
932.672,27340.0
933.416,27470.0
934.16,27510.0
934.903,27120.0
935.646,27490.0
936.39,27530.0
937.133,27530.0
937.876,27830.0
938.619,27840.0
939.362,27280.0
940.104,27860.0
940.847,27950.0
941.59,28090.0
942.332,27890.0
943.075,27680.0
943.817,28440.0
944.559,28130.0
945.301,27870.0
946.043,28170.0
946.785,28190.0
947.527,28210.0
948.269,28290.0
949.011,28230.0
949.752,28420.0
950.494,28450.0
951.235,28650.0
951.977,28420.0
952.718,28310.0
953.459,28670.0
954.2,28460.0
954.941,28830.0
955.682,28710.0
956.423,28300.0
957.164,28640.0
957.904,28890.0
958.645,29040.0
959.385,28910.0
960.126,28820.0
960.866,29060.0
961.606,28960.0
962.346,28900.0
963.086,28810.0
963.826,29660.0
964.566,28770.0
965.306,29320.0
966.046,28680.0
966.785,29120.0
967.525,29130.0
968.264,29330.0
969.004,29170.0
969.743,29340.0
970.482,29290.0
971.221,29480.0
971.96,29270.0
972.699,29370.0
973.438,29510.0
974.176,29680.0
974.915,29610.0
975.653,29670.0
976.392,29750.0
977.13,29820.0
977.868,29820.0
978.607,29780.0
979.345,29730.0
980.083,30130.0
980.821,29750.0
981.558,30230.0
982.296,29750.0
983.034,30240.0
983.771,30310.0
984.509,30040.0
985.246,30180.0
985.983,30360.0
986.721,30530.0
987.458,30540.0
988.195,30460.0
988.932,30380.0
989.669,30730.0
990.405,30700.0
991.142,31030.0
991.879,30730.0
992.615,30620.0
993.352,31130.0
994.088,30980.0
994.824,30920.0
995.56,30580.0
996.296,31200.0
997.032,31270.0
997.768,30730.0
998.504,31460.0
999.24,31260.0
999.975,31660.0
1000.711,31140.0
1001.446,31220.0
1002.182,31050.0
1002.917,31860.0
1003.652,31180.0
1004.387,31330.0
1005.122,31370.0
1005.857,31640.0
1006.592,31540.0
1007.327,31770.0
1008.061,31420.0
1008.796,31840.0
1009.53,31960.0
1010.265,31630.0
1010.999,31680.0
1011.733,31920.0
1012.467,32080.0
1013.201,32410.0
1013.935,31970.0
1014.669,31840.0
1015.403,32220.0
1016.137,32610.0
1016.87,31860.0
1017.604,32530.0
1018.337,32300.0
1019.071,32550.0
1019.804,32620.0
1020.537,32360.0
1021.27,32530.0
1022.003,32760.0
1022.736,32750.0
1023.469,32630.0
1024.201,32460.0
1024.934,32810.0
1025.667,32950.0
1026.399,32520.0
1027.131,32870.0
1027.864,32910.0
1028.596,32800.0
1029.328,33170.0
1030.06,32960.0
1030.792,32810.0
1031.524,32830.0
1032.256,33510.0
1032.987,33370.0
1033.719,32930.0
