Raman shift,Intensity
768.75777,1817.92163
768.75777,1811.3033
770.43367,1814.61247
770.43367,1820.12774
772.10958,1817.92163
772.10958,1821.2308
773.78548,1819.02469
773.78548,1822.33385
775.46139,1819.02469
775.46139,1823.43691
777.13729,1821.2308
777.13729,1824.53997
778.8132,1821.2308
778.8132,1825.64302
780.4891,1822.33385
780.4891,1825.64302
782.16501,1824.53997
783.84091,1824.53997
785.51682,1822.33385
785.51682,1824.53997
787.19272,1824.53997
787.19272,1822.33385
788.86863,1822.33385
788.86863,1824.53997
790.54453,1824.53997
790.54453,1821.2308
792.22044,1823.43691
792.22044,1820.12774
793.89634,1819.02469
793.89634,1823.43691
795.57225,1815.71552
795.57225,1820.12774
797.24815,1813.50941
797.24815,1819.02469
798.92406,1813.50941
798.92406,1816.81858
800.59996,1815.71552
800.59996,1810.20025
802.27587,1812.40636
802.27587,1809.09719
803.95177,1810.20025
803.95177,1806.89108
805.62768,1809.09719
805.62768,1805.78803
807.30358,1807.99414
807.30358,1804.68497
808.97949,1803.58192
808.97949,1806.89108
810.65539,1803.58192
810.65539,1806.89108
812.3313,1803.58192
812.3313,1805.78803
814.0072,1803.58192
814.0072,1805.78803
815.68311,1803.58192
815.68311,1806.89108
817.35901,1806.89108
817.35901,1804.68497
819.03492,1804.68497
819.03492,1807.99414
820.71082,1805.78803
820.71082,1809.09719
822.38673,1805.78803
822.38673,1810.20025
824.06263,1810.20025
825.73854,1811.3033
825.73854,1809.09719
827.41444,1813.50941
827.41444,1809.09719
829.09035,1810.20025
829.09035,1813.50941
830.76625,1814.61247
830.76625,1812.40636
832.44216,1812.40636
832.44216,1815.71552
834.11806,1815.71552
835.79397,1815.71552
835.79397,1813.50941
837.46987,1815.71552
837.46987,1813.50941
839.14578,1815.71552
839.14578,1813.50941
840.82168,1815.71552
840.82168,1813.50941
842.49759,1815.71552
842.49759,1813.50941
844.17349,1812.40636
844.17349,1815.71552
845.8494,1811.3033
845.8494,1815.71552
847.5253,1811.3033
847.5253,1814.61247
849.20121,1813.50941
849.20121,1810.20025
850.87711,1812.40636
850.87711,1809.09719
852.55301,1809.09719
852.55301,1812.40636
854.22892,1810.20025
854.22892,1812.40636
855.90482,1810.20025
855.90482,1812.40636
857.58073,1810.20025
859.25663,1814.61247
859.25663,1811.3033
860.93254,1812.40636
860.93254,1815.71552
862.60844,1813.50941
862.60844,1815.71552
864.28435,1813.50941
864.28435,1815.71552
865.96025,1815.71552
867.63616,1814.61247
869.31206,1814.61247
870.98797,1814.61247
872.66387,1813.50941
874.33978,1813.50941
876.01568,1813.50941
876.01568,1815.71552
877.69159,1813.50941
877.69159,1815.71552
879.36749,1816.81858
881.0434,1817.92163
882.7193,1814.61247
882.7193,1817.92163
884.39521,1814.61247
884.39521,1817.92163
886.07111,1817.92163
886.07111,1814.61247
887.74702,1814.61247
887.74702,1816.81858
889.42292,1812.40636
889.42292,1815.71552
891.09883,1814.61247
892.77473,1810.20025
892.77473,1813.50941
894.45064,1809.09719
894.45064,1813.50941
896.12654,1806.89108
896.12654,1811.3033
897.80245,1805.78803
897.80245,1810.20025
899.47835,1802.47886
899.47835,1807.99414
901.15426,1802.47886
901.15426,1805.78803
902.83016,1800.27275
902.83016,1804.68497
904.50607,1798.06664
904.50607,1802.47886
906.18197,1796.96359
906.18197,1800.27275
907.85788,1794.75748
907.85788,1799.1697
909.53378,1792.55137
911.20969,1792.55137
912.88559,1796.96359
912.88559,1790.34526
912.88559,1793.65442
914.5615,1791.44831
916.2374,1794.75748
916.2374,1791.44831
916.2374,1798.06664
917.91331,1793.65442
917.91331,1799.1697
919.58921,1800.27275
919.58921,1795.86053
921.26512,1799.1697
921.26512,1803.58192
922.94102,1800.27275
922.94102,1805.78803
924.61693,1802.47886
924.61693,1807.99414
926.29283,1804.68497
926.29283,1812.40636
927.96874,1812.40636
927.96874,1807.99414
927.96874,1814.61247
929.64464,1810.20025
929.64464,1816.81858
931.32055,1812.40636
931.32055,1819.02469
932.99645,1814.61247
932.99645,1820.12774
934.67235,1817.92163
934.67235,1822.33385
936.34826,1819.02469
936.34826,1822.33385
938.02416,1820.12774
938.02416,1823.43691
939.70007,1821.2308
939.70007,1823.43691
941.37597,1823.43691
943.05188,1824.53997
943.05188,1822.33385
944.72778,1823.43691
946.40369,1822.33385
946.40369,1824.53997
948.07959,1822.33385
948.07959,1824.53997
949.7555,1822.33385
949.7555,1824.53997
951.4314,1821.2308
951.4314,1824.53997
953.10731,1822.33385
953.10731,1824.53997
954.78321,1822.33385
954.78321,1824.53997
956.45912,1824.53997
958.13502,1823.43691
959.81093,1824.53997
959.81093,1827.84913
961.48683,1827.84913
963.16274,1827.84913
964.83864,1826.74608
964.83864,1828.95219
966.51455,1831.1583
968.19045,1827.84913
968.19045,1831.1583
969.86636,1831.1583
969.86636,1827.84913
971.54226,1832.26135
973.21817,1830.05524
974.89407,1830.05524
974.89407,1834.46746
976.56998,1831.1583
976.56998,1834.46746
978.24588,1833.36441
978.24588,1837.77663
979.92179,1836.67357
981.59769,1834.46746
981.59769,1839.98274
983.2736,1835.57052
983.2736,1839.98274
984.9495,1836.67357
984.9495,1839.98274
986.62541,1838.87968
988.30131,1832.26135
988.30131,1836.67357
989.97722,1831.1583
989.97722,1835.57052
991.65312,1834.46746
991.65312,1830.05524
993.32903,1827.84913
993.32903,1832.26135
995.00493,1828.95219
995.00493,1832.26135
996.68084,1828.95219
996.68084,1832.26135
998.35674,1831.1583
1000.03265,1830.05524
1000.03265,1833.36441
1001.70855,1831.1583
1001.70855,1835.57052
1003.38446,1835.57052
1003.38446,1832.26135
1005.06036,1835.57052
1005.06036,1832.26135
1006.73627,1834.46746
1008.41217,1836.67357
1008.41217,1834.46746
1010.08808,1836.67357
1010.08808,1834.46746
1011.76398,1834.46746
1011.76398,1836.67357
1013.43989,1834.46746
1013.43989,1836.67357
1015.11579,1835.57052
1016.79169,1836.67357
1018.4676,1836.67357
1020.1435,1835.57052
1021.81941,1835.57052
1023.49531,1834.46746
1025.17122,1832.26135
1025.17122,1836.67357
1026.84712,1831.1583
1026.84712,1836.67357
1028.52303,1830.05524
1028.52303,1834.46746
1030.19893,1827.84913
1030.19893,1832.26135
1031.87484,1830.05524
1031.87484,1826.74608
1033.55074,1830.05524
1033.55074,1825.64302
1035.22665,1826.74608
1035.22665,1830.05524
1036.90255,1826.74608
1036.90255,1831.1583
1038.57846,1827.84913
1038.57846,1833.36441
1040.25436,1832.26135
1040.25436,1828.95219
1041.93027,1831.1583
1041.93027,1835.57052
1043.60617,1833.36441
1043.60617,1837.77663
1045.28208,1837.77663
1045.28208,1839.98274
1045.28208,1834.46746
1046.95798,1835.57052
1046.95798,1841.08579
1048.63389,1843.2919
1048.63389,1837.77663
1050.30979,1839.98274
1050.30979,1844.39496
1051.9857,1841.08579
1051.9857,1845.49801
1053.6616,1843.2919
1053.6616,1845.49801
1055.33751,1845.49801
1057.01341,1844.39496
1058.68932,1843.2919
1062.04113,1846.60107
1063.71703,1846.60107
1063.71703,1843.2919
1065.39294,1843.2919
1065.39294,1846.60107
1067.06884,1842.18885
1067.06884,1845.49801
1068.74475,1839.98274
1068.74475,1844.39496
1070.42065,1839.98274
1070.42065,1843.2919
1072.09656,1838.87968
1072.09656,1842.18885
1073.77246,1838.87968
1073.77246,1842.18885
1075.44837,1844.39496
1075.44837,1838.87968
1077.12427,1846.60107
1077.12427,1841.08579
1078.80018,1844.39496
1078.80018,1847.70412
1080.47608,1847.70412
1080.47608,1849.91023
1080.47608,1844.39496
1082.15199,1846.60107
1082.15199,1851.01329
1083.82789,1852.11634
1085.5038,1852.11634
1087.1797,1852.11634
1087.1797,1848.80718
1090.53151,1851.01329
1090.53151,1853.2194
1092.20742,1852.11634
1093.88332,1849.91023
1093.88332,1853.2194
1095.55923,1849.91023
1095.55923,1853.2194
1097.23513,1848.80718
1097.23513,1852.11634
1098.91104,1847.70412
1098.91104,1851.01329
1100.58694,1847.70412
1100.58694,1849.91023
1102.26284,1845.49801
1102.26284,1849.91023
1103.93875,1843.2919
1103.93875,1848.80718
1105.61465,1841.08579
1105.61465,1847.70412
1107.29056,1836.67357
1107.29056,1844.39496
1108.96646,1830.05524
1108.96646,1838.87968
1110.64237,1828.95219
1110.64237,1836.67357
1112.31827,1825.64302
1112.31827,1834.46746
1112.31827,1828.95219
1113.99418,1824.53997
1113.99418,1830.05524
1115.67008,1826.74608
1115.67008,1823.43691
1117.34599,1826.74608
1117.34599,1823.43691
1119.02189,1825.64302
1119.02189,1823.43691
1120.6978,1821.2308
1120.6978,1824.53997
1122.3737,1819.02469
1122.3737,1824.53997
1122.3737,1822.33385
1124.04961,1823.43691
1124.04961,1819.02469
1125.72551,1821.2308
1125.72551,1815.71552
1127.40142,1819.02469
1127.40142,1813.50941
1129.07732,1815.71552
1129.07732,1811.3033
1130.75323,1816.81858
1130.75323,1813.50941
1130.75323,1810.20025
1132.42913,1807.99414
1132.42913,1813.50941
1134.10504,1811.3033
1134.10504,1807.99414
1135.78094,1810.20025
1135.78094,1806.89108
1137.45685,1805.78803
1137.45685,1809.09719
1139.13275,1807.99414
1140.80866,1807.99414
1142.48456,1804.68497
1142.48456,1806.89108
1144.16047,1802.47886
1144.16047,1805.78803
1145.83637,1803.58192
1145.83637,1805.78803
1147.51228,1805.78803
1147.51228,1802.47886
1149.18818,1801.37581
1150.86409,1801.37581
1152.53999,1803.58192
1152.53999,1800.27275
1154.2159,1803.58192
1155.8918,1804.68497
1155.8918,1801.37581
1157.56771,1805.78803
1157.56771,1801.37581
1159.24361,1806.89108
1159.24361,1803.58192
1160.91952,1809.09719
1160.91952,1804.68497
1162.59542,1810.20025
1162.59542,1805.78803
1164.27133,1809.09719
1165.94723,1813.50941
1165.94723,1809.09719
1167.62314,1814.61247
1167.62314,1811.3033
1169.29904,1816.81858
1170.97495,1817.92163
1170.97495,1813.50941
1172.65085,1819.02469
1172.65085,1814.61247
1174.32676,1819.02469
1174.32676,1816.81858
1176.00266,1819.02469
1176.00266,1816.81858
1177.67857,1819.02469
1177.67857,1816.81858
1179.35447,1816.81858
1179.35447,1819.02469
1181.03038,1817.92163
1182.70628,1819.02469
1184.38218,1814.61247
1184.38218,1819.02469
1186.05809,1819.02469
1187.73399,1812.40636
1187.73399,1816.81858
1189.4099,1813.50941
1191.0858,1810.20025
1191.0858,1813.50941
1192.76171,1807.99414
1192.76171,1812.40636
1194.43761,1811.3033
1194.43761,1806.89108
1196.11352,1810.20025
1196.11352,1804.68497
1197.78942,1807.99414
1197.78942,1802.47886
1199.46533,1805.78803
1199.46533,1802.47886
1199.46533,1800.27275
1201.14123,1802.47886
1201.14123,1800.27275
1202.81714,1800.27275
1204.49304,1800.27275
1206.16895,1801.37581
1207.84485,1802.47886
1207.84485,1800.27275
1209.52076,1802.47886
1209.52076,1800.27275
1211.19666,1802.47886
1211.19666,1800.27275
1212.87257,1802.47886
1212.87257,1799.1697
1214.54847,1802.47886
1214.54847,1798.06664
1216.22438,1801.37581
1216.22438,1798.06664
1217.90028,1800.27275
1217.90028,1796.96359
1219.57619,1799.1697
1219.57619,1796.96359
1221.25209,1798.06664
1221.25209,1795.86053
1222.928,1795.86053
1224.6039,1796.96359
1226.27981,1796.96359
1226.27981,1799.1697
1227.95571,1796.96359
1227.95571,1799.1697
1229.63162,1796.96359
1229.63162,1800.27275
1231.30752,1796.96359
1231.30752,1800.27275
1232.98343,1800.27275
1234.65933,1799.1697
1236.33524,1799.1697
1238.01114,1799.1697
1239.68705,1799.1697
1241.36295,1800.27275
1241.36295,1798.06664
1243.03886,1796.96359
1243.03886,1800.27275
1244.71476,1799.1697
1246.39067,1799.1697
1246.39067,1795.86053
1248.06657,1796.96359
1249.74248,1794.75748
1249.74248,1796.96359
1251.41838,1794.75748
1253.09429,1794.75748
1253.09429,1798.06664
1254.77019,1794.75748
1254.77019,1796.96359
1256.4461,1795.86053
1256.4461,1799.1697
1258.122,1800.27275
1258.122,1796.96359
1259.79791,1796.96359
1261.47381,1803.58192
1261.47381,1799.1697
1263.14972,1800.27275
1263.14972,1804.68497
1264.82562,1801.37581
1264.82562,1805.78803
1266.50152,1809.09719
1266.50152,1803.58192
1268.17743,1804.68497
1268.17743,1811.3033
1269.85333,1806.89108
1269.85333,1812.40636
1271.52924,1809.09719
1271.52924,1813.50941
1273.20514,1814.61247
1273.20514,1810.20025
1274.88105,1815.71552
1274.88105,1811.3033
1276.55695,1814.61247
1276.55695,1817.92163
1278.23286,1813.50941
1278.23286,1817.92163
1279.90876,1815.71552
1279.90876,1820.12774
1281.58467,1820.12774
1281.58467,1815.71552
1283.26057,1813.50941
1283.26057,1820.12774
1284.93648,1813.50941
1284.93648,1816.81858
1286.61238,1815.71552
1286.61238,1810.20025
1288.28829,1809.09719
1288.28829,1813.50941
1289.96419,1807.99414
1289.96419,1812.40636
1291.6401,1809.09719
1293.316,1810.20025
1293.316,1807.99414
1294.99191,1810.20025
1294.99191,1807.99414
1296.66781,1807.99414
1296.66781,1810.20025
1298.34372,1807.99414
1298.34372,1810.20025
1300.01962,1810.20025
1301.69553,1809.09719
1301.69553,1811.3033
1303.37143,1809.09719
1305.04734,1809.09719
1306.72324,1807.99414
1306.72324,1810.20025
1308.39915,1809.09719
1310.07505,1809.09719
1311.75096,1807.99414
1311.75096,1810.20025
1313.42686,1807.99414
1313.42686,1810.20025
1315.10277,1810.20025
1315.10277,1807.99414
1316.77867,1810.20025
1318.45458,1810.20025
1320.13048,1807.99414
1321.80639,1810.20025
1321.80639,1805.78803
1323.48229,1810.20025
1323.48229,1804.68497
1325.1582,1803.58192
1325.1582,1807.99414
1326.8341,1801.37581
1326.8341,1806.89108
1328.51001,1800.27275
1328.51001,1804.68497
1330.18591,1804.68497
1330.18591,1800.27275
1331.86182,1800.27275
1331.86182,1804.68497
1333.53772,1801.37581
1333.53772,1804.68497
1335.21363,1806.89108
1335.21363,1802.47886
1336.88953,1803.58192
1336.88953,1807.99414
1338.56544,1807.99414
1340.24134,1807.99414
1340.24134,1810.20025
1341.91725,1810.20025
1341.91725,1807.99414
1343.59315,1810.20025
1345.26906,1810.20025
1346.94496,1810.20025
1348.62087,1809.09719
1350.29677,1809.09719
1350.29677,1811.3033
1351.97267,1809.09719
1351.97267,1811.3033
1353.64858,1811.3033
1353.64858,1809.09719
1355.32448,1811.3033
1355.32448,1809.09719
1357.00039,1809.09719
1357.00039,1811.3033
1358.67629,1809.09719
1358.67629,1811.3033
1360.3522,1809.09719
1360.3522,1811.3033
1362.0281,1811.3033
1362.0281,1809.09719
1363.70401,1810.20025
1365.37991,1809.09719
1367.05582,1809.09719
1368.73172,1810.20025
1368.73172,1812.40636
1368.73172,1807.99414
1370.40763,1809.09719
1370.40763,1813.50941
1372.08353,1810.20025
1372.08353,1816.81858
1372.08353,1813.50941
1373.75944,1819.02469
1373.75944,1812.40636
1375.43534,1823.43691
1375.43534,1816.81858
1377.11125,1817.92163
1377.11125,1825.64302
1377.11125,1822.33385
1378.78715,1820.12774
1378.78715,1825.64302
1380.46306,1823.43691
1383.81487,1825.64302
1383.81487,1827.84913
1385.49077,1827.84913
1385.49077,1825.64302
1387.16668,1827.84913
1387.16668,1824.53997
1388.84258,1826.74608
1390.51849,1827.84913
1392.19439,1823.43691
1392.19439,1827.84913
1393.8703,1824.53997
1395.5462,1824.53997
1395.5462,1821.2308
1397.22211,1820.12774
1397.22211,1823.43691
1398.89801,1819.02469
1398.89801,1822.33385
1400.57392,1822.33385
1400.57392,1816.81858
1402.24982,1819.02469
1402.24982,1815.71552
1403.92573,1813.50941
1403.92573,1819.02469
1405.60163,1815.71552
1405.60163,1812.40636
1407.27754,1815.71552
1407.27754,1811.3033
1408.95344,1811.3033
1410.62935,1811.3033
1412.30525,1811.3033
1413.98116,1810.20025
1415.65706,1810.20025
1417.33297,1811.3033
1419.00887,1811.3033
1420.68478,1812.40636
1422.36068,1811.3033
1422.36068,1813.50941
1424.03659,1814.61247
1425.71249,1812.40636
1425.71249,1814.61247
1427.3884,1813.50941
1429.0643,1814.61247
1430.74021,1811.3033
1430.74021,1814.61247
1432.41611,1813.50941
1432.41611,1811.3033
1434.09201,1812.40636
1434.09201,1809.09719
1435.76792,1809.09719
1435.76792,1811.3033
1437.44382,1811.3033
1437.44382,1809.09719
1439.11973,1809.09719
1439.11973,1813.50941
1440.79563,1810.20025
1440.79563,1814.61247
1442.47154,1811.3033
1442.47154,1815.71552
1444.14744,1813.50941
1444.14744,1816.81858
1445.82335,1813.50941
1445.82335,1817.92163
1447.49925,1814.61247
1447.49925,1817.92163
1449.17516,1813.50941
1449.17516,1816.81858
1450.85106,1812.40636
1450.85106,1816.81858
1452.52697,1815.71552
1452.52697,1810.20025
1454.20287,1809.09719
1454.20287,1813.50941
1455.87878,1807.99414
1455.87878,1812.40636
1457.55468,1807.99414
1457.55468,1811.3033
1459.23059,1806.89108
1459.23059,1810.20025
1460.90649,1809.09719
1460.90649,1805.78803
1462.5824,1805.78803
1462.5824,1809.09719
1464.2583,1807.99414
1464.2583,1805.78803
1465.93421,1802.47886
1465.93421,1807.99414
1467.61011,1800.27275
1467.61011,1806.89108
1469.28602,1799.1697
1469.28602,1804.68497
1470.96192,1799.1697
1472.63783,1791.44831
1472.63783,1795.86053
1474.31373,1790.34526
1474.31373,1794.75748
1475.98964,1792.55137
1475.98964,1789.2422
1475.98964,1794.75748
1477.66554,1792.55137
1477.66554,1789.2422
1479.34145,1793.65442
1479.34145,1802.47886
1481.01735,1795.86053
1481.01735,1804.68497
1482.69326,1799.1697
1482.69326,1807.99414
1484.36916,1804.68497
1484.36916,1812.40636
1486.04507,1809.09719
1486.04507,1814.61247
1487.72097,1813.50941
1489.39688,1814.61247
1491.07278,1819.02469
1491.07278,1815.71552
1491.07278,1813.50941
1492.74869,1815.71552
1492.74869,1820.12774
1494.42459,1816.81858
1494.42459,1821.2308
1496.1005,1819.02469
1496.1005,1822.33385
1497.7764,1819.02469
1497.7764,1822.33385
1499.45231,1820.12774
1499.45231,1823.43691
1501.12821,1821.2308
1501.12821,1823.43691
1502.80412,1823.43691
1504.48002,1824.53997
1504.48002,1821.2308
1506.15593,1824.53997
1507.83183,1816.81858
1507.83183,1823.43691
1509.50774,1813.50941
1509.50774,1821.2308
1511.18364,1812.40636
1511.18364,1810.20025
1512.85955,1812.40636
1512.85955,1809.09719
1512.85955,1816.81858
1514.53545,1812.40636
1514.53545,1807.99414
1514.53545,1816.81858
1516.21135,1807.99414
1517.88726,1812.40636
1517.88726,1822.33385
1519.56316,1819.02469
1519.56316,1824.53997
1521.23907,1817.92163
1521.23907,1828.95219
1522.91497,1823.43691
1522.91497,1833.36441
1524.59088,1835.57052
1524.59088,1827.84913
1526.26678,1831.1583
1526.26678,1837.77663
1527.94269,1834.46746
1527.94269,1844.39496
1529.61859,1839.98274
1529.61859,1848.80718
1531.2945,1854.32245
1531.2945,1844.39496
1531.2945,1851.01329
1546.78037,1866.06911
1574.86803,1867.55912
1574.86803,1864.24995
1576.54393,1866.45606
1578.21984,1865.35301
1578.21984,1868.66217
1579.30538,1863.21501
1579.89574,1865.35301
1579.89574,1868.66217
1581.57165,1866.45606
1581.57165,1869.76523
1583.24755,1866.45606
1583.24755,1870.86828
1583.24755,1868.66217
1584.92346,1870.86828
1584.92346,1873.07439
1586.59936,1869.76523
1586.59936,1873.07439
1588.27527,1870.86828
1588.27527,1875.2805
1589.95117,1871.97134
1589.95117,1876.38356
1591.62708,1877.48661
1591.62708,1874.17745
1593.30298,1879.69272
1593.30298,1874.17745
1594.97889,1878.58967
1596.65479,1881.89883
1596.65479,1877.48661
1598.3307,1883.00189
1598.3307,1880.79578
1600.0066,1883.00189
1600.0066,1880.79578
1601.6825,1884.10494
1601.6825,1880.79578
1603.35841,1880.79578
1603.35841,1884.10494
1605.03431,1879.69272
1605.03431,1883.00189
1606.71022,1880.79578
1608.38612,1881.89883
1608.38612,1877.48661
1610.06203,1880.79578
1610.06203,1876.38356
1611.73793,1879.69272
1611.73793,1875.2805
1613.41384,1878.58967
1613.41384,1873.07439
1615.08974,1876.38356
1615.08974,1869.76523
1616.76565,1875.2805
1616.76565,1871.97134
1618.44155,1873.07439
1618.44155,1867.55912
1620.11746,1870.86828
1620.11746,1865.35301
1620.11746,1867.55912
1621.79336,1868.66217
1621.79336,1863.1469
1623.46927,1862.04384
1623.46927,1866.45606
1625.14517,1860.94079
1625.14517,1865.35301
1626.82108,1857.63162
1628.49698,1863.1469
1628.49698,1857.63162
1630.17289,1856.52856
1630.17289,1862.04384
1631.84879,1862.04384
1631.84879,1857.63162
1633.5247,1865.35301
1633.5247,1862.04384
1633.5247,1858.73468
1635.2006,1867.55912
1635.2006,1860.94079
1636.87651,1863.1469
1636.87651,1868.66217
1638.55241,1865.35301
1638.55241,1870.86828
1640.22832,1868.66217
1640.22832,1866.45606
1640.22832,1870.86828
1641.90422,1870.86828
1643.58013,1866.45606
1643.58013,1869.76523
1645.25603,1868.66217
1645.25603,1865.35301
1646.93194,1867.55912
1646.93194,1864.24995
1648.60784,1866.45606
1648.60784,1860.94079
1650.28375,1865.35301
1650.28375,1860.94079
1651.95965,1864.24995
1651.95965,1858.73468
1653.63556,1855.42551
1653.63556,1862.04384
1655.31146,1854.32245
1655.31146,1859.83773
1656.98737,1852.11634
1656.98737,1857.63162
1658.66327,1849.91023
1658.66327,1855.42551
1660.33918,1852.11634
1660.33918,1845.49801
1662.01508,1848.80718
1662.01508,1843.2919
1662.01508,1839.98274
1663.69099,1847.70412
1663.69099,1839.98274
1665.36689,1842.18885
1665.36689,1835.57052
1667.0428,1830.05524
1668.7187,1832.26135
1668.7187,1828.95219
1670.39461,1830.05524
1670.39461,1824.53997
1672.07051,1828.95219
1672.07051,1821.2308
1673.74642,1825.64302
1673.74642,1822.33385
1673.74642,1814.61247
1675.42232,1823.43691
1675.42232,1814.61247
1677.09823,1819.02469
1677.09823,1812.40636
1678.77413,1816.81858
1678.77413,1812.40636
1680.45004,1810.20025
1682.12594,1812.40636
1683.80184,1810.20025
1685.47775,1813.50941
1685.47775,1810.20025
1687.15365,1814.61247
1687.15365,1810.20025
1688.82956,1813.50941
1690.50546,1815.71552
1692.18137,1822.33385
1692.18137,1816.81858
1693.85727,1824.53997
1693.85727,1819.02469
1695.53318,1825.64302
1695.53318,1820.12774
1697.20908,1827.84913
1697.20908,1822.33385
1698.88499,1827.84913
1700.56089,1826.74608
1700.56089,1828.95219
1702.2368,1827.84913
1703.9127,1828.95219
1703.9127,1828.95219
1705.58861,1825.64302
1705.58861,1825.64302
1707.26451,1826.74608
1707.26451,1823.43691
1707.26451,1830.05524
1707.26451,1830.05524
1707.26451,1826.74608
1707.26451,1823.43691
1708.94042,1820.12774
1708.94042,1828.95219
1708.94042,1820.12774
1708.94042,1828.95219
1710.61632,1825.64302
1710.61632,1825.64302
1710.61632,1814.61247
1710.61632,1814.61247
1712.29223,1817.92163
1712.29223,1817.92163
1712.29223,1809.09719
1712.29223,1809.09719
1713.96813,1807.99414
1713.96813,1813.50941
1713.96813,1806.89108
1713.96813,1813.50941
1715.64404,1809.09719
1715.64404,1806.89108
1715.64404,1809.09719
1715.64404,1813.50941
1715.64404,1813.50941
1715.64404,1805.78803
1717.31994,1804.68497
1718.99585,1804.68497
1720.67175,1805.78803
1720.67175,1806.89108
1722.34766,1806.89108
1722.34766,1807.99414
1724.02356,1807.99414
1724.02356,1807.99414
1724.02356,1805.78803
1725.69947,1809.09719
1725.69947,1805.78803
1725.69947,1809.09719
1727.37537,1805.78803
1727.37537,1809.09719
1727.37537,1809.09719
1729.05128,1809.09719
1729.05128,1809.09719
1730.72718,1810.20025
1730.72718,1810.20025
1730.72718,1807.99414
1730.72718,1807.99414
1732.40309,1807.99414
1732.40309,1810.20025
1732.40309,1810.20025
1732.40309,1807.99414
1734.07899,1811.3033
1734.07899,1807.99414
1734.07899,1811.3033
1734.07899,1807.99414
1735.7549,1809.09719
1735.7549,1811.3033
1735.7549,1811.3033
1735.7549,1809.09719
1737.4308,1810.20025
1737.4308,1810.20025
1739.10671,1813.50941
1739.10671,1813.50941
1739.10671,1810.20025
1739.10671,1810.20025
1740.78261,1813.50941
1740.78261,1811.3033
1740.78261,1813.50941
1740.78261,1811.3033
1742.45852,1814.61247
1742.45852,1814.61247
1742.45852,1810.20025
1742.45852,1810.20025
1744.13442,1814.61247
1744.13442,1814.61247
1745.81033,1807.99414
1745.81033,1813.50941
1745.81033,1807.99414
1745.81033,1813.50941
1747.48623,1806.89108
1747.48623,1812.40636
1747.48623,1807.99414
1747.48623,1812.40636
1749.16214,1810.20025
1749.16214,1810.20025
1749.16214,1802.47886
1750.83804,1805.78803
1750.83804,1799.1697
1750.83804,1806.89108
1752.51395,1802.47886
1754.18985,1798.06664
1755.86576,1799.1697
1755.86576,1802.47886
1757.54166,1799.1697
1757.54166,1802.47886
1759.21757,1800.27275
1760.89347,1801.37581
1760.89347,1804.68497
1762.56938,1801.37581
1762.56938,1804.68497
1764.24528,1803.58192
1765.92118,1802.47886
1765.92118,1804.68497
1767.59709,1801.37581
1767.59709,1804.68497
1769.27299,1802.47886
1770.9489,1802.47886
1772.6248,1801.37581
1774.30071,1801.37581
1775.97661,1801.37581
1775.97661,1804.68497
1777.65252,1803.58192
1779.32842,1802.47886
1779.32842,1805.78803
1781.00433,1802.47886
1781.00433,1806.89108
1782.68023,1806.89108
1782.68023,1800.27275
1784.35614,1799.1697
1784.35614,1795.86053
1784.35614,1805.78803
1786.03204,1799.1697
1787.70795,1799.1697
1787.70795,1792.55137
1787.70795,1795.86053
1789.38385,1793.65442
1789.38385,1796.96359
1799.43928,1793.65442
1801.11519,1793.65442
1802.79109,1793.65442
1804.467,1793.65442
1804.467,1791.44831
1806.1429,1793.65442
1806.1429,1791.44831
1807.81881,1792.55137
1809.49471,1793.65442
1811.17062,1794.75748
1811.17062,1791.44831
1812.84652,1795.86053
1812.84652,1792.55137
1814.52243,1796.96359
1814.52243,1792.55137
1816.19833,1799.1697
1816.19833,1796.96359
1816.19833,1794.75748
1817.87424,1800.27275
1817.87424,1795.86053
1819.55014,1801.37581
1819.55014,1796.96359
1821.22605,1801.37581
1821.22605,1798.06664
1822.90195,1801.37581
1824.57786,1801.37581
1826.25376,1804.68497
1826.25376,1801.37581
1827.92967,1805.78803
1827.92967,1801.37581
1829.60557,1806.89108
1829.60557,1802.47886
1831.28148,1809.09719
1831.28148,1803.58192
1832.95738,1810.20025
1832.95738,1804.68497
1834.63329,1813.50941
1834.63329,1806.89108
1836.30919,1815.71552
1837.9851,1816.81858
1837.9851,1812.40636
1839.661,1817.92163
1839.661,1813.50941
1841.33691,1819.02469
1843.01281,1819.02469
1843.01281,1816.81858
1844.68872,1817.92163
1846.36462,1819.02469
1848.04052,1820.12774
1848.04052,1814.61247
1849.71643,1819.02469
1849.71643,1814.61247
1851.39233,1817.92163
1851.39233,1813.50941
1851.39233,1809.09719
1853.06824,1814.61247
1853.06824,1809.09719
1853.06824,1804.68497
1854.74414,1807.99414
1854.74414,1801.37581
1856.42005,1805.78803
1856.42005,1799.1697
1858.09595,1805.78803
1858.09595,1803.58192
1858.09595,1799.1697
1859.77186,1802.47886
1859.77186,1799.1697
1861.44776,1802.47886
1861.44776,1799.1697
1863.12367,1802.47886
1863.12367,1800.27275
1864.79957,1803.58192
1864.79957,1800.27275
1866.47548,1803.58192
1868.15138,1804.68497
1868.15138,1802.47886
1869.82729,1803.58192
1871.50319,1802.47886
1871.50319,1805.78803
1873.1791,1805.78803
1873.1791,1803.58192
1874.855,1803.58192
1874.855,1805.78803
1876.53091,1803.58192
1876.53091,1806.89108
1878.20681,1805.78803
1879.88272,1804.68497
1879.88272,1807.99414
1881.55862,1810.20025
1883.23453,1806.89108
1883.23453,1811.3033
1884.91043,1806.89108
1884.91043,1811.3033
1886.58634,1806.89108
1886.58634,1811.3033
1888.26224,1803.58192
1888.26224,1810.20025
1889.93815,1802.47886
1889.93815,1807.99414
1891.61405,1805.78803
1891.61405,1800.27275
1893.28996,1803.58192
1893.28996,1798.06664
1894.96586,1802.47886
1894.96586,1796.96359
1896.64177,1798.06664
1896.64177,1802.47886
1898.31767,1806.89108
1898.31767,1798.06664
1899.99358,1806.89108
1901.66948,1806.89108
1901.66948,1812.40636
1903.34539,1815.71552
1903.34539,1807.99414
1905.02129,1811.3033
1905.02129,1817.92163
1906.6972,1820.12774
1906.6972,1814.61247
1908.3731,1822.33385
1908.3731,1817.92163
1910.04901,1823.43691
1910.04901,1819.02469
1911.72491,1823.43691
1913.40082,1824.53997
1913.40082,1820.12774
1915.07672,1825.64302
1916.75263,1824.53997
1916.75263,1821.2308
1918.42853,1822.33385
1918.42853,1816.81858
1920.10444,1820.12774
1920.10444,1814.61247
1921.78034,1817.92163
1921.78034,1812.40636
1923.45625,1815.71552
1923.45625,1810.20025
1925.13215,1813.50941
1925.13215,1809.09719
1926.80806,1811.3033
1926.80806,1807.99414
1928.48396,1810.20025
1928.48396,1805.78803
1930.15987,1809.09719
1930.15987,1806.89108
1930.15987,1804.68497
1931.83577,1806.89108
1931.83577,1804.68497
1933.51167,1805.78803
1935.18758,1806.89108
1936.86348,1804.68497
1938.53939,1807.99414
1938.53939,1805.78803
1940.21529,1809.09719
1940.21529,1805.78803
1941.8912,1810.20025
1943.5671,1810.20025
1945.24301,1810.20025
1945.24301,1807.99414
1946.91891,1810.20025
1946.91891,1807.99414
1948.59482,1810.20025
1948.59482,1807.99414
1950.27072,1810.20025
1950.27072,1806.89108
1951.94663,1810.20025
1951.94663,1806.89108
1953.62253,1810.20025
1953.62253,1807.99414
1955.29844,1810.20025
1955.29844,1807.99414
1956.97434,1810.20025
1956.97434,1807.99414
1958.65025,1809.09719
1960.32615,1809.09719
1962.00206,1812.40636
1962.00206,1809.09719
1963.67796,1813.50941
1963.67796,1809.09719
1965.35387,1810.20025
1967.02977,1814.61247
1967.02977,1811.3033
1968.70568,1815.71552
1968.70568,1812.40636
1970.38158,1815.71552
1970.38158,1812.40636
1972.05749,1814.61247
1973.73339,1814.61247
1975.4093,1811.3033
1977.0852,1813.50941
1977.0852,1810.20025
1978.76111,1807.99414
1978.76111,1812.40636
1980.43701,1806.89108
1980.43701,1811.3033
1982.11292,1806.89108
1982.11292,1810.20025
1983.78882,1804.68497
1983.78882,1807.99414
1985.46473,1807.99414
1985.46473,1803.58192
1987.14063,1803.58192
1987.14063,1806.89108
1988.81654,1802.47886
1988.81654,1806.89108
1990.49244,1803.58192
1992.16835,1804.68497
1992.16835,1809.09719
1993.84425,1809.09719
1995.52016,1813.50941
1995.52016,1807.99414
1997.19606,1810.20025
1997.19606,1814.61247
1998.87197,1811.3033
1998.87197,1814.61247
2000.54787,1813.50941
2002.22378,1812.40636
2002.22378,1814.61247
2003.89968,1813.50941
2005.57559,1812.40636
2005.57559,1814.61247
2007.25149,1810.20025
2007.25149,1814.61247
2008.9274,1813.50941
2008.9274,1809.09719
2010.6033,1807.99414
2010.6033,1812.40636
2012.27921,1809.09719
2013.95511,1804.68497
2013.95511,1809.09719
2015.63101,1803.58192
2015.63101,1807.99414
2017.30692,1803.58192
2017.30692,1805.78803
2018.98282,1805.78803
2018.98282,1803.58192
2020.65873,1803.58192
2020.65873,1805.78803
2022.33463,1803.58192
2022.33463,1805.78803
2024.01054,1805.78803
2024.01054,1802.47886
2025.68644,1806.89108
2027.36235,1804.68497
2027.36235,1807.99414
2029.03825,1804.68497
2029.03825,1807.99414
2030.71416,1805.78803
2030.71416,1810.20025
2032.39006,1809.09719
2034.06597,1811.3033
2034.06597,1807.99414
2035.74187,1807.99414
2035.74187,1811.3033
2037.41778,1807.99414
2037.41778,1811.3033
2039.09368,1810.20025
2040.76959,1805.78803
2040.76959,1810.20025
2042.44549,1809.09719
2042.44549,1805.78803
2044.1214,1807.99414
2044.1214,1804.68497
2045.7973,1804.68497
2045.7973,1807.99414
2047.47321,1805.78803
2049.14911,1807.99414
2049.14911,1805.78803
2050.82502,1807.99414
2052.50092,1806.89108
2054.17683,1810.20025
2054.17683,1806.89108
2055.85273,1811.3033
2055.85273,1809.09719
2057.52864,1810.20025
2059.20454,1809.09719
2059.20454,1813.50941
2060.88045,1810.20025
2060.88045,1814.61247
2062.55635,1812.40636
2062.55635,1815.71552
2064.23226,1815.71552
2064.23226,1812.40636
2065.90816,1816.81858
2065.90816,1813.50941
2067.58407,1816.81858
2069.25997,1816.81858
2070.93588,1815.71552
2070.93588,1817.92163
2072.61178,1815.71552
2074.28769,1815.71552
2075.96359,1815.71552
2075.96359,1819.02469
2077.6395,1817.92163
2079.3154,1816.81858
2079.3154,1819.02469
2080.99131,1819.02469
2080.99131,1816.81858
2082.66721,1817.92163
2084.34312,1819.02469
2084.34312,1814.61247
2086.01902,1814.61247
2086.01902,1817.92163
2087.69493,1814.61247
2087.69493,1817.92163
2089.37083,1814.61247
2089.37083,1817.92163
2091.04674,1813.50941
2091.04674,1816.81858
2092.72264,1812.40636
2092.72264,1815.71552
2094.39855,1811.3033
2094.39855,1814.61247
2096.07445,1811.3033
2096.07445,1814.61247
2097.75035,1810.20025
2099.42626,1810.20025
2101.10216,1809.09719
2101.10216,1811.3033
2102.77807,1809.09719
2102.77807,1812.40636
2104.45397,1810.20025
2104.45397,1813.50941
2106.12988,1814.61247
2106.12988,1810.20025
2107.80578,1814.61247
2109.48169,1812.40636
2109.48169,1815.71552
2111.15759,1813.50941
2111.15759,1815.71552
2112.8335,1815.71552
2114.5094,1817.92163
2114.5094,1814.61247
2116.18531,1817.92163
2116.18531,1814.61247
2117.86121,1814.61247
2117.86121,1817.92163
2119.53712,1817.92163
2121.21302,1816.81858
2121.21302,1813.50941
2122.88893,1812.40636
2122.88893,1816.81858
2124.56483,1810.20025
2124.56483,1815.71552
2124.56483,1813.50941
2126.24074,1811.3033
2126.24074,1813.50941
2127.91664,1811.3033
2127.91664,1813.50941
2129.59255,1810.20025
2129.59255,1813.50941
2131.26845,1811.3033
2131.26845,1813.50941
2132.94436,1812.40636
2132.94436,1814.61247
2134.62026,1816.81858
2134.62026,1812.40636
2136.29617,1817.92163
2136.29617,1813.50941
2137.97207,1813.50941
2137.97207,1820.12774
2137.97207,1815.71552
2139.64798,1815.71552
2139.64798,1822.33385
2141.32388,1819.02469
2141.32388,1825.64302
2141.32388,1822.33385
2142.99979,1826.74608
2142.99979,1820.12774
2144.67569,1823.43691
2144.67569,1830.05524
2144.67569,1826.74608
2146.3516,1825.64302
2146.3516,1830.05524
2148.0275,1825.64302
2148.0275,1828.95219
2149.70341,1825.64302
2149.70341,1828.95219
2151.37931,1824.53997
2151.37931,1827.84913
2153.05522,1824.53997
2154.73112,1826.74608
2154.73112,1821.2308
2154.73112,1823.43691
2156.40703,1825.64302
2156.40703,1821.2308
2158.08293,1823.43691
2158.08293,1819.02469
2159.75884,1821.2308
2161.43474,1820.12774
2163.11065,1814.61247
2163.11065,1819.02469
2164.78655,1812.40636
2164.78655,1816.81858
2166.46246,1812.40636
2168.13836,1814.61247
2168.13836,1812.40636
2169.81427,1812.40636
2169.81427,1814.61247
2171.49017,1811.3033
2171.49017,1814.61247
2173.16608,1814.61247
2173.16608,1811.3033
2174.84198,1814.61247
2174.84198,1812.40636
2176.51789,1812.40636
2176.51789,1815.71552
2178.19379,1813.50941
2178.19379,1816.81858
2179.8697,1813.50941
2181.5456,1814.61247
2181.5456,1817.92163
2183.2215,1819.02469
2183.2215,1815.71552
2184.89741,1817.92163
2186.57331,1821.2308
2186.57331,1817.92163
2188.24922,1821.2308
2189.92512,1819.02469
2189.92512,1823.43691
2191.60103,1823.43691
2191.60103,1821.2308
2193.27693,1821.2308
2193.27693,1823.43691
2194.95284,1823.43691
2194.95284,1821.2308
2196.62874,1823.43691
2196.62874,1821.2308
2198.30465,1822.33385
2199.98055,1820.12774
2199.98055,1822.33385
2201.65646,1821.2308
2203.33236,1819.02469
2203.33236,1822.33385
2205.00827,1822.33385
2205.00827,1820.12774
2206.68417,1820.12774
2206.68417,1822.33385
2208.36008,1822.33385
2210.03598,1822.33385
2211.71189,1822.33385
2213.38779,1822.33385
2215.0637,1822.33385
2216.7396,1820.12774
2218.41551,1822.33385
2218.41551,1820.12774
2220.09141,1822.33385
2220.09141,1819.02469
2221.76732,1822.33385
2221.76732,1819.02469
2223.44322,1821.2308
2225.11913,1821.2308
2226.79503,1822.33385
2226.79503,1819.02469
2228.47094,1821.2308
2228.47094,1817.92163
2230.14684,1815.71552
2230.14684,1820.12774
2231.82275,1819.02469
2231.82275,1812.40636
2233.49865,1817.92163
2233.49865,1813.50941
2235.17456,1810.20025
2235.17456,1813.50941
2235.17456,1816.81858
2236.85046,1809.09719
2236.85046,1813.50941
2238.52637,1809.09719
2238.52637,1812.40636
2240.20227,1809.09719
2240.20227,1811.3033
2241.87818,1810.20025
2243.55408,1811.3033
2243.55408,1809.09719
2245.22999,1810.20025
2246.90589,1810.20025
2248.5818,1814.61247
2248.5818,1810.20025
2250.2577,1815.71552
2250.2577,1811.3033
2251.93361,1813.50941
2251.93361,1816.81858
2253.60951,1814.61247
2253.60951,1819.02469
2255.28542,1814.61247
2255.28542,1819.02469
2256.96132,1816.81858
2258.63723,1820.12774
2258.63723,1816.81858
2260.31313,1820.12774
2260.31313,1817.92163
2261.98904,1819.02469
2263.66494,1819.02469
2265.34084,1820.12774
2267.01675,1822.33385
2267.01675,1819.02469
2268.69265,1822.33385
2268.69265,1819.02469
2270.36856,1822.33385
2270.36856,1819.02469
2272.04446,1823.43691
2272.04446,1821.2308
2273.72037,1823.43691
2273.72037,1820.12774
2275.39627,1823.43691
2275.39627,1819.02469
2277.07218,1822.33385
2277.07218,1816.81858
2278.74808,1821.2308
2278.74808,1815.71552
2280.42399,1819.02469
2280.42399,1814.61247
2282.09989,1817.92163
2282.09989,1814.61247
2283.7758,1813.50941
2283.7758,1816.81858
2285.4517,1812.40636
2285.4517,1815.71552
2287.12761,1815.71552
2287.12761,1813.50941
2288.80351,1816.81858
2288.80351,1813.50941
2290.47942,1816.81858
2292.15532,1820.12774
2292.15532,1814.61247
2293.83123,1824.53997
2293.83123,1817.92163
2295.50713,1828.95219
2295.50713,1820.12774
2297.18304,1834.46746
2297.18304,1830.05524
2297.18304,1824.53997
2298.85894,1834.46746
2298.85894,1824.53997
2300.53485,1838.87968
2300.53485,1830.05524
2302.21075,1836.67357
2320.87545,1836.57678
2332.43989,1831.34427
2336.77656,1831.34427
2360.86742,1820.12774
2360.86742,1831.1583
2360.86742,1825.64302
2362.54333,1826.74608
2362.54333,1816.81858
2364.21923,1822.33385
2364.21923,1814.61247
2365.89514,1819.02469
2365.89514,1813.50941
2367.57104,1812.40636
2369.24695,1814.61247
2369.24695,1812.40636
2370.92285,1814.61247
2370.92285,1811.3033
2372.59876,1813.50941
2372.59876,1810.20025
2374.27466,1813.50941
2374.27466,1810.20025
2375.95057,1812.40636
2375.95057,1809.09719
2377.62647,1811.3033
2377.62647,1807.99414
2379.30238,1810.20025
2379.30238,1806.89108
2380.97828,1807.99414
2382.65419,1805.78803
2384.33009,1813.50941
2384.33009,1805.78803
2386.006,1819.02469
2386.006,1812.40636
2386.006,1807.99414
2387.6819,1827.84913
2387.6819,1820.12774
2387.6819,1814.61247
2389.35781,1827.84913
2389.35781,1819.02469
2391.03371,1834.46746
2391.03371,1821.2308
2392.70962,1835.57052
2392.70962,1827.84913
2394.38552,1835.57052
2394.38552,1831.1583
2396.06143,1836.67357
2396.06143,1834.46746
2397.73733,1836.67357
2397.73733,1834.46746
2399.41324,1837.77663
2399.41324,1834.46746
2401.08914,1833.36441
2401.08914,1837.77663
2402.76505,1837.77663
2402.76505,1833.36441
2404.44095,1833.36441
2406.11686,1834.46746
2406.11686,1827.84913
2407.79276,1831.1583
2407.79276,1827.84913
2409.46867,1831.1583
2409.46867,1824.53997
2411.14457,1820.12774
2411.14457,1828.95219
2412.82048,1815.71552
2412.82048,1823.43691
2414.49638,1817.92163
2416.17229,1817.92163
2416.17229,1810.20025
2417.84819,1807.99414
2417.84819,1815.71552
2419.5241,1806.89108
2421.2,1806.89108
2422.87591,1812.40636
2422.87591,1809.09719
2424.55181,1814.61247
2424.55181,1810.20025
2426.22772,1811.3033
2426.22772,1815.71552
2427.90362,1812.40636
2427.90362,1816.81858
2429.57953,1814.61247
2431.25543,1815.71552
2431.25543,1812.40636
2432.93133,1814.61247
2432.93133,1811.3033
2434.60724,1813.50941
2434.60724,1810.20025
2436.28314,1809.09719
2436.28314,1812.40636
2437.95905,1809.09719
2437.95905,1811.3033
2439.63495,1807.99414
2441.31086,1806.89108
2442.98676,1804.68497
2442.98676,1806.89108
2444.66267,1806.89108
2444.66267,1803.58192
2446.33857,1809.09719
2446.33857,1803.58192
2448.01448,1810.20025
2448.01448,1804.68497
2449.69038,1812.40636
2449.69038,1805.78803
2451.36629,1815.71552
2451.36629,1809.09719
2453.04219,1815.71552
2454.7181,1819.02469
2454.7181,1812.40636
2456.394,1814.61247
2456.394,1819.02469
2458.06991,1813.50941
2458.06991,1817.92163
2459.74581,1816.81858
2461.42172,1815.71552
2461.42172,1812.40636
2463.09762,1809.09719
2463.09762,1812.40636
2463.09762,1814.61247
2464.77353,1812.40636
2464.77353,1809.09719
2466.44943,1809.09719
2468.12534,1810.20025
2469.80124,1810.20025
2471.47715,1810.20025
2473.15305,1809.09719
2474.82896,1812.40636
2476.50486,1817.92163
2476.50486,1812.40636
2478.18077,1820.12774
2478.18077,1813.50941
2479.85667,1816.81858
2479.85667,1821.2308
2479.85667,1823.43691
2481.53258,1824.53997
2481.53258,1819.02469
2483.20848,1821.2308
2483.20848,1825.64302
2484.88439,1823.43691
2484.88439,1827.84913
2486.56029,1831.1583
2486.56029,1825.64302
2488.2362,1832.26135
2488.2362,1825.64302
2489.9121,1827.84913
2489.9121,1833.36441
2491.58801,1834.46746
2491.58801,1827.84913
2493.26391,1831.1583
2494.93982,1822.33385
2494.93982,1830.05524
2496.61572,1819.02469
2496.61572,1827.84913
2498.29163,1822.33385
2498.29163,1816.81858
2499.96753,1823.43691
2499.96753,1814.61247
2499.96753,1819.02469
2501.64344,1816.81858
2503.31934,1815.71552
2503.31934,1813.50941
2504.99525,1811.3033
2504.99525,1815.71552
2506.67115,1811.3033
2506.67115,1813.50941
2508.34706,1811.3033
2510.02296,1814.61247
2510.02296,1810.20025
2511.69887,1814.61247
2511.69887,1810.20025
2513.37477,1811.3033
2513.37477,1813.50941
2513.37477,1815.71552
2515.05067,1816.81858
2515.05067,1813.50941
2516.72658,1813.50941
2516.72658,1816.81858
2518.40248,1819.02469
2518.40248,1815.71552
2520.07839,1820.12774
2520.07839,1815.71552
2521.75429,1821.2308
2521.75429,1816.81858
2523.4302,1822.33385
2523.4302,1817.92163
2525.1061,1820.12774
2525.1061,1823.43691
2526.78201,1822.33385
2528.45791,1823.43691
2528.45791,1820.12774
2530.13382,1823.43691
2530.13382,1820.12774
2531.80972,1819.02469
2531.80972,1822.33385
2533.48563,1821.2308
2533.48563,1817.92163
2535.16153,1820.12774
2535.16153,1815.71552
2536.83744,1819.02469
2536.83744,1815.71552
2538.51334,1813.50941
2538.51334,1817.92163
2540.18925,1816.81858
2540.18925,1812.40636
2541.86515,1810.20025
2541.86515,1812.40636
2541.86515,1815.71552
2543.54106,1810.20025
2543.54106,1813.50941
2545.21696,1809.09719
2545.21696,1812.40636
2546.89287,1811.3033
2546.89287,1809.09719
2548.56877,1810.20025
2550.24468,1810.20025
2551.92058,1811.3033
2551.92058,1809.09719
2553.59649,1809.09719
2555.27239,1811.3033
2556.9483,1814.61247
2556.9483,1811.3033
2558.6242,1811.3033
2558.6242,1815.71552
2560.30011,1816.81858
2560.30011,1813.50941
2561.97601,1817.92163
2561.97601,1813.50941
2563.65192,1813.50941
2563.65192,1817.92163
2565.32782,1816.81858
2565.32782,1814.61247
2567.00373,1814.61247
2567.00373,1810.20025
2568.67963,1813.50941
2568.67963,1807.99414
2570.35554,1805.78803
2570.35554,1810.20025
2572.03144,1805.78803
2572.03144,1811.3033
2573.70735,1807.99414
2573.70735,1801.37581
2575.38325,1804.68497
2575.38325,1800.27275
2577.05916,1795.86053
2577.05916,1800.27275
2577.05916,1804.68497
2578.73506,1799.1697
2580.41097,1794.75748
2580.41097,1796.96359
2582.08687,1794.75748
2582.08687,1799.1697
2583.76278,1795.86053
2583.76278,1800.27275
2585.43868,1796.96359
2585.43868,1800.27275
2587.11459,1798.06664
2587.11459,1802.47886
2588.79049,1800.27275
2590.4664,1801.37581
2592.1423,1802.47886
2593.81821,1801.37581
2593.81821,1804.68497
2595.49411,1806.89108
2595.49411,1803.58192
2597.17001,1806.89108
2597.17001,1803.58192
2598.84592,1807.99414
2598.84592,1805.78803
2600.52182,1809.09719
2600.52182,1805.78803
2602.19773,1809.09719
2602.19773,1805.78803
2603.87363,1807.99414
2605.54954,1807.99414
2605.54954,1810.20025
2607.22544,1809.09719
2608.90135,1807.99414
2608.90135,1810.20025
2610.57725,1811.3033
2612.25316,1809.09719
2612.25316,1811.3033
2613.92906,1809.09719
2613.92906,1812.40636
2615.60497,1813.50941
2615.60497,1809.09719
2615.60497,1811.3033
2617.28087,1814.61247
2617.28087,1810.20025
2618.95678,1811.3033
2618.95678,1815.71552
2620.63268,1813.50941
2620.63268,1816.81858
2622.30859,1817.92163
2623.98449,1815.71552
2623.98449,1819.02469
2625.6604,1814.61247
2625.6604,1819.02469
2627.3363,1817.92163
2627.3363,1814.61247
2629.01221,1812.40636
2629.01221,1816.81858
2630.68811,1815.71552
2632.36402,1815.71552
2632.36402,1811.3033
2634.03992,1813.50941
2634.03992,1809.09719
2635.71583,1812.40636
2635.71583,1809.09719
2637.39173,1810.20025
2639.06764,1810.20025
2639.06764,1806.89108
2640.74354,1805.78803
2642.41945,1805.78803
2644.09535,1805.78803
2645.77126,1810.20025
2645.77126,1806.89108
2647.44716,1810.20025
2647.44716,1807.99414
2649.12307,1810.20025
2650.79897,1811.3033
2650.79897,1809.09719
2652.47488,1811.3033
2652.47488,1809.09719
2654.15078,1811.3033
2654.15078,1809.09719
2657.50259,1810.20025
2657.50259,1806.89108
2659.1785,1810.20025
2659.1785,1806.89108
2660.8544,1810.20025
2660.8544,1805.78803
2662.53031,1809.09719
2662.53031,1805.78803
2664.20621,1807.99414
2664.20621,1804.68497
2665.88212,1806.89108
2665.88212,1803.58192
2667.55802,1806.89108
2667.55802,1802.47886
2669.23393,1804.68497
2669.23393,1801.37581
2670.90983,1804.68497
2670.90983,1801.37581
2672.58574,1803.58192
2672.58574,1800.27275
2674.26164,1796.96359
2675.93755,1801.37581
2675.93755,1798.06664
2677.61345,1801.37581
2677.61345,1796.96359
2679.28936,1801.37581
2679.28936,1796.96359
2680.96526,1803.58192
2680.96526,1798.06664
2682.64116,1804.68497
2682.64116,1800.27275
2684.31707,1806.89108
2684.31707,1801.37581
2685.99297,1807.99414
2685.99297,1803.58192
2687.66888,1809.09719
2687.66888,1804.68497
2689.34478,1807.99414
2691.02069,1806.89108
2692.69659,1807.99414
2694.3725,1809.09719
2696.0484,1809.09719
2696.0484,1805.78803
2697.72431,1809.09719
2697.72431,1805.78803
2699.40021,1809.09719
2699.40021,1804.68497
2701.07612,1807.99414
2701.07612,1805.78803
2702.75202,1805.78803
2704.42793,1803.58192
2704.42793,1805.78803
2706.10383,1802.47886
2706.10383,1805.78803
2707.77974,1800.27275
2707.77974,1803.58192
2709.45564,1803.58192
2709.45564,1799.1697
2711.13155,1799.1697
2711.13155,1802.47886
2712.80745,1801.37581
2712.80745,1798.06664
2714.48336,1800.27275
2714.48336,1796.96359
2716.15926,1799.1697
2716.15926,1795.86053
2717.83517,1798.06664
2717.83517,1794.75748
2719.51107,1793.65442
2721.18698,1792.55137
2721.18698,1795.86053
2722.86288,1793.65442
2724.53879,1793.65442
2726.21469,1793.65442
2727.8906,1793.65442
2729.5665,1793.65442
2731.24241,1794.75748
2731.24241,1792.55137
2732.91831,1794.75748
2732.91831,1792.55137
2734.59422,1794.75748
2734.59422,1792.55137
2736.27012,1794.75748
2736.27012,1792.55137
2737.94603,1793.65442
2739.62193,1794.75748
2741.29784,1796.96359
2741.29784,1793.65442
2742.97374,1794.75748
2742.97374,1798.06664
2744.64965,1794.75748
2744.64965,1798.06664
2746.32555,1795.86053
2746.32555,1799.1697
2748.00146,1796.96359
2748.00146,1800.27275
2749.67736,1799.1697
2751.35327,1798.06664
2753.02917,1796.96359
2754.70508,1798.06664
2756.38098,1799.1697
2758.05689,1799.1697
2758.05689,1795.86053
2759.73279,1798.06664
2759.73279,1794.75748
2761.4087,1798.06664
2761.4087,1793.65442
2763.0846,1792.55137
2763.0846,1795.86053
2764.7605,1791.44831
2764.7605,1793.65442
2766.43641,1793.65442
2766.43641,1790.34526
2768.11231,1790.34526
2768.11231,1793.65442
2771.46412,1791.44831
2773.14003,1792.55137
2774.81593,1793.65442
2774.81593,1791.44831
2776.49184,1791.44831
2776.49184,1793.65442
2778.16774,1793.65442
2778.16774,1791.44831
2779.84365,1793.65442
2779.84365,1791.44831
2781.51955,1794.75748
2781.51955,1792.55137
2783.19546,1793.65442
2784.87136,1796.96359
2784.87136,1793.65442
2786.54727,1796.96359
2788.22317,1795.86053
2788.22317,1800.27275
2789.89908,1796.96359
2789.89908,1801.37581
2791.57498,1802.47886
2791.57498,1798.06664
2793.25089,1801.37581
2796.6027,1802.47886
2798.2786,1801.37581
2798.2786,1803.58192
2799.95451,1801.37581
2799.95451,1804.68497
2801.63041,1803.58192
2803.30632,1803.58192
2803.30632,1805.78803
2804.98222,1803.58192
2804.98222,1805.78803
2806.65813,1805.78803
2806.65813,1803.58192
2808.33403,1805.78803
2810.00994,1806.89108
2810.00994,1804.68497
2811.68584,1806.89108
2811.68584,1804.68497
2813.36175,1804.68497
2813.36175,1806.89108
2815.03765,1805.78803
2815.03765,1807.99414
2816.71356,1807.99414
2816.71356,1805.78803
2818.38946,1805.78803
2818.38946,1809.09719
2820.06537,1805.78803
2820.06537,1809.09719
2821.74127,1810.20025
2821.74127,1807.99414
2823.41718,1810.20025
2823.41718,1807.99414
2825.09308,1807.99414
2826.76899,1807.99414
2826.76899,1811.3033
2828.44489,1806.89108
2828.44489,1810.20025
2830.1208,1804.68497
2830.1208,1809.09719
2831.7967,1802.47886
2831.7967,1807.99414
2833.47261,1801.37581
2833.47261,1805.78803
2835.14851,1803.58192
2835.14851,1798.06664
2836.82442,1801.37581
2838.50032,1795.86053
2838.50032,1801.37581
2840.17623,1793.65442
2840.17623,1799.1697
2841.85213,1796.96359
2841.85213,1794.75748
2841.85213,1791.44831
2843.52804,1790.34526
2845.20394,1793.65442
2845.20394,1790.34526
2846.87984,1793.65442
2846.87984,1790.34526
2848.55575,1793.65442
2848.55575,1790.34526
2850.23165,1791.44831
2851.90756,1792.55137
2851.90756,1796.96359
2853.58346,1792.55137
2853.58346,1798.06664
2855.25937,1794.75748
2855.25937,1799.1697
2856.93527,1798.06664
2858.61118,1803.58192
2860.28708,1801.37581
2860.28708,1806.89108
2861.96299,1804.68497
2861.96299,1801.37581
2861.96299,1807.99414
2863.63889,1807.99414
2865.3148,1805.78803
2865.3148,1807.99414
2866.9907,1805.78803
2866.9907,1809.09719
2868.66661,1806.89108
2868.66661,1810.20025
2870.34251,1806.89108
2870.34251,1810.20025
2872.01842,1807.99414
2872.01842,1810.20025
2873.69432,1807.99414
2873.69432,1810.20025
2875.37023,1807.99414
2877.04613,1807.99414
2878.72204,1809.09719
2880.39794,1804.68497
2880.39794,1807.99414
2882.07385,1804.68497
2882.07385,1807.99414
2883.74975,1801.37581
2883.74975,1805.78803
2885.42566,1802.47886
2887.10156,1800.27275
2887.10156,1803.58192
2888.77747,1802.47886
2888.77747,1799.1697
2890.45337,1801.37581
2890.45337,1796.96359
2892.12928,1794.75748
2892.12928,1799.1697
2893.80518,1794.75748
2895.48109,1796.96359
2895.48109,1793.65442
2897.15699,1798.06664
2897.15699,1792.55137
2898.8329,1793.65442
2898.8329,1799.1697
2900.5088,1794.75748
2900.5088,1801.37581
2902.18471,1799.1697
2903.86061,1803.58192
2903.86061,1799.1697
2905.53652,1806.89108
2905.53652,1801.37581
2907.21242,1802.47886
2907.21242,1807.99414
2908.88833,1804.68497
2908.88833,1809.09719
2910.56423,1805.78803
2910.56423,1812.40636
2912.24014,1809.09719
2912.24014,1815.71552
2913.91604,1811.3033
2913.91604,1816.81858
2915.59195,1813.50941
2915.59195,1817.92163
2917.26785,1814.61247
2917.26785,1820.12774
2918.94376,1822.33385
2918.94376,1817.92163
2920.61966,1819.02469
2920.61966,1823.43691
2922.29557,1822.33385
2922.29557,1820.12774
2922.29557,1824.53997
2923.97147,1819.02469
2923.97147,1824.53997
2925.64738,1817.92163
2925.64738,1823.43691
2927.32328,1821.2308
2928.99919,1821.2308
2928.99919,1814.61247
2930.67509,1813.50941
2930.67509,1817.92163
2932.35099,1812.40636
2932.35099,1816.81858
2934.0269,1812.40636
2934.0269,1814.61247
2935.7028,1814.61247
2935.7028,1811.3033
2939.05461,1809.09719
2939.05461,1813.50941
2940.73052,1807.99414
2940.73052,1812.40636
2942.40642,1804.68497
2942.40642,1811.3033
2944.08233,1802.47886
2944.08233,1809.09719
2945.75823,1798.06664
2945.75823,1803.58192
2947.43414,1799.1697
2949.11004,1794.75748
2949.11004,1800.27275
2950.78595,1794.75748
2950.78595,1798.06664
2952.46185,1795.86053
2954.13776,1793.65442
2954.13776,1796.96359
2955.81366,1793.65442
2957.48957,1791.44831
2957.48957,1795.86053
2959.16547,1791.44831
2959.16547,1794.75748
2960.84138,1790.34526
2960.84138,1793.65442
2962.51728,1789.2422
2964.19319,1789.2422
2964.19319,1792.55137
2965.86909,1788.13914
2965.86909,1792.55137
2967.545,1789.2422
2969.2209,1789.2422
2969.2209,1795.86053
2970.89681,1792.55137
2970.89681,1799.1697
2972.57271,1795.86053
2972.57271,1800.27275
2974.24862,1795.86053
2974.24862,1802.47886
2975.92452,1799.1697
2975.92452,1802.47886
2977.60043,1802.47886
2979.27633,1801.37581
2979.27633,1804.68497
2980.95224,1802.47886
2980.95224,1805.78803
2982.62814,1802.47886
2982.62814,1806.89108
2984.30405,1809.09719
2984.30405,1804.68497
2985.97995,1806.89108
2985.97995,1804.68497
2985.97995,1810.20025
2987.65586,1809.09719
2989.33176,1813.50941
2989.33176,1809.09719
2991.00767,1811.3033
2991.00767,1815.71552
2992.68357,1816.81858
2994.35948,1813.50941
2994.35948,1817.92163
2996.03538,1815.71552
2996.03538,1819.02469
2997.71129,1816.81858
2997.71129,1820.12774
2999.38719,1817.92163
2999.38719,1821.2308
3001.0631,1817.92163
3001.0631,1820.12774
3002.739,1820.12774
3004.41491,1817.92163
3004.41491,1820.12774
3006.09081,1819.02469
3007.76672,1816.81858
3007.76672,1819.02469
3009.44262,1814.61247
3009.44262,1819.02469
3011.11853,1817.92163
3011.11853,1812.40636
3012.79443,1812.40636
3012.79443,1816.81858
3014.47033,1810.20025
3014.47033,1815.71552
3016.14624,1813.50941
3016.14624,1807.99414
3017.82214,1807.99414
3019.49805,1811.3033
3019.49805,1807.99414
3021.17395,1810.20025
3022.84986,1807.99414
3022.84986,1811.3033
3024.52576,1810.20025
3026.20167,1810.20025
3027.87757,1810.20025
3029.55348,1811.3033
3031.22938,1810.20025
3031.22938,1813.50941
3032.90529,1810.20025
3032.90529,1813.50941
3034.58119,1813.50941
3036.2571,1809.09719
3036.2571,1812.40636
3037.933,1809.09719
3037.933,1811.3033
3039.60891,1806.89108
3039.60891,1810.20025
3041.28481,1805.78803
3042.96072,1804.68497
3042.96072,1807.99414
3044.63662,1804.68497
3044.63662,1807.99414
3046.31253,1809.09719
3046.31253,1805.78803
3047.98843,1806.89108
3047.98843,1809.09719
3049.66434,1806.89108
3049.66434,1810.20025
3051.34024,1807.99414
3051.34024,1812.40636
3053.01615,1809.09719
3053.01615,1813.50941
3054.69205,1816.81858
3054.69205,1810.20025
3056.36796,1819.02469
3056.36796,1813.50941
3058.04386,1817.92163
3059.71977,1816.81858
3059.71977,1821.2308
3061.39567,1822.33385
3063.07158,1822.33385
3063.07158,1820.12774
3063.07158,1817.92163
3064.74748,1821.2308
3066.42339,1820.12774
3068.09929,1816.81858
3068.09929,1820.12774
3069.7752,1816.81858
3073.12701,1817.92163
3074.80291,1817.92163
3074.80291,1817.92163
3074.80291,1814.61247
3074.80291,1814.61247
3076.47882,1814.61247
3076.47882,1816.81858
3076.47882,1814.61247
3076.47882,1816.81858
3078.15472,1819.02469
3078.15472,1814.61247
3078.15472,1819.02469
3078.15472,1814.61247
3079.83063,1821.2308
3079.83063,1815.71552
3079.83063,1815.71552
3079.83063,1821.2308
3081.50653,1822.33385
3081.50653,1817.92163
3081.50653,1822.33385
3081.50653,1817.92163
3083.18244,1823.43691
3083.18244,1819.02469
3083.18244,1823.43691
3083.18244,1819.02469
3084.85834,1825.64302
3084.85834,1825.64302
3084.85834,1821.2308
3084.85834,1821.2308
3086.53425,1822.33385
3086.53425,1822.33385
3086.53425,1827.84913
3086.53425,1827.84913
3088.21015,1825.64302
3088.21015,1828.95219
3088.21015,1828.95219
3088.21015,1825.64302
3089.88606,1827.84913
3089.88606,1827.84913
3091.56196,1832.26135
3091.56196,1827.84913
3091.56196,1827.84913
3091.56196,1832.26135
3093.23787,1834.46746
3093.23787,1834.46746
3094.91377,1831.1583
3094.91377,1834.46746
3094.91377,1834.46746
3094.91377,1831.1583
3096.58967,1833.36441
3096.58967,1833.36441
3096.58967,1830.05524
3096.58967,1830.05524
3098.26558,1830.05524
3098.26558,1834.46746
3098.26558,1834.46746
3098.26558,1830.05524
3099.94148,1832.26135
3099.94148,1827.84913
3099.94148,1827.84913
3099.94148,1832.26135
3101.61739,1826.74608
3101.61739,1831.1583
3101.61739,1831.1583
3101.61739,1826.74608
3103.29329,1830.05524
3103.29329,1827.84913
3103.29329,1830.05524
3103.29329,1827.84913
3104.9692,1828.95219
3104.9692,1828.95219
3106.6451,1825.64302
3106.6451,1825.64302
3106.6451,1828.95219
3106.6451,1828.95219
3108.32101,1825.64302
3108.32101,1827.84913
3108.32101,1827.84913
3108.32101,1825.64302
3109.99691,1826.74608
3109.99691,1826.74608
3111.67282,1824.53997
3111.67282,1824.53997
3113.34872,1825.64302
3113.34872,1821.2308
3113.34872,1825.64302
3113.34872,1821.2308
3115.02463,1817.92163
3115.02463,1825.64302
3115.02463,1817.92163
3115.02463,1825.64302
3116.70053,1816.81858
3116.70053,1816.81858
3116.70053,1823.43691
3116.70053,1823.43691
3118.37644,1815.71552
3118.37644,1821.2308
3118.37644,1821.2308
3118.37644,1815.71552
3120.05234,1813.50941
3120.05234,1819.02469
3120.05234,1819.02469
3120.05234,1813.50941
3121.72825,1813.50941
3121.72825,1813.50941
3123.40415,1814.61247
3123.40415,1814.61247
3125.08006,1814.61247
3125.08006,1814.61247
3126.75596,1815.71552
3126.75596,1815.71552
3128.43187,1817.92163
3128.43187,1814.61247
3128.43187,1817.92163
3128.43187,1814.61247
3130.10777,1817.92163
3130.10777,1814.61247
3130.10777,1817.92163
3130.10777,1814.61247
3131.78368,1819.02469
3131.78368,1815.71552
3131.78368,1815.71552
3131.78368,1819.02469
3133.45958,1817.92163
3133.45958,1817.92163
3135.13549,1817.92163
3135.13549,1817.92163
3136.81139,1820.12774
3136.81139,1820.12774
3138.4873,1819.02469
3138.4873,1824.53997
3138.4873,1824.53997
3138.4873,1819.02469
3140.1632,1830.05524
3140.1632,1824.53997
3140.1632,1820.12774
3140.1632,1830.05524
3140.1632,1820.12774
3140.1632,1824.53997
3141.83911,1834.46746
3141.83911,1825.64302
3141.83911,1830.05524
3141.83911,1834.46746
3141.83911,1830.05524
3141.83911,1825.64302
3143.51501,1835.57052
3143.51501,1827.84913
3143.51501,1835.57052
3143.51501,1827.84913
3145.19092,1838.87968
3145.19092,1838.87968
3145.19092,1832.26135
3145.19092,1832.26135
3146.86682,1835.57052
3146.86682,1839.98274
3146.86682,1835.57052
3146.86682,1839.98274
3148.54273,1839.98274
3148.54273,1839.98274
3148.54273,1835.57052
3148.54273,1835.57052
3150.21863,1838.87968
3150.21863,1835.57052
3150.21863,1838.87968
3150.21863,1835.57052
3151.89454,1837.77663
3151.89454,1835.57052
3151.89454,1837.77663
3151.89454,1835.57052
3153.57044,1837.77663
3153.57044,1835.57052
3153.57044,1835.57052
3153.57044,1837.77663
3155.24635,1837.77663
3156.92225,1837.77663
3156.92225,1835.57052
3158.59816,1836.67357
3158.59816,1839.98274
3160.27406,1836.67357
3160.27406,1841.08579
3161.94997,1837.77663
3161.94997,1841.08579
3163.62587,1839.98274
3165.30178,1841.08579
3165.30178,1836.67357
3165.30178,1834.46746
3166.97768,1832.26135
3166.97768,1837.77663
3168.65359,1836.67357
3168.65359,1830.05524
3170.32949,1827.84913
3170.32949,1833.36441
3172.0054,1827.84913
3172.0054,1830.05524
3173.6813,1826.74608
3173.6813,1830.05524
3175.35721,1828.95219
3175.35721,1826.74608
3177.03311,1826.74608
3177.03311,1828.95219
3178.70902,1830.05524
3178.70902,1826.74608
3180.38492,1826.74608
3180.38492,1830.05524
3182.06082,1830.05524
3183.73673,1827.84913
3183.73673,1831.1583
3185.41263,1828.95219
3187.08854,1828.95219
3187.08854,1832.26135
3188.76444,1830.05524
3188.76444,1832.26135
3190.44035,1830.05524
3190.44035,1832.26135
3192.11625,1831.1583
3192.11625,1833.36441
3193.79216,1831.1583
3193.79216,1833.36441
3195.46806,1831.1583
3195.46806,1834.46746
3197.14397,1831.1583
3197.14397,1834.46746
3198.81987,1833.36441
3198.81987,1831.1583
3200.49578,1830.05524
3200.49578,1833.36441
3202.17168,1832.26135
3202.17168,1830.05524
3203.84759,1830.05524
3203.84759,1832.26135
3205.52349,1830.05524
3207.1994,1830.05524
3208.8753,1827.84913
3208.8753,1831.1583
3210.55121,1827.84913
3210.55121,1831.1583
3212.22711,1827.84913
3212.22711,1831.1583
3213.90302,1831.1583
3213.90302,1827.84913
3215.57892,1828.95219
3215.57892,1832.26135
3217.25483,1830.05524
3217.25483,1833.36441
3218.93073,1830.05524
3218.93073,1833.36441
3220.60664,1833.36441
3222.28254,1832.26135
3222.28254,1835.57052
3223.95845,1833.36441
3223.95845,1835.57052
3225.63435,1832.26135
3225.63435,1835.57052
3227.31026,1832.26135
3227.31026,1835.57052
3228.98616,1834.46746
3230.66207,1832.26135
3230.66207,1835.57052
3232.33797,1832.26135
3232.33797,1836.67357
3234.01388,1834.46746
3234.01388,1838.87968
3235.68978,1835.57052
3235.68978,1839.98274
3237.36569,1836.67357
3237.36569,1843.2919
3237.36569,1838.87968
3239.04159,1839.98274
3240.7175,1841.08579
3240.7175,1844.39496
3242.3934,1844.39496
3242.3934,1841.08579
3244.06931,1844.39496
3245.74521,1844.39496
3247.42112,1844.39496
3249.09702,1843.2919
3249.09702,1846.60107
3250.77293,1845.49801
3252.44883,1846.60107
3254.12474,1845.49801
3254.12474,1848.80718
3255.80064,1846.60107
3255.80064,1848.80718
3257.47655,1843.2919
3257.47655,1848.80718
3259.15245,1842.18885
3259.15245,1847.70412
3260.82836,1842.18885
3262.50426,1838.87968
3262.50426,1844.39496
3264.18016,1837.77663
3264.18016,1841.08579
3265.85607,1837.77663
3265.85607,1841.08579
3267.53197,1837.77663
3267.53197,1841.08579
3269.20788,1838.87968
3269.20788,1841.08579
3270.88378,1842.18885
3272.55969,1842.18885
3274.23559,1839.98274
3274.23559,1843.2919
3275.9115,1839.98274
3275.9115,1842.18885
3277.5874,1842.18885
3277.5874,1838.87968
3279.26331,1838.87968
3279.26331,1841.08579
3280.93921,1838.87968
3282.61512,1844.39496
3282.61512,1838.87968
3284.29102,1839.98274
3284.29102,1846.60107
3285.96693,1843.2919
3285.96693,1848.80718
3287.64283,1845.49801
3287.64283,1852.11634
3289.31874,1848.80718
3289.31874,1854.32245
3289.31874,1851.01329
3290.99464,1847.70412
3290.99464,1854.32245
3292.67055,1848.80718
3292.67055,1853.2194
3294.34645,1846.60107
3294.34645,1851.01329
3296.02236,1844.39496
3296.02236,1848.80718
3297.69826,1843.2919
3297.69826,1847.70412
3299.37417,1841.08579
3299.37417,1846.60107
3301.05007,1844.39496
3301.05007,1839.98274
3302.72598,1838.87968
3302.72598,1842.18885
3304.40188,1838.87968
3304.40188,1842.18885
3306.07779,1836.67357
3306.07779,1839.98274
3307.75369,1839.98274
3307.75369,1835.57052
3309.4296,1834.46746
3309.4296,1838.87968
3311.1055,1837.77663
3311.1055,1833.36441
3312.78141,1836.67357
3312.78141,1831.1583
3314.45731,1831.1583
3314.45731,1834.46746
3316.13322,1830.05524
3316.13322,1833.36441
3317.80912,1830.05524
3317.80912,1833.36441
3319.48503,1830.05524
3319.48503,1832.26135
3321.16093,1828.95219
3321.16093,1832.26135
3322.83684,1827.84913
3322.83684,1831.1583
3324.51274,1827.84913
3324.51274,1831.1583
3326.18865,1830.05524
3327.86455,1828.95219
3329.54046,1828.95219
3331.21636,1826.74608
3331.21636,1830.05524
3332.89227,1830.05524
3332.89227,1826.74608
3334.56817,1828.95219
3334.56817,1825.64302
3336.24408,1825.64302
3336.24408,1827.84913
3337.91998,1827.84913
3337.91998,1825.64302
3339.59589,1827.84913
3339.59589,1825.64302
3341.27179,1825.64302
3341.27179,1827.84913
3342.9477,1825.64302
3342.9477,1828.95219
3344.6236,1825.64302
3344.6236,1831.1583
3344.6236,1828.95219
3346.2995,1826.74608
3347.97541,1828.95219
3347.97541,1832.26135
3349.65131,1832.26135
3349.65131,1828.95219
3351.32722,1832.26135
3353.00312,1831.1583
3353.00312,1834.46746
3354.67903,1831.1583
3354.67903,1834.46746
3356.35493,1832.26135
3356.35493,1835.57052
3358.03084,1833.36441
3358.03084,1835.57052
3359.70674,1833.36441
3359.70674,1835.57052
3361.38265,1835.57052
3363.05855,1834.46746
3363.05855,1836.67357
3364.73446,1836.67357
3364.73446,1833.36441
3366.41036,1833.36441
3366.41036,1836.67357
3368.08627,1833.36441
3368.08627,1835.57052
3368.08627,1831.1583
3369.76217,1831.1583
3369.76217,1833.36441
3371.43808,1828.95219
3371.43808,1833.36441
3373.11398,1826.74608
3373.11398,1832.26135
3374.78989,1825.64302
3374.78989,1830.05524
3376.46579,1823.43691
3376.46579,1828.95219
3378.1417,1821.2308
3378.1417,1826.74608
3379.8176,1819.02469
3379.8176,1824.53997
3381.49351,1823.43691
3381.49351,1817.92163
3383.16941,1820.12774
3383.16941,1817.92163
3384.84532,1816.81858
3384.84532,1820.12774
3386.52122,1814.61247
3386.52122,1817.92163
3388.19713,1815.71552
3389.87303,1816.81858
3389.87303,1813.50941
3391.54894,1812.40636
3391.54894,1815.71552
3393.22484,1814.61247
3393.22484,1811.3033
3394.90075,1814.61247
3394.90075,1811.3033
3396.57665,1810.20025
3398.25256,1810.20025
3398.25256,1812.40636
3399.92846,1812.40636
3401.60437,1812.40636
3401.60437,1810.20025
3403.28027,1814.61247
3403.28027,1811.3033
3404.95618,1812.40636
3404.95618,1815.71552
3406.63208,1812.40636
3406.63208,1815.71552
3408.30799,1816.81858
3408.30799,1813.50941
3409.98389,1816.81858
3409.98389,1813.50941
3411.6598,1814.61247
3411.6598,1819.02469
3413.3357,1819.02469
3413.3357,1816.81858
3415.01161,1820.12774
3415.01161,1816.81858
3416.68751,1820.12774
3418.36342,1819.02469
3420.03932,1819.02469
3421.71523,1819.02469
3421.71523,1816.81858
3423.39113,1816.81858
3423.39113,1819.02469
3425.06704,1815.71552
3425.06704,1819.02469
3426.74294,1814.61247
3426.74294,1819.02469
3428.41885,1814.61247
3428.41885,1817.92163
3430.09475,1813.50941
3430.09475,1816.81858
3431.77065,1813.50941
3431.77065,1815.71552
3433.44656,1813.50941
3433.44656,1815.71552
3435.12246,1813.50941
3435.12246,1816.81858
3436.79837,1814.61247
3436.79837,1817.92163
3438.47427,1815.71552
3438.47427,1819.02469
3440.15018,1816.81858
3440.15018,1819.02469
3441.82608,1815.71552
3441.82608,1819.02469
3443.50199,1819.02469
3445.17789,1819.02469
3446.8538,1817.92163
3446.8538,1820.12774
3448.5297,1817.92163
3448.5297,1820.12774
3450.20561,1817.92163
3450.20561,1820.12774
3451.88151,1816.81858
3451.88151,1820.12774
3453.55742,1816.81858
3453.55742,1819.02469
3455.23332,1819.02469
3456.90923,1814.61247
3458.58513,1814.61247
3458.58513,1817.92163
3460.26104,1816.81858
3461.93694,1814.61247
3461.93694,1817.92163
3463.61285,1814.61247
3463.61285,1817.92163
3465.28875,1815.71552
3466.96466,1817.92163
3466.96466,1814.61247
3468.64056,1815.71552
3468.64056,1819.02469
3470.31647,1816.81858
3470.31647,1820.12774
3471.99237,1821.2308
3471.99237,1816.81858
3473.66828,1819.02469
3473.66828,1822.33385
3475.34418,1819.02469
3475.34418,1822.33385
3477.02009,1822.33385
3478.69599,1823.43691
3480.3719,1823.43691
3480.3719,1821.2308
3482.0478,1823.43691
3483.72371,1823.43691
3483.72371,1819.02469
3485.39961,1816.81858
3485.39961,1821.2308
3487.07552,1820.12774
3487.07552,1815.71552
3488.75142,1819.02469
3488.75142,1813.50941
3490.42733,1815.71552
3490.42733,1810.20025
3492.10323,1813.50941
3492.10323,1807.99414
3495.45504,1811.3033
3495.45504,1805.78803
3497.13095,1807.99414
3497.13095,1803.58192
3498.80685,1807.99414
3498.80685,1804.68497
3498.80685,1802.47886
3500.48276,1805.78803
3500.48276,1801.37581
3502.15866,1803.58192
3502.15866,1799.1697
3503.83457,1800.27275
3503.83457,1798.06664
3505.51047,1801.37581
3505.51047,1796.96359
3507.18638,1801.37581
3507.18638,1795.86053
3508.86228,1801.37581
3508.86228,1796.96359
3510.53819,1802.47886
3510.53819,1798.06664
3512.21409,1804.68497
3512.21409,1799.1697
3513.88999,1803.58192
3515.5659,1802.47886
3515.5659,1806.89108
3517.2418,1806.89108
3518.91771,1804.68497
3518.91771,1806.89108
3520.59361,1806.89108
3522.26952,1809.09719
3522.26952,1805.78803
3523.94542,1805.78803
3523.94542,1809.09719
3525.62133,1805.78803
3525.62133,1809.09719
3527.29723,1805.78803
3527.29723,1807.99414
3528.97314,1806.89108
3530.64904,1805.78803
3530.64904,1807.99414
3532.32495,1807.99414
3534.00085,1804.68497
3534.00085,1806.89108
3535.67676,1804.68497
3537.35266,1802.47886
3537.35266,1805.78803
3539.02857,1801.37581
3539.02857,1805.78803
3540.70447,1801.37581
3542.38038,1802.47886
3542.38038,1809.09719
3544.05628,1804.68497
3544.05628,1810.20025
3545.73219,1805.78803
3545.73219,1812.40636
3547.40809,1809.09719
3547.40809,1814.61247
3549.084,1815.71552
3549.084,1810.20025
3550.7599,1817.92163
3550.7599,1812.40636
3552.43581,1817.92163
3554.11171,1816.81858
3554.11171,1821.2308
3554.11171,1823.43691
3555.78762,1819.02469
3555.78762,1823.43691
3557.46352,1820.12774
3557.46352,1825.64302
3557.46352,1822.33385
3557.46352,1825.64302
3559.13943,1826.74608
3559.13943,1822.33385
3559.13943,1826.74608
3560.81533,1827.84913
3560.81533,1826.74608
3562.49124,1830.05524
3562.49124,1830.05524
3562.49124,1825.64302
3562.49124,1825.64302
3564.16714,1831.1583
3564.16714,1831.1583
3565.84305,1827.84913
3565.84305,1831.1583
3565.84305,1825.64302
3565.84305,1831.1583
3565.84305,1827.84913
3565.84305,1825.64302
3567.51895,1825.64302
3567.51895,1830.05524
3567.51895,1825.64302
3567.51895,1830.05524
3569.19486,1824.53997
3569.19486,1828.95219
3569.19486,1828.95219
3570.87076,1827.84913
3570.87076,1827.84913
3570.87076,1822.33385
3572.54667,1825.64302
3572.54667,1825.64302
3572.54667,1823.43691
3574.22257,1825.64302
3574.22257,1825.64302
3574.22257,1822.33385
3575.89848,1822.33385
3575.89848,1824.53997
3577.57438,1822.33385
3577.57438,1824.53997
3579.25029,1824.53997
3579.25029,1825.64302
3580.92619,1825.64302
3580.92619,1824.53997
3582.6021,1823.43691
3584.278,1825.64302
3584.278,1825.64302
3585.95391,1825.64302
3585.95391,1824.53997
3587.62981,1824.53997
3587.62981,1825.64302
3589.30572,1822.33385
3590.98162,1828.95219
3590.98162,1828.95219
3592.65753,1831.1583
3592.65753,1826.74608
3592.65753,1831.1583
3592.65753,1825.64302
3594.33343,1832.26135
3594.33343,1835.57052
3594.33343,1835.57052
3594.33343,1827.84913
3594.33343,1827.84913
3594.33343,1832.26135
3596.00933,1830.05524
3596.00933,1835.57052
3596.00933,1835.57052
3596.00933,1830.05524
3597.68524,1831.1583
3597.68524,1834.46746
3597.68524,1836.67357
3597.68524,1836.67357
3597.68524,1834.46746
3597.68524,1831.1583
3599.36114,1834.46746
3599.36114,1832.26135
3599.36114,1832.26135
3599.36114,1834.46746
3601.03705,1835.57052
3601.03705,1832.26135
3601.03705,1835.57052
3601.03705,1832.26135
3602.71295,1835.57052
3602.71295,1835.57052
3604.38886,1831.1583
3604.38886,1833.36441
3604.38886,1833.36441
3604.38886,1831.1583
3606.06476,1831.1583
3606.06476,1831.1583
3606.06476,1834.46746
3606.06476,1834.46746
3607.74067,1831.1583
3607.74067,1834.46746
3607.74067,1834.46746
3607.74067,1831.1583
3609.41657,1833.36441
3609.41657,1831.1583
3609.41657,1831.1583
3609.41657,1833.36441
3611.09248,1832.26135
3611.09248,1832.26135
3612.76838,1831.1583
3612.76838,1834.46746
3612.76838,1834.46746
3612.76838,1831.1583
3614.44429,1833.36441
3614.44429,1833.36441
3616.12019,1828.95219
3616.12019,1828.95219
3616.12019,1833.36441
3616.12019,1833.36441
3617.7961,1827.84913
3617.7961,1830.05524
3617.7961,1827.84913
3617.7961,1830.05524
3619.472,1831.1583
3619.472,1826.74608
3619.472,1831.1583
3619.472,1826.74608
3621.14791,1827.84913
3621.14791,1827.84913
3622.82381,1827.84913
3622.82381,1827.84913
3622.82381,1832.26135
3622.82381,1832.26135
3624.49972,1830.05524
3624.49972,1835.57052
3624.49972,1835.57052
3624.49972,1830.05524
3624.49972,1826.74608
3624.49972,1826.74608
3626.17562,1839.98274
3626.17562,1831.1583
3627.85153,1841.08579
3627.85153,1835.57052
3629.52743,1836.67357
3629.52743,1846.60107
3631.20334,1841.08579
3631.20334,1855.42551
3632.87924,1857.63162
3632.87924,1851.01329
3632.87924,1865.35301
3632.87924,1846.60107
3632.87924,1865.35301
3634.55515,1860.94079
3634.55515,1865.35301
3636.23105,1860.94079
3636.23105,1874.17745
3636.23105,1874.17745
3636.23105,1860.94079
3636.23105,1856.52856
3637.90696,1867.55912
3637.90696,1885.208
3637.90696,1867.55912
3637.90696,1885.208
3639.58286,1876.38356
3639.58286,1892.92939
3639.58286,1883.00189
3639.58286,1876.38356
3639.58286,1890.72327
3639.58286,1883.00189
3641.25877,1881.89883
3641.25877,1881.89883
3641.25877,1892.92939
3641.25877,1887.41411
3641.25877,1892.92939
3641.25877,1896.23855
3641.25877,1887.41411
3642.93467,1887.41411
3642.93467,1887.41411
3642.93467,1892.92939
3642.93467,1903.95994
3642.93467,1892.92939
3644.61058,1912.78438
3644.61058,1892.92939
3644.61058,1896.23855
3646.28648,1912.78438
3646.28648,1919.40271
3646.28648,1910.57827
3646.28648,1905.06299
3647.96239,1922.71187
3647.96239,1914.99049
3649.63829,1927.1241
3649.63829,1917.1966
3651.3142,1932.63937
3651.3142,1922.71187
3652.9901,1939.2577
3652.9901,1928.22715
3654.66601,1941.46381
3654.66601,1932.63937
3654.66601,1928.22715
3656.34191,1944.77298
3656.34191,1934.84548
3658.01782,1945.87603
3658.01782,1952.49436
3658.01782,1941.46381
3659.69372,1949.1852
3659.69372,1959.11269
3661.36963,1960.21575
3661.36963,1953.59742
3663.04553,1953.59742
3663.04553,1962.42186
3663.04553,1956.90658
3664.72144,1959.11269
3664.72144,1964.62797
3666.39734,1964.62797
3668.07325,1964.62797
3669.74915,1962.42186
3669.74915,1967.93714
3669.74915,1964.62797
3671.42506,1967.93714
3673.10096,1960.21575
3673.10096,1966.83408
3674.77687,1958.00964
3674.77687,1964.62797
3676.45277,1962.42186
3676.45277,1955.80353
3678.12868,1955.80353
3679.80458,1954.70047
3679.80458,1958.00964
3679.80458,1949.1852
3679.80458,1946.97909
3681.48048,1952.49436
3681.48048,1955.80353
3681.48048,1945.87603
3683.15639,1942.56687
3683.15639,1950.28825
3684.83229,1937.05159
3684.83229,1945.87603
3686.5082,1943.66992
3688.1841,1932.63937
3688.1841,1939.2577
3689.86001,1929.33021
3689.86001,1935.94854
3691.53591,1932.63937
3691.53591,1926.02104
3693.21182,1923.81493
3693.21182,1930.43326
3694.88772,1922.71187
3694.88772,1929.33021
3694.88772,1927.1241
3694.88772,1918.29965
3696.56363,1911.68132
3696.56363,1923.81493
3698.23953,1900.65077
3698.23953,1918.29965
3698.23953,1907.2691
3699.91544,1896.23855
3699.91544,1913.88743
3699.91544,1909.47521
3699.91544,1905.06299
3701.59134,1887.41411
3701.59134,1889.62022
3703.26725,1881.89883
3703.26725,1881.89883
3704.94315,1880.79578
3704.94315,1889.62022
3704.94315,1886.31105
3704.94315,1874.17745
3704.94315,1880.79578
3704.94315,1874.17745
3706.61906,1881.89883
3706.61906,1876.38356
3706.61906,1881.89883
3706.61906,1876.38356
3708.29496,1880.79578
3708.29496,1869.76523
3708.29496,1880.79578
3708.29496,1869.76523
3709.97087,1874.17745
3709.97087,1862.04384
3709.97087,1874.17745
3709.97087,1862.04384
3711.64677,1867.55912
3711.64677,1860.94079
3711.64677,1856.52856
3711.64677,1867.55912
3711.64677,1860.94079
3711.64677,1856.52856
3713.32268,1862.04384
3713.32268,1854.32245
3713.32268,1854.32245
3713.32268,1862.04384
3714.99858,1847.70412
3714.99858,1856.52856
3714.99858,1856.52856
3714.99858,1847.70412
3716.67449,1854.32245
3716.67449,1841.08579
3716.67449,1841.08579
3716.67449,1854.32245
3718.35039,1836.67357
3718.35039,1847.70412
3718.35039,1836.67357
3718.35039,1847.70412
3720.0263,1847.70412
3720.0263,1844.39496
3720.0263,1847.70412
3720.0263,1839.98274
3720.0263,1839.98274
3720.0263,1835.57052
3720.0263,1835.57052
3720.0263,1844.39496
3721.7022,1835.57052
3721.7022,1835.57052
3721.7022,1841.08579
3721.7022,1841.08579
3723.37811,1837.77663
3723.37811,1832.26135
3725.05401,1831.1583
3725.05401,1835.57052
3726.72992,1828.95219
3726.72992,1833.36441
3728.40582,1825.64302
3728.40582,1832.26135
3730.08173,1827.84913
3730.08173,1820.12774
3731.75763,1822.33385
3731.75763,1826.74608
3731.75763,1817.92163
3733.43354,1814.61247
3733.43354,1824.53997
3733.43354,1821.2308
3735.10944,1811.3033
3735.10944,1819.02469
3736.78535,1810.20025
3736.78535,1815.71552
3738.46125,1810.20025
3738.46125,1813.50941
3740.13716,1815.71552
3740.13716,1811.3033
3741.81306,1812.40636
3741.81306,1816.81858
3743.48897,1815.71552
3745.16487,1819.02469
3746.84078,1819.02469
3746.84078,1815.71552
3748.51668,1819.02469
3750.19259,1817.92163
3750.19259,1821.2308
3751.86849,1816.81858
3751.86849,1819.02469
3753.5444,1821.2308
3755.2203,1820.12774
3755.2203,1814.61247
3756.89621,1814.61247
3756.89621,1817.92163
3758.57211,1813.50941
3760.24802,1809.09719
3760.24802,1815.71552
3761.92392,1803.58192
3761.92392,1812.40636
3761.92392,1809.09719
3763.59982,1801.37581
3763.59982,1810.20025
3765.27573,1798.06664
3765.27573,1807.99414
3765.27573,1805.78803
3766.95163,1798.06664
3766.95163,1803.58192
3766.95163,1794.75748
3768.62754,1793.65442
3768.62754,1798.06664
3770.30344,1792.55137
3770.30344,1795.86053
3771.97935,1793.65442
3773.65525,1792.55137
3775.33116,1792.55137
3775.33116,1798.06664
3775.33116,1794.75748
3777.00706,1795.86053
3778.68297,1799.1697
3778.68297,1803.58192
3778.68297,1794.75748
3780.35887,1798.06664
3780.35887,1807.99414
3782.03478,1804.68497
3782.03478,1812.40636
3783.71068,1806.89108
3783.71068,1813.50941
3785.38659,1810.20025
3785.38659,1814.61247
3787.06249,1810.20025
3787.06249,1814.61247
3788.7384,1810.20025
3788.7384,1813.50941
3790.4143,1812.40636
3792.09021,1809.09719
3792.09021,1811.3033
3793.76611,1812.40636
3793.76611,1809.09719
3795.44202,1810.20025
3795.44202,1812.40636
3797.11792,1810.20025
3798.79383,1814.61247
3798.79383,1810.20025
3800.46973,1812.40636
3800.46973,1814.61247
3802.14564,1813.50941
3803.82154,1813.50941
3803.82154,1815.71552
3805.49745,1813.50941
3805.49745,1816.81858
3807.17335,1814.61247
3807.17335,1817.92163
3808.84926,1815.71552
3810.52516,1819.02469
3810.52516,1816.81858
3812.20107,1816.81858
3812.20107,1819.02469
3813.87697,1816.81858
3813.87697,1819.02469
3815.55288,1816.81858
3817.22878,1816.81858
3818.90469,1817.92163
3820.58059,1814.61247
3820.58059,1819.02469
3822.2565,1813.50941
3822.2565,1817.92163
3823.9324,1816.81858
3823.9324,1813.50941
3825.60831,1814.61247
3827.28421,1813.50941
3827.28421,1815.71552
3828.96012,1815.71552
3828.96012,1813.50941
3830.63602,1814.61247
3832.31193,1814.61247
3832.31193,1816.81858
3833.98783,1814.61247
3833.98783,1817.92163
3835.66374,1814.61247
3835.66374,1817.92163
3837.33964,1814.61247
3837.33964,1817.92163
3839.01555,1814.61247
3839.01555,1817.92163
3840.69145,1817.92163
3842.36736,1813.50941
3842.36736,1817.92163
3844.04326,1810.20025
3844.04326,1816.81858
3845.71916,1814.61247
3845.71916,1807.99414
3847.39507,1805.78803
3847.39507,1812.40636
3847.39507,1807.99414
3849.07097,1804.68497
3849.07097,1809.09719
3850.74688,1805.78803
3852.42278,1801.37581
3852.42278,1805.78803
3854.09869,1804.68497
3854.09869,1801.37581
3855.77459,1800.27275
3857.4505,1802.47886
3859.1264,1804.68497
3859.1264,1801.37581
3860.80231,1801.37581
3860.80231,1804.68497
3862.47821,1803.58192
3862.47821,1807.99414
3864.15412,1809.09719
3865.83002,1812.40636
3865.83002,1809.09719
3865.83002,1805.78803
3867.50593,1807.99414
3869.18183,1814.61247
3869.18183,1807.99414
3869.18183,1811.3033
3870.85774,1810.20025
3870.85774,1815.71552
3872.53364,1813.50941
3872.53364,1819.02469
3874.20955,1815.71552
3874.20955,1819.02469
3875.88545,1817.92163
3877.56136,1819.02469
3879.23726,1820.12774
3880.91317,1817.92163
3880.91317,1820.12774
3882.58907,1817.92163
3882.58907,1821.2308
3884.26498,1817.92163
3884.26498,1821.2308
3885.94088,1820.12774
3885.94088,1817.92163
3887.61679,1816.81858
3887.61679,1820.12774
3889.29269,1816.81858
3889.29269,1820.12774
3890.9686,1816.81858
3890.9686,1820.12774
3892.6445,1817.92163
3892.6445,1821.2308
3894.32041,1819.02469
3894.32041,1822.33385
3895.99631,1819.02469
3895.99631,1823.43691
3897.67222,1823.43691
3899.34812,1823.43691
3899.34812,1821.2308
3901.02403,1823.43691
3901.02403,1821.2308
3902.69993,1823.43691
3902.69993,1821.2308
3904.37584,1822.33385
3906.05174,1823.43691
3907.72765,1822.33385
3909.40355,1825.64302
3909.40355,1823.43691
3911.07946,1823.43691
3911.07946,1826.74608
3912.75536,1827.84913
3912.75536,1824.53997
3914.43127,1827.84913
3914.43127,1824.53997
3916.10717,1827.84913
3917.78308,1827.84913
3917.78308,1825.64302
3919.45898,1825.64302
3919.45898,1827.84913
3921.13489,1825.64302
3921.13489,1828.95219
3922.81079,1828.95219
3922.81079,1826.74608
3924.4867,1826.74608
3924.4867,1831.1583
3926.1626,1827.84913
3926.1626,1832.26135
3927.8385,1833.36441
3929.51441,1830.05524
3929.51441,1833.36441
3931.19031,1828.95219
3931.19031,1832.26135
3932.86622,1831.1583
3932.86622,1828.95219
3934.54212,1826.74608
3934.54212,1831.1583
3936.21803,1825.64302
3936.21803,1828.95219
3937.89393,1824.53997
3937.89393,1828.95219
3939.56984,1826.74608
3939.56984,1823.43691
3941.24574,1824.53997
3941.24574,1820.12774
3942.92165,1824.53997
3942.92165,1819.02469
3944.59755,1817.92163
3944.59755,1822.33385
3946.27346,1817.92163
3946.27346,1822.33385
3947.94936,1815.71552
3947.94936,1820.12774
3949.62527,1813.50941
3949.62527,1817.92163
3951.30117,1812.40636
3951.30117,1816.81858
3952.97708,1811.3033
3954.65298,1812.40636
3956.32889,1812.40636
3958.00479,1812.40636
3958.00479,1810.20025
3959.6807,1813.50941
3959.6807,1810.20025
3961.3566,1812.40636
3963.03251,1814.61247
3963.03251,1811.3033
3964.70841,1811.3033
3964.70841,1814.61247
3966.38432,1812.40636
3966.38432,1815.71552
3968.06022,1812.40636
3968.06022,1815.71552
3969.73613,1813.50941
3969.73613,1817.92163
3971.41203,1814.61247
3973.08794,1820.12774
3973.08794,1814.61247
3974.76384,1823.43691
3974.76384,1816.81858
3976.43975,1823.43691
3976.43975,1819.02469
