Raman Shift,Intensity
57.065,603.0
58.464,587.0
59.863,607.0
61.262,609.0
62.661,641.0
64.059,641.0
65.458,739.0
66.856,870.0
68.253,917.0
69.651,940.0
71.048,962.0
72.445,982.0
73.842,994.0
75.239,835.0
76.635,734.0
78.031,752.0
79.427,717.0
80.823,711.0
82.218,740.0
83.614,764.0
85.009,722.0
86.404,724.0
87.798,723.0
89.193,725.0
90.587,764.0
91.981,772.0
93.375,758.0
94.768,766.0
96.161,751.0
97.554,730.0
98.947,735.0
100.34,735.0
101.732,724.0
103.124,719.0
104.516,753.0
105.908,762.0
107.3,755.184
108.691,760.0
110.082,747.0
111.473,743.0
112.864,757.0
114.254,758.0
115.644,786.0
117.034,796.0
118.424,793.0
119.813,752.0
121.203,718.0
122.592,722.0
123.981,711.0
125.369,698.0
126.758,682.0
128.146,684.0
129.534,677.6
130.922,673.367
132.309,677.0
133.696,673.0
135.083,669.0
136.47,677.0
137.857,674.0
139.243,677.0
140.63,678.0
142.016,675.0
143.401,659.0
144.787,658.094
146.172,630.0
147.557,643.0
148.942,634.0
150.327,623.0
151.711,628.0
153.096,620.0
154.48,622.0
155.863,625.0
157.247,597.0
158.63,606.0
160.013,623.0
161.396,663.0
162.779,675.0
164.161,647.0
165.544,660.0
166.926,640.0
168.308,658.0
169.689,654.0
171.07,653.0
172.452,662.0
173.833,637.0
175.213,652.0
176.594,647.0
177.974,655.0
179.354,666.0
180.734,649.0
182.114,676.0
183.493,655.0
184.872,676.0
186.251,666.0
187.63,676.0
189.008,693.0
190.387,705.0
191.765,714.0
193.143,744.0
194.52,757.0
195.898,762.0
197.275,814.0
198.652,851.0
200.029,886.0
201.405,964.0
202.782,1155.0
204.158,1568.0
205.534,2282.0
206.909,3306.0
208.285,4039.0
209.66,4146.0
211.035,3783.0
212.41,3323.0
213.784,2811.0
215.159,2386.0
216.533,1729.0
217.907,1197.0
219.281,947.0
220.654,786.0
222.027,710.0
223.4,663.0
224.773,646.0
226.146,612.0
227.518,583.0
228.891,604.0
230.263,596.0
231.634,585.0
233.006,576.0
234.377,588.0
235.748,570.0
237.119,590.0
238.49,569.0
239.86,562.0
241.231,564.0
242.601,577.0
243.97,550.0
245.34,565.0
246.709,566.0
248.079,567.0
249.448,578.0
250.816,575.796
252.185,576.445
253.553,580.0
254.921,576.0
256.289,582.0
257.657,591.0
259.024,579.0
260.391,582.0
261.758,605.0
263.125,593.0
264.492,578.0
265.858,570.0
267.224,588.0
268.59,591.0
269.956,579.0
271.321,573.0
272.687,582.0
274.052,577.0
275.416,589.0
276.781,591.0
278.146,593.0
279.51,587.0
280.874,585.0
282.237,571.0
283.601,598.0
284.964,595.0
286.327,603.0
287.69,583.0
289.053,605.0
290.416,605.0
291.778,612.0
293.14,610.0
294.502,630.0
295.863,628.0
297.225,651.0
298.586,653.0
299.947,667.0
301.308,671.0
302.668,689.0
304.029,700.0
305.389,711.0
306.749,717.0
308.108,774.0
309.468,799.0
310.827,852.0
312.186,912.0
313.545,1004.0
314.903,1091.0
316.262,1302.0
317.62,1603.0
318.978,2058.0
320.336,2950.0
321.693,4720.0
323.051,7759.0
324.408,12106.0
325.765,15568.0
327.121,16484.0
328.478,16242.0
329.834,14498.0
331.19,12560.0
332.546,9654.0
333.902,6296.0
335.257,4120.0
336.612,2940.0
337.967,2180.0
339.322,1714.0
340.677,1443.0
342.031,1211.0
343.385,1100.0
344.739,1007.0
346.093,950.0
347.446,933.0
348.799,871.0
350.153,847.0
351.505,812.0
352.858,792.0
354.21,781.0
355.563,762.0
356.915,735.0
358.267,724.0
359.618,719.0
360.969,711.0
362.321,687.0
363.672,695.0
365.022,686.0
366.373,693.0
367.723,692.0
369.073,676.0
370.423,678.0
371.773,669.0
373.122,683.0
374.471,636.0
375.821,679.0
377.169,655.0
378.518,650.0
379.866,657.0
381.215,640.0
382.563,652.0
383.91,631.0
385.258,649.0
386.605,640.0
387.952,619.0
389.299,631.0
390.646,621.0
391.992,629.0
393.339,614.0
394.685,634.0
396.031,615.0
397.376,607.0
398.722,617.0
400.067,628.0
401.412,620.0
402.757,615.0
404.101,615.0
405.446,620.0
406.79,615.0
408.134,634.0
409.478,592.0
410.821,601.0
412.165,615.0
413.508,589.0
414.851,620.0
416.193,592.0
417.536,599.0
418.878,587.0
420.22,598.0
421.562,606.0
422.904,610.0
424.245,605.0
425.586,607.0
426.927,604.0
428.268,611.0
429.609,606.983
430.949,602.0
432.289,601.0
433.629,596.0
434.969,589.0
436.309,604.0
437.648,590.0
438.987,589.0
440.326,617.0
441.665,609.0
443.003,570.0
444.342,603.0
445.68,593.0
447.018,602.0
448.355,623.0
449.693,617.0
451.03,601.0
452.367,583.0
453.704,599.0
455.041,594.0
456.377,607.0
457.713,583.0
459.049,583.0
460.385,593.0
461.721,585.0
463.056,589.0
464.391,599.0
465.726,605.0
467.061,600.0
468.395,609.0
469.73,610.331
471.064,610.0
472.398,615.0
473.731,622.0
475.065,619.0
476.398,602.0
477.731,614.0
479.064,603.0
480.397,623.0
481.729,635.0
483.062,635.0
484.394,631.0
485.725,615.0
487.057,631.0
488.389,642.0
489.72,619.0
491.051,637.0
492.382,631.0
493.712,631.0
495.043,640.0
496.373,635.397
497.703,631.0
499.032,628.0
500.362,630.0
501.691,610.0
503.02,633.0
504.349,646.0
505.678,611.0
507.007,628.0
508.335,641.0
509.663,645.0
510.991,627.0
512.319,638.0
513.646,636.0
514.973,626.0
516.3,625.0
517.627,635.0
518.954,639.0
520.28,663.0
521.607,622.0
522.933,631.0
524.259,686.0
525.584,651.0
526.91,628.0
528.235,609.0
529.56,622.0
530.885,631.0
532.209,647.0
533.534,610.0
534.858,628.0
536.182,642.0
537.506,626.0
538.829,640.0
540.152,621.0
541.476,641.0
542.799,633.0
544.121,621.0
545.444,619.0
546.766,618.583
548.088,622.0
549.41,623.0
550.732,626.0
552.053,623.0
553.375,637.0
554.696,615.0
556.017,614.0
557.337,635.0
558.658,629.406
559.978,637.857
561.298,640.0
562.618,642.0
563.938,631.0
565.257,622.0
566.576,622.0
567.895,627.0
569.214,630.0
570.533,633.626
571.851,638.0
573.17,642.0
574.488,642.0
575.805,645.0
577.123,641.0
578.44,645.0
579.758,628.0
581.075,615.0
582.391,658.0
583.708,620.0
585.024,651.0
586.341,623.0
587.657,634.0
588.972,654.0
590.288,650.0
591.603,642.0
592.918,620.0
594.233,630.0
595.548,640.0
596.863,645.0
598.177,645.498
599.491,649.623
600.805,636.0
602.119,647.0
603.432,634.0
604.746,623.0
606.059,637.0
607.372,641.0
608.685,625.0
609.997,646.0
611.309,634.0
612.621,645.0
613.933,633.0
615.245,641.0
616.557,647.0
617.868,652.0
619.179,614.0
620.49,638.0
621.801,631.0
623.111,626.0
624.421,671.0
625.731,620.0
627.041,649.0
628.351,647.0
629.66,665.0
630.97,667.0
632.279,647.0
633.588,675.0
634.896,663.0
636.205,654.0
637.513,654.0
638.821,652.694
640.129,640.0
641.437,663.0
642.744,654.0
644.051,663.0
645.358,683.0
646.665,663.0
647.972,677.0
649.278,673.0
650.584,670.0
651.89,674.0
653.196,671.0
654.502,687.0
655.807,684.0
657.113,665.0
658.418,678.0
659.722,672.109
661.027,700.0
662.331,677.0
663.636,701.0
664.94,706.0
666.244,697.0
667.547,702.0
668.851,690.0
670.154,714.0
671.457,724.0
672.76,703.0
674.062,737.0
675.365,746.0
676.667,717.0
677.969,739.0
679.271,737.0
680.572,729.0
681.874,738.0
683.175,734.0
684.476,761.0
685.777,762.0
687.077,765.0
688.378,773.828
689.678,773.998
690.978,775.0
692.278,777.0
693.577,772.0
694.877,768.0
696.176,772.323
697.475,783.0
698.774,780.0
700.072,794.0
701.371,800.0
702.669,799.0
703.967,815.769
705.265,813.0
706.562,842.0
707.86,865.0
709.157,880.0
710.454,874.0
711.751,925.0
713.047,905.0
714.344,973.0
715.64,993.0
716.936,1050.0
718.232,1066.0
719.527,1139.0
720.823,1209.0
722.118,1302.0
723.413,1373.0
724.708,1547.0
726.002,1627.0
727.297,1773.0
728.591,1974.0
729.885,2124.0
731.179,2377.0
732.472,2621.0
733.766,2768.0
735.059,3053.0
736.352,3157.0
737.645,3234.0
738.937,3184.0
740.23,3091.0
741.522,2860.0
742.814,2544.0
744.106,2315.0
745.397,2052.0
746.689,1873.0
747.98,1623.0
749.271,1518.0
750.562,1371.0
751.853,1209.0
753.143,1173.0
754.433,1076.0
755.723,1017.0
757.013,979.0
758.303,925.0
759.592,891.18
760.881,878.0
762.17,835.0
763.459,808.0
764.748,798.0
766.036,777.0
767.325,771.0
768.613,775.0
769.901,766.0
771.188,746.0
772.476,725.0
773.763,734.0
775.05,733.0
776.337,722.0
777.624,739.0
778.91,730.0
780.196,727.0
781.482,708.0
782.768,711.0
784.054,704.0
785.339,692.0
786.625,695.0
787.91,724.0
789.195,676.0
790.479,719.0
791.764,705.0
793.048,685.0
794.332,686.0
795.616,697.0
796.9,727.0
798.183,708.0
799.467,715.0
800.75,681.0
802.033,695.0
803.316,694.0
804.598,695.0
805.88,697.0
807.163,684.0
808.445,690.0
809.726,699.0
811.008,723.0
812.289,706.0
813.57,694.0
814.851,725.0
816.132,717.0
817.413,693.0
818.693,723.0
819.973,700.0
821.253,710.0
822.533,707.0
823.813,710.0
825.092,704.0
826.371,704.0
827.65,707.904
828.929,706.0
830.208,714.0
831.486,710.0
832.764,706.648
834.042,714.0
835.32,710.0
836.598,715.0
837.875,718.0
839.152,718.0
840.429,708.0
841.706,729.0
842.983,733.0
844.259,716.0
845.536,706.0
846.812,738.0
848.088,719.0
849.363,735.0
850.639,721.0
851.914,740.0
853.189,734.0
854.464,732.0
855.739,732.0
857.013,756.0
858.288,747.0
859.562,753.0
860.836,721.0
862.11,731.0
863.383,738.0
864.656,740.0
865.93,755.0
867.203,768.0
868.475,738.0
869.748,749.0
871.02,763.0
872.292,744.0
873.564,778.0
874.836,774.0
876.108,761.0
877.379,759.0
878.65,752.0
879.922,770.0
881.192,761.0
882.463,778.0
883.733,761.0
885.004,750.0
886.274,782.0
887.544,766.399
888.813,762.86
890.083,771.0
891.352,752.0
892.621,755.0
893.89,776.0
895.159,761.0
896.427,769.0
897.695,761.0
898.964,771.0
900.232,768.0
901.499,764.0
902.767,768.0
904.034,796.0
905.301,786.0
906.568,799.0
907.835,787.0
909.102,800.0
910.368,792.0
911.634,785.0
912.9,808.0
914.166,793.0
915.432,807.0
916.697,807.0
917.962,793.0
919.227,832.0
920.492,802.0
921.757,820.0
923.021,853.364
924.285,839.259
925.55,840.449
926.813,846.0
928.077,817.0
929.341,817.0
930.604,822.0
931.867,844.0
933.13,832.0
934.393,844.0
935.655,832.0
936.918,837.0
938.18,837.464
939.442,849.0
940.703,838.0
941.965,835.0
943.226,834.71
944.488,842.0
945.749,851.0
947.009,849.0
948.27,867.0
949.53,863.0
950.791,850.0
952.051,860.0
953.311,870.0
954.57,851.0
955.83,867.0
957.089,872.0
958.348,875.0
959.607,890.0
960.866,858.0
962.124,884.0
963.383,869.0
964.641,866.0
965.899,880.0
967.156,864.0
968.414,888.0
969.671,917.0
970.928,865.0
972.185,905.0
973.442,892.0
974.699,897.0
975.955,912.0
977.211,914.0
978.468,921.0
979.723,930.0
980.979,942.0
982.234,924.0
983.49,926.0
984.745,929.119
986.0,939.0
987.254,939.0
988.509,949.0
989.763,962.0
991.017,970.0
992.271,948.0
993.525,956.0
994.779,958.0
996.032,950.0
997.285,979.0
998.538,966.0
999.791,970.0
1001.044,987.0
1002.296,996.0
1003.548,977.0
1004.8,986.0
1006.052,967.0
1007.304,988.0
1008.555,992.0
1009.807,995.0
1011.058,1004.0
1012.309,995.0
1013.559,1024.0
1014.81,1019.0
1016.06,1034.0
1017.31,1024.0
1018.56,1052.0
1019.81,1065.0
1021.06,1025.0
1022.309,1088.0
1023.558,1089.0
1024.807,1094.0
1026.056,1128.0
1027.305,1128.0
1028.553,1141.0
1029.801,1153.0
1031.049,1162.0
1032.297,1176.0
1033.545,1225.0
1034.793,1206.0
1036.04,1227.0
1037.287,1265.0
1038.534,1259.0
1039.781,1262.0
1041.027,1321.0
1042.274,1331.0
1043.52,1348.0
1044.766,1410.0
1046.012,1382.0
1047.257,1433.0
1048.503,1456.0
1049.748,1481.0
1050.993,1544.0
1052.238,1556.0
1053.483,1603.0
1054.727,1629.0
1055.971,1680.0
1057.216,1694.0
1058.459,1781.0
1059.703,1874.0
1060.947,1912.0
1062.19,2007.0
1063.433,2065.0
1064.676,2185.0
1065.919,2315.0
1067.162,2426.0
1068.404,2560.0
1069.646,2824.0
1070.888,2979.0
1072.13,3286.0
1073.372,3685.0
1074.613,3983.0
1075.855,4421.0
1077.096,4915.0
1078.337,5450.0
1079.578,6161.0
1080.818,7180.0
1082.059,8406.0
1083.299,9840.0
1084.539,11812.0
1085.779,14406.0
1087.018,17589.0
1088.258,21712.0
1089.497,26421.0
1090.736,32104.0
1091.975,37936.0
1093.213,42683.0
1094.452,45082.0
1095.69,44698.0
1096.928,42124.0
1098.166,36858.0
1099.404,31996.0
1100.642,27131.0
1101.879,23296.0
1103.116,19735.0
1104.353,17200.0
1105.59,14848.0
1106.827,12853.0
1108.063,10987.0
1109.299,9600.0
1110.536,8143.0
1111.771,7021.0
1113.007,6009.0
1114.243,5138.0
1115.478,4544.0
1116.713,3904.0
1117.948,3485.0
1119.183,3053.0
1120.418,2866.0
1121.652,2724.0
1122.886,2608.0
1124.12,2366.0
1125.354,2110.0
1126.588,1986.0
1127.821,1786.0
1129.055,1729.0
1130.288,1658.0
1131.521,1581.0
1132.753,1536.0
1133.986,1455.0
1135.218,1398.0
1136.45,1404.0
1137.682,1371.0
1138.914,1333.0
1140.146,1308.0
1141.377,1274.0
1142.609,1250.0
1143.84,1224.0
1145.071,1220.0
1146.301,1193.0
1147.532,1209.0
1148.762,1179.0
1149.992,1156.0
1151.222,1177.0
1152.452,1121.0
1153.682,1127.0
1154.911,1116.0
1156.14,1089.0
1157.369,1104.0
1158.598,1079.0
1159.827,1079.0
1161.055,1097.0
1162.284,1078.0
1163.512,1075.0
1164.74,1057.0
1165.967,1063.0
1167.195,1082.0
1168.422,1061.222
1169.65,1054.0
1170.877,1030.0
1172.103,1064.0
1173.33,1034.0
1174.557,1040.0
1175.783,1038.0
1177.009,1021.0
1178.235,1030.0
1179.461,1014.0
1180.686,1024.0
1181.912,1022.232
1183.137,1033.0
1184.362,1024.0
1185.587,1037.0
1186.811,1037.0
1188.036,1038.0
1189.26,998.0
1190.484,1044.0
1191.708,995.0
1192.932,1016.0
1194.155,1012.0
1195.378,1020.0
1196.602,1028.0
1197.825,1001.0
1199.047,1037.0
1200.27,1010.0
1201.492,1008.0
1202.715,1001.0
1203.937,998.0
1205.159,1000.0
1206.38,1003.0
1207.602,1005.0
1208.823,985.0
1210.044,980.0
1211.265,997.0
1212.486,1003.0
1213.707,979.0
1214.927,977.0
1216.147,968.0
1217.367,954.0
1218.587,972.0
1219.807,948.0
1221.027,990.0
1222.246,978.0
1223.465,987.0
1224.684,982.0
1225.903,961.0
1227.121,990.0
1228.34,995.0
1229.558,983.0
1230.776,987.0
1231.994,966.0
1233.212,969.0
1234.429,994.0
1235.646,960.0
1236.864,995.0
1238.081,982.0
1239.297,991.0
1240.514,988.0
1241.73,998.0
1242.947,993.0
1244.163,1012.0
1245.378,983.0
1246.594,975.0
1247.81,976.0
1249.025,985.0
1250.24,991.0
1251.455,991.0
1252.67,993.517
1253.885,962.0
1255.099,991.0
1256.313,975.0
1257.527,972.0
1258.741,982.0
1259.955,975.0
1261.168,987.0
1262.382,968.0
1263.595,986.0
1264.808,983.0
1266.021,984.0
1267.233,982.0
1268.446,991.0
1269.658,973.0
1270.87,994.0
1272.082,969.0
1273.294,960.0
1274.505,965.0
1275.716,960.0
1276.928,948.0
1278.139,971.0
1279.349,977.0
1280.56,1001.0
1281.77,966.0
1282.981,1006.0
1284.191,994.0
1285.401,973.0
1286.61,992.0
1287.82,979.551
1289.029,1015.0
1290.239,985.0
1291.448,991.0
1292.656,1004.0
1293.865,973.0
1295.073,993.0
1296.282,998.0
1297.49,1019.0
1298.698,1022.078
1299.906,1024.394
1301.113,1018.0
1302.32,1020.0
1303.528,993.0
1304.735,985.0
1305.942,991.0
1307.148,999.0
1308.355,991.0
1309.561,996.0
1310.767,1008.0
1311.973,1008.0
1313.179,990.0
1314.384,1001.0
1315.59,993.0
1316.795,999.0
1318.0,1010.0
1319.205,1012.0
1320.41,1013.0
1321.614,1006.0
1322.819,1028.0
1324.023,1006.0
1325.227,1026.0
1326.431,1018.0
1327.634,1024.0
1328.838,1016.0
1330.041,981.0
1331.244,1045.0
1332.447,1010.0
1333.65,1054.0
1334.852,1003.0
1336.055,1020.0
1337.257,1024.0
1338.459,1029.0
1339.661,1030.0
1340.862,1024.0
1342.064,1029.708
1343.265,1044.0
1344.466,1032.0
1345.667,1036.0
1346.868,1032.0
1348.068,1013.0
1349.269,1043.0
1350.469,1043.0
1351.669,1012.0
1352.869,1060.0
1354.069,1043.0
1355.268,1020.0
1356.468,1030.0
1357.667,1019.0
1358.866,1028.0
1360.065,1039.0
1361.263,1050.0
1362.462,1080.0
1363.66,1032.0
1364.858,1034.0
1366.056,1024.0
1367.254,1049.0
1368.451,1046.0
1369.649,1037.0
1370.846,1076.0
1372.043,1037.0
1373.24,1086.0
1374.436,1030.0
1375.633,1057.0
1376.829,1035.0
1378.025,1073.0
1379.221,1030.0
1380.417,1050.0
1381.613,1053.0
1382.808,1060.0
1384.003,1058.0
1385.199,1079.0
1386.393,1044.0
1387.588,1058.0
1388.783,1066.0
1389.977,1079.0
1391.171,1046.0
1392.365,1072.0
1393.559,1041.0
1394.753,1032.0
1395.946,1059.0
1397.14,1071.0
1398.333,1071.0
1399.526,1085.0
1400.719,1088.172
1401.911,1047.0
1403.104,1095.0
1404.296,1068.0
1405.488,1063.0
1406.68,1074.0
1407.872,1088.0
1409.063,1086.0
1410.255,1080.0
1411.446,1101.0
1412.637,1096.0
1413.828,1094.0
1415.018,1071.0
1416.209,1064.0
1417.399,1115.0
1418.589,1078.0
1419.779,1102.0
1420.969,1084.0
1422.159,1073.0
1423.348,1102.0
1424.537,1099.0
1425.726,1122.0
1426.915,1105.0
1428.104,1092.0
1429.293,1120.0
1430.481,1110.0
1431.669,1121.0
1432.857,1120.0
1434.045,1131.0
1435.233,1153.0
1436.42,1153.0
1437.608,1185.0
1438.795,1216.0
1439.982,1221.0
1441.169,1260.0
1442.355,1330.0
1443.542,1386.0
1444.728,1565.0
1445.914,2172.0
1447.1,1982.0
1448.286,2012.0
1449.472,1942.0
1450.657,1767.0
1451.842,1573.0
1453.027,1424.0
1454.212,1361.0
1455.397,1296.0
1456.581,1296.0
1457.766,1280.0
1458.95,1272.0
1460.134,1244.0
1461.318,1249.819
1462.501,1247.0
1463.685,1251.0
1464.868,1254.0
1466.051,1245.0
1467.234,1201.0
1468.417,1227.0
1469.6,1218.0
1470.782,1208.0
1471.965,1224.0
1473.147,1212.0
1474.329,1191.0
1475.51,1210.0
1476.692,1218.0
1477.873,1205.0
1479.055,1218.0
1480.236,1233.0
1481.416,1216.0
1482.597,1217.0
1483.778,1179.0
1484.958,1173.0
1486.138,1223.0
1487.318,1183.0
1488.498,1192.0
1489.678,1192.0
1490.857,1191.0
1492.037,1205.351
1493.216,1175.0
1494.395,1219.0
1495.574,1217.0
1496.752,1197.0
1497.931,1208.0
1499.109,1176.0
1500.287,1184.0
1501.465,1181.0
1502.643,1171.0
1503.82,1169.0
1504.998,1164.0
1506.175,1158.379
1507.352,1155.0
1508.529,1152.0
1509.706,1165.0
1510.882,1169.0
1512.059,1181.0
1513.235,1188.0
1514.411,1183.0
1515.587,1188.0
1516.762,1186.894
1517.938,1174.0
1519.113,1181.0
1520.288,1176.0
1521.463,1164.0
1522.638,1191.0
1523.813,1193.0
1524.987,1193.0
