Wavenumber (cm⁻¹),Intensity
200.0,146.29724341422937
201.00097751710655,147.67608702489494
202.0019550342131,148.3311076488585
203.00293255131965,148.47374607049682
204.0039100684262,149.48989259591113
205.00488758553274,151.0944709801484
206.0058651026393,153.97490303437854
207.00684261974584,160.4072729946148
208.0078201368524,159.38689465781434
209.00879765395894,158.69706685852037
210.00977517106548,160.37059239177003
211.01075268817203,160.73918921118707
212.01173020527858,161.3848544190525
213.01270772238513,163.95905549476734
214.01368523949168,166.43540604349647
215.01466275659823,167.7575414143036
216.01564027370478,171.0856819184883
217.01661779081132,173.70301006723008
218.01759530791787,176.44581937910934
219.01857282502445,180.17355884119723
220.019550342131,184.6829006671524
221.02052785923755,187.91991388135122
222.0215053763441,189.9728041804114
223.02248289345064,193.2531238105896
224.0234604105572,198.6897160775712
225.02443792766374,202.83449580095473
226.0254154447703,206.63889581147808
227.02639296187684,211.9198382591802
228.02737047898339,217.93567069308014
229.02834799608993,222.27466635781911
230.02932551319648,226.80385460105194
231.03030303030303,229.02625623628947
232.03128054740958,229.57178104265654
233.03225806451613,228.92343500812976
234.03323558162268,224.93512026556593
235.03421309872923,221.03525733885007
236.03519061583577,213.96653787802748
237.03616813294232,204.893009161369
238.03714565004887,197.95801861690563
239.03812316715542,191.29339066005832
240.03910068426197,186.11783917567047
241.04007820136852,183.1766953209758
242.04105571847506,181.92034466456323
243.0420332355816,179.52144828204717
244.0430107526882,178.70412545315855
245.04398826979474,179.6473803429644
246.0449657869013,180.49695630281622
247.04594330400784,179.58481723068044
248.04692082111438,180.36897480426848
249.04789833822093,181.90591048870587
250.04887585532748,183.0137183731447
251.04985337243403,183.94462935471097
252.05083088954058,186.85433711823663
253.05180840664713,188.11353476499747
254.05278592375367,188.49561473958323
255.05376344086022,187.8274712088466
256.05474095796677,185.75873105359557
257.0557184750733,183.92474243685163
258.05669599217987,180.0698088660862
259.0576735092864,176.47415277268337
260.05865102639297,174.4473860234312
261.0596285434995,173.00654495674368
262.06060606060606,173.035316782008
263.0615835777126,172.45345451565464
264.06256109481916,171.17554014754603
265.0635386119257,170.05329613271442
266.06451612903226,170.2374921907515
267.0654936461388,169.29046845766618
268.06647116324535,169.28714166994638
269.0674486803519,170.02195555265607
270.06842619745845,169.31335972984357
271.069403714565,169.13455046889797
272.07038123167155,169.96513456760835
273.0713587487781,170.3097123925081
274.07233626588464,170.14257680962828
275.0733137829912,171.7551495130967
276.07429130009774,170.71845896954574
277.0752688172043,171.23758208309079
278.07624633431084,172.71196458523045
279.0772238514174,172.714875651085
280.07820136852393,173.17035086600796
281.0791788856305,173.77285442720358
282.08015640273703,174.75832768948493
283.0811339198436,175.64434692643763
284.08211143695013,175.67510216884705
285.0830889540567,176.65070878467716
286.0840664711632,177.2549201421445
287.0850439882698,178.3491346857376
288.0860215053764,180.37130700787105
289.0869990224829,181.7763620153601
290.0879765395895,183.48204124550404
291.088954056696,185.89376790875403
292.0899315738026,188.1705938159523
293.0909090909091,189.77714686692696
294.09188660801567,192.51191458989902
295.0928641251222,195.39059069793436
296.09384164222877,199.95864195677413
297.0948191593353,205.72297274363245
298.09579667644186,210.2980243131074
299.0967741935484,214.09800958909625
300.09775171065496,219.81957738339233
301.0987292277615,226.42483285430734
302.09970674486806,232.68823959163296
303.1006842619746,238.9128219686125
304.10166177908116,241.50502511645146
305.1026392961877,245.32316112389523
306.10361681329425,252.16207940630397
307.1045943304008,261.24125851343194
308.10557184750735,270.9596932693659
309.1065493646139,283.921757760596
310.10752688172045,296.83292615060026
311.108504398827,309.12405559420216
312.10948191593354,322.3897390279741
313.1104594330401,335.51812993489534
314.11143695014664,346.6961303154395
315.1124144672532,362.5402857672015
316.11339198435974,385.0894120824851
317.1143695014663,410.99735071598826
318.11534701857283,440.81860819033994
319.1163245356794,474.600849100578
320.11730205278593,511.97106500138125
321.1182795698925,550.3016431401146
322.119257086999,582.6109393910394
323.1202346041056,600.320542772313
324.1212121212121,593.4463202435055
325.1221896383187,560.6876945096634
326.1231671554252,508.86013617243054
327.12414467253177,448.2316482761047
328.1251221896383,390.1054169500983
329.12609970674487,343.0578552688005
330.1270772238514,308.8051252662318
331.12805474095796,285.4359324523108
332.1290322580645,267.30616619360165
333.13000977517106,253.7375525726785
334.1309872922776,245.12251111924184
335.13196480938416,240.24400386785345
336.1329423264907,236.12688840840298
337.13391984359725,232.41685964685288
338.1348973607038,230.54157781753946
339.13587487781035,229.7147091156664
340.1368523949169,229.84531028446943
341.13782991202345,232.32269930144332
342.13880742913,233.53581255589393
343.13978494623655,235.66682892698378
344.1407624633431,238.65592785358155
345.14173998044964,241.76868525911902
346.1427174975562,245.5198505760983
347.14369501466274,251.86990745446985
348.1446725317693,258.3925448897712
349.14565004887584,266.0000687254136
350.1466275659824,276.09635869937506
351.14760508308893,286.3441219207754
352.1485826001955,297.0935628323906
353.14956011730203,308.965616690243
354.1505376344086,320.0168895869995
355.1515151515151,327.4145097697573
356.1524926686217,329.70609089832425
357.1534701857282,328.30334743308003
358.1544477028348,322.02327933075463
359.1554252199413,312.75684312328616
360.15640273704787,304.0834962219302
361.1573802541544,297.6273405694136
362.15835777126097,295.06955511055315
363.1593352883675,295.9778846709866
364.16031280547406,299.5835515730399
365.1612903225806,305.15473179637456
366.16226783968716,311.55924611163704
367.1632453567937,319.6895393811447
368.16422287390026,324.94553359215934
369.1652003910068,326.07429312228203
370.16617790811335,325.8199100637232
371.1671554252199,320.0237230260938
372.16813294232645,315.8798039905651
373.169110459433,314.20359903316626
374.17008797653955,314.0204911999737
375.1710654936461,314.7635055284766
376.1720430107527,317.5047287713571
377.17302052785925,323.00654364750744
378.1739980449658,330.8682034022704
379.17497556207235,341.02738657748597
380.1759530791789,354.12432102282236
381.17693059628544,369.73253619757395
382.177908113392,390.16191536463896
383.17888563049854,415.16700993363
384.1798631476051,444.17776133154416
385.18084066471164,478.0892923306379
386.1818181818182,515.8929259697163
387.18279569892474,552.0317094922976
388.1837732160313,580.8477035159599
389.18475073313783,597.3744263424743
390.1857282502444,595.7941243575729
391.18670576735093,562.5765345433591
392.1876832844575,508.00218811048285
393.188660801564,445.89963730621633
394.1896383186706,387.0840408676575
395.1906158357771,337.45525203675857
396.1915933528837,301.4688917077083
397.1925708699902,274.2671325820587
398.19354838709677,254.78295949776208
399.1945259042033,241.71975387457232
400.19550342130987,230.687563810496
401.1964809384164,221.82277206649073
402.19745845552296,214.62071821609823
403.1984359726295,209.5541799002531
404.19941348973606,206.2190401250395
405.2003910068426,202.76583584191548
406.20136852394916,201.3585070394614
407.2023460410557,198.92555579201695
408.20332355816225,197.22421211490754
409.20430107526886,196.93102771900692
410.2052785923754,193.8845575769132
411.20625610948196,192.93838483966468
412.2072336265885,192.2192352585412
413.20821114369505,191.54216452190772
414.2091886608016,191.0547608150477
415.21016617790815,190.21985976530667
416.2111436950147,190.48584178444622
417.21212121212125,189.15260751007264
418.2130987292278,188.18244028629633
419.21407624633434,188.06880156007347
420.2150537634409,186.3569521829897
421.21603128054744,187.87029617744386
422.217008797654,187.01987905859139
423.21798631476054,186.8450642543427
424.2189638318671,187.946478406057
425.21994134897363,186.48190835850104
426.2209188660802,186.85984518586514
427.22189638318673,186.77632054379634
428.2228739002933,186.51923608144978
429.2238514173998,186.50311035312478
430.2248289345064,186.29745031206133
431.2258064516129,185.69661891732784
432.2267839687195,185.92200015436296
433.227761485826,186.6040339492644
434.22873900293257,187.2464072258016
435.2297165200391,187.62610103573016
436.23069403714567,187.10639432235112
437.2316715542522,186.56469745292011
438.23264907135876,186.39081419269274
439.2336265884653,186.45382900784548
440.23460410557186,186.56984920353952
441.2355816226784,187.04343286744637
442.23655913978496,186.94651074019802
443.2375366568915,187.70006540836434
444.23851417399806,188.81870246378514
445.2394916911046,189.43453441744262
446.24046920821115,191.06946192379257
447.2414467253177,189.84595377625547
448.24242424242425,189.59097554390863
449.2434017595308,190.25211199572252
450.24437927663735,190.82124668054774
451.2453567937439,192.3080183255874
452.24633431085044,192.04949953727612
453.247311827957,192.2255355489982
454.24828934506354,192.01673699498835
455.2492668621701,191.19311020340507
456.25024437927664,192.0292926040622
457.2512218963832,192.37773004107518
458.25219941348973,193.34027785093443
459.2531769305963,194.91479884502533
460.25415444770283,196.27703463522317
461.2551319648094,196.6613515378406
462.2561094819159,196.4300883765491
463.2570869990225,196.12818096996625
464.258064516129,195.98604446875564
465.2590420332356,195.79921753940636
466.2600195503421,195.17136352524992
467.26099706744867,193.920843940276
468.2619745845552,192.53887320457525
469.26295210166177,191.79280198794254
470.2639296187683,191.56785079822453
471.26490713587486,191.63035225213167
472.2658846529814,192.5948354200211
473.26686217008796,191.30345413911888
474.2678396871945,190.75974361944054
475.26881720430106,191.5435232042609
476.2697947214076,192.55877282691011
477.27077223851416,192.79152083035842
478.2717497556207,192.99828065748923
479.27272727272725,193.79035846580302
480.2737047898338,194.73095068825555
481.27468230694035,195.45947628567018
482.2756598240469,195.82362722339522
483.27663734115345,194.52476066666628
484.27761485826,196.08515346363637
485.27859237536654,197.82520605397568
486.2795698924731,197.71815598869642
487.28054740957964,196.30353712056834
488.2815249266862,197.05358069174636
489.2825024437928,198.67420446890168
490.28347996089934,200.3429951250466
491.2844574780059,201.60766970927486
492.28543499511244,202.30482892148902
493.286412512219,202.6769407407678
494.28739002932554,203.53040823863262
495.2883675464321,203.4720356573341
496.28934506353863,203.9444855250622
497.2903225806452,205.29807762941357
498.29130009775173,205.95446380262874
499.2922776148583,206.76244869065226
500.2932551319648,207.6338506601434
501.2942326490714,209.06581017749204
502.2952101661779,211.0125625864401
503.2961876832845,213.05986431229212
504.297165200391,214.97595083038266
505.29814271749757,218.93709977848218
506.2991202346041,221.81752191037384
507.30009775171067,223.9913306146963
508.3010752688172,226.66993981661773
509.30205278592376,229.0142374755241
510.3030303030303,231.56312355540476
511.30400782013686,232.5528421556432
512.3049853372434,233.96298681148755
513.3059628543499,236.7835427688166
514.3069403714564,239.69458004946586
515.307917888563,241.75726866987722
516.3088954056695,240.43536409570146
517.3098729227761,238.50421382613905
518.3108504398826,236.66981352033298
519.3118279569892,233.9728178950516
520.3128054740957,230.37042808136388
521.3137829912023,228.57040721020758
522.3147605083088,228.4776605503125
523.3157380254154,229.28602968876183
524.3167155425219,230.45982780741141
525.3176930596285,232.00785114595732
526.318670576735,234.1986847699752
527.3196480938416,235.723794956328
528.3206256109481,236.3254516996855
529.3216031280547,236.38520060411003
530.3225806451612,235.75538910746678
531.3235581622678,233.06479593749506
532.3245356793743,228.28755752198532
533.3255131964809,224.11978558487726
534.3264907135874,220.31283895866977
535.327468230694,216.9643503477071
536.3284457478005,215.2516539718401
537.3294232649071,212.62072832139387
538.3304007820136,211.63395730281925
539.3313782991202,211.31961720570015
540.3323558162267,210.52803520456598
541.3333333333333,209.12207339417836
542.3343108504398,208.18591375154926
543.3352883675464,209.04164101832902
544.3362658846529,210.12567226296724
545.3372434017595,210.6168638307318
546.338220918866,210.93915481316157
547.3391984359725,211.7241769476688
548.3401759530791,212.37640548439393
549.3411534701856,212.64370358435102
550.3421309872922,213.92998729736675
551.3431085043987,215.3808210859075
552.3440860215054,216.00136621501363
553.345063538612,216.97154288376268
554.3460410557185,218.87866173577117
555.347018572825,219.797757661668
556.3479960899316,221.1900364306088
557.3489736070381,222.91949734501003
558.3499511241447,223.19804051945272
559.3509286412512,223.05474580179614
560.3519061583578,221.12088197597143
561.3528836754643,219.32586312290863
562.3538611925709,217.65017582612973
563.3548387096774,215.74332134813417
564.355816226784,214.36156839314722
565.3567937438905,212.29288563802106
566.3577712609971,211.10450134905878
567.3587487781036,211.22155721589502
568.3597262952102,211.562004285628
569.3607038123167,211.11654552492425
570.3616813294233,210.76878229848518
571.3626588465298,209.61392986150557
572.3636363636364,210.02647934604292
573.3646138807429,210.65230080151943
574.3655913978495,210.29609499649902
575.366568914956,209.86910187157724
576.3675464320626,210.3191006761718
577.3685239491691,212.35633148438257
578.3695014662757,211.55987972658727
579.3704789833822,210.23204196312034
580.3714565004888,211.2350277944955
581.3724340175953,212.66981900537786
582.3734115347019,211.99339896733156
583.3743890518084,210.81873656116784
584.375366568915,211.04211955533003
585.3763440860215,211.3129909854512
586.377321603128,210.69955896597708
587.3782991202346,211.98518404761424
588.3792766373411,212.05082701083947
589.3802541544477,211.96440506528643
590.3812316715542,212.0005040702304
591.3822091886608,212.60840369578926
592.3831867057673,214.15802217885138
593.3841642228739,214.30846167115286
594.3851417399804,213.8080272756673
595.386119257087,214.18824926680136
596.3870967741935,214.57911564067913
597.3880742913001,214.59828488078486
598.3890518084066,215.0003621630724
599.3900293255132,214.14112343948983
600.3910068426197,213.98629486352374
601.3919843597263,214.7378389882728
602.3929618768328,216.12022928294192
603.3939393939394,217.3428610290836
604.3949169110459,217.26965580079658
605.3958944281525,216.65972051496354
606.396871945259,216.53203113751886
607.3978494623656,217.3888060911826
608.3988269794721,218.1045065277096
609.3998044965787,217.84843331808563
610.4007820136852,217.73000832223718
611.4017595307918,217.57773290856656
612.4027370478983,218.73385096223896
613.4037145650049,219.98159309365204
614.4046920821114,220.2935459900813
615.405669599218,220.0619082140432
616.4066471163245,220.60487733494486
617.4076246334312,221.3052408175742
618.4086021505377,220.46276707817267
619.4095796676443,220.1697813361942
620.4105571847508,221.44185833149345
621.4115347018574,222.8216277843574
622.4125122189639,222.54160592068857
623.4134897360705,223.72371168300234
624.414467253177,224.61022373797192
625.4154447702836,225.03020954477952
626.4164222873901,225.50342253338133
627.4173998044967,226.23521950382852
628.4183773216032,227.16752849938766
629.4193548387098,228.23470734153676
630.4203323558163,229.49574594983304
631.4213098729228,230.54649104702185
632.4222873900294,231.10249470279405
633.423264907136,231.59321702434966
634.4242424242425,233.2838207802984
635.425219941349,234.5824308291986
636.4261974584556,235.747299743526
637.4271749755621,237.339324478095
638.4281524926687,239.47667292806838
639.4291300097752,241.2598375567912
640.4301075268818,241.47403440659482
641.4310850439883,243.13280679213204
642.4320625610949,245.83245248171954
643.4330400782014,250.10479136857083
644.434017595308,254.5218069935967
645.4349951124145,257.0859219494555
646.4359726295211,261.9101832702239
647.4369501466276,268.76050686226785
648.4379276637342,276.562478061289
649.4389051808407,283.91863374475884
650.4398826979473,292.544329610314
651.4408602150538,305.5808254260271
652.4418377321604,320.4427474958352
653.4428152492669,338.241195566501
654.4437927663735,356.26335232593163
655.44477028348,374.2768857022565
656.4457478005866,394.17663163359737
657.4467253176931,417.5229260693398
658.4477028347997,443.70404347222006
659.4486803519062,478.7623114583624
660.4496578690128,507.1059033563458
661.4506353861193,535.2473048322123
662.4516129032259,566.2504968143415
663.4525904203324,593.7879398186672
664.453567937439,617.3979675775774
665.4545454545455,629.9208082593203
666.455522971652,625.1816540724902
667.4565004887586,605.2627517017314
668.4574780058651,572.8172769763368
669.4584555229717,531.0074025496755
670.4594330400782,485.7085241880035
671.4604105571848,441.0976725863582
672.4613880742913,402.26040076970594
673.4623655913979,372.2884058353574
674.4633431085044,348.93898770748916
675.464320625611,329.1592528269828
676.4652981427175,314.51264893759617
677.4662756598241,302.0918903202085
678.4672531769306,293.1580038250296
679.4682306940372,285.3825626451598
680.4692082111437,278.5064087408514
681.4701857282503,273.37882873796855
682.4711632453568,269.4854452898617
683.4721407624634,266.47131953053645
684.4731182795699,263.5230399823351
685.4740957966765,260.34034042831934
686.475073313783,257.8309212048826
687.4760508308896,256.76117815414517
688.4770283479961,256.58575239520064
689.4780058651027,254.92187307728102
690.4789833822092,253.50712035995176
691.4799608993158,252.6198209830473
692.4809384164223,252.98184558173827
693.4819159335289,253.34383552353125
694.4828934506354,252.31390775084702
695.483870967742,251.9422216673023
696.4848484848485,251.15900412903142
697.485826001955,251.95078572226882
698.4868035190616,252.42531111474057
699.4877810361681,252.57222486210645
700.4887585532747,253.8911932951166
701.4897360703812,255.94846293707698
702.4907135874878,255.79421458582857
703.4916911045943,256.2002499898112
704.4926686217009,257.8071128756704
705.4936461388074,259.2049624250616
706.494623655914,260.2190870593037
707.4956011730205,261.63841900647276
708.4965786901271,260.03419125009657
709.4975562072336,258.0631457696583
710.4985337243402,256.8216214817139
711.4995112414467,254.85954016962816
712.5004887585533,252.3475056365692
713.5014662756598,250.800093385427
714.5024437927664,249.1947739414049
715.5034213098729,247.5031630044346
716.5043988269795,248.0648536858843
717.505376344086,248.12527122418305
718.5063538611926,247.633893950627
719.5073313782991,247.77700038303828
720.5083088954057,247.05727501953209
721.5092864125122,246.86512005053646
722.5102639296188,246.96370267907815
723.5112414467253,247.3713204274316
724.5122189638319,248.20611544426336
725.5131964809384,249.08588358939173
726.514173998045,249.3689300069365
727.5151515151515,249.2038902541281
728.516129032258,248.23212216512437
729.5171065493646,249.3804269863863
730.5180840664711,250.55390547729945
731.5190615835777,250.46993744127752
732.5200391006842,250.59294167298776
733.5210166177908,251.82731153904095
734.5219941348973,251.63886064170626
735.5229716520039,250.58777826793542
736.5239491691104,250.4874660053371
737.524926686217,251.22626966007456
738.5259042033235,251.69619210033977
739.5268817204301,251.66716030806083
740.5278592375366,252.52255505047125
741.5288367546432,252.0201602875413
742.5298142717497,251.91223106436223
