Wavenumber (cm⁻¹),Intensity
200.0,-37.967999999999996
201.00097751710655,-33.18532942326491
202.0019550342131,-28.402658846529818
203.00293255131965,-23.61998826979473
204.0039100684262,-18.837317693059646
205.00488758553274,-14.054647116324556
206.0058651026393,-9.271976539589467
207.00684261974584,-4.489305962854378
208.0078201368524,0.29336461388070934
209.00879765395894,5.076035190615797
210.00977517106548,9.840523949169084
211.01075268817203,12.752838709677398
212.01173020527858,14.879912023460387
213.01270772238513,17.073687194525892
214.01368523949168,17.92306353861191
215.01466275659823,19.3582170087976
216.01564027370478,23.52944672531764
217.01661779081132,27.123097751710674
218.01759530791787,25.793639296187717
219.01857282502445,23.957782013685257
220.019550342131,25.44838611925713
221.02052785923755,29.34087683284463
222.0215053763441,34.73521505376347
223.02248289345064,37.33081622678398
224.0234604105572,39.013146627565995
225.02443792766374,40.63137634408603
226.0254154447703,41.89279765395896
227.02639296187684,43.85669208211146
228.02737047898339,47.34308504398828
229.02834799608993,49.709225806451606
230.02932551319648,49.06070381231672
231.03030303030303,47.74290909090909
232.03128054740958,47.20194330400782
233.03225806451613,47.374967741935485
234.03323558162268,47.08188856304985
235.03421309872923,48.169459433040075
236.03519061583577,47.67088269794722
237.03616813294232,45.10949560117304
238.03714565004887,41.09326099706747
239.03812316715542,37.36566568914958
240.03910068426197,33.86122776148586
241.04007820136852,28.9526500488759
242.04105571847506,23.41056011730211
243.0420332355816,17.085538611925745
244.0430107526882,13.550731182795637
245.04398826979474,10.004912023460342
246.0449657869013,5.884247311827884
247.04594330400784,1.587826979472172
248.04692082111438,3.6212815249267054
249.04789833822093,5.033573802541573
250.04887585532748,7.1974545454545575
251.04985337243403,8.119140762463353
252.05083088954058,8.822730205278592
253.05180840664713,8.643372434017577
254.05278592375367,6.731847507331364
255.05376344086022,4.934569892473087
256.05474095796677,1.485787878787923
257.0557184750733,8.01573020527866
258.05669599217987,19.1145571847508
259.0576735092864,32.409706744868096
260.05865102639297,47.142129032258126
261.0596285434995,64.16807331378304
262.06060606060606,81.53281818181821
263.0615835777126,97.92898826979473
264.06256109481916,114.22127370478984
265.0635386119257,133.16669696969694
266.06451612903226,154.06441935483866
267.0654936461388,176.64506744868027
268.06647116324535,201.10584555229707
269.0674486803519,227.98301466275643
270.06842619745845,266.5202228739001
271.069403714565,308.61119648093813
272.07038123167155,361.77553665689106
273.0713587487781,423.83966764418324
274.07233626588464,491.0279491691097
275.0733137829912,570.9625161290315
276.07429130009774,652.6034584555221
277.0752688172043,736.942247311827
278.07624633431084,821.9224193548379
279.0772238514174,893.4405131964802
280.07820136852393,952.0890371456493
281.0791788856305,998.8999824046921
282.08015640273703,998.5969579667643
283.0811339198436,995.393038123168
284.08211143695013,943.5216129032269
285.0830889540567,880.421996089933
286.0840664711632,800.825137829914
287.0850439882698,705.5553079178904
288.0860215053764,611.4732043010719
289.0869990224829,516.9425219941318
290.0879765395895,425.1725043988244
291.088954056696,348.41151221896143
292.0899315738026,276.5481221896363
293.0909090909091,214.0711818181802
294.09188660801567,162.22969599217836
295.0928641251222,113.95066862169995
296.09384164222877,81.77490322580553
297.0948191593353,50.46621407624578
298.09579667644186,30.45463831867012
299.0967741935484,13.71025806451581
300.09775171065496,2.6164398826979856
301.0987292277615,4.60270674486818
302.09970674486806,10.077844574780062
303.1006842619746,10.332675464320644
304.10166177908116,10.915260019550306
305.1026392961877,9.202947214076213
306.10361681329425,7.319385141739918
307.1045943304008,4.0480371456499835
308.10557184750735,1.3920762463343936
309.1065493646139,6.21686999022493
310.10752688172045,12.11647311827965
311.108504398827,17.32124046920831
312.10948191593354,23.766612903225894
313.1104594330401,29.97645161290331
314.11143695014664,36.50582404692091
315.1124144672532,43.384023460410624
316.11339198435974,49.438999022482946
317.1143695014663,54.363651026392986
318.11534701857283,56.91431964809386
319.1163245356794,58.41019648093841
320.11730205278593,58.04088269794721
321.1182795698925,56.92456989247311
322.119257086999,55.0345092864125
323.1202346041056,52.45802932551319
324.1212121212121,49.828121212121204
325.1221896383187,47.17240664711632
326.1231671554252,45.59302052785924
327.12414467253177,43.89226197458456
328.1251221896383,41.77031476050831
329.12609970674487,39.22542815249267
330.1270772238514,36.6604780058651
331.12805474095796,34.10911241446726
332.1290322580645,31.56754838709678
333.13000977517106,29.59999120234605
334.1309872922776,27.703142717497567
335.13196480938416,26.01899706744869
336.1329423264907,24.462860215053777
337.13391984359725,22.449240469208235
338.1348973607038,19.460741935483895
339.13587487781035,16.575783968719477
340.1368523949169,13.770298142717527
341.13782991202345,11.118246334310875
342.13880742913,9.080469208211165
343.13978494623655,7.403430107526905
344.1407624633431,5.649076246334339
345.14173998044964,3.7115210166178194
346.1427174975562,1.9687038123167309
347.14369501466274,1.0294046920821263
348.1446725317693,0.264438905180842
349.14565004887584,0.2357908113391941
350.1466275659824,0.4037947214076287
351.14760508308893,0.2849755620723283
352.1485826001955,0.7551534701857079
353.14956011730203,1.7195425219941116
354.1505376344086,2.7721505376343827
355.1515151515151,3.950696969696933
356.1524926686217,5.4883079178885215
357.1534701857282,7.176593352883626
358.1544477028348,9.122159335288309
359.1554252199413,11.30325219941343
360.15640273704787,13.410904203323506
361.1573802541544,15.245727272727217
362.15835777126097,17.236607038123086
363.1593352883675,19.975725317692962
364.16031280547406,22.8184858260019
365.1612903225806,24.330806451612883
366.16226783968716,24.915201368523938
367.1632453567937,25.093281524926713
368.16422287390026,24.222501466275702
369.1652003910068,22.799855327468332
370.16617790811335,20.000498533724457
371.1671554252199,16.835219941349113
372.16813294232645,13.141741935484024
373.169110459433,9.349235581622803
374.17008797653955,6.470557184750804
375.1710654936461,4.738530791788928
376.1720430107527,3.1090645161290142
377.17302052785925,1.8191876832844405
378.1739980449658,0.6579071358748707
379.17497556207235,0.32690420332356784
380.1759530791789,1.145832844574787
381.17693059628544,1.7788113391984406
382.177908113392,2.227280547409582
383.17888563049854,2.3265601173020474
384.1798631476051,1.613074291300093
385.18084066471164,0.9362404692082075
386.1818181818182,0.7176363636363718
387.18279569892474,2.405193548387106
388.1837732160313,4.626292277614867
389.18475073313783,7.264302052785932
390.1857282502444,10.635332355816233
391.18670576735093,15.02369501466276
392.1876832844575,19.749935483870967
393.188660801564,25.55215640273704
394.1896383186706,31.622502443792754
395.1906158357771,38.6836744868035
396.1915933528837,46.1523939393939
397.1925708699902,54.94740469208207
398.19354838709677,65.0697096774193
399.1945259042033,76.10428934506345
400.19550342130987,89.30077028347986
401.1964809384164,102.76300879765385
402.19745845552296,115.90914565004876
403.1984359726295,128.1970117302052
404.19941348973606,136.38619648093834
405.2003910068426,141.77471652003908
406.20136852394916,142.64920527859243
407.2023460410557,137.58971260997075
408.20332355816225,130.7956559139787
409.20430107526886,118.5820752688167
410.2052785923754,106.02168621700822
411.20625610948196,92.04370576735035
412.2072336265885,78.08661485825954
413.20821114369505,66.33530791788817
414.2091886608016,56.69511241446695
415.21016617790815,49.66889051808397
416.2111436950147,46.924624633430994
417.21212121212125,44.63054545454543
418.2130987292278,43.59639882697943
419.21407624633434,42.595932551319656
420.2150537634409,42.74921505376342
421.21603128054744,41.916860215053696
422.217008797654,39.30287390029313
423.21798631476054,34.78921407624617
424.2189638318671,29.52673118279558
425.21994134897363,25.188026392961746
426.2209188660802,20.742753665689076
427.22189638318673,17.77583968719444
428.2228739002933,14.407788856304894
429.2238514173998,10.536499511241344
430.2248289345064,6.264892473118187
431.2258064516129,2.4784838709676786
432.2267839687195,0.9348983382209822
433.227761485826,3.70305669599222
434.22873900293257,5.902636363636421
435.2297165200391,8.24957673509287
436.23069403714567,8.601737047898345
437.2316715542522,8.534378299120206
438.23264907135876,6.4324134897360175
439.2336265884653,3.1530068426197024
440.23460410557186,3.076087976539719
441.2355816226784,12.283537634408722
442.23655913978496,23.764419354838946
443.2375366568915,43.04497067448702
444.23851417399806,63.98875171065522
445.2394916911046,91.60633040078228
446.24046920821115,121.96585923753696
447.2414467253177,157.78127370479015
448.24242424242425,197.26875757575783
449.2434017595308,234.79707917888584
450.24437927663735,270.26027370479
451.2453567937439,301.1188494623657
452.24633431085044,318.398724340176
453.247311827957,331.56331182795697
454.24828934506354,327.12947800586505
455.2492668621701,315.3461524926686
456.25024437927664,292.40124535679377
457.2512218963832,260.12623655913984
458.25219941348973,224.3941524926687
459.2531769305963,183.17492961876843
460.25415444770283,144.61676735092877
461.2551319648094,112.1129032258066
462.2561094819159,84.57316520039109
463.2570869990225,70.37401564027377
464.258064516129,64.53838709677416
465.2590420332356,72.98543206256095
466.2600195503421,94.5654555229714
467.26099706744867,130.07394428152438
468.2619745845552,185.80197165200332
469.26295210166177,248.41114565004793
470.2639296187683,329.0244105571837
471.26490713587486,408.4911603128044
472.2658846529814,483.0015024437917
473.26686217008796,549.168914956011
474.2678396871945,589.2446158357768
475.26881720430106,607.1364946236557
476.2697947214076,599.8658826979481
477.27077223851416,555.1038514174006
478.2717497556207,501.6803695014678
479.27272727272725,422.3446363636381
480.2737047898338,340.9151153470202
481.27468230694035,265.4832043010769
482.2756598240469,196.41325513196617
483.27663734115345,141.3944897360715
484.27761485826,97.40061290322677
485.27859237536654,63.6307829912029
486.2795698924731,42.446462365591955
487.28054740957964,23.601826979472516
488.2815249266862,10.000137829912417
489.2825024437928,2.375576735093079
490.28347996089934,10.187086021505579
491.2844574780059,17.019551319648215
492.28543499511244,21.379230694037226
493.286412512219,23.32577028347993
494.28739002932554,19.371568914955773
495.2883675464321,8.654596285434742
496.28934506353863,9.145630498534354
497.2903225806452,39.061225806452214
498.29130009775173,78.52000782013806
499.2922776148583,142.30407917888687
500.2932551319648,218.94443108504575
501.2942326490714,325.19108406647314
502.2952101661779,454.2395141740005
503.2961876832845,622.0551495601203
504.297165200391,829.0831065493678
505.29814271749757,1080.5943773216072
506.2991202346041,1396.8770733137867
507.30009775171067,1757.3535640273758
508.3010752688172,2226.582064516134
509.30205278592376,2713.728384164228
510.3030303030303,3246.0744545454595
511.30400782013686,3749.7406207233657
512.3049853372434,4110.21251906157
513.3059628543499,4328.647169110453
514.3069403714564,4324.4483362658975
515.307917888563,4063.518002932566
516.3088954056695,3701.202777126129
517.3098729227761,3152.191725317723
518.3108504398826,2621.058958944309
519.3118279569892,2131.1033333333608
520.3128054740957,1680.2292766373628
521.3137829912023,1318.7782932551506
522.3147605083088,1014.5343010752842
523.3157380254154,773.7075513196594
524.3167155425219,589.5440322580749
525.3176930596285,437.88698924731847
526.318670576735,329.6135738025483
527.3196480938416,236.45630205278985
528.3206256109481,174.41065591398245
529.3216031280547,119.50985923753925
530.3225806451612,81.57845161290545
531.3235581622678,51.07081818181977
532.3245356793743,29.68973900293367
533.3255131964809,14.159134897361636
534.3264907135874,4.5296295210167195
535.327468230694,6.025314760507777
536.3284457478005,11.427293255131897
537.3294232649071,12.541451612903124
538.3304007820136,12.487920821114592
539.3313782991202,9.556941348973806
540.3323558162267,6.672511241446969
541.3333333333333,3.5180000000002236
542.3343108504398,1.7114721407624263
543.3352883675464,3.4133822091883417
544.3362658846529,7.420412512218668
545.3372434017595,11.245272727272418
546.338220918866,14.962304985336976
547.3391984359725,18.71233528836718
548.3401759530791,22.992659824046612
549.3411534701856,27.019589442814873
550.3421309872922,31.21272140762434
551.3431085043987,34.04868035190602
552.3440860215054,35.14434408602151
553.345063538612,34.90916911045941
554.3460410557185,33.99642228739001
555.347018572825,33.110469208211114
556.3479960899316,31.793765395894393
557.3489736070381,30.234090909090863
558.3499511241447,28.418231671554214
559.3509286412512,26.71471652003906
560.3519061583578,25.28091788856303
561.3528836754643,24.39999706744866
562.3538611925709,23.171205278592343
563.3548387096774,21.386548387096738
564.355816226784,19.76081622678395
565.3567937438905,19.08093450635386
566.3577712609971,18.908645161290316
567.3587487781036,18.19603519061582
568.3597262952102,17.110490713587478
569.3607038123167,17.076958944281547
570.3616813294233,18.63315835777128
571.3626588465298,20.25382697947216
572.3636363636364,21.95100000000002
573.3646138807429,23.96131476050833
574.3655913978495,26.52745161290325
575.366568914956,29.464580645161316
576.3675464320626,32.914871945259065
577.3685239491691,36.40615347018574
578.3695014662757,38.914853372434024
579.3704789833822,40.275099706744875
580.3714565004888,39.66173900293254
581.3724340175953,36.49257184750732
582.3734115347019,32.95191886608015
583.3743890518084,28.73438416422287
584.375366568915,24.67141642228739
585.3763440860215,20.688526881720435
586.377321603128,16.709033235581632
587.3782991202346,12.749906158357783
588.3792766373411,9.057042033235593
589.3802541544477,6.087081133919855
590.3812316715542,3.81668035190617
591.3822091886608,2.223252199413496
592.3831867057673,1.297066471163252
593.3841642228739,0.48498826979472687
594.3851417399804,0.3344232649071298
595.386119257087,0.6525092864125145
596.3870967741935,0.37835483870968134
597.3880742913001,0.26600391006842306
598.3890518084066,0.6315288367546366
599.3900293255132,0.9530703812316713
600.3910068426197,0.7866109481915998
601.3919843597263,0.35350244379277274
602.3929618768328,0.12186217008797576
603.3939393939394,0.22230303030302717
604.3949169110459,0.2545962854349987
605.3958944281525,0.10591202346041201
606.396871945259,0.11437145650048604
607.3978494623656,0.2972580645161238
608.3988269794721,0.39555718475073604
609.3998044965787,0.22184555229717046
610.4007820136852,0.07799217986314784
611.4017595307918,0.1298533724340141
612.4027370478983,0.2780215053763402
613.4037145650049,0.4095640273704764
614.4046920821114,0.45828739002932617
615.405669599218,0.414386119257089
616.4066471163245,0.43850342130986814
617.4076246334312,1.100744868035307
618.4086021505377,2.487139784946352
619.4095796676443,3.6844037145650805
620.4105571847508,4.588700879765468
621.4115347018574,5.594845552297261
622.4125122189639,6.823140762463446
623.4134897360705,7.870029325513252
624.414467253177,8.409313782991227
625.4154447702836,8.851652981427224
626.4164222873901,9.65507624633439
627.4173998044967,10.670121212121284
628.4183773216032,11.314512218963847
629.4193548387098,11.478967741935492
630.4203323558163,11.583931573802548
631.4213098729228,11.671019550342136
632.4222873900294,11.177005865102549
633.423264907136,9.96821309872915
634.4242424242425,8.682969696969593
635.425219941349,7.136900293255024
636.4261974584556,5.678319648093756
637.4271749755621,4.462292277614783
638.4281524926687,3.4352287390028744
639.4291300097752,2.641770283479918
640.4301075268818,1.9022903225805923
641.4310850439883,0.9441847507330676
642.4320625610949,0.3929804496578813
643.4330400782014,0.38561485826000264
644.434017595308,0.1650674486803432
645.4349951124145,0.41359628543504007
646.4359726295211,1.180006842619791
647.4369501466276,1.776360703812338
648.4379276637342,2.1314574780058844
649.4389051808407,2.4747390029325707
650.4398826979473,2.827038123167175
651.4408602150538,3.437440860215104
652.4418377321604,4.535481915933598
653.4428152492669,5.564785923753701
654.4437927663735,5.911378299120231
655.44477028348,5.9748523949169225
656.4457478005866,6.494258064516172
657.4467253176931,7.2424408602150825
658.4477028347997,7.0438739002932
659.4486803519062,5.951870967741889
660.4496578690128,5.607741935483892
661.4506353861193,6.081008797653981
662.4516129032259,6.212516129032245
663.4525904203324,5.894571847507317
664.453567937439,5.529840664711616
665.4545454545455,5.125818181818165
666.455522971652,4.716879765395879
667.4565004887586,4.326812316715528
668.4574780058651,3.765709677419325
669.4584555229717,2.7354633431084547
670.4594330400782,1.5375141739980065
671.4604105571848,0.783152492668607
672.4613880742913,0.40705083088952865
673.4623655913979,0.23794623655914074
674.4633431085044,0.2627302052785931
675.464320625611,0.2948944281524941
676.4652981427175,0.4688260019550444
677.4662756598241,0.4498269794721282
678.4672531769306,0.2721182795698951
679.4682306940372,0.2431466275659777
680.4692082111437,0.5239208211143913
681.4701857282503,0.8651808406647074
682.4711632453568,0.4323968719452396
683.4721407624634,0.04991495601173074
684.4731182795699,0.265860215053774
685.4740957966765,0.6362287390029396
686.475073313783,0.7422170087976515
687.4760508308896,0.6307302052785899
688.4770283479961,0.6368299120234633
689.4780058651027,0.6975278592375361
690.4789833822092,0.4239540566959818
691.4799608993158,0.30702639296188317
692.4809384164223,0.32832844574779485
693.4819159335289,0.4340654936461483
694.4828934506354,0.7523157380254161
695.483870967742,0.763322580645161
696.4848484848485,0.8873030303030341
697.485826001955,1.1869217986314802
698.4868035190616,1.4562023460410582
699.4877810361681,1.6152414467253187
700.4887585532747,1.9011378299120283
701.4897360703812,2.5744985337243484
702.4907135874878,3.483270772238522
703.4916911045943,4.524986314760517
704.4926686217009,5.629721407624641
705.4936461388074,6.674974584555236
706.494623655914,7.6911075268817255
707.4956011730205,8.517662756598243
708.4965786901271,9.30928739002933
709.4975562072336,10.210893450635389
710.4985337243402,11.255202346041058
711.4995112414467,12.483899315738025
712.5004887585533,13.567957966764418
713.5014662756598,16.141656891495593
714.5024437927664,20.76178983382208
715.5034213098729,23.377269794721407
716.5043988269795,22.299627565982416
717.505376344086,18.911387096774217
718.5063538611926,13.597074291300135
719.5073313782991,8.26775073313786
720.5083088954057,5.043774193548403
721.5092864125122,3.2248817204301217
722.5102639296188,2.0642228739003
723.5112414467253,1.2773323558162355
724.5122189638319,0.6510879765395939
725.5131964809384,1.0975219941348824
726.514173998045,1.5182981427175024
727.5151515151515,1.1998787878787918
728.516129032258,0.9652903225806481
729.5171065493646,0.792985337243404
730.5180840664711,0.8888230694037093
731.5190615835777,2.086275659824012
732.5200391006842,4.470146627565933
733.5210166177908,7.319125122189582
734.5219941348973,10.281146627565922
735.5229716520039,13.250748778103555
736.5239491691104,16.753317693059543
737.524926686217,21.1419266862169
738.5259042033235,25.674587487780933
739.5268817204301,29.6981182795698
740.5278592375366,33.07316422287383
741.5288367546432,35.57677908113387
742.5298142717497,37.42438611925704
743.5307917888563,38.15742815249267
744.5317693059628,38.14554154447703
