Wavenumber (cm⁻¹),Intensity
200.0,983.5849603609199
201.00097751710655,835.1032357483135
202.0019550342131,702.0767442700699
203.00293255131965,624.2123630760703
204.0039100684262,553.0562867033135
205.00488758553274,498.9363730451839
206.0058651026393,476.349303937989
207.00684261974584,451.5576563764797
208.0078201368524,435.58751515234644
209.00879765395894,422.02870649157745
210.00977517106548,408.16198103183
211.01075268817203,397.0555488289364
212.01173020527858,379.0624297437105
213.01270772238513,370.88337694225265
214.01368523949168,369.6669055145672
215.01466275659823,364.7177400636634
216.01564027370478,358.5449330991104
217.01661779081132,361.05380793021646
218.01759530791787,364.56158228114896
219.01857282502445,364.0826083430538
220.019550342131,363.4815590012172
221.02052785923755,358.423456344889
222.0215053763441,367.88145894975634
223.02248289345064,378.1709423373385
224.0234604105572,367.8718588133782
225.02443792766374,366.42669422514695
226.0254154447703,374.18134521218377
227.02639296187684,377.6682927887943
228.02737047898339,370.6063822588655
229.02834799608993,362.8280779483617
230.02932551319648,358.94510598734297
231.03030303030303,360.0237153363127
232.03128054740958,364.5171464095965
233.03225806451613,370.9040023213498
234.03323558162268,386.8439292974307
235.03421309872923,392.855187037892
236.03519061583577,394.0811989018596
237.03616813294232,400.65889581772285
238.03714565004887,421.79367357323775
239.03812316715542,433.55878025153874
240.03910068426197,446.7209606487419
241.04007820136852,462.9161671108984
242.04105571847506,477.0766135995319
243.0420332355816,503.36834572290127
244.0430107526882,539.9489578796179
245.04398826979474,570.3628662190285
246.0449657869013,594.5888308090448
247.04594330400784,643.7321300124327
248.04692082111438,711.9673130404562
249.04789833822093,776.226543822796
250.04887585532748,846.0075400366849
251.04985337243403,943.6571580847741
252.05083088954058,1040.8831508486733
253.05180840664713,1165.2394820456752
254.05278592375367,1306.1706139762437
255.05376344086022,1453.5686437048516
256.05474095796677,1620.5528466184046
257.0557184750733,1706.2632383067485
258.05669599217987,1701.2939786424374
259.0576735092864,1649.8594077434268
260.05865102639297,1604.5126717738435
261.0596285434995,1634.1812847646631
262.06060606060606,1704.0918229463289
263.0615835777126,1790.35378769752
264.06256109481916,1876.739378161851
265.0635386119257,1935.670515882676
266.06451612903226,1915.345596523274
267.0654936461388,1819.5263246942375
268.06647116324535,1667.2226799891685
269.0674486803519,1508.6527593689912
270.06842619745845,1436.7867883522376
271.069403714565,1385.837758225206
272.07038123167155,1341.3006801487393
273.0713587487781,1323.031936654418
274.07233626588464,1361.1933021509224
275.0733137829912,1419.199323794176
276.07429130009774,1520.641923016978
277.0752688172043,1662.089401942219
278.07624633431084,1831.1561961360376
279.0772238514174,2030.67061652097
280.07820136852393,2247.7662683190174
281.0791788856305,2488.565419160221
282.08015640273703,2724.808640729505
283.0811339198436,2904.6733332804133
284.08211143695013,2964.5960349382285
285.0830889540567,2896.7031504317965
286.0840664711632,2677.25346158436
287.0850439882698,2318.5142398250423
288.0860215053764,1929.4465175319353
289.0869990224829,1582.1061271810324
290.0879765395895,1315.4228064327478
291.088954056696,1110.4579803715883
292.0899315738026,938.0486069294188
293.0909090909091,827.3415159265296
294.09188660801567,747.7096602214584
295.0928641251222,686.0818310355885
296.09384164222877,636.2563466855943
297.0948191593353,593.8340802004005
298.09579667644186,564.7426871061206
299.0967741935484,539.9617218827576
300.09775171065496,517.1395667248584
301.0987292277615,493.12235901545523
302.09970674486806,460.6832793360669
303.1006842619746,456.47191905373666
304.10166177908116,442.71688773972176
305.1026392961877,419.11267620819456
306.10361681329425,405.9171792976637
307.1045943304008,393.29300901928787
308.10557184750735,387.5155863769274
309.1065493646139,378.7141873777621
310.10752688172045,372.38130000356796
311.108504398827,381.55593712764494
312.10948191593354,375.37841152515165
313.1104594330401,371.8613136218357
314.11143695014664,367.577276817333
315.1124144672532,364.00465845830115
316.11339198435974,379.80392027690016
317.1143695014663,381.75452810364715
318.11534701857283,380.2643777345286
319.1163245356794,381.0418074717912
320.11730205278593,386.46622969024185
321.1182795698925,406.7232486864147
322.119257086999,409.22183046876825
323.1202346041056,411.40676509625223
324.1212121212121,427.3364113920785
325.1221896383187,457.35046473099635
326.1231671554252,479.8804423465033
327.12414467253177,499.99889999801314
328.1251221896383,525.7542712501496
329.12609970674487,560.6902446804396
330.1270772238514,599.098745352557
331.12805474095796,612.5500258788579
332.1290322580645,585.8865967741932
333.13000977517106,542.0826710493577
334.1309872922776,506.2392078996189
335.13196480938416,472.646109914225
336.1329423264907,437.1608769236233
337.13391984359725,407.0136772169786
338.1348973607038,392.3188651205232
339.13587487781035,395.54640234989375
340.1368523949169,380.79489874179933
341.13782991202345,370.84565892530316
342.13880742913,365.55537141333247
343.13978494623655,364.2886441663153
344.1407624633431,367.03932558673847
345.14173998044964,361.46755696903193
346.1427174975562,368.5144535709179
347.14369501466274,373.8220490895466
348.1446725317693,373.3361027329318
349.14565004887584,384.78093479009937
350.1466275659824,398.65597934679835
351.14760508308893,397.74401726415647
352.1485826001955,396.459653306151
353.14956011730203,406.0469994016278
354.1505376344086,415.722359275392
355.1515151515151,423.0929728969495
356.1524926686217,419.01024146308856
357.1534701857282,414.857081116036
358.1544477028348,418.6806603266108
359.1554252199413,413.71015922798676
360.15640273704787,405.77967133699264
361.1573802541544,398.6826189311535
362.15835777126097,400.5560932117001
363.1593352883675,412.4904458620772
364.16031280547406,411.0994470190391
365.1612903225806,419.54533626472875
366.16226783968716,426.4807429898681
367.1632453567937,434.6394701525145
368.16422287390026,456.0316552357384
369.1652003910068,474.35542255661755
370.16617790811335,493.38338131297826
371.1671554252199,508.5095473598818
372.16813294232645,511.4909522739697
373.169110459433,492.8464660679717
374.17008797653955,453.1040781677325
375.1710654936461,415.67683715094415
376.1720430107527,394.82258247987613
377.17302052785925,383.84720307726263
378.1739980449658,364.14458879367163
379.17497556207235,354.1484652564953
380.1759530791789,352.6856288939337
381.17693059628544,359.72739289364137
382.177908113392,366.1824961456504
383.17888563049854,356.6966455216394
384.1798631476051,361.0036262969941
385.18084066471164,364.5411693185341
386.1818181818182,362.223299519149
387.18279569892474,362.6176192569451
388.1837732160313,374.4336849373351
389.18475073313783,375.25848172620886
390.1857282502444,374.2180818830523
391.18670576735093,382.92941998567267
392.1876832844575,399.2424220959621
393.188660801564,402.42724882542836
394.1896383186706,431.907041322736
395.1906158357771,447.9494220807549
396.1915933528837,460.5689771497015
397.1925708699902,488.5440390619364
398.19354838709677,513.2766066523475
399.1945259042033,542.8516842416988
400.19550342130987,570.6526607427429
401.1964809384164,609.6179951809685
402.19745845552296,651.615234430744
403.1984359726295,634.1666659582351
404.19941348973606,601.457373641041
405.2003910068426,570.8116557302969
406.20136852394916,542.757591790439
407.2023460410557,519.3830559921474
408.20332355816225,520.7089417589384
409.20430107526886,540.5602025000396
410.2052785923754,560.3827483909895
411.20625610948196,573.5366908986491
412.2072336265885,572.1493700470585
413.20821114369505,535.468694649278
414.2091886608016,480.76703509557865
415.21016617790815,439.99257688765005
416.2111436950147,418.72604347327837
417.21212121212125,406.3704980269396
418.2130987292278,391.8514790419392
419.21407624633434,375.24548941671964
420.2150537634409,371.58880337345823
421.21603128054744,374.1181071138548
422.217008797654,374.7303779182719
423.21798631476054,386.7297105434172
424.2189638318671,378.72079121053736
425.21994134897363,377.41589506210926
426.2209188660802,385.9388445489685
427.22189638318673,394.9496298341428
428.2228739002933,405.42726785598944
429.2238514173998,396.91693607388873
430.2248289345064,401.34340237917286
431.2258064516129,412.3843874667951
432.2267839687195,419.0152372154271
433.227761485826,446.2797464328336
434.22873900293257,451.7326237583496
435.2297165200391,462.34094750177724
436.23069403714567,480.2620268093544
437.2316715542522,506.39283776805115
438.23264907135876,558.8131288490404
439.2336265884653,596.1576061275581
440.23460410557186,634.5862195845274
441.2355816226784,686.641958438738
442.23655913978496,753.2695226629467
443.2375366568915,832.1141032987398
444.23851417399806,934.8789198484449
445.2394916911046,1038.7338613130125
446.24046920821115,1140.935832793479
447.2414467253177,1256.5386318369708
448.24242424242425,1412.0558801267207
449.2434017595308,1573.8048768255467
450.24437927663735,1763.1656116907127
451.2453567937439,1954.8559034381024
452.24633431085044,2108.423678309889
453.247311827957,2187.2859705633728
454.24828934506354,2113.1972981273043
455.2492668621701,1903.115207824268
456.25024437927664,1644.3477270454352
457.2512218963832,1406.5095893014952
458.25219941348973,1233.6880301063945
459.2531769305963,1148.9725037037585
460.25415444770283,1087.5796432409293
461.2551319648094,1047.5384398839146
462.2561094819159,1059.3955645488747
463.2570869990225,1131.0445893720505
464.258064516129,1174.389461179272
465.2590420332356,1241.454353723517
466.2600195503421,1325.1760102429432
467.26099706744867,1433.9630722294332
468.2619745845552,1579.8552030094804
469.26295210166177,1746.3642584189447
470.2639296187683,1940.5965288979685
471.26490713587486,2150.3291563473854
472.2658846529814,2366.504407783195
473.26686217008796,2566.4246502976603
474.2678396871945,2687.421082373404
475.26881720430106,2674.1270629325577
476.2697947214076,2501.6837120296714
477.27077223851416,2240.8867608266546
478.2717497556207,1988.9721731484794
479.27272727272725,1793.3684248647053
480.2737047898338,1632.2315010149305
481.27468230694035,1566.4105224531897
482.2756598240469,1544.7778593379041
483.27663734115345,1509.568054034535
484.27761485826,1435.0817494343123
485.27859237536654,1292.4357879657741
486.2795698924731,1138.4911899061697
487.28054740957964,1021.3303773085504
488.2815249266862,944.7644545702727
489.2825024437928,891.6290439382872
490.28347996089934,870.6819225251197
491.2844574780059,860.4433907899274
492.28543499511244,858.3856562731988
493.286412512219,872.7995059223226
494.28739002932554,912.8465404046086
495.2883675464321,982.1786092998549
496.28934506353863,1068.5425376986861
497.2903225806452,1167.881767662982
498.29130009775173,1309.3337380860478
499.2922776148583,1501.8047323866017
500.2932551319648,1722.877920292518
501.2942326490714,1944.4135850485607
502.2952101661779,2236.306480169553
503.2961876832845,2584.9168672614596
504.297165200391,2961.9002630392856
505.29814271749757,3366.9745637970414
506.2991202346041,3849.45271380953
507.30009775171067,4409.280687000683
508.3010752688172,5002.846496510556
509.30205278592376,5633.178231848555
510.3030303030303,6286.584486658748
511.30400782013686,6809.364715795568
512.3049853372434,6963.066517737018
513.3059628543499,6680.871769417922
514.3069403714564,5980.0520201700165
515.307917888563,5030.06624432502
516.3088954056695,4095.9615361530896
517.3098729227761,3282.535889853895
518.3108504398826,2668.066746890818
519.3118279569892,2219.3442949618125
520.3128054740957,1883.284301591529
521.3137829912023,1624.7597805926348
522.3147605083088,1422.9184348148726
523.3157380254154,1274.9407479863287
524.3167155425219,1146.4503669302455
525.3176930596285,1041.9873075060839
526.318670576735,970.001838189191
527.3196480938416,913.8330573174209
528.3206256109481,860.1879403855512
529.3216031280547,811.312402055323
530.3225806451612,763.9452745562137
531.3235581622678,721.2010259278871
532.3245356793743,689.8184736691047
533.3255131964809,661.9685665816916
534.3264907135874,641.5484962143892
535.327468230694,624.2139826151817
536.3284457478005,612.3767460863733
537.3294232649071,603.9372807789672
538.3304007820136,575.3392017600603
539.3313782991202,556.5193973117377
540.3323558162267,546.7585614909159
541.3333333333333,537.0193256394315
542.3343108504398,527.226334556477
543.3352883675464,522.4693539904947
544.3362658846529,509.8960596910224
545.3372434017595,522.9933611475567
546.338220918866,513.0189646705344
547.3391984359725,491.0979631422547
548.3401759530791,490.2945756834256
549.3411534701856,488.365715972135
550.3421309872922,483.01742433938574
551.3431085043987,480.4359635431134
552.3440860215054,475.7410082198626
553.345063538612,471.3528963389845
554.3460410557185,478.6007822136901
555.347018572825,486.5792838249407
556.3479960899316,479.53188453033016
557.3489736070381,470.48937228498716
558.3499511241447,478.32422101532075
559.3509286412512,490.4683464373139
560.3519061583578,460.2165812875111
561.3528836754643,462.41940336145484
562.3538611925709,457.8699898381401
563.3548387096774,458.64915794073045
564.355816226784,467.9136811592194
565.3567937438905,466.7183230508912
566.3577712609971,460.39645941807606
567.3587487781036,461.11275546552093
568.3597262952102,466.4902649576845
569.3607038123167,467.7236337966047
570.3616813294233,465.8630671673656
571.3626588465298,472.68395587699473
572.3636363636364,479.42549764665955
573.3646138807429,487.657987246382
574.3655913978495,488.20375455009764
575.366568914956,492.3522155985455
576.3675464320626,516.4657489845567
577.3685239491691,527.3273082937087
578.3695014662757,532.6220130360758
579.3704789833822,545.4077530529623
580.3714565004888,562.9343494788302
581.3724340175953,574.8310214379173
582.3734115347019,577.2822938325787
583.3743890518084,578.4133289464085
584.375366568915,562.7310711611366
585.3763440860215,540.043843954206
586.377321603128,520.4382138155753
587.3782991202346,502.40160455889446
588.3792766373411,472.56177969339467
589.3802541544477,467.4446469958026
590.3812316715542,449.8667826353541
591.3822091886608,438.3954822853665
592.3831867057673,441.454455567701
593.3841642228739,442.22129292568377
594.3851417399804,438.78638671262075
595.386119257087,430.37350668014636
596.3870967741935,436.7699947808982
597.3880742913001,444.5452394893193
598.3890518084066,442.7419720771965
599.3900293255132,440.3541408084499
600.3910068426197,432.11123085029385
601.3919843597263,436.81208271887226
602.3929618768328,437.0303941609321
603.3939393939394,434.66990913113716
604.3949169110459,437.9841255951327
605.3958944281525,439.81081203538287
606.396871945259,434.87346763996635
607.3978494623656,427.4406391363502
608.3988269794721,432.7858983643769
609.3998044965787,441.6500481490538
610.4007820136852,440.5379729158417
611.4017595307918,443.44550310798115
612.4027370478983,441.0334092830264
613.4037145650049,456.32936052203524
614.4046920821114,467.4463238596899
615.405669599218,460.8691805666521
616.4066471163245,450.8148470520488
617.4076246334312,459.6194837802309
618.4086021505377,469.17217698621465
619.4095796676443,473.062668329257
620.4105571847508,486.27704700474914
621.4115347018574,504.2523797456675
622.4125122189639,505.0337527610246
623.4134897360705,506.26936089684284
624.414467253177,517.6354629241214
625.4154447702836,524.6109967724296
626.4164222873901,528.6681904867236
627.4173998044967,534.9391096462349
628.4183773216032,540.7759646549204
629.4193548387098,550.0225256679453
630.4203323558163,556.2599828175163
631.4213098729228,552.7562736050302
632.4222873900294,551.4533733429813
633.423264907136,560.8536948363746
634.4242424242425,570.0449071524213
635.425219941349,582.4801802933895
636.4261974584556,589.1343845610897
637.4271749755621,599.6913248287727
638.4281524926687,606.9655268557466
639.4291300097752,609.2051453776988
640.4301075268818,628.0702827854396
641.4310850439883,634.2412054042044
642.4320625610949,659.4346202604372
643.4330400782014,685.4952972220843
644.434017595308,697.8098011013643
645.4349951124145,697.1553757630705
646.4359726295211,700.2656614257814
647.4369501466276,728.7227145373905
648.4379276637342,733.161878478767
649.4389051808407,744.1995322471181
650.4398826979473,759.2425479278402
651.4408602150538,755.9257425693595
652.4418377321604,758.2472843192633
653.4428152492669,740.540932594812
654.4437927663735,738.3464964579451
655.44477028348,711.5103877872192
656.4457478005866,666.0664870506043
657.4467253176931,637.1176725479901
658.4477028347997,625.6576597663804
659.4486803519062,596.9101987178517
660.4496578690128,579.3211425286848
661.4506353861193,562.6240199856511
662.4516129032259,539.8295768720169
663.4525904203324,519.6941428262786
664.453567937439,506.8325231071369
665.4545454545455,502.70108064151134
666.455522971652,497.5038117041701
667.4565004887586,482.09429211885225
668.4574780058651,469.2294490306038
669.4584555229717,465.9975134954944
670.4594330400782,447.3080372365078
671.4604105571848,445.62132054507373
672.4613880742913,443.39498729655577
673.4623655913979,440.2468808276068
674.4633431085044,445.31136603934067
675.464320625611,450.8034382554083
676.4652981427175,432.0925203757665
677.4662756598241,423.806991223636
678.4672531769306,438.2735238202137
679.4682306940372,441.83394946202054
680.4692082111437,437.4632085045205
681.4701857282503,432.7659226946362
682.4711632453568,411.06870110931277
683.4721407624634,419.4264057635404
684.4731182795699,428.7483265589836
685.4740957966765,421.24580848943407
686.475073313783,411.3225051983151
687.4760508308896,408.21214166289013
688.4770283479961,405.9613901983685
689.4780058651027,426.79688202678136
690.4789833822092,417.52924992141897
691.4799608993158,415.17887899700804
692.4809384164223,419.18389435188914
693.4819159335289,420.4899549812518
694.4828934506354,426.06945557147185
695.483870967742,412.7630544854167
696.4848484848485,425.37456238489483
697.485826001955,430.69821928567643
698.4868035190616,430.00078765068037
699.4877810361681,434.6886252926928
700.4887585532747,437.08937050739013
701.4897360703812,421.87349740529135
702.4907135874878,426.9309658828483
703.4916911045943,424.86172595834074
704.4926686217009,426.0922097144641
705.4936461388074,431.0290308093075
706.494623655914,433.9531508688467
707.4956011730205,447.0990280187911
708.4965786901271,438.8353614483353
709.4975562072336,449.0821819324756
710.4985337243402,450.30020632575815
711.4995112414467,447.0430277972937
712.5004887585533,449.42857829834986
713.5014662756598,437.2290575285544
714.5024437927664,427.3694253783798
715.5034213098729,435.1433370739277
716.5043988269795,448.30504333539545
717.505376344086,453.65164393859305
718.5063538611926,447.0377476578309
719.5073313782991,436.32689624498397
720.5083088954057,441.2617215290995
721.5092864125122,447.67923490755965
722.5102639296188,467.8504842269978
723.5112414467253,478.7956171825853
724.5122189638319,473.976438985272
725.5131964809384,471.56228680826354
726.514173998045,480.763155377145
727.5151515151515,475.6888916049104
728.516129032258,492.9773122608741
729.5171065493646,514.3050273981756
730.5180840664711,530.64044758213
731.5190615835777,546.3608130948357
732.5200391006842,561.6099959181709
733.5210166177908,586.0406697760261
734.5219941348973,609.5806052655133
735.5229716520039,651.1430632364348
736.5239491691104,686.9839436005678
737.524926686217,716.161965933498
738.5259042033235,759.9686548095309
739.5268817204301,799.1992235037998
740.5278592375366,852.0059056838924
741.5288367546432,905.5716505202555
742.5298142717497,964.5839619262833
743.5307917888563,1041.6803281464674
744.5317693059628,1125.4146945673658
745.5327468230694,1185.9185302167514
746.5337243401759,1258.8625913552669
