Wavenumber (cm⁻¹),Intensity
200.0,-75.21900000000001
201.00097751710655,-64.21625513196483
202.0019550342131,-53.213510263929635
203.00293255131965,-42.210765395894455
204.0039100684262,-31.20802052785928
205.00488758553274,-20.2052756598241
206.0058651026393,-9.20253079178892
207.00684261974584,1.800214076246263
208.0078201368524,12.802958944281446
209.00879765395894,23.805703812316626
210.00977517106548,34.780012707722314
211.01075268817203,42.87697849462357
212.01173020527858,51.50268328445741
213.01270772238513,57.602145650048826
214.01368523949168,62.30208308895403
215.01466275659823,64.15776832844584
216.01564027370478,57.59058944281534
217.01661779081132,51.22744477028352
218.01759530791787,48.6145630498534
219.01857282502445,46.603980449657854
220.019550342131,44.88369110459431
221.02052785923755,43.42875366568913
222.0215053763441,41.658827956989214
223.02248289345064,37.55731573802538
224.0234604105572,33.53351906158354
225.02443792766374,28.209624633431048
226.0254154447703,22.44772043010751
227.02639296187684,19.481762463343117
228.02737047898339,20.837019550342134
229.02834799608993,22.23878299120236
230.02932551319648,26.54297067448681
231.03030303030303,30.889969696969697
232.03128054740958,32.32127370478983
233.03225806451613,32.102935483870965
234.03323558162268,32.85154545454545
235.03421309872923,36.48126979472139
236.03519061583577,40.155780058651004
237.03616813294232,45.764439882697914
238.03714565004887,53.07338025415442
239.03812316715542,57.11663049853372
240.03910068426197,57.547402737047896
241.04007820136852,58.3301016617791
242.04105571847506,55.4924281524927
243.0420332355816,51.623270772238556
244.0430107526882,47.11034408602142
245.04398826979474,42.25922580645156
246.0449657869013,39.14256695992179
247.04594330400784,38.40842326490714
248.04692082111438,38.70433724340173
249.04789833822093,36.822002932551285
250.04887585532748,34.14973704789828
251.04985337243403,29.003234604105497
252.05083088954058,22.33499217986309
253.05180840664713,16.762770283479924
254.05278592375367,13.018181818181787
255.05376344086022,9.577268817204295
256.05474095796677,8.973718475073314
257.0557184750733,9.143885630498538
258.05669599217987,9.740822091886606
259.0576735092864,9.245470185728248
260.05865102639297,8.812527859237536
261.0596285434995,8.815037145650049
262.06060606060606,8.514878787878782
263.0615835777126,5.099038123167153
264.06256109481916,1.6980293255131964
265.0635386119257,1.28640469208211
266.06451612903226,2.7480645161290314
267.0654936461388,2.9216598240469294
268.06647116324535,0.2137223851417287
269.0674486803519,3.1620263929618746
270.06842619745845,3.600374389051808
271.069403714565,3.672962854349956
272.07038123167155,2.824360703812328
273.0713587487781,1.3044144672531834
274.07233626588464,0.7056246334310649
275.0733137829912,2.9698357771260775
276.07429130009774,4.938664711632471
277.0752688172043,3.169774193548415
278.07624633431084,0.875035190615845
279.0772238514174,0.18580254154447898
280.07820136852393,0.0670146627565955
281.0791788856305,0.4036246334310545
282.08015640273703,2.420873900293223
283.0811339198436,4.200713587487796
284.08211143695013,3.330692082111463
285.0830889540567,1.8925571847507567
286.0840664711632,0.7031788856305071
287.0850439882698,0.40566862170085477
288.0860215053764,1.7202258064516949
289.0869990224829,4.030137829912101
290.0879765395895,5.924507331378249
291.088954056696,4.328970674486722
292.0899315738026,1.9688455522971349
293.0909090909091,1.1794545454545735
294.09188660801567,2.037998044965798
295.0928641251222,2.281971652003881
296.09384164222877,1.7348123167156486
297.0948191593353,5.228525904203352
298.09579667644186,6.1711710654936525
299.0967741935484,6.332580645161281
300.09775171065496,5.861194525904175
301.0987292277615,4.700833822091858
302.09970674486806,3.491357771260969
303.1006842619746,2.2706686217008527
304.10166177908116,1.0603773216031034
305.1026392961877,0.14806744868037708
306.10361681329425,1.4078973607038403
307.1045943304008,2.871823069403746
308.10557184750735,4.4893284457478195
309.1065493646139,5.072978494623598
310.10752688172045,1.9299032258064432
311.108504398827,1.7171700879765757
312.10948191593354,4.096415444770313
313.1104594330401,6.305611925708737
314.11143695014664,9.151451612903264
315.1124144672532,12.254915933528872
316.11339198435974,15.476108504398866
317.1143695014663,19.035269794721444
318.11534701857283,22.47840566959924
319.1163245356794,24.96170772238516
320.11730205278593,27.081950146627573
321.1182795698925,27.923086021505373
322.119257086999,27.678794721407627
323.1202346041056,28.493129032258082
324.1212121212121,32.455787878787895
325.1221896383187,36.319473118279575
326.1231671554252,39.517369501466284
327.12414467253177,43.013843597262955
328.1251221896383,49.86903812316715
329.12609970674487,59.440469208211134
330.1270772238514,69.4840606060606
331.12805474095796,80.71613391984357
332.1290322580645,92.63474193548382
333.13000977517106,109.32014858260013
334.1309872922776,126.71229130009765
335.13196480938416,145.05826099706732
336.1329423264907,163.62890420332343
337.13391984359725,178.4123831867057
338.1348973607038,185.66236363636355
339.13587487781035,191.00960606060613
340.1368523949169,184.2503333333334
341.13782991202345,176.1386832844576
342.13880742913,163.89723264907153
343.13978494623655,149.450301075269
344.1407624633431,135.1471612903228
345.14173998044964,121.07088367546453
346.1427174975562,106.84180449657893
347.14369501466274,91.85787976539615
348.1446725317693,77.60508211143713
349.14565004887584,68.04790322580659
350.1466275659824,60.33339296187699
351.14760508308893,52.241271749755796
352.1485826001955,43.772876832844744
353.14956011730203,36.81937829912027
354.1505376344086,35.615096774193574
355.1515151515151,34.2945151515152
356.1524926686217,32.357240469208264
357.1534701857282,30.432871945259063
358.1544477028348,29.75783382209187
359.1554252199413,30.284284457477984
360.15640273704787,31.16724046920816
361.1573802541544,32.94357282502438
362.15835777126097,35.16834897360689
363.1593352883675,39.97683479960884
364.16031280547406,44.72997262952094
365.1612903225806,46.86383870967741
366.16226783968716,47.15958455522972
367.1632453567937,46.854558162267885
368.16422287390026,45.47155131964814
369.1652003910068,43.527976539589616
370.16617790811335,38.738570869990404
371.1671554252199,33.75792961876853
372.16813294232645,28.46739198435994
373.169110459433,23.43386803519074
374.17008797653955,20.959592375366537
375.1710654936461,21.613860215053744
376.1720430107527,21.475021505376308
377.17302052785925,18.8043636363636
378.1739980449658,16.220609970674463
379.17497556207235,14.229618768328425
380.1759530791789,12.604727272727263
381.17693059628544,11.932339198435972
382.177908113392,12.000368523949168
383.17888563049854,11.898888563049852
384.1798631476051,11.679776148582599
385.18084066471164,11.450805474095793
386.1818181818182,10.719272727272724
387.18279569892474,10.281397849462369
388.1837732160313,11.339126099706752
389.18475073313783,13.230970674486809
390.1857282502444,15.18255620723363
391.18670576735093,17.159009775171068
392.1876832844575,19.04065982404692
393.188660801564,20.599763440860215
394.1896383186706,22.23441642228739
395.1906158357771,24.13712903225806
396.1915933528837,26.177613880742904
397.1925708699902,28.715905180840654
398.19354838709677,31.584354838709665
399.1945259042033,33.184003910068434
400.19550342130987,31.859483870967754
401.1964809384164,30.314967741935504
402.19745845552296,27.940557184750755
403.1984359726295,26.081135874877802
404.19941348973606,27.575912023460376
405.2003910068426,30.491460410557163
406.20136852394916,31.603781036168147
407.2023460410557,30.477495601173032
408.20332355816225,30.405925708699858
409.20430107526886,33.574591397849595
410.2052785923754,36.66336950146639
411.20625610948196,39.436260019550446
412.2072336265885,41.80261779081138
413.20821114369505,42.737560117302046
414.2091886608016,42.54352883675463
415.21016617790815,42.09281622678394
416.2111436950147,41.27140469208208
417.21212121212125,40.26130303030298
418.2130987292278,38.80157869012703
419.21407624633434,37.86803225806454
420.2150537634409,38.5759032258065
421.21603128054744,39.70354447702836
422.217008797654,39.646041055718435
423.21798631476054,38.520499511241425
424.2189638318671,38.479959921798695
425.21994134897363,40.78052492668628
426.2209188660802,41.88044281524918
427.22189638318673,38.567036168132844
428.2228739002933,35.12360703812312
429.2238514173998,33.41905278592373
430.2248289345064,32.49244086021502
431.2258064516129,30.822258064516074
432.2267839687195,28.289409579667595
433.227761485826,26.233602150537617
434.22873900293257,25.41560410557183
435.2297165200391,24.833510263929625
436.23069403714567,25.13419452590421
437.2316715542522,25.330782991202334
438.23264907135876,24.34795796676439
439.2336265884653,22.634459433040053
440.23460410557186,21.089607038123148
441.2355816226784,19.810600195503405
442.23655913978496,19.426559139784974
443.2375366568915,21.63178005865105
444.23851417399806,23.652624633431103
445.2394916911046,25.097662756598254
446.24046920821115,26.225762463343113
447.2414467253177,26.66923753665689
448.24242424242425,26.525878787878785
449.2434017595308,25.87126392961876
450.24437927663735,24.465891495601166
451.2453567937439,23.494800586510266
452.24633431085044,23.861404692082115
453.247311827957,23.900333333333332
454.24828934506354,22.8276568914956
455.2492668621701,21.471378299120232
456.25024437927664,20.32550928641251
457.2512218963832,19.41742521994135
458.25219941348973,18.99421700879765
459.2531769305963,19.317750733137828
460.25415444770283,19.517418377321604
461.2551319648094,19.3721788856305
462.2561094819159,19.04094134897361
463.2570869990225,18.150173998044973
464.258064516129,16.79522580645163
465.2590420332356,14.325829912023488
466.2600195503421,11.236432062561118
467.26099706744867,9.48281231671554
468.2619745845552,9.716826001955031
469.26295210166177,9.952267839687192
470.2639296187683,10.183912023460408
471.26490713587486,10.232321603128062
472.2658846529814,9.723793743890528
473.26686217008796,9.047266862170098
474.2678396871945,8.364261974584567
475.26881720430106,7.802860215053768
476.2697947214076,7.935266862170068
477.27077223851416,9.011415444770263
478.2717497556207,9.579329423264921
479.27272727272725,8.863909090909107
480.2737047898338,8.220507331378307
481.27468230694035,7.830805474095804
482.2756598240469,7.565190615835779
483.27663734115345,7.533196480938414
484.27761485826,7.61000586510264
485.27859237536654,7.482035190615845
486.2795698924731,7.146709677419362
487.28054740957964,7.357449657868973
488.2815249266862,8.763134897360663
489.2825024437928,10.060542521994163
490.28347996089934,11.071439882697973
491.2844574780059,11.268008797653916
492.28543499511244,9.038268817204214
493.286412512219,5.932417399804447
494.28739002932554,4.604982404692094
495.2883675464321,5.020250244379281
496.28934506353863,4.657935483870931
497.2903225806452,2.9112903225806104
498.29130009775173,1.4120039100684085
499.2922776148583,0.5545288367546303
500.2932551319648,0.2936568914956153
501.2942326490714,1.1002688172043145
502.2952101661779,1.8447165200391102
503.2961876832845,2.37296187683285
504.297165200391,2.8092942326490804
505.29814271749757,3.762948191593375
506.2991202346041,5.461607038123187
507.30009775171067,6.232363636363621
508.3010752688172,4.825161290322566
509.30205278592376,3.190387096774174
510.3030303030303,1.3785454545454447
511.30400782013686,1.1427663734115487
512.3049853372434,2.853554252199343
513.3059628543499,4.310018572824946
514.3069403714564,5.951146627565887
515.307917888563,7.702958944281445
516.3088954056695,8.215506353861286
517.3098729227761,6.472567937438998
518.3108504398826,6.463703812316506
519.3118279569892,10.48681720430082
520.3128054740957,13.845096774193507
521.3137829912023,13.926041055718553
522.3147605083088,12.652228739003
523.3157380254154,11.588940371456554
524.3167155425219,10.854046920821139
525.3176930596285,11.01323949169102
526.318670576735,12.392864125122102
527.3196480938416,12.62734897360718
528.3206256109481,10.377065493646285
529.3216031280547,8.564421309872978
530.3225806451612,7.827129032258096
531.3235581622678,7.597184750733118
532.3245356793743,8.073047898338162
533.3255131964809,8.780718475073288
534.3264907135874,8.875019550342165
535.327468230694,8.38323069403718
536.3284457478005,7.879879765395931
537.3294232649071,7.351782013685279
538.3304007820136,6.808601173020568
539.3313782991202,6.260741935483911
540.3323558162267,6.253938416422206
541.3333333333333,7.544999999999871
542.3343108504398,8.84850146627562
543.3352883675464,8.996203323558207
544.3362658846529,8.464379276637375
545.3372434017595,8.127134897360715
546.338220918866,7.938239491691129
547.3391984359725,7.228739980449781
548.3401759530791,5.702190615835903
549.3411534701856,5.981218963831553
550.3421309872922,9.964401759530427
551.3431085043987,12.811639296187689
552.3440860215054,12.083021505376289
553.345063538612,10.801288367546434
554.3460410557185,11.564762463343165
555.347018572825,13.391736070381265
556.3479960899316,14.019458455522956
557.3489736070381,13.358041055718457
558.3499511241447,12.342776148582566
559.3509286412512,10.78290224828931
560.3519061583578,9.365956011730182
561.3528836754643,8.227593352883652
562.3538611925709,7.674668621700889
563.3548387096774,8.385290322580666
564.355816226784,9.446369501466291
565.3567937438905,10.27047898338222
566.3577712609971,11.095759530791806
567.3587487781036,12.5301300097752
568.3597262952102,14.531271749755646
569.3607038123167,16.170627565982418
570.3616813294233,17.288551319648107
571.3626588465298,17.483661779081118
572.3636363636364,15.97909090909089
573.3646138807429,15.29670772238515
574.3655913978495,16.654946236559155
575.366568914956,18.98994428152495
576.3675464320626,22.258206256109506
577.3685239491691,25.22984359726296
578.3695014662757,25.245079178885618
579.3704789833822,22.745823069403706
580.3714565004888,20.997549364613878
581.3724340175953,20.205287390029326
582.3734115347019,19.74060703812317
583.3743890518084,19.838182795698927
584.375366568915,19.676900293255134
585.3763440860215,18.991419354838712
586.377321603128,18.498678396871945
587.3782991202346,18.724090909090908
588.3792766373411,18.76757869012708
589.3802541544477,17.259904203323572
590.3812316715542,14.932645161290333
591.3822091886608,14.213355816226777
592.3831867057673,15.185148582600188
593.3841642228739,15.606017595307922
594.3851417399804,15.224105571847511
595.386119257087,14.685668621700888
596.3870967741935,13.881774193548395
597.3880742913001,13.171305962854357
598.3890518084066,12.712883675464326
599.3900293255132,12.148404692082122
600.3910068426197,11.105870967741954
601.3919843597263,10.215763440860218
602.3929618768328,10.822340175953048
603.3939393939394,12.459606060606038
604.3949169110459,12.50459530791792
605.3958944281525,10.686304985337278
606.396871945259,8.851358748778141
607.3978494623656,6.990258064516168
608.3988269794721,5.531348973607056
609.3998044965787,4.79592179863149
610.4007820136852,4.63561681329422
611.4017595307918,5.415818181818154
612.4027370478983,6.009773216031286
613.4037145650049,5.153176930596332
614.4046920821114,3.5545923753666044
615.405669599218,2.7807927663734104
616.4066471163245,2.7477292277614898
617.4076246334312,2.0304369501464956
618.4086021505377,0.7802473118278918
619.4095796676443,0.5887800586510812
620.4105571847508,1.5502111436951274
621.4115347018574,2.3178504398826885
622.4125122189639,2.0571818181817814
623.4134897360705,1.2233079178884565
624.414467253177,0.8408093841643003
625.4154447702836,1.5507106549364849
626.4164222873901,1.1497565982403635
627.4173998044967,0.5834310850440325
628.4183773216032,1.3226217008798358
629.4193548387098,2.1776129032258593
630.4203323558163,2.4105317693059307
631.4213098729228,1.9615679374388728
632.4222873900294,1.1142873900292274
633.423264907136,0.635104594330454
634.4242424242425,0.7286666666666106
635.425219941349,1.04538123167168
636.4261974584556,2.6209941348974417
637.4271749755621,3.6978846529814873
638.4281524926687,4.492299120234647
639.4291300097752,5.04509286412515
640.4301075268818,5.102344086021478
641.4310850439883,4.043818181818064
642.4320625610949,2.745487781036136
643.4330400782014,4.439787878788159
644.434017595308,8.947205278592639
645.4349951124145,12.013283479960977
646.4359726295211,13.349895405669676
647.4369501466276,15.24181818181833
648.4379276637342,17.907045943304162
649.4389051808407,20.958028347996283
650.4398826979473,24.505369501466475
651.4408602150538,28.177193548387294
652.4418377321604,31.84500977517126
653.4428152492669,35.7948768328448
654.4437927663735,40.439478983382465
655.44477028348,46.14823069403747
656.4457478005866,54.09177712610018
657.4467253176931,63.55660215053808
658.4477028347997,71.31973607038152
659.4486803519062,77.35797947214105
660.4496578690128,82.33073411534718
661.4506353861193,86.06499413489753
662.4516129032259,86.74222580645149
663.4525904203324,83.18361192570852
664.453567937439,78.72111339198415
665.4545454545455,73.74690909090889
666.455522971652,68.76701270772219
667.4565004887586,64.04201075268799
668.4574780058651,59.843469208211
669.4584555229717,56.558078201368424
670.4594330400782,54.27191006842614
671.4604105571848,53.74433431085047
672.4613880742913,54.75536070381236
673.4623655913979,56.658419354838806
674.4633431085044,59.50620234604116
675.464320625611,64.57629716520063
676.4652981427175,72.04888758553298
677.4662756598241,79.6918592375369
678.4672531769306,87.58397262952126
679.4682306940372,96.33702834799638
680.4692082111437,106.29528445747829
681.4701857282503,115.15712414467272
682.4711632453568,121.64060997067463
683.4721407624634,126.21938416422296
684.4731182795699,128.68113978494628
685.4740957966765,128.30543206256104
686.475073313783,123.04474780058632
687.4760508308896,114.00914271749735
688.4770283479961,102.90389931573776
689.4780058651027,90.33304985337219
690.4789833822092,80.03415053763426
691.4799608993158,71.93167644183758
692.4809384164223,63.3868592375365
693.4819159335289,54.34999804496564
694.4828934506354,47.232217008797576
695.483870967742,42.53229032258058
696.4848484848485,38.53269696969692
697.485826001955,35.01390811339194
698.4868035190616,31.75912023460407
699.4877810361681,28.729826001955004
700.4887585532747,26.12389442815247
701.4897360703812,24.22264222873899
702.4907135874878,22.777629521016607
703.4916911045943,21.56331573802541
704.4926686217009,20.444129032258058
705.4936461388074,19.083823069403707
706.494623655914,17.63919354838709
707.4956011730205,17.12753958944282
708.4965786901271,17.455891495601175
709.4975562072336,17.31300293255132
710.4985337243402,16.69790029325513
711.4995112414467,15.672701857282503
712.5004887585533,14.170234604105573
713.5014662756598,13.315788856304986
714.5024437927664,13.395235581622678
715.5034213098729,13.694012707722385
716.5043988269795,13.989293255131964
717.505376344086,13.901010752688174
718.5063538611926,13.09931378299121
719.5073313782991,11.771885630498545
720.5083088954057,9.973308895405685
721.5092864125122,8.556719452590427
722.5102639296188,9.2818240469208
723.5112414467253,11.315802541544457
724.5122189638319,12.62257869012707
725.5131964809384,13.206187683284453
726.514173998045,11.847769305962894
727.5151515151515,8.798909090909133
728.516129032258,8.14206451612901
729.5171065493646,9.788081133919817
730.5180840664711,10.206448680351919
731.5190615835777,9.22833137829914
732.5200391006842,8.228006842619761
733.5210166177908,7.430758553274696
734.5219941348973,7.028152492668624
735.5229716520039,7.117173998044961
736.5239491691104,6.813220918866097
737.524926686217,5.559671554252237
738.5259042033235,4.5732082111437045
739.5268817204301,5.020989247311799
740.5278592375366,5.943472140762446
741.5288367546432,6.11692570869991
742.5298142717497,5.849367546432069
743.5307917888563,5.597894428152499
744.5317693059628,5.462324535679376
