Raman shift,Intensity
90.6674,1844.57
92.5016,1793.86
94.3354,1787.57
96.1689,1769.86
98.0019,1764.71
99.8347,1764.71
101.667,1729.71
103.499,1729.71
105.331,1717.86
107.162,1718.71
108.993,1696.57
110.823,1674.43
112.654,1659.57
114.484,1665.29
116.313,1661.71
118.142,1623.57
119.971,1625.71
121.799,1615.86
123.627,1622.14
125.455,1608.71
127.283,1591.29
129.109,1571.14
130.936,1580
132.76,1551.86
134.586,1545.71
136.412,1552.29
138.237,1549
140.062,1549.43
141.886,1555.29
143.71,1529.57
145.532,1531.29
147.355,1529
149.179,1533.71
151.001,1535.86
152.824,1534.29
154.646,1548.86
156.465,1530.57
158.286,1538.86
160.107,1525.57
161.928,1526.29
163.748,1522.29
165.566,1522.29
167.385,1519.86
169.204,1520.29
171.023,1522.86
172.84,1509.57
174.658,1515.29
176.475,1496.14
178.293,1501.14
180.108,1502.43
181.924,1500.71
183.741,1515.57
185.554,1507.86
187.37,1515.71
189.185,1517.71
190.998,1521.29
192.813,1516.29
194.627,1511.86
196.438,1507
198.252,1522.57
200.065,1515.14
201.876,1499.29
203.688,1519
205.5,1507.86
207.31,1515.57
209.121,1509.43
210.932,1522
212.741,1522.57
214.551,1498.43
216.359,1514.43
218.168,1501.14
219.976,1499.29
221.784,1494.43
223.593,1502.29
225.399,1503.71
227.207,1503.57
229.012,1498.14
230.819,1487.86
232.624,1508.14
234.43,1514.29
236.234,1511
238.04,1511
239.843,1518.14
241.648,1524.71
243.451,1510.86
245.255,1521.71
247.057,1528.57
248.861,1523.57
250.662,1519.14
252.465,1521.43
254.265,1531
256.067,1536.57
257.867,1556.29
259.669,1531.86
261.468,1515
263.266,1540.14
265.067,1542.57
266.865,1532
268.665,1550.71
270.462,1525.86
272.259,1530.86
274.058,1531
275.854,1514.14
277.652,1515.86
279.448,1504.86
281.243,1501.57
283.04,1513
284.834,1514.14
286.628,1517.43
288.424,1508.71
290.218,1489.86
292.011,1507.57
293.806,1509.71
295.598,1499.71
297.39,1506.86
299.182,1504.43
300.976,1510.86
302.767,1516
304.557,1516
306.35,1509.29
308.14,1519.57
309.929,1510.14
311.719,1508.57
313.51,1514.29
315.298,1523.86
317.087,1532.57
318.875,1532.29
320.662,1550.86
322.452,1524.86
324.238,1529.14
326.025,1563.57
327.811,1563.14
329.597,1552.29
331.385,1524.86
333.17,1558.86
334.955,1538.14
336.739,1552.71
338.523,1548.71
340.307,1561.57
342.09,1548.29
343.875,1558.14
345.658,1556
347.441,1566.43
349.223,1565
351.004,1560.57
352.786,1562.57
354.567,1556.29
356.347,1573.29
358.128,1563.86
359.908,1569.43
361.687,1552.57
363.467,1574.14
365.248,1567.71
367.026,1568.43
368.805,1565.43
370.583,1549.43
372.36,1574.14
374.137,1570.43
375.914,1557.14
377.691,1570.29
379.467,1570.86
381.243,1568.57
383.018,1591
384.794,1582.43
386.568,1596.43
388.341,1602.29
390.115,1586.29
391.889,1604.71
393.662,1593.43
395.435,1590
397.208,1597
398.981,1612.43
400.753,1598
402.525,1592.14
404.296,1601
406.067,1604.86
407.838,1592.57
409.606,1607.71
411.376,1578.14
413.146,1578.43
414.915,1603.71
416.684,1582.57
418.453,1594
420.221,1588.14
421.987,1566.57
423.755,1591.71
425.522,1590.14
427.289,1595.57
429.056,1586.29
430.82,1590.14
432.586,1585.29
434.352,1595
436.117,1592
437.882,1577.71
439.645,1596.43
441.409,1587.86
443.173,1581.14
444.934,1591.71
446.698,1602.71
448.461,1579.86
450.223,1590
451.983,1617.43
453.745,1607.71
455.507,1597.71
457.266,1605
459.027,1599.86
460.787,1606.43
462.548,1620.71
464.306,1599.57
466.065,1609.57
467.822,1631
469.581,1628.57
471.34,1632.71
473.096,1611.14
474.854,1625.57
476.611,1637.71
478.366,1637.86
480.123,1646.14
481.877,1635.14
483.634,1646.29
485.389,1621.57
487.143,1657.29
488.898,1649.43
490.651,1645.57
492.405,1641.29
494.157,1652.71
495.911,1640.57
497.663,1642.43
499.416,1644.86
501.169,1640.43
502.919,1639.43
504.671,1656.14
506.421,1642.14
508.172,1621.71
509.921,1628.43
511.67,1636.14
513.421,1635.43
515.169,1624.43
516.918,1630.43
518.666,1621.43
520.415,1612.71
522.162,1609.43
523.91,1625.29
525.656,1611.71
527.402,1616.71
529.149,1600.57
530.894,1619
532.641,1595.57
534.386,1615.71
536.13,1614.86
537.875,1609.14
539.619,1603.71
541.364,1611.86
543.107,1600.71
544.849,1572
546.593,1611.14
548.335,1615
550.076,1595.86
551.819,1609.14
553.56,1605.57
555.301,1598.71
557.041,1602.14
558.782,1613.14
560.522,1621.86
562.261,1617
564.002,1608.29
565.74,1605.14
567.478,1623.14
569.216,1637.29
570.955,1623
572.693,1618.29
574.429,1617.57
576.166,1617.57
577.902,1625.57
579.64,1619.57
581.375,1629.43
583.11,1601.86
584.845,1608.86
586.579,1594.43
588.315,1614.43
590.049,1601.86
591.783,1595.86
593.516,1606.14
595.249,1606.71
596.981,1588.71
598.713,1569.86
600.447,1577.29
602.178,1587.71
603.909,1581.43
605.64,1605.14
607.371,1583.57
609.101,1564.57
610.831,1560.71
612.56,1573
614.289,1556.57
616.018,1565.43
617.747,1562.43
619.475,1572.14
621.203,1552.43
622.93,1549.29
624.657,1560.71
626.384,1566.86
628.111,1542.29
629.837,1561.86
631.563,1568.86
633.288,1567
635.014,1578.86
636.739,1584.29
638.463,1607
640.187,1585.71
641.911,1563.57
643.635,1562.43
645.358,1555.43
647.081,1562.57
648.804,1553.57
650.526,1535
652.248,1544.43
653.969,1551.43
655.691,1551.86
657.41,1545.29
659.13,1563.43
660.851,1542.43
662.571,1533.43
664.29,1543.43
666.01,1549
667.729,1558.29
669.445,1541.71
671.164,1535.71
672.882,1533.29
674.599,1543
676.317,1529
678.032,1515.71
679.748,1524.14
681.465,1506.57
683.181,1507.43
684.897,1516.29
686.61,1508.86
688.325,1499.43
690.04,1514.14
691.754,1507
693.467,1502
695.18,1510
696.894,1494
698.605,1491.43
700.318,1477.71
702.03,1479.86
703.742,1492.71
705.452,1495.14
707.164,1493
708.875,1491.71
710.584,1476.71
712.294,1495.29
714.005,1482.43
715.713,1476.43
717.422,1468.71
719.13,1481.43
720.838,1492.14
722.547,1481
724.253,1490.71
725.961,1495
727.667,1491.14
729.374,1480.43
731.081,1475.29
732.786,1512
734.492,1510.14
736.196,1516.71
737.902,1523.86
739.606,1497.57
741.311,1483.71
743.013,1497.14
744.718,1511.71
746.42,1501.43
748.124,1498.71
749.825,1517.71
751.528,1522.29
753.229,1515.29
754.932,1518.71
756.632,1503.43
758.334,1514.57
760.033,1511.57
761.734,1514.71
763.433,1516.57
765.134,1520.57
766.832,1497
768.53,1508.43
770.23,1508.14
771.927,1519.57
773.626,1524.14
775.323,1499.43
777.019,1499.14
778.717,1507.43
780.413,1500.43
782.108,1491.43
783.805,1500.29
785.5,1490.71
787.194,1492
788.89,1497
790.584,1483.14
792.278,1496.14
793.973,1501.14
795.666,1498.43
797.358,1492.14
799.052,1498.86
800.744,1508.43
802.436,1512
804.127,1522.29
805.82,1507
807.51,1520.71
809.201,1520.71
810.891,1519.71
812.58,1536.43
814.272,1526
815.961,1521
817.649,1534.86
819.338,1524
821.026,1537.43
822.716,1528.86
824.403,1531.57
826.09,1529.86
827.777,1531.29
829.463,1503.14
831.15,1532.29
832.837,1515.71
834.523,1511.14
836.208,1524.57
837.893,1516.43
839.578,1519.57
841.262,1516.86
842.946,1495
844.629,1503.71
846.313,1497
847.996,1510.14
849.678,1499.71
851.361,1491.86
853.045,1488.43
854.727,1510.57
856.408,1491.86
858.089,1477.71
859.77,1497.14
861.45,1479.57
863.13,1486.71
864.81,1489.14
866.49,1497
868.169,1464.86
869.846,1490.43
871.525,1482.43
873.203,1483
874.881,1470.86
876.558,1475.43
878.236,1468.29
879.913,1489.43
881.589,1458
883.266,1471.43
884.942,1465.29
886.618,1459.71
888.293,1465.43
889.966,1459
891.641,1462.57
893.316,1462.29
894.99,1463.57
896.664,1462.86
898.337,1463.14
900.01,1448.86
901.682,1470.57
903.354,1462.57
905.026,1460.86
906.698,1460
908.37,1471
910.04,1464.29
911.711,1464.71
913.381,1470.14
915.052,1469.29
916.72,1480.14
918.39,1475.43
920.059,1453.57
921.728,1479.57
923.395,1483.29
925.064,1462.57
926.732,1481.29
928.4,1490.14
930.066,1490.43
931.733,1506.14
933.4,1495.43
935.065,1504.14
936.731,1500.43
938.397,1511.57
940.061,1505
941.727,1516.29
943.392,1512.43
945.055,1514.57
946.719,1506
948.382,1514.57
950.045,1509.14
951.709,1518.71
953.37,1509.86
955.033,1527.14
956.694,1518.14
958.356,1524.86
960.016,1521.71
961.678,1522.14
963.338,1519.43
964.999,1525
966.66,1515.43
968.318,1524.29
969.978,1516.71
971.636,1533.57
973.296,1535.29
974.953,1539.43
976.612,1551
978.269,1537.43
979.925,1551.86
981.583,1566.86
983.239,1556.43
984.896,1563.86
986.552,1547.14
988.208,1553.29
989.863,1541.14
991.519,1549.43
993.173,1543.71
994.827,1557.57
996.482,1548.86
998.135,1542.43
999.788,1540.29
1001.44,1535.57
1003.09,1534
1004.75,1519.71
1006.4,1539.57
1008.05,1535.29
1009.7,1544
1011.35,1548.43
1013,1552.86
1014.65,1547.29
1016.31,1551
1017.95,1531.14
1019.6,1532.57
1021.25,1543.43
1022.9,1547.14
1024.55,1558.14
1026.2,1563.43
1027.85,1572.43
1029.5,1555.14
1031.14,1575.71
1032.79,1561.14
1034.44,1576.43
1036.08,1583.29
1037.73,1586.86
1039.37,1596.57
1041.02,1590.57
1042.66,1576.86
1044.31,1600.43
1045.95,1597.43
1047.6,1597
1049.24,1609.43
1050.88,1617
1052.53,1621.29
1054.17,1619
1055.81,1640.14
1057.46,1644.43
1059.1,1649.57
1060.74,1646
1062.38,1656
1064.02,1659.43
1065.66,1662.86
1067.3,1677.43
1068.94,1651.43
1070.58,1668.43
1072.22,1662.14
1073.86,1669
1075.5,1673.14
1077.14,1681
1078.77,1675.43
1080.41,1684.86
1082.05,1678.57
1083.69,1685.14
1085.32,1678.43
1086.96,1686
1088.6,1683.86
1090.23,1658.14
1091.87,1663.29
1093.5,1658
1095.14,1652.29
1096.77,1646.71
1098.41,1656.57
1100.04,1666.71
1101.67,1646
1103.31,1649.29
1104.94,1649.43
1106.57,1655.86
1108.21,1647.57
1109.84,1657.71
1111.47,1644
1113.1,1653.71
1114.73,1635.71
1116.36,1623.14
1117.99,1602.86
1119.62,1592
1121.25,1572.57
1122.88,1573.29
1124.51,1541.71
1126.14,1551.86
1127.77,1521.29
1129.4,1534.57
1131.03,1516.29
1132.65,1537.14
1134.28,1517.71
1135.91,1527.86
1137.53,1504.29
1139.16,1488.29
1140.79,1503.57
1142.41,1517.57
1144.04,1502.14
1145.66,1488.14
1147.29,1503.57
1148.91,1493.29
1150.54,1492.43
1152.16,1498.43
1153.78,1487.71
1155.41,1483
1157.03,1493
1158.65,1482.86
1160.27,1480.86
1161.89,1480.43
1163.52,1459.71
1165.14,1489.29
1166.76,1471.14
1168.38,1491.71
1170,1485
1171.62,1469
1173.24,1484.14
1174.86,1480.14
1176.48,1486.86
1178.1,1487.57
1179.72,1506.71
1181.33,1507
1182.95,1501.57
1184.57,1515
1186.19,1518.43
1187.8,1498.86
1189.42,1493.14
1191.04,1473.86
1192.65,1488.71
1194.27,1463
1195.88,1450.14
1197.5,1467.71
1199.11,1464.43
1200.73,1454.71
1202.34,1454.14
1203.96,1451.71
1205.57,1439.57
1207.18,1449.57
1208.8,1457.14
1210.41,1450.14
1212.02,1446.43
1213.63,1454.71
1215.24,1446
1216.86,1466.14
1218.47,1456.29
1220.08,1459.86
1221.69,1452
1223.3,1461.71
1224.91,1460.43
1226.52,1446.43
1228.13,1446
1229.73,1442
1231.34,1441.29
1232.95,1432.86
1234.56,1442.57
1236.17,1428
1237.77,1424.71
1239.38,1428.29
1240.99,1428.71
1242.59,1438.57
1244.2,1424.86
1245.81,1433
1247.41,1431
1249.02,1430.29
1250.62,1430.86
1252.23,1417.86
1253.83,1435
1255.43,1422.43
1257.04,1410.29
1258.64,1411.57
1260.24,1409
1261.85,1426
1263.45,1406.57
1265.05,1414.43
1266.65,1415.71
1268.25,1409.71
1269.86,1413.43
1271.46,1414.14
1273.06,1414
1274.66,1404.86
1276.26,1413.29
1277.86,1432.43
1279.46,1418
1281.05,1415
1282.65,1411.14
1284.25,1420.71
1285.85,1435.29
1287.45,1432
1289.04,1427.86
1290.64,1440.57
1292.24,1445.86
1293.84,1454.14
1295.43,1463.29
1297.03,1435
1298.62,1440
1300.22,1448.57
1301.81,1431.43
1303.41,1443.86
1305,1446.57
1306.6,1449.86
1308.19,1453.57
1309.78,1436.14
1311.38,1440
1312.97,1444.86
1314.56,1426.71
1316.15,1439.29
1317.75,1432.29
1319.34,1426.86
1320.93,1425.43
1322.52,1410.43
1324.11,1436.14
1325.7,1421.29
1327.29,1415.29
1328.88,1414.71
1330.47,1423.86
1332.06,1426.29
1333.65,1426.29
1335.24,1416
1336.83,1400
1338.41,1411.71
1340,1405.43
1341.59,1409.29
1343.17,1405.86
1344.76,1401.43
1346.35,1397
1347.93,1385.43
1349.52,1380
1351.11,1393.57
1352.69,1399
1354.28,1392.29
1355.86,1376
1357.44,1382.57
1359.03,1383.57
1360.61,1386.57
1362.2,1385.14
1363.78,1383
1365.36,1382.14
1366.94,1392.29
1368.53,1391.71
1370.11,1378.14
1371.69,1369.14
1373.27,1379.71
1374.85,1391.71
1376.43,1386.71
1378.01,1382.57
1379.59,1401.29
1381.17,1374.29
1382.75,1377
1384.33,1375.57
1385.91,1381.14
1387.49,1403.14
1389.07,1374
1390.65,1394.14
1392.22,1387.71
1393.8,1376.57
1395.38,1378.14
1396.95,1385.86
1398.53,1374.86
1400.11,1391.71
1401.68,1387.29
1403.26,1399.57
1404.83,1386.14
1406.41,1394.86
1407.98,1394.86
1409.56,1395.86
1411.13,1388.86
1412.7,1394
1414.28,1403.43
1415.85,1390.57
1417.42,1393.29
1419,1403
1420.57,1395.86
1422.14,1386.29
1423.71,1390.43
1425.28,1383
1426.85,1390.71
1428.42,1399.43
1429.99,1408.14
1431.57,1405.57
1433.14,1394.71
1434.7,1408.71
1436.27,1403.43
1437.84,1410.29
1439.41,1400.43
1440.98,1407.29
1442.55,1408.29
1444.12,1408.43
1445.68,1407.14
1447.25,1416.43
1448.82,1407.71
1450.38,1405.43
1451.95,1406.43
1453.52,1402.86
1455.08,1398
1456.65,1410.29
1458.21,1403.29
1459.78,1395
1461.34,1394.43
1462.91,1397.14
1464.47,1396.29
1466.03,1393.43
1467.6,1381.14
1469.16,1398.14
1470.72,1380
1472.28,1379
1473.85,1372.29
1475.41,1384.43
1476.97,1378
1478.53,1375.57
1480.09,1373.86
1481.65,1372
1483.21,1368.43
1484.77,1375
1486.33,1369.29
1487.89,1375.57
1489.45,1356.14
1491.01,1353.29
1492.57,1363.57
1494.13,1349.71
1495.68,1374.71
1497.24,1357.71
1498.8,1362.86
1500.35,1360.29
1501.91,1359
1503.47,1356.57
1505.03,1360.43
1506.58,1362.71
1508.14,1364.29
1509.69,1369.29
1511.25,1360.29
1512.8,1366.57
1514.35,1350.43
1515.91,1367.14
1517.46,1362.71
1519.02,1362.57
1520.57,1357.14
1522.12,1364.86
1523.67,1367.29
1525.23,1371.57
1526.78,1371.86
1528.33,1358.14
1529.88,1380.71
1531.43,1363.71
1532.98,1360.86
1534.53,1370.29
1536.09,1362.29
1537.63,1364.43
1539.18,1367.71
1540.73,1367.43
1542.28,1383.57
1543.83,1378
1545.38,1380.29
1546.93,1368.14
1548.47,1370.86
1550.02,1372.57
1551.57,1366.29
1553.12,1372.57
1554.67,1372.29
1556.21,1362.43
1557.76,1375
1559.3,1382.29
1560.85,1371.29
1562.39,1378.14
1563.94,1368
1565.48,1373.86
1567.03,1363.29
1568.57,1374.86
1570.11,1367.43
1571.66,1371.86
1573.2,1375.29
1574.75,1367.57
1576.29,1388.14
1577.83,1380.29
1579.37,1383
1580.91,1381.86
1582.46,1377.86
1584,1378.43
1585.54,1376.29
1587.08,1378.71
1588.62,1368.57
1590.16,1366.86
1591.7,1354.71
1593.24,1365.14
1594.78,1378.57
1596.32,1388.71
1597.85,1377.43
1599.39,1405.14
1600.93,1399
1602.47,1424.29
1604,1425.57
1605.54,1427.57
1607.08,1434.86
1608.62,1441
1610.15,1442
1611.69,1434.14
1613.22,1418.29
1614.76,1424.71
1616.29,1405
1617.83,1384.14
1619.36,1378.14
1620.9,1364.86
1622.43,1367.86
1623.96,1373.71
1625.5,1366.86
1627.03,1372.43
1628.56,1366.43
1630.1,1370.14
1631.63,1381.43
1633.16,1361.57
1634.69,1354.86
1636.22,1352
1637.75,1368.71
1639.28,1370.29
1640.81,1380.86
1642.34,1365.57
1643.87,1362.86
1645.4,1370.57
1646.93,1371.29
1648.46,1392.86
1649.99,1375.29
1651.52,1370.43
1653.05,1381.57
1654.57,1370
1656.1,1373.86
1657.63,1362.86
1659.16,1374
1660.68,1369.14
1662.21,1371.86
1663.74,1367.86
1665.26,1363.43
1666.79,1366
1668.31,1368.29
1669.84,1376.43
1671.36,1366.57
1672.89,1370.71
1674.41,1362
1675.93,1357
1677.46,1382.57
1678.98,1370.57
1680.5,1370.29
1682.03,1377.71
1683.55,1374
1685.07,1375
1686.59,1375.14
1688.11,1367.86
1689.63,1357.71
1691.15,1368.57
1692.67,1364.71
1694.2,1362.71
1695.72,1346.29
1697.23,1350.29
1698.75,1367.14
1700.27,1360.29
1701.79,1355.57
1703.31,1355.71
1704.83,1354.43
1706.35,1346.86
1707.87,1359.86
1709.38,1368.71
1710.9,1363.86
1712.42,1351.86
1713.93,1357.43
1715.45,1355.57
1716.97,1356.14
1718.48,1352.57
1720,1353.43
1721.51,1362
1723.03,1356
1724.54,1352.14
1726.06,1363.57
1727.57,1350
1729.08,1340.57
1730.6,1345.86
1732.11,1340.86
1733.62,1342.86
1735.14,1353.29
1736.65,1359.86
1738.16,1341.14
1739.67,1349.14
1741.18,1358
1742.69,1347.86
1744.21,1346.43
1745.72,1339.14
1747.23,1345.71
1748.74,1345.71
1750.25,1334.14
1751.76,1339.71
1753.27,1349.43
1754.78,1338.86
1756.28,1346.43
1757.79,1335.86
1759.3,1350
1760.81,1366.14
1762.31,1352.43
1763.82,1344.71
1765.33,1354.71
1766.84,1357.57
1768.34,1352.57
1769.85,1356.29
1771.35,1338.57
1772.86,1364.57
1774.37,1348.86
1775.87,1348.43
1777.37,1366.29
1778.88,1365.57
1780.38,1346.14
1781.89,1361.29
1783.39,1353.86
1784.89,1346.43
1786.4,1357.86
1787.9,1354.71
1789.4,1349
