Raman shift,Intensity
753.60413,809.38661
755.67159,809.38661
757.73905,809.38661
759.80651,809.38661
761.87398,809.38661
763.94144,810.09468
766.0089,810.09468
768.07636,810.09468
770.14383,810.09468
772.21129,810.09468
774.27875,810.09468
776.34621,810.09468
778.41368,810.09468
780.48114,810.09468
782.5486,810.09468
784.61606,809.38661
786.68353,809.38661
788.75099,809.38661
790.81845,809.38661
792.88591,809.38661
794.95338,809.38661
797.02084,809.38661
799.0883,809.38661
801.15576,809.38661
803.22323,809.38661
805.29069,809.38661
807.35815,809.38661
809.42561,809.38661
811.49308,809.38661
813.56054,809.38661
815.628,809.38661
817.69546,809.38661
819.76293,809.38661
821.83039,809.38661
823.89785,809.38661
825.96531,809.38661
828.03278,809.38661
830.10024,809.38661
832.1677,809.38661
834.23516,809.38661
836.30262,809.38661
838.37009,809.38661
840.43755,809.38661
842.50501,809.38661
844.57247,809.38661
846.63994,809.38661
848.7074,809.38661
850.77486,809.38661
852.84232,809.38661
854.90979,809.38661
856.97725,809.38661
859.04471,809.38661
861.11217,809.38661
863.17964,809.38661
865.2471,809.38661
867.31456,809.38661
869.38202,809.38661
871.44949,809.38661
873.51695,809.38661
875.58441,809.38661
877.65187,809.38661
879.71934,809.38661
881.7868,809.38661
883.85426,809.38661
885.92172,809.38661
887.98919,809.38661
890.05665,809.38661
892.12411,809.38661
894.19157,809.38661
896.25904,809.38661
898.3265,809.38661
900.39396,809.38661
902.46142,809.38661
904.52889,809.38661
906.59635,809.38661
908.66381,809.38661
910.73127,808.67854
912.79874,807.97046
914.8662,807.97046
916.93366,808.67854
919.00112,809.38661
921.06859,809.38661
923.13605,810.09468
925.20351,810.09468
927.27097,810.09468
929.33844,810.09468
931.4059,810.09468
933.47336,810.80276
935.54082,810.80276
937.60829,810.80276
939.67575,810.80276
941.74321,810.80276
943.81067,810.80276
945.87814,810.80276
947.9456,810.80276
950.01306,810.80276
952.08052,810.80276
954.14799,810.80276
956.21545,810.80276
958.28291,810.80276
960.35037,810.80276
962.41784,810.80276
964.4853,810.80276
966.55276,810.80276
968.62022,810.80276
970.68769,810.80276
972.75515,810.80276
974.82261,810.80276
976.89007,810.80276
978.95754,810.80276
981.025,810.80276
983.09246,811.51083
985.15992,811.51083
987.22739,811.51083
989.29485,811.51083
991.36231,811.51083
993.42977,810.80276
995.49724,811.51083
997.5647,811.51083
999.63216,811.51083
1001.69962,811.51083
1003.76709,812.2189
1005.83455,812.2189
1007.90201,812.2189
1009.96947,812.2189
1012.03694,812.2189
1014.1044,812.2189
1016.17186,812.2189
1018.23932,812.2189
1020.30679,812.92698
1022.37425,812.92698
1024.44171,812.92698
1026.50917,812.2189
1028.57663,811.51083
1028.57663,812.2189
1028.57663,812.92698
1030.6441,812.92698
1032.71156,812.92698
1034.77902,812.92698
1036.84648,812.92698
1038.91395,812.92698
1040.98141,812.92698
1043.04887,812.92698
1043.04887,813.63505
1045.11633,813.63505
1045.11633,832.04496
1045.11633,829.92074
1045.11633,829.21267
1045.11633,828.5046
1045.11633,832.75304
1047.1838,817.17542
1047.1838,818.59157
1047.1838,833.46111
1047.1838,817.88349
1047.1838,814.34313
1047.1838,831.33689
1047.1838,830.62882
1047.1838,815.0512
1047.1838,823.54808
1047.1838,816.46735
1047.1838,827.79652
1047.1838,815.75927
1047.1838,834.87726
1047.1838,834.16918
1049.25126,839.83377
1049.25126,824.25615
1049.25126,819.29964
1049.25126,822.84001
1049.25126,841.95799
1049.25126,842.66607
1049.25126,826.38037
1049.25126,836.2934
1049.25126,835.58533
1049.25126,827.08845
1051.31872,848.33065
1051.31872,824.96423
1051.31872,820.00771
1051.31872,837.00148
1051.31872,847.62258
1051.31872,822.13193
1051.31872,839.1257
1051.31872,825.6723
1051.31872,840.54185
1051.31872,841.24992
1051.31872,849.03873
1051.31872,845.49836
1051.31872,843.37414
1051.31872,844.08221
1051.31872,844.79029
1053.38618,837.70955
1053.38618,846.20643
1053.38618,846.91451
1053.38618,821.42386
1053.38618,820.71579
1053.38618,838.41762
1053.38618,849.7468
1053.38618,850.45487
1053.38618,851.16295
1053.38618,851.87102
1053.38618,852.57909
1053.38618,854.70332
1053.38618,853.99524
1053.38618,855.41139
1053.38618,856.11946
1055.45365,853.28717
1055.45365,856.82754
1055.45365,857.53561
1055.45365,858.24368
1055.45365,858.95176
1055.45365,859.65983
1055.45365,863.2002
1055.45365,861.07598
1055.45365,861.78405
1055.45365,862.49212
1057.52111,860.3679
1057.52111,863.90827
1057.52111,864.61634
1057.52111,865.32442
1057.52111,866.03249
1057.52111,866.74057
1057.52111,869.57286
1057.52111,868.15671
1057.52111,868.86479
1059.58857,867.44864
1059.58857,870.28093
1059.58857,870.98901
1059.58857,871.69708
1059.58857,872.40515
1059.58857,875.94552
1059.58857,875.23745
1059.58857,874.52937
1061.65603,873.8213
1061.65603,873.11323
1061.65603,876.65359
1061.65603,877.36167
1061.65603,878.06974
1061.65603,878.77781
1061.65603,879.48589
1061.65603,881.61011
1061.65603,880.90204
1061.65603,882.31818
1063.7235,880.19396
1063.7235,883.02626
1063.7235,883.73433
1063.7235,884.4424
1063.7235,885.15048
1063.7235,885.85855
1063.7235,890.10699
1063.7235,889.39892
1063.7235,887.98277
1063.7235,888.69084
1065.79096,887.2747
1065.79096,886.56662
1065.79096,890.81506
1065.79096,891.52314
1065.79096,892.23121
1065.79096,892.93929
1065.79096,894.35543
1065.79096,895.06351
1067.85842,893.64736
1067.85842,895.77158
1067.85842,896.47965
1067.85842,897.18773
1067.85842,897.8958
1067.85842,899.31195
1069.92588,898.60387
1069.92588,900.02002
1071.99335,900.72809
1071.99335,901.43617
1071.99335,902.14424
1071.99335,902.85231
1071.99335,903.56039
1071.99335,904.26846
1074.06081,904.97653
1074.06081,905.68461
1074.06081,906.39268
1074.06081,907.80883
1076.12827,907.10076
1076.12827,908.5169
1078.19573,909.22498
1078.19573,911.3492
1078.19573,912.05727
1080.2632,911.3492
1080.2632,909.93305
1080.2632,910.64112
1084.39812,909.93305
1084.39812,909.22498
1086.46558,908.5169
1086.46558,909.22498
1088.53305,907.80883
1088.53305,907.10076
1088.53305,909.22498
1090.60051,906.39268
1090.60051,909.93305
1090.60051,903.56039
1090.60051,904.26846
1090.60051,904.97653
1092.66797,902.85231
1092.66797,901.43617
1092.66797,909.93305
1092.66797,905.68461
1092.66797,904.97653
1094.73543,909.93305
1094.73543,902.14424
1094.73543,900.72809
1096.8029,909.93305
1096.8029,895.77158
1096.8029,896.47965
1096.8029,900.02002
1096.8029,899.31195
1096.8029,898.60387
1096.8029,897.8958
1096.8029,897.18773
1098.87036,909.93305
1098.87036,895.06351
1100.93782,909.93305
1100.93782,894.35543
1103.00528,893.64736
1103.00528,892.93929
1105.07275,892.23121
1105.07275,890.81506
1105.07275,886.56662
1105.07275,890.10699
1107.14021,889.39892
1107.14021,888.69084
1107.14021,887.98277
1107.14021,887.2747
1107.14021,891.52314
1107.14021,885.85855
1107.14021,885.15048
1107.14021,884.4424
1107.14021,883.73433
1107.14021,880.19396
1107.14021,880.90204
1109.20767,881.61011
1109.20767,882.31818
1109.20767,883.02626
1109.20767,879.48589
1109.20767,878.77781
1109.20767,878.06974
1109.20767,877.36167
1109.20767,873.11323
1111.27513,876.65359
1111.27513,875.23745
1111.27513,874.52937
1111.27513,873.8213
1111.27513,875.94552
1111.27513,872.40515
1111.27513,871.69708
1111.27513,870.98901
1111.27513,870.28093
1111.27513,869.57286
1111.27513,868.86479
1111.27513,829.92074
1111.27513,829.21267
1111.27513,865.32442
1113.3426,866.03249
1113.3426,866.74057
1113.3426,864.61634
1113.3426,863.90827
1113.3426,863.2002
1113.3426,862.49212
1113.3426,861.78405
1113.3426,828.5046
1113.3426,868.15671
1113.3426,830.62882
1113.3426,867.44864
1113.3426,825.6723
1113.3426,827.79652
1113.3426,827.08845
1113.3426,826.38037
1115.41006,861.07598
1115.41006,824.96423
1115.41006,853.99524
1115.41006,824.25615
1115.41006,823.54808
1115.41006,822.84001
1115.41006,857.53561
1115.41006,858.24368
1115.41006,831.33689
1115.41006,860.3679
1115.41006,859.65983
1117.47752,858.95176
1117.47752,832.04496
1117.47752,853.28717
1117.47752,851.87102
1117.47752,848.33065
1117.47752,854.70332
1117.47752,822.13193
1117.47752,856.82754
1117.47752,856.11946
1117.47752,855.41139
1117.47752,851.16295
1117.47752,852.57909
1119.54498,821.42386
1119.54498,845.49836
1119.54498,846.20643
1119.54498,850.45487
1119.54498,849.7468
1119.54498,849.03873
1119.54498,820.00771
1119.54498,834.16918
1119.54498,846.91451
1119.54498,832.75304
1119.54498,842.66607
1119.54498,847.62258
1119.54498,819.29964
1121.61245,834.87726
1121.61245,844.79029
1121.61245,837.00148
1121.61245,837.70955
1121.61245,843.37414
1121.61245,833.46111
1121.61245,839.83377
1121.61245,840.54185
1121.61245,841.24992
1121.61245,841.95799
1121.61245,820.71579
1121.61245,844.08221
1121.61245,818.59157
1123.67991,838.41762
1123.67991,836.2934
1123.67991,835.58533
1123.67991,839.1257
1123.67991,818.59157
1125.74737,817.88349
1127.81483,817.17542
1129.8823,816.46735
1131.94976,816.46735
1131.94976,815.75927
1134.01722,815.75927
1134.01722,815.0512
1136.08468,815.0512
1138.15215,815.0512
1138.15215,814.34313
1140.21961,814.34313
1140.21961,813.63505
1142.28707,813.63505
1142.28707,812.92698
1144.35453,812.92698
1144.35453,812.2189
1146.422,812.2189
1146.422,811.51083
1146.422,810.80276
1148.48946,811.51083
1150.55692,812.2189
1152.62438,811.51083
1154.69185,811.51083
1156.75931,811.51083
1158.82677,811.51083
1160.89423,811.51083
1162.9617,810.80276
1165.02916,811.51083
1167.09662,811.51083
1169.16408,811.51083
1171.23155,811.51083
1173.29901,811.51083
1175.36647,810.80276
1177.43393,810.80276
1179.5014,810.80276
1181.56886,810.80276
1183.63632,810.80276
1185.70378,810.80276
1187.77125,810.80276
1189.83871,810.80276
1191.90617,810.80276
1193.97363,810.80276
1196.0411,810.80276
1198.10856,810.80276
1200.17602,810.09468
1202.24348,809.38661
1204.31095,808.67854
1206.37841,807.97046
1208.44587,807.97046
1210.51333,807.97046
1212.5808,807.97046
1214.64826,807.97046
1216.71572,807.97046
1218.78318,807.97046
1220.85064,807.97046
1222.91811,807.97046
1224.98557,807.97046
1227.05303,807.97046
1229.12049,807.97046
1231.18796,807.97046
1233.25542,807.97046
1235.32288,807.97046
1237.39034,807.97046
1239.45781,807.97046
1241.52527,807.97046
1243.59273,807.97046
1245.66019,807.97046
1247.72766,807.97046
1249.79512,807.97046
1251.86258,807.97046
1253.93004,807.97046
1255.99751,807.97046
1258.06497,807.97046
1260.13243,807.97046
1262.19989,807.97046
1264.26736,807.97046
1266.33482,807.97046
1268.40228,807.97046
1270.46974,807.97046
1272.53721,807.97046
1274.60467,807.97046
1276.67213,807.97046
1278.73959,807.97046
1280.80706,807.97046
1282.87452,807.97046
1284.94198,807.97046
1287.00944,807.97046
1289.07691,807.97046
1291.14437,807.97046
1293.21183,807.97046
1295.27929,807.97046
1297.34676,807.97046
1299.41422,807.97046
1301.48168,807.97046
1303.54914,807.97046
1305.61661,807.97046
1307.68407,807.97046
1309.75153,807.97046
1311.81899,807.97046
1313.88646,807.97046
1315.95392,807.97046
1318.02138,807.97046
1320.08884,807.97046
1322.15631,807.97046
1324.22377,807.97046
1326.29123,807.97046
1328.35869,807.97046
1330.42616,807.97046
1332.49362,807.97046
1334.56108,807.97046
1336.62854,807.97046
1338.69601,807.97046
1340.76347,807.97046
1342.83093,807.97046
1344.89839,807.97046
1346.96586,807.97046
1349.03332,807.97046
1351.10078,807.97046
1353.16824,807.97046
1355.23571,807.97046
1357.30317,807.97046
1359.37063,807.97046
1361.43809,807.97046
1363.50556,807.97046
1365.57302,807.97046
1367.64048,807.97046
1369.70794,807.97046
1371.77541,807.97046
1373.84287,807.97046
1375.91033,807.97046
1377.97779,807.97046
1380.04526,808.67854
1382.11272,808.67854
1384.18018,808.67854
1386.24764,809.38661
1388.31511,810.09468
1390.38257,810.80276
1392.45003,810.80276
1394.51749,810.09468
1396.58496,809.38661
1398.65242,810.09468
1400.71988,810.09468
1400.71988,810.80276
1402.78734,811.51083
1402.78734,812.2189
1402.78734,812.92698
1402.78734,813.63505
1402.78734,814.34313
1404.85481,814.34313
1406.92227,813.63505
1408.98973,812.92698
1411.05719,812.2189
1413.12465,811.51083
1415.19212,812.2189
1417.25958,812.2189
1419.32704,812.2189
1421.3945,812.92698
1423.46197,813.63505
1425.52943,814.34313
1427.59689,814.34313
1429.66435,814.34313
1431.73182,813.63505
1433.79928,812.92698
1435.86674,813.63505
1437.9342,813.63505
1440.00167,812.92698
1442.06913,812.92698
1444.13659,812.92698
1446.20405,812.92698
1448.27152,812.2189
1450.33898,812.2189
1452.40644,812.2189
1454.4739,811.51083
1456.54137,811.51083
1458.60883,811.51083
1460.67629,811.51083
1462.74375,810.80276
1464.81122,810.09468
1466.87868,810.80276
1468.94614,810.80276
1471.0136,810.80276
1473.08107,810.80276
1475.14853,810.80276
1477.21599,810.80276
1479.28345,810.80276
1481.35092,810.80276
1483.41838,810.80276
1485.48584,810.80276
1487.5533,810.09468
1489.62077,809.38661
1491.68823,808.67854
1493.75569,807.97046
1495.82315,807.97046
1497.89062,807.97046
1499.95808,807.97046
1502.02554,807.97046
1504.093,807.97046
1506.16047,807.97046
1508.22793,807.97046
1510.29539,807.97046
1512.36285,807.97046
1514.43032,807.97046
1516.49778,807.97046
1518.56524,807.97046
1520.6327,807.97046
1522.70017,807.97046
1524.76763,807.97046
1526.83509,807.97046
1528.90255,807.97046
1530.97002,807.97046
1533.03748,807.97046
1535.10494,807.97046
1537.1724,807.97046
1539.23987,807.97046
1541.30733,807.97046
1543.37479,807.97046
1545.44225,807.97046
1547.50972,807.97046
1549.57718,807.97046
1551.64464,807.97046
1553.7121,807.97046
1555.77957,807.97046
1557.84703,807.97046
1559.91449,807.97046
1561.98195,807.97046
1564.04942,807.97046
1566.11688,807.97046
1568.18434,807.97046
1570.2518,807.97046
1572.31927,807.97046
1574.38673,807.97046
1576.45419,807.97046
1578.52165,807.97046
1580.58912,807.97046
1582.65658,807.97046
1584.72404,807.97046
1586.7915,807.97046
1588.85897,807.97046
1590.92643,807.97046
1592.99389,807.97046
1595.06135,807.97046
1597.12882,807.97046
1599.19628,807.97046
1601.26374,807.97046
1603.3312,807.97046
1605.39867,807.97046
1607.46613,807.97046
1609.53359,807.97046
1611.60105,807.97046
1613.66851,807.97046
1615.73598,807.97046
1617.80344,807.97046
1619.8709,807.97046
1621.93836,807.97046
1624.00583,807.97046
1626.07329,807.97046
1628.14075,807.97046
1630.20821,807.97046
1632.27568,807.97046
1634.34314,807.97046
1636.4106,807.97046
1638.47806,807.97046
1640.54553,807.97046
1642.61299,807.97046
1644.68045,807.97046
1646.74791,807.97046
1648.81538,807.97046
1650.88284,807.97046
1652.9503,807.97046
1655.01776,807.97046
1657.08523,807.97046
1659.15269,807.97046
1661.22015,807.97046
1663.28761,807.97046
1665.35508,807.97046
1667.42254,807.97046
1669.49,807.97046
1671.55746,807.97046
1673.62493,807.97046
1675.69239,807.97046
1677.75985,807.97046
1679.82731,807.97046
1681.89478,807.97046
1683.96224,807.97046
1686.0297,808.67854
1688.09716,808.67854
1690.16463,808.67854
1692.23209,809.38661
1694.29955,809.38661
1696.36701,809.38661
1696.36701,810.09468
1696.36701,810.80276
1698.43448,810.80276
1700.50194,810.80276
1702.5694,810.80276
1702.5694,811.51083
1704.63686,811.51083
1704.63686,812.2189
1706.70433,812.2189
1706.70433,812.92698
1708.77179,812.92698
1708.77179,813.63505
1710.83925,813.63505
1710.83925,814.34313
1712.90671,815.0512
1712.90671,815.75927
1712.90671,816.46735
1712.90671,817.17542
1712.90671,817.88349
1712.90671,818.59157
1714.97418,818.59157
1714.97418,819.29964
1717.04164,819.29964
1717.04164,820.00771
1719.1091,820.00771
1721.17656,820.00771
1721.17656,820.71579
1723.24403,820.71579
1725.31149,820.00771
1727.37895,819.29964
1729.44641,818.59157
1731.51388,819.29964
1733.58134,820.00771
1735.6488,820.71579
1737.71626,820.71579
1739.78373,820.71579
1739.78373,820.00771
1739.78373,819.29964
1739.78373,818.59157
1739.78373,817.88349
1739.78373,817.17542
1739.78373,816.46735
1739.78373,815.75927
1741.85119,815.75927
1743.91865,815.75927
1745.98611,815.75927
1745.98611,815.0512
1748.05358,815.0512
1750.12104,815.0512
1752.1885,815.0512
1754.25596,815.0512
1756.32343,815.0512
1758.39089,815.0512
1760.45835,815.0512
1760.45835,814.34313
1762.52581,814.34313
1762.52581,813.63505
1764.59328,813.63505
1766.66074,813.63505
1766.66074,812.92698
1768.7282,812.92698
1768.7282,812.2189
1770.79566,812.2189
1770.79566,811.51083
1772.86313,811.51083
1774.93059,812.2189
1776.99805,811.51083
1779.06551,810.80276
1781.13298,810.80276
1783.20044,810.09468
1785.2679,810.80276
1787.33536,810.80276
1789.40283,810.80276
1791.47029,810.80276
1793.53775,810.09468
1795.60521,810.09468
1797.67268,810.80276
1799.74014,810.80276
1801.8076,810.80276
1803.87506,810.80276
1805.94252,810.80276
1808.00999,810.80276
1810.07745,810.80276
1812.14491,810.09468
1814.21237,809.38661
1816.27984,808.67854
1818.3473,807.97046
1820.41476,807.97046
1822.48222,807.97046
1824.54969,807.97046
1826.61715,807.97046
1828.68461,807.97046
1830.75207,807.97046
1832.81954,807.97046
1834.887,807.97046
1836.95446,807.97046
1839.02192,807.97046
1841.08939,807.97046
1843.15685,807.97046
1845.22431,807.97046
1847.29177,807.97046
1849.35924,807.97046
1851.4267,807.97046
1853.49416,807.97046
1855.56162,807.97046
1857.62909,807.97046
1859.69655,807.97046
1861.76401,807.97046
1863.83147,807.97046
1865.89894,807.97046
1867.9664,807.97046
1870.03386,807.97046
1872.10132,807.97046
1874.16879,807.97046
1876.23625,807.97046
1878.30371,807.97046
1880.37117,807.97046
1882.43864,807.97046
1884.5061,807.97046
1886.57356,807.97046
1888.64102,807.97046
1890.70849,807.97046
1892.77595,807.97046
1894.84341,807.97046
1896.91087,807.97046
1898.97834,807.97046
1901.0458,807.97046
1903.11326,807.97046
1905.18072,807.97046
1907.24819,807.97046
1909.31565,807.97046
1911.38311,807.97046
1913.45057,807.97046
1915.51804,807.97046
1917.5855,808.67854
1919.65296,809.38661
1921.72042,810.09468
1923.78789,810.80276
1925.85535,810.80276
1927.92281,810.80276
1929.99027,810.80276
1932.05774,810.80276
1934.1252,810.80276
1936.19266,810.09468
1938.26012,809.38661
1940.32759,808.67854
1942.39505,808.67854
1944.46251,808.67854
1946.52997,808.67854
1948.59744,808.67854
1950.6649,808.67854
1952.73236,808.67854
1954.79982,807.97046
1956.86729,807.26239
1958.93475,807.26239
1961.00221,807.26239
1963.06967,807.26239
1965.13714,807.26239
1967.2046,807.26239
1969.27206,807.26239
1971.33952,807.26239
1973.40699,807.26239
1975.47445,807.26239
1977.54191,807.26239
1979.60937,807.26239
1981.67684,807.26239
1983.7443,807.26239
1985.81176,807.26239
1987.87922,807.26239
1989.94669,807.26239
1992.01415,807.26239
1994.08161,807.26239
1996.14907,807.26239
1998.21653,807.26239
2000.284,807.26239
2002.35146,807.26239
2004.41892,807.26239
2006.48638,807.26239
2008.55385,807.26239
2010.62131,807.26239
2012.68877,807.26239
2014.75623,807.26239
2016.8237,807.26239
2018.89116,807.26239
2020.95862,807.26239
2023.02608,807.26239
2025.09355,807.26239
2027.16101,807.26239
2029.22847,807.26239
2031.29593,807.26239
2033.3634,807.97046
2035.43086,807.97046
2037.49832,807.97046
2039.56578,807.97046
2041.63325,807.97046
2043.70071,807.97046
2045.76817,807.97046
2047.83563,807.97046
2049.9031,807.97046
2051.97056,807.97046
2054.03802,807.97046
2056.10548,807.97046
2058.17295,807.97046
2060.24041,807.97046
2062.30787,807.97046
2064.37533,807.97046
2066.4428,807.97046
2068.51026,807.97046
2070.57772,807.97046
2072.64518,807.97046
2074.71265,807.97046
2076.78011,807.97046
2078.84757,807.97046
2080.91503,807.97046
2082.9825,807.97046
2085.04996,807.97046
2087.11742,807.97046
2089.18488,807.97046
2091.25235,807.97046
2093.31981,807.97046
2095.38727,807.97046
2097.45473,807.97046
2099.5222,807.97046
2101.58966,807.97046
2103.65712,807.97046
2105.72458,807.97046
2107.79205,807.97046
2109.85951,807.97046
2111.92697,807.97046
2113.99443,807.97046
2116.0619,807.97046
2118.12936,807.97046
2120.19682,807.97046
2122.26428,807.97046
2124.33175,807.97046
2126.39921,807.97046
2128.46667,807.97046
2130.53413,807.97046
2132.6016,807.97046
2134.66906,807.97046
2136.73652,807.97046
2138.80398,808.67854
2140.87145,807.97046
2142.93891,808.67854
2145.00637,809.38661
2147.07383,809.38661
2149.1413,808.67854
2151.20876,809.38661
2153.27622,809.38661
2155.34368,809.38661
2157.41115,809.38661
2159.47861,809.38661
2161.54607,809.38661
2163.61353,809.38661
2165.681,809.38661
2167.74846,809.38661
2169.81592,809.38661
2171.88338,809.38661
2173.95085,809.38661
2176.01831,810.09468
2178.08577,810.09468
2180.15323,810.09468
2182.2207,810.09468
2184.28816,810.09468
2186.35562,810.09468
2188.42308,810.09468
2190.49054,810.80276
2192.55801,811.51083
2194.62547,812.2189
2196.69293,812.2189
2198.76039,812.2189
2200.82786,812.2189
2202.89532,811.51083
2204.96278,811.51083
2207.03024,811.51083
2209.09771,811.51083
2211.16517,810.80276
2213.23263,811.51083
2215.30009,811.51083
2217.36756,811.51083
2219.43502,811.51083
2221.50248,811.51083
2223.56994,810.80276
2225.63741,810.80276
2227.70487,810.80276
2229.77233,810.80276
2231.83979,810.80276
2233.90726,810.80276
2235.97472,810.80276
2238.04218,810.80276
2240.10964,810.80276
2242.17711,810.09468
2244.24457,809.38661
2246.31203,808.67854
2248.37949,807.97046
2250.44696,807.97046
2252.51442,807.97046
2254.58188,807.97046
2256.64934,807.97046
2258.71681,807.97046
2260.78427,807.97046
2262.85173,807.97046
2264.91919,807.97046
2266.98666,807.97046
2269.05412,807.97046
2271.12158,807.97046
2273.18904,807.97046
2275.25651,807.97046
2277.32397,807.97046
2279.39143,807.97046
2281.45889,807.97046
2283.52636,807.97046
2285.59382,807.97046
2287.66128,807.97046
2289.72874,807.97046
2291.79621,807.97046
2293.86367,807.97046
2295.93113,807.97046
2297.99859,807.97046
2300.06606,807.97046
2302.13352,807.97046
2304.20098,807.97046
2306.26844,807.97046
2308.33591,807.97046
2310.40337,807.97046
2312.47083,807.97046
2314.53829,807.97046
2316.60576,807.97046
2318.67322,807.97046
2320.74068,807.97046
2322.80814,807.97046
2324.87561,807.97046
2326.94307,807.97046
2329.01053,807.97046
2331.07799,807.97046
2333.14546,807.97046
2335.21292,807.97046
2337.28038,807.97046
2339.34784,807.97046
2341.41531,807.97046
2343.48277,807.97046
2345.55023,807.97046
2347.61769,807.97046
2349.68516,807.97046
2351.75262,807.97046
2353.82008,807.97046
2355.88754,807.97046
2357.95501,807.97046
2360.02247,807.97046
2362.08993,807.97046
2364.15739,807.97046
2366.22486,807.97046
2368.29232,807.97046
2370.35978,807.97046
2372.42724,807.97046
2374.49471,807.97046
2376.56217,807.97046
2378.62963,807.97046
2380.69709,807.97046
2382.76455,807.97046
2384.83202,807.97046
2386.89948,807.97046
2388.96694,807.97046
2391.0344,807.97046
2393.10187,807.97046
2395.16933,807.97046
2397.23679,807.97046
2399.30425,807.97046
2401.37172,807.97046
2403.43918,807.97046
2405.50664,807.97046
2407.5741,807.97046
2409.64157,807.97046
2411.70903,807.97046
2413.77649,807.97046
2415.84395,807.97046
2417.91142,807.97046
2419.97888,807.97046
2422.04634,807.97046
2424.1138,807.97046
2426.18127,807.97046
2428.24873,807.97046
2430.31619,807.97046
2432.38365,807.97046
2434.45112,807.97046
2436.51858,807.97046
2438.58604,807.97046
2440.6535,807.97046
2442.72097,807.97046
2444.78843,807.97046
2446.85589,807.97046
2448.92335,808.67854
2450.99082,809.38661
2453.05828,810.09468
2455.12574,810.80276
2457.1932,810.80276
2459.26067,810.80276
2461.32813,810.80276
2463.39559,810.80276
2465.46305,810.80276
2467.53052,810.09468
2469.59798,809.38661
2471.66544,808.67854
2473.7329,808.67854
2475.80037,808.67854
2477.86783,808.67854
2479.93529,808.67854
2482.00275,808.67854
2484.07022,808.67854
2486.13768,807.97046
2488.20514,807.26239
2490.2726,807.26239
2492.34007,807.26239
2494.40753,807.26239
2496.47499,807.26239
2498.54245,807.26239
2500.60992,807.26239
2502.67738,807.26239
2504.74484,807.26239
2506.8123,807.26239
2508.87977,807.26239
2510.94723,807.26239
2513.01469,807.26239
2515.08215,807.26239
2517.14962,807.26239
2519.21708,807.26239
2521.28454,807.97046
2523.352,807.97046
2525.41947,807.97046
2527.48693,807.97046
2529.55439,807.97046
2531.62185,807.97046
2533.68932,807.97046
2535.75678,807.97046
2537.82424,807.97046
2539.8917,807.97046
2541.95917,807.97046
2544.02663,807.97046
2546.09409,807.97046
2548.16155,807.97046
2550.22902,807.97046
2552.29648,807.97046
2554.36394,807.97046
2556.4314,807.97046
2558.49887,807.97046
2560.56633,807.97046
2562.63379,807.97046
2564.70125,807.97046
2566.76872,807.97046
2568.83618,807.97046
2570.90364,807.97046
2572.9711,807.97046
2575.03857,807.97046
2577.10603,807.97046
2579.17349,807.97046
2581.24095,807.97046
2583.30841,807.97046
2585.37588,807.97046
2587.44334,807.97046
2589.5108,807.97046
2591.57826,807.97046
2593.64573,807.97046
2595.71319,807.97046
2597.78065,807.97046
2599.84811,807.97046
2601.91558,807.97046
2603.98304,807.97046
2606.0505,807.97046
2608.11796,807.97046
2610.18543,807.97046
2612.25289,807.97046
2614.32035,807.97046
2616.38781,807.97046
2618.45528,807.97046
2620.52274,807.97046
2622.5902,807.97046
2624.65766,807.97046
2626.72513,807.97046
2628.79259,807.97046
2630.86005,807.97046
2632.92751,807.97046
2634.99498,808.67854
2637.06244,809.38661
2639.1299,810.09468
2641.19736,810.80276
2643.26483,810.80276
2645.33229,810.80276
2647.39975,810.80276
2649.46721,810.80276
2651.53468,810.80276
2653.60214,810.09468
2655.6696,809.38661
2657.73706,808.67854
2659.80453,808.67854
2661.87199,808.67854
2663.93945,808.67854
2666.00691,808.67854
2668.07438,808.67854
2670.14184,808.67854
2672.2093,807.97046
2674.27676,807.26239
2676.34423,807.26239
2678.41169,807.26239
2680.47915,807.26239
2682.54661,807.26239
2684.61408,807.26239
2686.68154,807.26239
2688.749,807.26239
2690.81646,807.26239
2692.88393,807.26239
2694.95139,807.26239
2697.01885,807.26239
2699.08631,807.26239
2701.15378,807.26239
2703.22124,807.97046
2705.2887,807.97046
2707.35616,807.97046
2709.42363,807.97046
2711.49109,807.97046
2713.55855,807.97046
2715.62601,807.97046
2717.69348,807.97046
2719.76094,807.97046
2721.8284,807.97046
2723.89586,807.97046
2725.96333,807.97046
2728.03079,807.97046
2730.09825,807.97046
2732.16571,807.97046
2734.23318,807.97046
2736.30064,807.97046
2738.3681,807.97046
2740.43556,807.97046
2742.50303,807.97046
2744.57049,807.97046
2746.63795,807.97046
2748.70541,807.97046
2750.77288,807.97046
2752.84034,807.97046
2754.9078,807.97046
2756.97526,807.97046
2759.04273,807.97046
2761.11019,807.97046
2763.17765,807.97046
2765.24511,807.97046
2767.31258,807.97046
2769.38004,807.97046
2771.4475,807.97046
2773.51496,807.97046
2775.58242,807.97046
2777.64989,807.97046
2779.71735,807.97046
2781.78481,807.97046
2783.85227,807.97046
2785.91974,807.97046
2787.9872,807.97046
2790.05466,807.97046
2792.12212,807.97046
2794.18959,807.97046
2796.25705,807.97046
2798.32451,807.97046
2800.39197,807.97046
2802.45944,807.97046
2804.5269,807.97046
2806.59436,807.97046
2808.66182,807.97046
2810.72929,807.97046
2812.79675,807.97046
2814.86421,807.97046
2816.93167,807.97046
2818.99914,807.97046
2821.0666,807.97046
2823.13406,807.97046
2825.20152,807.97046
2827.26899,807.97046
2829.33645,807.97046
2831.40391,807.97046
2833.47137,807.97046
2835.53884,807.97046
2837.6063,807.97046
2839.67376,807.97046
2841.74122,807.97046
2843.80869,807.97046
2845.87615,808.67854
2847.94361,809.38661
2850.01107,810.09468
2852.07854,810.80276
2854.146,810.80276
2856.21346,810.80276
2858.28092,810.80276
2860.34839,810.80276
2862.41585,810.80276
2864.48331,810.80276
2866.55077,810.09468
2868.61824,809.38661
2870.6857,809.38661
2872.75316,809.38661
2874.82062,809.38661
2876.88809,809.38661
2878.95555,808.67854
2881.02301,807.97046
2883.09047,807.97046
2885.15794,807.97046
2887.2254,807.97046
2889.29286,808.67854
2891.36032,809.38661
2893.42779,809.38661
2895.49525,809.38661
2897.56271,809.38661
2899.63017,809.38661
2901.69764,809.38661
2903.7651,808.67854
2905.83256,807.97046
2907.90002,807.26239
2909.96749,807.26239
2912.03495,807.26239
2914.10241,807.26239
2916.16987,807.26239
2918.23734,807.26239
2920.3048,807.26239
2922.37226,807.26239
2924.43972,807.26239
2926.50719,807.26239
2928.57465,807.26239
2930.64211,807.26239
2932.70957,807.26239
2934.77704,807.26239
2936.8445,807.26239
2938.91196,807.26239
2940.97942,807.26239
2943.04689,807.26239
2945.11435,807.26239
2947.18181,807.26239
2949.24927,807.26239
2951.31674,807.26239
2953.3842,807.26239
2955.45166,807.26239
2957.51912,807.26239
2959.58659,807.26239
2961.65405,807.26239
2963.72151,807.26239
2965.78897,807.26239
2967.85643,807.26239
2969.9239,807.26239
2971.99136,807.26239
2974.05882,807.26239
2976.12628,807.26239
2978.19375,807.26239
2980.26121,807.26239
2982.32867,807.26239
2984.39613,807.26239
2986.4636,807.26239
2988.53106,807.26239
2990.59852,807.26239
2992.66598,807.26239
2994.73345,807.26239
2996.80091,807.26239
2998.86837,807.26239
3000.93583,807.26239
3003.0033,807.26239
3005.07076,807.26239
3007.13822,807.26239
3009.20568,807.26239
3011.27315,807.26239
3013.34061,807.26239
3015.40807,807.26239
3017.47553,807.26239
3019.543,807.26239
3021.61046,807.26239
3023.67792,807.26239
3025.74538,807.26239
3027.81285,807.26239
3029.88031,807.26239
3031.94777,807.26239
3034.01523,807.26239
3036.0827,807.26239
3038.15016,807.26239
3040.21762,807.26239
3042.28508,807.26239
3044.35255,807.26239
3046.42001,807.26239
3048.48747,807.26239
3050.55493,807.26239
3052.6224,807.26239
3054.68986,807.26239
3056.75732,807.26239
3058.82478,807.26239
3060.89225,807.26239
3062.95971,807.26239
3065.02717,807.26239
3067.09463,807.26239
3069.1621,807.26239
3071.22956,807.26239
3073.29702,807.26239
3075.36448,807.26239
3077.43195,807.26239
3079.49941,807.26239
3081.56687,807.26239
3083.63433,807.26239
3085.7018,807.26239
3087.76926,807.26239
3089.83672,807.26239
3091.90418,807.26239
3093.97165,807.26239
3096.03911,807.26239
3098.10657,807.26239
3100.17403,807.26239
3102.2415,807.26239
3104.30896,807.26239
3106.37642,807.26239
3108.44388,807.26239
3110.51135,807.26239
3112.57881,807.26239
3114.64627,807.26239
3116.71373,807.26239
3118.7812,807.26239
3120.84866,807.26239
3122.91612,807.26239
3124.98358,807.26239
3127.05105,807.26239
3129.11851,807.26239
3131.18597,807.26239
3133.25343,807.26239
3135.3209,807.26239
3137.38836,807.26239
3139.45582,807.26239
3141.52328,807.26239
3143.59075,807.26239
3145.65821,807.26239
3147.72567,807.26239
3149.79313,807.26239
3151.8606,807.26239
3153.92806,807.26239
3155.99552,807.26239
3158.06298,807.26239
3160.13044,807.26239
3162.19791,807.26239
3164.26537,807.26239
3166.33283,807.26239
3168.40029,807.26239
3170.46776,807.26239
3172.53522,807.26239
3174.60268,807.26239
3176.67014,807.26239
3178.73761,807.26239
3180.80507,807.26239
3182.87253,807.26239
3184.93999,807.26239
3187.00746,807.26239
3189.07492,807.26239
3191.14238,807.26239
3193.20984,807.26239
3195.27731,807.26239
3197.34477,807.26239
3199.41223,807.26239
3201.47969,807.26239
3203.54716,807.26239
3205.61462,807.26239
3207.68208,807.26239
3209.74954,807.26239
3211.81701,807.26239
3213.88447,807.26239
3215.95193,807.26239
3218.01939,807.26239
3220.08686,807.26239
3222.15432,807.26239
3224.22178,807.26239
3226.28924,807.26239
3228.35671,807.26239
3230.42417,807.26239
3232.49163,807.26239
3234.55909,807.26239
3236.62656,807.26239
3238.69402,807.26239
3240.76148,807.26239
3242.82894,807.26239
3244.89641,807.26239
3246.96387,807.26239
3249.03133,807.26239
3251.09879,807.26239
3253.16626,807.26239
3255.23372,807.26239
3257.30118,807.26239
3259.36864,807.26239
3261.43611,807.26239
3263.50357,807.26239
3265.57103,807.26239
3267.63849,807.26239
3269.70596,807.26239
3271.77342,807.26239
3273.84088,807.26239
3275.90834,807.26239
3277.97581,807.26239
3280.04327,807.26239
3282.11073,807.26239
3284.17819,807.26239
3286.24566,807.26239
3288.31312,807.26239
3290.38058,807.26239
3292.44804,807.26239
3294.51551,807.26239
3296.58297,807.26239
3298.65043,807.26239
3300.71789,807.26239
3302.78536,807.26239
3304.85282,807.26239
3306.92028,807.26239
3308.98774,807.26239
3311.05521,807.26239
3313.12267,807.26239
3315.19013,807.26239
3317.25759,807.26239
3319.32506,807.26239
3321.39252,807.26239
3323.45998,807.26239
3325.52744,807.26239
3327.59491,807.26239
3329.66237,807.26239
3331.72983,807.26239
3333.79729,807.26239
3335.86476,807.26239
3337.93222,807.26239
3339.99968,807.26239
3342.06714,807.26239
3344.13461,807.26239
3346.20207,807.26239
3348.26953,807.26239
3350.33699,807.26239
3352.40445,807.26239
3354.47192,807.26239
3356.53938,807.26239
3358.60684,807.26239
3360.6743,807.26239
3362.74177,807.26239
3364.80923,807.26239
3366.87669,807.26239
3368.94415,807.26239
3371.01162,807.26239
3373.07908,807.26239
3375.14654,807.26239
3377.214,807.26239
3379.28147,807.26239
3381.34893,807.26239
3383.41639,807.26239
3385.48385,807.26239
3387.55132,807.26239
3389.61878,807.26239
3391.68624,807.26239
3393.7537,807.26239
3395.82117,807.26239
3397.88863,807.26239
3399.95609,807.26239
3402.02355,807.26239
3404.09102,807.26239
3406.15848,807.26239
3408.22594,807.26239
3410.2934,807.26239
3412.36087,807.26239
3414.42833,807.26239
3416.49579,807.26239
3418.56325,807.26239
3420.63072,807.26239
3422.69818,807.26239
3424.76564,807.26239
3426.8331,807.26239
3428.90057,807.26239
3430.96803,807.26239
3433.03549,807.26239
3435.10295,807.26239
3437.17042,807.26239
3439.23788,807.26239
3441.30534,807.26239
3443.3728,807.26239
3445.44027,807.26239
3447.50773,807.26239
3449.57519,807.26239
3451.64265,807.26239
3453.71012,807.26239
3455.77758,807.26239
3457.84504,807.26239
3459.9125,807.26239
3461.97997,807.26239
3464.04743,807.26239
3466.11489,807.26239
3468.18235,807.26239
3470.24982,807.26239
3472.31728,807.26239
3474.38474,807.26239
3476.4522,807.26239
3478.51967,807.26239
3480.58713,807.26239
3482.65459,807.26239
3484.72205,807.26239
3486.78952,807.26239
3488.85698,807.26239
3490.92444,807.26239
3492.9919,807.26239
3495.05937,807.26239
3497.12683,807.26239
3499.19429,807.26239
3501.26175,807.26239
3503.32922,807.26239
3505.39668,807.26239
3507.46414,807.26239
3509.5316,807.26239
3511.59907,807.26239
3513.66653,807.26239
3515.73399,807.26239
3517.80145,807.26239
3519.86892,807.26239
3521.93638,807.26239
3524.00384,807.26239
3526.0713,807.26239
3528.13877,807.26239
3530.20623,807.26239
3532.27369,807.26239
3534.34115,807.26239
3536.40862,807.26239
3538.47608,807.26239
3540.54354,807.26239
3542.611,807.26239
3544.67846,807.26239
3546.74593,807.26239
3548.81339,807.26239
3550.88085,807.26239
3552.94831,807.26239
3555.01578,807.26239
3557.08324,807.26239
3559.1507,807.26239
3561.21816,807.26239
3563.28563,807.26239
3565.35309,807.26239
3567.42055,807.26239
3569.48801,807.26239
3571.55548,807.26239
3573.62294,807.26239
3575.6904,807.26239
3577.75786,807.26239
3579.82533,807.26239
3581.89279,807.26239
3583.96025,807.26239
3586.02771,807.26239
3588.09518,807.26239
3590.16264,807.26239
3592.2301,807.26239
3594.29756,807.26239
3596.36503,807.26239
3598.43249,807.26239
3600.49995,807.26239
3602.56741,807.26239
3604.63488,807.26239
3606.70234,807.26239
3608.7698,807.26239
3610.83726,807.26239
3612.90473,807.26239
3614.97219,807.26239
3617.03965,807.26239
3619.10711,807.26239
3621.17458,807.26239
3623.24204,807.26239
3625.3095,807.26239
3627.37696,807.26239
3629.44443,807.26239
3631.51189,807.26239
3633.57935,807.26239
3635.64681,807.26239
3637.71428,807.26239
3639.78174,807.26239
3641.8492,807.26239
3643.91666,807.26239
3645.98413,807.26239
3648.05159,807.26239
3650.11905,807.26239
3652.18651,807.26239
3654.25398,807.26239
3656.32144,807.26239
3658.3889,807.26239
3660.45636,807.26239
3662.52383,807.26239
3664.59129,807.26239
3666.65875,807.26239
3668.72621,807.26239
3670.79368,807.26239
3672.86114,807.26239
3674.9286,807.26239
3676.99606,807.26239
3679.06353,807.26239
3681.13099,807.26239
3683.19845,807.26239
3685.26591,807.26239
3687.33338,807.26239
3689.40084,807.26239
3691.4683,807.26239
3693.53576,807.26239
3695.60323,807.26239
3697.67069,807.26239
3699.73815,807.26239
3701.80561,807.26239
3703.87308,807.26239
3705.94054,807.26239
3708.008,807.26239
3710.07546,807.26239
3712.14293,807.26239
3714.21039,807.26239
3716.27785,807.26239
3718.34531,807.26239
3720.41278,807.26239
3722.48024,807.26239
3724.5477,807.26239
3726.61516,807.26239
3728.68263,807.26239
3730.75009,807.26239
3732.81755,807.26239
3734.88501,807.26239
3736.95248,807.26239
3739.01994,807.26239
3741.0874,807.26239
3743.15486,807.26239
3745.22232,807.26239
3747.28979,807.26239
3749.35725,807.26239
3751.42471,807.26239
3753.49217,807.26239
3755.55964,807.26239
3757.6271,807.26239
3759.69456,807.26239
3761.76202,807.26239
3763.82949,807.26239
3765.89695,807.26239
3767.96441,807.26239
3770.03187,807.26239
3772.09934,807.26239
3774.1668,807.26239
3776.23426,807.26239
3778.30172,807.26239
3780.36919,807.26239
3782.43665,807.26239
3784.50411,807.26239
3786.57157,807.26239
3788.63904,807.26239
3790.7065,807.26239
3792.77396,807.26239
3794.84142,807.26239
3796.90889,807.26239
3798.97635,807.26239
3801.04381,807.26239
3803.11127,807.26239
3805.17874,807.26239
3807.2462,807.26239
3809.31366,807.26239
3811.38112,807.26239
3813.44859,807.26239
3815.51605,807.26239
3817.58351,807.26239
3819.65097,807.26239
3821.71844,807.26239
3823.7859,807.26239
3825.85336,807.26239
3827.92082,807.26239
3829.98829,807.26239
3832.05575,807.26239
3834.12321,807.26239
3836.19067,807.26239
3838.25814,807.26239
3840.3256,807.26239
3842.39306,807.26239
3844.46052,807.26239
3846.52799,807.26239
3848.59545,807.26239
3850.66291,807.26239
3852.73037,807.26239
3854.79784,807.26239
3856.8653,807.26239
3858.93276,807.26239
3861.00022,807.26239
3863.06769,807.26239
3865.13515,807.26239
3867.20261,807.26239
3869.27007,807.26239
3871.33754,807.26239
3873.405,807.26239
3875.47246,807.26239
3877.53992,807.26239
3879.60739,807.26239
3881.67485,807.26239
3883.74231,807.26239
3885.80977,807.26239
3887.87724,807.26239
3889.9447,807.26239
3892.01216,807.26239
3894.07962,807.26239
3896.14709,807.26239
3898.21455,807.26239
3900.28201,807.26239
3902.34947,807.26239
3904.41694,807.26239
3906.4844,807.26239
3908.55186,807.26239
3910.61932,807.26239
3912.68679,807.26239
3914.75425,807.26239
3916.82171,807.26239
3918.88917,807.26239
3920.95664,807.26239
3923.0241,807.26239
3925.09156,807.26239
3927.15902,807.26239
3929.22649,807.26239
3931.29395,807.26239
3933.36141,807.26239
3935.42887,807.26239
3937.49633,807.26239
3939.5638,807.26239
3941.63126,807.26239
3943.69872,807.26239
3945.76618,807.26239
3947.83365,807.26239
3949.90111,807.26239
3951.96857,807.26239
3954.03603,807.26239
3956.1035,807.26239
3958.17096,807.26239
3960.23842,807.26239
3962.30588,807.26239
3964.37335,807.26239
3966.44081,807.26239
3968.50827,807.26239
3970.57573,807.26239
3972.6432,807.26239
3974.71066,807.97046
3976.77812,807.97046
3978.84558,807.97046
3980.91305,807.97046
3982.98051,807.97046
