Raman Shift,Intensity
137.857,1418.0
139.243,1377.0
140.63,1372.0
142.016,1403.0
143.401,1399.0
144.787,1366.0
146.172,1420.0
147.557,1433.0
148.942,1447.0
150.327,1452.0
151.711,1437.0
153.096,1415.0
154.48,1426.0
155.863,1417.0
157.247,1440.0
158.63,1446.0
160.013,1449.0
161.396,1505.0
162.779,1554.0
164.161,1620.0
165.544,1688.0
166.926,1702.0
168.308,1743.0
169.689,1784.0
171.07,1747.0
172.452,1657.0
173.833,1604.0
175.213,1520.0
176.594,1513.0
177.974,1491.0
179.354,1488.0
180.734,1488.0
182.114,1487.0
183.493,1441.0
184.872,1492.0
186.251,1494.0
187.63,1487.0
189.008,1461.0
190.387,1456.0
191.765,1487.0
193.143,1480.0
194.52,1455.0
195.898,1470.0
197.275,1504.0
198.652,1518.0
200.029,1484.0
201.405,1519.0
202.782,1500.0
204.158,1529.0
205.534,1546.0
206.909,1550.0
208.285,1556.0
209.66,1518.0
211.035,1542.0
212.41,1557.0
213.784,1530.0
215.159,1571.0
216.533,1545.0
217.907,1586.0
219.281,1595.0
220.654,1617.0
222.027,1650.0
223.4,1709.0
224.773,1756.0
226.146,1820.0
227.518,1933.0
228.891,2075.0
230.263,2194.0
231.634,2273.0
233.006,2314.0
234.377,2350.0
235.748,2342.0
237.119,2234.0
238.49,2105.0
239.86,2026.0
241.231,1891.0
242.601,1815.0
243.97,1786.0
245.34,1725.0
246.709,1734.0
248.079,1670.0
249.448,1675.0
250.816,1612.0
252.185,1621.0
253.553,1616.0
254.921,1666.0
256.289,1668.0
257.657,1632.0
259.024,1638.0
260.391,1628.0
261.758,1655.0
263.125,1694.0
264.492,1667.0
265.858,1639.0
267.224,1658.0
268.59,1637.0
269.956,1652.0
271.321,1621.0
272.687,1636.0
274.052,1654.0
275.416,1643.0
276.781,1648.0
278.146,1641.0
279.51,1665.0
280.874,1607.0
282.237,1657.0
283.601,1693.0
284.964,1637.0
286.327,1655.0
287.69,1634.0
289.053,1716.0
290.416,1682.0
291.778,1688.0
293.14,1664.0
294.502,1672.0
295.863,1678.0
297.225,1660.0
298.586,1726.0
299.947,1699.0
301.308,1782.0
302.668,1726.0
304.029,1707.0
305.389,1680.0
306.749,1711.0
308.108,1706.0
309.468,1704.0
310.827,1735.0
312.186,1702.0
313.545,1684.0
314.903,1726.0
316.262,1734.0
317.62,1745.0
318.978,1732.0
320.336,1748.0
321.693,1731.0
323.051,1777.0
324.408,1741.0
325.765,1759.0
327.121,1747.0
328.478,1798.0
329.834,1750.0
331.19,1752.0
332.546,1769.0
333.902,1799.0
335.257,1769.0
336.612,1769.0
337.967,1804.0
339.322,1854.0
340.677,1975.0
342.031,1802.0
343.385,1800.0
344.739,1811.0
346.093,1826.0
347.446,1759.0
348.799,1806.0
350.153,1816.0
351.505,1817.0
352.858,1827.0
354.21,1824.0
355.563,1828.0
356.915,1825.0
358.267,1840.0
359.618,1823.0
360.969,1854.0
362.321,1830.0
363.672,1829.0
365.022,1841.0
366.373,1848.0
367.723,1852.0
369.073,1835.0
370.423,1854.0
371.773,1818.0
373.122,1854.0
374.471,1844.0
375.821,1860.0
377.169,1887.0
378.518,1912.0
379.866,1892.0
381.215,1865.0
382.563,1864.0
383.91,1907.0
385.258,1881.0
386.605,1862.0
387.952,1903.0
389.299,1928.0
390.646,1890.0
391.992,1928.0
393.339,1895.0
394.685,1899.0
396.031,1942.0
397.376,1931.0
398.722,1985.0
400.067,1924.0
401.412,1926.0
402.757,1957.0
404.101,1955.0
405.446,1975.0
406.79,2037.0
408.134,2017.0
409.478,2157.0
410.821,2369.0
412.165,2592.0
413.508,2779.0
414.851,2984.0
416.193,3144.0
417.536,3132.0
418.878,2880.0
420.22,2534.0
421.562,2332.0
422.904,2206.0
424.245,2071.0
425.586,2112.0
426.927,2052.0
428.268,2024.0
429.609,2051.0
430.949,2004.0
432.289,1981.0
433.629,2012.0
434.969,2033.0
436.309,2012.0
437.648,2048.0
438.987,1991.0
440.326,2030.0
441.665,2036.0
443.003,2038.0
444.342,2040.0
445.68,2038.0
447.018,2043.0
448.355,2062.0
449.693,2060.0
451.03,2060.0
452.367,2054.0
453.704,2057.0
455.041,2101.0
456.377,2069.0
457.713,2074.0
459.049,2058.0
460.385,2084.0
461.721,2136.0
463.056,2097.0
464.391,2114.0
465.726,2115.0
467.061,2098.0
468.395,2206.0
469.73,2166.0
471.064,2157.0
472.398,2180.0
473.731,2166.0
475.065,2199.0
476.398,2214.0
477.731,2238.0
479.064,2238.0
480.397,2290.0
481.729,2322.0
483.062,2304.0
484.394,2354.0
485.725,2410.0
487.057,2487.0
488.389,2617.0
489.72,2728.0
491.051,2965.0
492.382,3201.0
493.712,3604.0
495.043,3980.0
496.373,4452.0
497.703,4770.0
499.032,4894.0
500.362,4941.0
501.691,4637.0
503.02,4066.0
504.349,3611.0
505.678,3175.0
507.007,2954.0
508.335,2789.0
509.663,2612.0
510.991,2529.0
512.319,2444.0
513.646,2420.0
514.973,2356.0
516.3,2362.0
517.627,2281.0
518.954,2330.0
520.28,2316.0
521.607,2310.0
522.933,2302.0
524.259,2291.0
525.584,2278.0
526.91,2265.0
528.235,2288.0
529.56,2296.0
530.885,2308.0
532.209,2306.0
533.534,2265.0
534.858,2304.0
536.182,2344.0
537.506,2342.0
538.829,2312.0
540.152,2314.0
541.476,2357.0
542.799,2319.0
544.121,2324.0
545.444,2326.0
546.766,2305.0
548.088,2316.0
549.41,2298.0
550.732,2356.0
552.053,2308.0
553.375,2310.0
554.696,2315.0
556.017,2329.0
557.337,2304.0
558.658,2354.0
559.978,2316.0
561.298,2366.0
562.618,2304.0
563.938,2377.0
565.257,2341.0
566.576,2375.0
567.895,2386.0
569.214,2364.0
570.533,2377.0
571.851,2389.0
573.17,2374.0
574.488,2398.0
575.805,2441.0
577.123,2386.0
578.44,2386.0
579.758,2387.0
581.075,2391.0
582.391,2392.0
583.708,2374.0
585.024,2423.0
586.341,2379.0
587.657,2344.0
588.972,2405.0
590.288,2380.0
591.603,2408.0
592.918,2440.0
594.233,2407.0
595.548,2382.0
596.863,2416.0
598.177,2432.0
599.491,2380.0
600.805,2437.0
602.119,2434.0
603.432,2481.0
604.746,2564.0
606.059,2618.0
607.372,2693.0
608.685,2710.0
609.997,2739.0
611.309,2678.0
612.621,2525.0
613.933,2537.0
615.245,2507.0
616.557,2583.0
617.868,2582.0
619.179,2565.0
620.49,2731.0
621.801,2881.0
623.111,3202.0
624.421,3667.0
625.731,4009.0
627.041,4288.0
628.351,4387.0
629.66,4046.0
630.97,3402.0
632.279,3050.0
633.588,2897.0
634.896,2694.0
636.205,2615.0
637.513,2551.0
638.821,2607.0
640.129,2518.0
641.437,2549.0
642.744,2588.0
644.051,2580.0
645.358,2537.0
646.665,2568.0
647.972,2613.0
649.278,2578.0
650.584,2554.0
651.89,2583.0
653.196,2569.0
654.502,2646.0
655.807,2647.0
657.113,2563.0
658.418,2586.0
659.722,2711.0
661.027,2680.0
662.331,2694.0
663.636,2710.0
664.94,2738.0
666.244,2854.0
667.547,2958.0
668.851,3372.0
670.154,4009.0
671.457,5278.0
672.76,6641.0
674.062,8159.0
675.365,9625.0
676.667,10027.0
677.969,7998.0
679.271,5537.0
680.572,4231.0
681.874,3565.0
683.175,3150.0
684.476,3007.0
685.777,2884.0
687.077,2818.0
688.378,2758.0
689.678,2731.0
690.978,2709.0
692.278,2677.0
693.577,2667.0
694.877,2633.0
696.176,2674.0
697.475,2679.0
698.774,2715.0
700.072,2705.0
701.371,2719.0
702.669,2680.0
703.967,2737.0
705.265,2662.0
706.562,2699.0
707.86,2710.0
709.157,2652.0
710.454,2688.0
711.751,2747.0
713.047,2710.0
714.344,2758.0
715.64,2726.0
716.936,2735.0
718.232,2682.0
719.527,2730.0
720.823,2814.0
722.118,2767.0
723.413,2724.0
724.708,2748.0
726.002,2726.0
727.297,2738.0
728.591,2761.0
729.885,2697.0
731.179,2762.0
732.472,2813.0
733.766,2757.0
735.059,2735.0
736.352,2761.0
737.645,2759.0
738.937,2785.0
740.23,2807.0
741.522,2844.0
742.814,2838.0
744.106,2802.0
745.397,2817.0
746.689,2807.0
747.98,2827.0
749.271,2784.0
750.562,2807.0
751.853,2820.0
753.143,2829.0
754.433,2853.0
755.723,2836.0
757.013,2817.0
758.303,2829.0
759.592,2852.0
760.881,2824.0
762.17,2866.0
763.459,2861.0
764.748,2848.0
766.036,2843.0
767.325,2852.0
768.613,2886.0
769.901,2847.0
771.188,2878.0
772.476,2843.0
773.763,2904.0
775.05,2882.0
776.337,2891.0
777.624,2857.0
778.91,2842.0
780.196,2918.0
781.482,2872.0
782.768,2917.0
784.054,2864.0
785.339,2891.0
786.625,2894.0
787.91,2932.0
789.195,2889.0
790.479,2938.0
791.764,2900.0
793.048,2988.0
794.332,2914.0
795.616,2898.0
796.9,2911.0
798.183,2967.0
799.467,2932.0
800.75,2930.0
802.033,2961.0
803.316,2955.0
804.598,2993.0
805.88,3008.0
807.163,2908.0
808.445,2977.0
809.726,2990.0
811.008,2957.0
812.289,3000.0
813.57,2956.0
814.851,2991.0
816.132,2982.0
817.413,3019.0
818.693,3023.0
819.973,2978.0
821.253,3003.0
822.533,3027.0
823.813,3055.0
825.092,3105.0
826.371,3025.0
827.65,2993.0
828.929,3002.0
830.208,2998.0
831.486,3073.0
832.764,3068.0
834.042,3056.0
835.32,3063.0
836.598,3023.0
837.875,3093.0
839.152,3091.0
840.429,3095.0
841.706,3046.0
842.983,3161.0
844.259,3059.0
845.536,3119.0
846.812,3088.0
848.088,3105.0
849.363,3097.0
850.639,3086.0
851.914,3084.0
853.189,3181.0
854.464,3105.0
855.739,3128.0
857.013,3128.0
858.288,3184.0
859.562,3134.0
860.836,3119.0
862.11,3184.0
863.383,3169.0
864.656,3134.0
865.93,3186.0
867.203,3159.0
868.475,3184.0
869.748,3225.0
871.02,3170.0
872.292,3148.0
873.564,3162.0
874.836,3175.0
876.108,3156.0
877.379,3131.0
878.65,3226.0
879.922,3227.0
881.192,3204.0
882.463,3206.0
883.733,3265.0
885.004,3187.0
886.274,3209.0
887.544,3184.0
888.813,3209.0
890.083,3228.0
891.352,3238.0
892.621,3241.0
893.89,3217.0
895.159,3226.0
896.427,3257.0
897.695,3240.0
898.964,3265.0
900.232,3262.0
901.499,3280.0
902.767,3237.0
904.034,3238.0
905.301,3247.0
906.568,3295.0
907.835,3278.0
909.102,3306.0
910.368,3334.0
911.634,3337.0
912.9,3279.0
914.166,3320.0
915.432,3330.0
916.697,3332.0
917.962,3306.0
919.227,3321.0
920.492,3312.0
921.757,3320.0
923.021,3368.0
924.285,3281.0
925.55,3364.0
926.813,3402.0
928.077,3348.0
929.341,3386.0
930.604,3330.0
931.867,3403.0
933.13,3402.0
934.393,3369.0
935.655,3350.0
936.918,3367.0
938.18,3433.0
939.442,3469.0
940.703,3392.0
941.965,3449.0
943.226,3364.0
944.488,3390.0
945.749,3398.0
947.009,3441.0
948.27,3486.0
949.53,3453.0
950.791,3491.0
952.051,3442.0
953.311,3563.0
954.57,3522.0
955.83,3486.0
957.089,3566.0
958.348,3551.0
959.607,3562.0
960.866,3511.0
962.124,3552.0
963.383,3591.0
964.641,3539.0
965.899,3629.0
967.156,3596.0
968.414,3602.0
969.671,3645.0
970.928,3619.0
972.185,3644.0
973.442,3612.0
974.699,3728.0
975.955,3631.0
977.211,3708.0
978.468,3732.0
979.723,3651.0
980.979,3726.0
982.234,3737.0
983.49,3745.0
984.745,3798.0
986.0,3751.0
987.254,3826.0
988.509,3854.0
989.763,3858.0
991.017,3943.0
992.271,3925.0
993.525,3997.0
994.779,4034.0
996.032,4157.0
997.285,4374.0
998.538,4628.0
999.791,4820.0
1001.044,4856.0
1002.296,5046.0
1003.548,5002.0
1004.8,5308.0
1006.052,5671.0
1007.304,6301.0
1008.555,7168.0
1009.807,8173.0
1011.058,9959.0
1012.309,13088.0
1013.559,19861.0
1014.81,31926.0
1016.06,49026.0
1017.31,62916.0
1018.56,60932.0
1019.81,42742.0
1021.06,26882.0
1022.309,18213.0
1023.558,13016.0
1024.807,9800.0
1026.056,8034.0
1027.305,6763.0
1028.553,6100.0
1029.801,5533.0
1031.049,5272.0
1032.297,5005.0
1033.545,4721.0
1034.793,4614.0
1036.04,4551.0
1037.287,4405.0
1038.534,4344.0
1039.781,4241.0
1041.027,4252.0
1042.274,4151.0
1043.52,4084.0
1044.766,4081.0
1046.012,4076.0
1047.257,4017.0
1048.503,4043.0
1049.748,4046.0
1050.993,4039.0
1052.238,4056.0
1053.483,4002.0
1054.727,3979.0
1055.971,3949.0
1057.216,3976.0
1058.459,3947.0
1059.703,3915.0
1060.947,3899.0
1062.19,3940.0
1063.433,3932.0
1064.676,3906.0
1065.919,3947.0
1067.162,3886.0
1068.404,3845.0
1069.646,3916.0
1070.888,3895.0
1072.13,3922.0
1073.372,3918.0
1074.613,3873.0
1075.855,3855.0
1077.096,3924.0
1078.337,3869.0
1079.578,3850.0
1080.818,3918.0
1082.059,3932.0
1083.299,3927.0
1084.539,3910.0
1085.779,3910.0
1087.018,3935.0
1088.258,3933.0
1089.497,3897.0
1090.736,3886.0
1091.975,3978.0
1093.213,3924.0
1094.452,3940.0
1095.69,3995.0
1096.928,4012.0
1098.166,3932.0
1099.404,4018.0
1100.642,3982.0
1101.879,4005.0
1103.116,4008.0
1104.353,4098.0
1105.59,4066.0
1106.827,4119.0
1108.063,4213.0
1109.299,4244.0
1110.536,4406.0
1111.771,4477.0
1113.007,4471.0
1114.243,4571.0
1115.478,4658.0
1116.713,4724.0
1117.948,4834.0
1119.183,4981.0
1120.418,5357.0
1121.652,5843.0
1122.886,6637.0
1124.12,8002.0
1125.354,10641.0
1126.588,16066.0
1127.821,25222.0
1129.055,35828.0
1130.288,37898.0
1131.521,28785.0
1132.753,18550.0
1133.986,12248.0
1135.218,8954.0
1136.45,7110.0
1137.682,6238.0
1138.914,5529.0
1140.146,5226.0
1141.377,4891.0
1142.609,4726.0
1143.84,4716.0
1145.071,4570.0
1146.301,4501.0
1147.532,4465.0
1148.762,4403.0
1149.992,4356.0
1151.222,4402.0
1152.452,4406.0
1153.682,4402.0
1154.911,4599.0
1156.14,4732.0
1157.369,5100.0
1158.598,5818.0
1159.827,7080.0
1161.055,7880.0
1162.284,7337.0
1163.512,6212.0
1164.74,5353.0
1165.967,4885.0
1167.195,4634.0
1168.422,4397.0
1169.65,4317.0
1170.877,4345.0
1172.103,4246.0
1173.33,4201.0
1174.557,4172.0
1175.783,4146.0
1177.009,4203.0
1178.235,4175.0
1179.461,4120.0
1180.686,4224.0
1181.912,4164.0
1183.137,4172.0
1184.362,4221.0
1185.587,4191.0
1186.811,4161.0
1188.036,4187.0
1189.26,4222.0
1190.484,4142.0
1191.708,4183.0
1192.932,4211.0
1194.155,4137.0
1195.378,4160.0
1196.602,4180.0
1197.825,4137.0
1199.047,4199.0
1200.27,4171.0
1201.492,4195.0
1202.715,4155.0
1203.937,4191.0
1205.159,4077.0
1206.38,4175.0
1207.602,4183.0
1208.823,4182.0
1210.044,4178.0
1211.265,4235.0
1212.486,4261.0
1213.707,4208.0
1214.927,4298.0
1216.147,4256.0
1217.367,4226.0
1218.587,4205.0
1219.807,4266.0
1221.027,4288.0
1222.246,4290.0
1223.465,4321.0
1224.684,4240.0
1225.903,4280.0
1227.121,4295.0
1228.34,4314.0
1229.558,4244.0
1230.776,4308.0
1231.994,4296.0
1233.212,4216.0
1234.429,4309.0
1235.646,4311.0
1236.864,4354.0
1238.081,4258.0
1239.297,4293.0
1240.514,4290.0
1241.73,4302.0
1242.947,4296.0
1244.163,4263.0
1245.378,4317.0
1246.594,4315.0
1247.81,4292.0
1249.025,4310.0
1250.24,4358.0
1251.455,4379.0
1252.67,4360.0
1253.885,4302.0
1255.099,4356.0
1256.313,4273.0
1257.527,4300.0
1258.741,4231.0
1259.955,4313.0
1261.168,4292.0
1262.382,4233.0
1263.595,4315.0
1264.808,4402.0
1266.021,4378.0
1267.233,4360.0
1268.446,4354.0
1269.658,4350.0
1270.87,4350.0
1272.082,4316.0
1273.294,4328.0
1274.505,4376.0
1275.716,4329.0
1276.928,4308.0
1278.139,4355.0
1279.349,4330.0
1280.56,4413.0
1281.77,4455.0
1282.981,4384.0
1284.191,4355.0
1285.401,4401.0
1286.61,4410.0
1287.82,4390.0
1289.029,4390.0
1290.239,4422.0
1291.448,4384.0
1292.656,4410.0
1293.865,4494.0
1295.073,4406.0
1296.282,4456.0
1297.49,4467.0
1298.698,4441.0
1299.906,4450.0
1301.113,4523.0
1302.32,4486.0
1303.528,4487.0
1304.735,4425.0
1305.942,4486.0
1307.148,4444.0
1308.355,4556.0
1309.561,4516.0
1310.767,4444.0
1311.973,4511.0
1313.179,4509.0
1314.384,4515.0
1315.59,4507.0
1316.795,4528.0
1318.0,4522.0
1319.205,4527.0
1320.41,4519.0
1321.614,4523.0
1322.819,4523.0
1324.023,4515.0
1325.227,4589.0
1326.431,4587.0
1327.634,4624.0
1328.838,4571.0
1330.041,4542.0
1331.244,4641.0
1332.447,4551.0
1333.65,4636.0
1334.852,4640.0
1336.055,4534.0
1337.257,4593.0
1338.459,4588.0
1339.661,4697.0
1340.862,4590.0
1342.064,4650.0
1343.265,4665.0
1344.466,4635.0
1345.667,4698.0
1346.868,4730.0
1348.068,4697.0
1349.269,4684.0
1350.469,4700.0
1351.669,4634.0
1352.869,4762.0
1354.069,4702.0
1355.268,4716.0
1356.468,4748.0
1357.667,4705.0
1358.866,4810.0
1360.065,4813.0
1361.263,4703.0
1362.462,4834.0
1363.66,4754.0
1364.858,4826.0
1366.056,4800.0
1367.254,4829.0
1368.451,4790.0
1369.649,4792.0
1370.846,4824.0
1372.043,4763.0
1373.24,4755.0
1374.436,4820.0
1375.633,4832.0
1376.829,4739.0
1378.025,4750.0
1379.221,4850.0
1380.417,4803.0
1381.613,4816.0
1382.808,4856.0
1384.003,4912.0
1385.199,4895.0
1386.393,4856.0
1387.588,4833.0
1388.783,4884.0
1389.977,4898.0
1391.171,4860.0
1392.365,4880.0
1393.559,4888.0
1394.753,4919.0
1395.946,4928.0
1397.14,4892.0
1398.333,4914.0
1399.526,4960.0
1400.719,4911.0
1401.911,4912.0
1403.104,4950.0
1404.296,4909.0
1405.488,4992.0
1406.68,4939.0
1407.872,4980.0
1409.063,4937.0
1410.255,4955.0
1411.446,4967.0
1412.637,4956.0
1413.828,4954.0
1415.018,4938.0
1416.209,5038.0
1417.399,4969.0
1418.589,5047.0
1419.779,5071.0
1420.969,5044.0
1422.159,4967.0
1423.348,4966.0
1424.537,5043.0
1425.726,5005.0
1426.915,5076.0
1428.104,5067.0
1429.293,5071.0
1430.481,5091.0
1431.669,5091.0
1432.857,5052.0
1434.045,5109.0
1435.233,5115.0
1436.42,5132.0
1437.608,5094.0
1438.795,5066.0
1439.982,5128.0
1441.169,5123.0
1442.355,5146.0
1443.542,5161.0
1444.728,5120.0
1445.914,5228.0
1447.1,5117.0
1448.286,5120.0
1449.472,5140.0
1450.657,5159.0
1451.842,5113.0
1453.027,5234.0
1454.212,5194.0
1455.397,5194.0
1456.581,5233.0
1457.766,5184.0
1458.95,5245.0
1460.134,5230.0
1461.318,5182.0
1462.501,5196.0
1463.685,5176.0
1464.868,5193.0
1466.051,5318.0
1467.234,5212.0
1468.417,5263.0
1469.6,5258.0
1470.782,5274.0
1471.965,5331.0
1473.147,5299.0
1474.329,5256.0
1475.51,5279.0
1476.692,5240.0
1477.873,5306.0
1479.055,5271.0
1480.236,5281.0
1481.416,5295.0
1482.597,5314.0
1483.778,5232.0
1484.958,5355.0
1486.138,5355.0
1487.318,5280.0
1488.498,5273.0
1489.678,5409.0
1490.857,5317.0
1492.037,5364.0
1493.216,5315.0
1494.395,5352.0
1495.574,5308.0
1496.752,5292.0
1497.931,5378.0
1499.109,5301.0
1500.287,5380.0
1501.465,5369.0
1502.643,5406.0
1503.82,5413.0
1504.998,5347.0
1506.175,5438.0
1507.352,5431.0
1508.529,5334.0
1509.706,5379.0
1510.882,5385.0
1512.059,5387.0
1513.235,5467.0
1514.411,5471.0
1515.587,5389.0
1516.762,5434.0
1517.938,5431.0
1519.113,5457.0
1520.288,5500.0
1521.463,5457.0
1522.638,5531.0
