Raman Shift,Intensity
214.3785040343428,40.711
224.78145843945092,139.943
235.01908334044856,269.708
245.41130867789616,132.309
255.63837774522108,376.573
265.8602158678186,318.051
276.23642015571386,-30.533
286.44772684514464,-437.639
296.8132434111685,-99.232
307.0140349346475,53.433
317.209615658554,61.066
327.399989574551,22.089
337.7442627077253,-29.505
347.9241537664129,-80.747
358.09885002992814,-118.674
368.2683554736213,-130.315
378.5914504125685,-102.706
388.7505051753542,-22.879
398.90438108190574,122.132
409.0530820913264,206.097
419.196612158652,-76.332
429.3349752349313,340.951
439.626465572117,274.796
449.75442592354375,-150.12
459.8772311743669,228.997
469.994885259468,221.364
480.1073921097559,-211.186
490.2147556521086,-106.865
500.31697980943136,-488.527
510.41406850063504,460.539
520.5060256406359,-208.642
530.5928551403995,435.094
540.6745609068894,55.977
550.7511468431039,435.094
560.8226168481124,111.954
570.888974816975,35.622
580.9502246408374,407.106
590.8492821665859,-7.633
600.9004070215597,-195.92
610.9464353206786,-366.395
620.9873709393651,-264.619
631.0232177491416,218.819
641.0539796175653,66.155
650.9230482019848,-450.361
660.9437310766662,-190.831
670.9593405290361,493.616
680.9698804110958,485.983
690.8190579752118,132.309
700.8195493193562,206.097
710.8149825658329,430.006
720.805361551138,-71.244
730.6347081696804,251.897
740.6150689503047,-269.708
750.4345613154874,68.699
760.404918953056,-132.309
770.3702413346182,76.332
780.174941402227,447.817
790.1302832356378,241.719
799.925166080895,-27.989
809.8705423523497,175.564
819.6556227125038,498.705
829.5910483782136,78.877
839.3663409610526,-53.433
849.2918309472952,-122.132
859.0573504311833,-572.493
868.972919634427,188.286
878.7286806683987,-96.688
888.6343439553166,-664.092
898.3803611591502,318.051
908.12155022542,111.954
918.0124213310264,15.266
927.743888384779,27.989
937.4705381077074,340.951
947.3466501411676,811.667
957.0635996041163,211.186
966.7757425107702,-234.086
976.6371284824854,-218.819
986.3395928168538,55.977
996.0372613373548,-66.155
1005.7301375988682,5.089
1015.5719657306544,404.562
1025.255192198514,139.943
1034.9336371072422,2.544
1044.6073039976543,226.453
1054.2761964070742,284.974
1063.9403178693246,63.61
1073.5996719147442,-348.584
1083.4074711432768,-284.974
1093.057225399156,-692.08
1102.70222286418,295.152
1112.3424670547538,246.808
1121.9779614837898,33.077
1131.6087096607444,106.865
1141.2347150916105,173.02
1150.855981278939,353.673
1160.4725117218331,27.989
1170.0843099159465,-7.633
1179.6913793534914,-129.765
1189.293723523253,-58.521
1198.739039559725,-226.453
1208.3320185130287,20.355
1217.9202825891407,279.885
1227.5038352631818,119.587
1237.0826800068826,-165.387
1246.6568202885535,170.476
1256.226259573108,55.977
1265.639216696829,358.762
1275.1993388504195,4702.073
1284.7547703264208,2060.974
1294.3055145761757,-43.255
1303.7000868433097,412.195
1313.241541245312,-290.063
1322.778318700337,223.908
1332.310422646282,353.673
1341.686663866676,282.43
1351.2095051416618,-91.599
1360.727683146746,1025.398
1370.0902294598782,-323.14
1379.5991650801443,348.584
1388.9526223370776,134.854
1398.4523290278594,27.989
1407.7967104575073,-5.089
1417.287201648047,323.14
1426.7730533080105,-15.266
1436.1038095471376,353.673
1445.5804658554116,61.066
1454.9021792800197,137.398
1464.369653600741,-17.811
1473.6823373500883,228.997
1482.9905472474493,244.264
1492.444310209452,-236.63
1501.7435100404182,134.854
1511.1881242589734,-66.155
1520.4783270994303,25.444
1529.764072276041,-81.421
1539.1950247490097,55.977
1548.4717924494323,-139.943
1557.7441121511074,809.123
1567.1614324998736,-185.742
1576.4247941832873,351.129
1585.6837175051332,-185.742
1594.9382056544855,-279.885
1604.3374199708342,-20.355
1613.5829759239496,40.711
1622.8241063047317,-132.309
1632.0608142900164,371.484
1641.2931030535765,-5.089
1650.6697762525291,109.41
1659.8931649322622,-114.499
1669.1121439444323,-99.232
1678.3267164506542,-180.653
1687.53688560953,178.109
1696.7426545766284,264.171
1705.9440265045123,54.245
1715.1410045427183,-302.556
1724.3335918377925,-657.122
1733.5217915332687,-860.337
1742.705606769683,-763.093
1751.8850406845886,-216.275
1761.0600964125188,363.851
1770.230777085024,-554.682
1779.397085830693,-485.983
1788.55902577511,-310.418
1797.7166000408906,-89.054
1806.8698117476447,-300.241
1816.0186640120735,254.441
1825.163159947857,137.398
1834.1559155330324,73.788
1843.29177827917,-254.441
1852.4232939699289,17.811
1861.550465707216,480.894
1870.673296589972,251.897
1879.644751645923,170.476
1888.758979994156,704.802
1897.8688767172423,45.799
1906.974444902422,-83.966
1915.9289277003045,167.931
1925.025917750907,155.209
1934.118588458099,-269.708
1943.060390766601,43.255
1952.144501554074,86.51
1961.2243021666216,183.198
1970.153450902042,134.854
1979.224709758193,-620.837
1988.1454604369865,150.12
1997.208189584475,-12.722
2006.120554048888,-262.074
2015.1747655127983,-379.117
2024.0787555828572,-379.117
2033.12446136566,-76.332
2042.0200888391555,96.688
2051.057300920809,-178.109
2059.9445775734057,-132.309
2068.9733079113576,-180.653
2077.852245496608,15.266
2086.8725060258803,-38.166
2095.743116275291,-81.421
2104.6096010526526,111.954
2113.6172135316083,-290.063
2122.4753884816528,-91.599
2131.329446630596,83.966
2140.324437642892,-114.499
2149.170203423979,68.699
2158.011861050589,-330.774
2166.994257105456,99.232
2175.8276397748195,437.639
2184.656922912145,45.799
2193.48210937062,45.799
2202.303202000803,389.295
2211.2647105948345,307.874
2220.077557114586,43.255
2228.886318388424,-241.719
2237.6909972563008,58.521
2246.4915965555265,-391.839
2255.2881191208,-25.444
2264.0805677841927,94.143
2272.8689453751285,2.544
2281.6532547204406,109.41
2290.5774032157133,-68.699
2299.353517963282,-595.392
2308.125572976198,-246.808
2316.893571070781,86.51
2325.6575150607823,58.521
2334.273835606975,776.046
2343.029746164546,-193.375
2351.781610997117,142.487
2360.5294329081007,38.166
2369.273214698267,-213.731
2378.0129591658333,340.951
2386.7486691064114,353.673
2395.48034731306,94.143
2404.2079965762314,442.728
2412.788641914361,-89.054
2421.5083075861257,468.172
2430.2239526247795,-114.499
2438.9355798105607,91.599
2447.64319192111,129.765
2456.204142101211,-167.931
2464.9037980916983,-4030.349
2473.5994472792227,-371.484
2482.148638712344,94.143
2490.836348166158,122.132
2499.5200590665554,465.627
2508.0575159626023,-305.329
2516.7333034706826,-488.527
2525.405100652257,22.9
2533.930847154741,-368.94
2542.5947372405863,211.186
2551.112711590584,117.043
2559.768705390503,-300.241
2568.2789182109263,-150.12
2576.927026515033,-185.742
2585.5711635713087,236.63
2594.069721988235,733.931
2602.5644435408976,1148.098
2611.196813145194,1449.516
2619.683804921093,1608.575
2628.3083212822166,1595.664
2636.7875938271245,1381.173
2645.404267656864,935.487
2653.875831497382,228.997
2662.343576738021,-427.461
2670.948539131641,-20.355
2679.408591378582,167.931
2687.8648328054915,190.831
2696.4581076233444,-203.553
2704.906671724595,185.742
2713.351432764532,61.066
2721.792393310454,-111.954
2730.370143142005,10.178
2738.8034471581705,287.519
2747.232958411034,-132.309
2755.658679458633,-126.025
2764.220946338093,367.976
2772.639031576786,1145.881
2781.053334313052,2003.869
2789.463857095703,2738.133
2797.8706024712737,3144.855
2806.2735729839987,3020.217
2814.672771175843,2078.785
2823.0681995864725,353.673
2831.459860753297,376.573
2839.847757211428,-45.799
2848.231891493713,381.662
2856.612266130724,-5.089
2864.988883650767,-338.407
2873.3617465798743,147.576
2881.7308574418275,99.232
2890.096218758139,152.665
2898.457833048058,-124.676
2906.815702828586,48.344
2915.169830614461,-3205.959
2923.5202189181878,-2646.188
2931.8668702499926,-20.355
2940.209787117892,279.885
2948.41001618022,-5.089
2956.7455337723804,-208.642
2965.077324369493,109.41
2973.405390470638,221.364
2981.7297345726547,-124.676
2989.9117125592966,-246.808
2998.2286820744484,55.977
3006.5419370261297,-96.688
3014.8514799023105,-78.877
3023.0189130185245,145.031
3031.3211009634906,-244.264
3039.619584242202,-137.398
3047.776149306213,106.865
3056.067292329164,409.65
3064.2166442633534,40.711
3072.500456765243,430.006
3080.780576892153,-274.796
3088.919096831967,-180.653
3097.1919010483834,43.255
3105.3232317767324,201.009
3113.588729774354,40.711
3121.712880813,-396.928
3129.9710822664056,407.106
3138.0880631202745,-124.676
3146.338977686973,-714.98
3154.448797844241,-139.943
3162.692435164703,-101.776
3170.7951040967964,333.318
3178.894230970407,-86.51
3187.127000956163,-356.218
3195.218990740796,463.083
3203.3074454664093,-180.653
3211.5293695924192,264.619
3219.610701328027,-412.195
3227.688504985643,150.12
3235.899604670318,396.928
3243.9702993997853,228.997
3252.03747301393,-33.077
3260.1011278165533,-68.699
3268.297848330192,-577.582
3276.354412870096,-7.537
3284.407465536773,-7.537
3292.4570086259846,-7.537
3300.5030444314834,-7.537
3308.545575245,-7.537
3316.720827896272,-7.537
3324.756296283769,-7.537
3332.788266581294,-7.537
3340.816741072602,-7.537
3348.8417220394404,-7.537
3356.8632117615925,-7.537
3364.8812125168406,-7.537
3372.895726580995,-7.537
3380.906756227865,-7.537
3388.91430372934,-7.537
3396.918371355256,-7.537
3404.9189613735507,-7.537
3412.9160760501472,-7.537
3420.909717649003,-7.537
3428.8998884321263,-7.537
3436.886590659553,-7.537
3444.734546370892,-7.537
3452.714376952972,-7.537
3460.690745709508,-7.537
3468.663654892749,-7.537
3476.633106752961,516.516
3484.5991035384795,-218.819
3492.4267178764712,318.051
3500.385869715596,43.255
3508.341573175334,226.453
3516.293830496281,-246.808
3524.1079469444667,-91.599
3532.0533770164475,-53.433
3539.9953676218797,-96.688
3547.7993978646555,-206.097
3555.734574435446,292.607
3563.666318194715,-73.788
3571.460281747888,-727.702
3579.385224652753,740.424
3587.30674138396,155.209
3595.090657713052,-374.029
3603.00538673612,-297.696
3610.782634691175,117.043
3618.6905847266535,-379.117
3626.461172873067,55.977
3634.362352626544,-30.533
3642.1262895150494,-124.676
3650.020707677235,201.009
3657.778001843908,-424.917
3665.665667090652,-22.9
3673.416327056992,-71.244
3681.163701429177,287.519
3689.041282322214,-463.083
3696.782035212709,-234.086
3704.6528847781447,-315.507
3712.3870246721344,-15.266
3720.117889469839,195.92
3727.845481251112,170.476
3735.702951367959,277.341
3743.4239470074463,328.229
3751.141675895298,99.232
3758.989119491133,167.931
3766.700264858686,-122.132
3774.408149723422,-66.155
3782.1127761528696,-389.295
3789.814146212797,-20.355
3797.644959575024,-216.275
3805.339767031168,-218.819
3813.03132434014,-4287.334
3820.7196335607214,-1557.18
3828.404696749953,-549.593
3836.086515963114,519.06
3843.76509325378,-147.576
3851.4404306737633,-244.264
3859.112530273167,109.41
3866.7813941003615,290.063
3874.4470242019815,-368.94
3882.109422622947,274.796
3889.7685914064414,262.074
3897.4245325939337,61.066
3905.0772482251705,-150.12
3912.7267403381848,20.355
3920.373010969284,-68.699
3928.016062153074,91.599
3935.655895922435,351.129
3943.292514308545,-2.544
3950.925919340858,-50.888
3958.424585178429,391.839
3966.051624900327,-68.699
3973.675457311714,-152.665
3981.296084435249,-145.031
3988.913508291902,109.41
3996.396478310664,99.232
4004.007556831755,-704.802
4011.615438103967,117.043
4019.220124141517,409.65
4026.690583777876,-292.607
4034.288940385857,267.163
4041.8841077570687,-137.398
4049.3452186808136,-137.398
4056.934068499933,142.487
4064.519735065173,91.599
4071.971514814119,106.865
4079.550875675057,76.332
4086.996462302253,-180.653
4094.5695253181984,152.665
4102.008926541021,445.272
4109.575699558212,35.622
4117.008923081237,-226.453
4124.569413932906,216.275
4131.996467447912,351.129
4139.550683954272,717.524
4146.971575140262,-183.198
4154.519525108568,333.318
4161.93426163181,152.665
4169.475952856366,-71.244
4228.011654085007,-185.742
4235.396210255021,374.029
4242.907210725418,101.776
4250.415076793586,228.997
4257.7904449892885,111.954
4265.292102093408,-78.151
4272.790630641473,-273.583
4280.156827999919,-432.472
4287.649159161061,-512.941
4295.138367597785,-473.123
4302.4954112134365,-271.151
4309.978433811593,134.854
4317.329402006981,430.006
4324.8062464273535,-277.341
4332.151146724958,165.387
4339.621820615692,-48.344
4346.960660525576,55.977
4354.425171522191,351.129
4361.757958542046,356.218
4369.216314267462,511.427
4376.543055882612,-66.155
4383.9952639471885,-55.977
4391.315967630617,-94.143
4398.762035632179,-190.831
4406.07670884455,259.53
4413.516644368407,-20.355
4420.825294558097,646.281
4428.130962180556,-132.309
4435.561739780205,221.364
4442.861395497304,-577.582
4450.1580741507205,-76.332
4457.579710724684,371.484
4464.870388562711,-117.043
4472.158094827057,498.705
4479.570607232323,134.854
4486.852323743988,218.819
4494.131074158497,638.647
4501.534479210626,330.774
4508.807250907994,239.175
4516.077061971264,371.484
4523.3439142079005,239.175
4530.735219799091,-320.596
4537.996107969229,-206.097
4545.254042757973,2.544
4552.509025966887,262.074
4559.888261734326,323.14
4567.13729547953,394.384
4574.383383072374,-267.163
4581.626526308552,38.166
4588.866726982291,99.232
4596.103986886381,-249.352
4603.338307812148,-198.464
4610.69653172473,-9689.121
4617.92492857972,-534.327
4625.150391852971,76.332
4632.372923329975,-89.054
4639.592524794789,-155.209
4646.809198030001,-664.092
4654.022944816745,-61.066
4661.233766934747,-71.244
4668.441666162253,157.754
4675.646644276094,-15.266
4682.8487030516335,-407.106
4690.047844262837,269.708
4697.244069682201,55.977
4704.437381080781,127.221
4711.627780228235,-48.344
4718.815268892759,142.487
4725.999848841122,-422.372
4733.181521838655,48.344
4740.3602896492885,274.796
4747.536154035501,-15.266
4754.583300303697,-409.65
4761.753413983191,442.728
4768.9206294863325,89.054
4776.084948569973,267.163
4783.246372989488,119.587
4790.404904498872,399.473
4797.435032206777,-43.255
4804.5878338284165,-175.564
4811.73774776268,-66.155
4818.884775757928,-244.264
4826.028919561082,483.438
4833.044920461813,1241.673
4840.183351639585,4343.311
4847.3189038270575,498.705
4854.451578765569,254.441
4861.456318765864,519.06
4868.58329482688,73.788
4875.707398824052,101.776
4882.703723295803,320.596
4889.822138682386,928.71
4896.937687177771,-81.421
4903.925611277555,-960.838
4911.035481404608,-1267.929
4918.142489800703,-1160.133
4925.122028648751,-794.895
4932.223368894192,-329.659
4939.197342363797,78.131
4946.293021236786,271.031
4953.385846941688,91.599
4960.35146024984,-282.43
4967.43863475923,63.61
4974.398699333346,-35.622
4981.480229398396,203.553
4988.43475186592,-295.152
4995.510644227063,40.711
5002.459631204903,651.369
5009.529892591847,-251.897
5016.473350686378,246.808
5023.537987818112,-178.109
5030.475923625207,104.321
5037.534943210041,-203.553
5044.467363315067,-188.286
5051.397052412052,-150.12
5058.447683028528,-435.094
5065.371866252855,455.45
5072.416896017057,89.054
5079.335579928018,335.862
5086.251540943114,134.854
5093.288206657562,101.776
5100.198678149784,-173.02
5107.106431592307,190.831
5114.134748143202,618.292
5121.037021830118,236.63
5127.93658230202,122.132
5134.833431158368,-89.054
5141.85065500065,575.037
5148.742037069234,-68.699
5155.630712341699,132.309
5162.516682412504,272.252
5169.522839786696,175.564
5176.403355996677,307.874
5183.281171809234,488.527
5190.156288813778,256.986
5197.028708598496,246.808
5204.021081907653,35.622
5210.888063918697,127.221
5217.752353495271,239.175
5224.613952220541,638.647
5231.472861676462,-1732.745
5238.329083443728,463.083
5245.182619101804,61.066
5252.033470228904,536.871
5258.881638402017,193.375
5265.727125196914,20.355
5272.569932188097,501.249
5279.532181775125,-167.931
5286.369586094326,664.092
5293.204315354014,915.988
5300.036371123795,346.04
5306.865754971979,7.633
5313.692468465706,15.266
5320.516513170878,251.897
5327.216103720151,193.375
5334.034863128356,686.991
5340.850958410447,-284.974
5347.664391127459,213.731
5354.475162839211,3951.472
5361.283275104273,2534.234
5368.088729480027,302.785
5374.891527522632,254.441
5381.6916707870405,300.241
5388.489160826968,58.521
5395.162686039381,203.553
5401.954921596684,-430.006
5408.744508555763,478.349
5415.531448465517,249.352
5422.31574287366,137.398
5428.976315601984,-391.839
5435.7553708175255,-117.043
5442.531785139763,806.579
5449.305560111599,142.487
5456.076697274744,714.98
5462.724355191152,1235.767
5469.490268392445,1315.499
5476.253548375513,1078.703
5482.893493883399,649.914
5489.651558992991,153.667
5496.406995464167,-285.508
5503.039241977291,-543.077
5509.789472642318,-494.509
5516.5370792381145,-15.266
5523.161640139158,590.304
5529.904049975114,173.02
5536.643840300443,76.332
5543.260728941095,269.708
5549.995331531944,348.584
5556.607128017575,844.745
5563.336548861262,312.963
5569.943259067753,-577.582
5576.667504142417,-53.433
5583.269133936614,-137.398
5589.988209211173,228.997
5596.58476445092,-531.782
5603.298675885118,1038.12
5609.890162419251,1055.931
5616.598915963696,150.12
5623.185339632037,282.43
5629.888941228186,228.997
5636.470307861637,12.722
5643.16876344182,17.811
5649.745078862296,503.794
5656.438394349752,76.332
5663.009664370256,549.593
5669.578436568787,91.599
5676.264076103718,478.349
5682.827811578958,-404.562
5689.3890535265455,-17.811
5696.067030305661,318.051
5702.623244186747,30.533
5709.176968824671,478.349
5715.847296014435,206.097
5722.39600122282,559.771
5728.942221462719,50.888
5735.4859581482815,-325.685
5742.146121627004,277.341
5748.684850350968,239.175
5755.221099782248,595.392
5761.754871330697,27.989
5768.404894310675,137.398
5774.933669330552,-66.155
5781.459970716278,590.304
5787.983799873429,371.484
5794.505158206499,-208.642
5801.142549523138,386.751
5807.658925557145,534.327
5814.172834999641,340.951
5820.684279250832,549.593
5827.193259709879,348.584
5833.699777774898,-277.341
5840.203834842934,106.865
5846.7054323099655,493.616
5853.204571570954,323.14
5859.701254019747,575.037
5866.195481049195,-38.166
5872.687254051074,198.464
5879.176574416102,244.264
5885.663443533944,412.195
5892.14786279323,236.63
5898.629833581537,109.41
5905.109357285379,-183.198
5911.586435290243,-142.487
5918.061068980562,379.117
5924.533259739736,-234.086
5931.003008950094,-511.427
5937.470317992949,374.029
5943.935188248557,557.226
5950.397621096134,-50.888
5956.857617913869,96.688
5963.315180078898,284.974
5969.7703089673305,679.358
5976.105705888956,534.327
5982.556016527509,213.731
5989.003897986593,-20.355
5995.449351638199,117.043
6001.8923788532775,5.089
6008.215900781644,287.519
6014.654123287393,165.387
6021.089923438405,544.504
6027.523302601519,193.375
6033.954262142564,-122.132
6040.265942433929,381.662
6046.692110755517,282.43
6053.115863521547,547.049
6059.420472023492,-203.553
6065.839441620141,-147.576
6072.255999718647,106.865
6078.553548309683,465.627
6084.965331270854,0.0
6091.374706782226,-145.031
6097.665207314269,111.954
6104.06981570238,305.329
6110.472020679961,-22.9
6116.755484978421,277.341
6123.152930828903,526.693
6129.431725134898,335.862
6135.824417162912,-241.719
6142.098546680769,320.596
6148.486490183052,-244.264
6154.872039648391,139.943
6161.139160374798,521.604
6167.519969269015,269.708
6173.782438208022,-254.441
6180.158511808193,-221.364
6186.416334137088,-239.175
6192.787677712448,236.63
6199.040858600842,536.871
6205.291741972564,801.49
6211.656022022646,450.361
6217.902271670246,376.573
6224.261834810408,122.132
6230.503455884398,27.989
6236.742785809074,455.45
6243.095304999864,-381.662
6249.330014038809,71.244
6255.677829386121,81.421
6261.907922670827,297.696
6268.1357311500615,-5.089
6274.476522051649,592.848
6280.699722436162,338.407
6286.920641805642,-346.04
6293.139281413962,-178.109
6299.470738832184,22.9
6305.684780516531,-58.521
6311.896546218988,465.627
6318.106037189755,58.521
6324.428181717434,669.18
6330.633084905065,457.994
6336.835717129172,620.837
6343.036079636258,618.292
6349.234173671932,236.63
6355.544716640681,427.461
6361.738235515753,302.785
6367.929489673777,259.53
6374.118480356665,333.318
6380.305208805476,-127.221
6386.489676260331,412.195
6392.671883960451,-96.688
6398.851833144166,78.877
6405.143905470883,580.126
6411.319299566196,442.728
6417.492438877496,358.762
6423.663324639478,267.163
6429.831958085924,363.851
6435.998340449718,175.564
6442.162472962846,424.917
6448.324356856407,323.14
6454.483993360576,671.725
6460.641383704664,4032.893
6466.79652911704,2470.624
6472.949430825232,323.14
6479.100090055821,124.676
6485.248508034543,636.103
6491.280888225534,315.507
6497.424868822251,391.839
6503.5666118162335,798.945
6509.706118429633,671.725
6515.843389883739,1150.074
6521.978427398899,239.175
6528.111232194642,256.986
6534.241805489546,272.252
6540.256680928833,290.063
6546.382836142315,297.696
6552.506763482961,328.229
6558.628464165849,480.894
6564.747939405184,239.175
6570.751928194237,1997.363
6576.866997341494,3511.289
6582.979844660076,791.312
6589.090471360658,91.599
6595.0857801617385,231.541
6601.192010321647,575.037
6607.296023467985,498.705
6613.39782080795,-557.226
6619.384468430493,353.673
6625.481878753591,239.175
6631.577076864334,-186.548
6637.5572509579,-564.488
6643.64806916556,-877.451
6649.623946782151,-1108.232
6655.71038980603,-1239.632
6661.794626582923,-1254.456
6667.764048126817,-1135.503
6673.843916808139,-865.57
6679.809053455574,-427.461
6685.884558743659,-15.266
6691.957863728712,-119.587
6697.916561697035,193.375
6703.985510351609,170.476
6709.939934962422,249.352
6716.004531971987,165.387
6721.954687820689,343.496
6728.014937863976,-155.209
6733.960829539363,274.796
6739.904610751524,379.117
6745.95836937274,521.604
6751.897893261092,643.736
6757.947316561804,335.862
6763.8825876987685,348.584
6769.927680334353,491.072
6775.858703285812,432.55
6781.787623684751,407.106
6787.826249230238,-22.9
6793.750928258974,564.859
6799.673508107371,162.842
6805.705676935038,76.332
6811.624022213946,-15.266
6817.540271677499,432.55
6823.5659941374615,802.637
6829.478015817709,945.475
6835.387945040406,913.686
6841.407231460638,759.889
6847.312939671727,536.705
6853.216558775894,296.757
6859.118089881435,92.667
6865.017534095896,-22.943
6871.026143398485,2.544
6876.921377827312,394.384
6882.814528703813,1246.762
6888.705597132364,615.748
6894.594584216582,38.166
6900.592544785228,305.329
6906.477333270021,478.349
6912.360043737404,361.307
6918.240677287846,393.147
6924.119235021055,582.798
6929.995718035963,831.675
6935.870127430717,1041.197
6941.742464302697,1112.783
6947.6127297485,947.849
6953.480924863958,447.817
6959.347050744116,226.453
6965.21110848328,1872.687
6971.073099174937,190.831
6976.93302391185,48.344
6982.79088378598,600.481
6988.64667988853,188.286
6994.500413309928,228.997
7000.35208513985,43.255
7006.201696467178,259.53
7012.049248380063,427.461
7017.894741965851,979.599
7023.738178311156,3518.922
7029.579558501813,1376.527
7035.418883622879,422.372
7041.2561547586665,63.61
7047.091372992727,399.473
7052.924539407839,-244.264
7058.645653010426,824.389
7064.474757695687,-483.438
7070.301813785409,-109.41
7076.126822359336,213.731
7081.949784496486,203.553
7087.660891581778,228.997
7093.479802640664,384.206
7099.296670474898,-109.41
7105.111496160462,244.264
7110.814624476749,10.178
7116.625407570507,287.519
7122.434151718757,274.796
7128.2408579944895,414.739
7133.936024250346,371.484
7139.73869639702,368.94
7145.53933386541,376.573
7151.22854892195,284.974
7157.025158582874,776.046
7162.819736753059,63.61
7168.503009933542,68.699
7174.293566604632,450.361
7180.082094965896,541.96
7185.759435574095,699.713
7191.54394873148,450.361
7197.2173519438,50.888
7202.997854073568,363.851
7208.667323984642,689.536
7214.443819257263,435.094
7220.109359956041,134.854
7225.881852536215,76.332
7231.54346810597,340.951
7237.311962152613,-89.054
7242.969656670975,707.347
7248.734156337254,83.966
7254.387933876205,66.155
7260.148443309525,307.874
7265.798307935409,17.811
7271.554831277448,190.831
7277.20078705097,25.444
7282.953328437674,-264.619
7288.59537941395,-455.45
7294.235498085545,760.779
7299.982093204053,58.521
7305.618313131272,432.55
7311.252603748333,-15.266
7316.993261813666,-40.711
7322.623659726734,-157.754
7328.252131317968,534.327
7333.9868615261075,435.094
7339.611446441268,162.842
7345.234108016753,501.249
7350.962919544712,343.496
7356.581700459581,480.894
7362.198561010817,-33.077
7367.813502182726,208.642
7373.426524958988,338.407
7379.145517410223,633.559
7384.7546694986595,139.943
7390.361906157261,763.324
7395.967228366993,417.284
7401.570637108154,361.307
7407.279835705631,-122.132
7412.879383697611,353.673
7418.477021176703,366.395
7424.072749120482,203.553
7429.666568505905,330.774
7435.258480309247,750.602
7440.848485506111,33.077
7446.436585071431,-50.888
7452.022779979503,122.132
7457.607071203925,323.14
7463.296794702215,236.63
7468.877244915177,76.332
7474.455794380043,361.307
7480.032444067743,178.109
7485.607194948596,137.398
7491.18004799222,366.395
7496.751004167574,470.716
7502.2129850032,491.072
7507.7801867781745,618.292
7513.345494569261,468.172
7518.908909342786,-27.989
7524.470432064445,63.61
7530.03006369928,333.318
7535.587805211653,740.424
7541.1436575652915,134.854
7546.697621723266,274.796
7552.249698647978,333.318
7557.693172648,526.693
7563.241514237732,422.372
7568.787971459049,312.963
7574.332545271769,132.309
7579.87523663506,272.252
7585.416046507413,330.774
7590.848475703144,274.796
7596.385561603231,417.284
7601.920768865631,575.037
7607.454098446255,76.332
7612.879194899509,506.338
7618.4088080453,-213.731
7623.936546354853,307.874
7629.462410781522,81.421
7634.880189328982,234.086
7640.402344837916,30.533
7645.9226293018255,-68.699
7651.334937948188,346.04
7656.851519109852,567.404
7662.260197498763,40.711
7667.773079083498,-114.499
7673.284094334183,618.292
7678.687316594296,277.341
7684.194637864675,20.355
7689.7000956236625,122.132
7695.097870006797,544.504
7700.599639370841,-918.533
7705.993798107356,40.711
7711.491882781789,132.309
7716.882429503323,155.209
7722.376833188511,437.639
7727.763771521855,445.272
7733.254497913214,437.639
7738.637831480286,608.114
7744.124884268305,-124.676
7749.504616686187,27.989
7754.987999556393,5.089
7760.364134437317,244.264
7765.738489349154,55.977
7771.216392021717,274.796
7776.587154788423,175.564
7782.061396717661,43.255
7787.428570939446,742.968
7792.793969640064,-218.819
7798.262745065967,-139.943
7803.624560595526,605.57
7808.984603262106,424.917
7814.447920368751,536.871
7819.804385227417,99.232
7825.159079875983,455.45
7830.616946831127,625.925
7835.968069024231,234.086
7841.317423654822,22.9
7846.665011598543,435.094
7852.115636126822,58.521
7857.459658723532,597.937
7862.801917273948,516.516
7868.142412651388,-127.221
7873.481145728587,175.564
7878.922746278997,127.221
7884.257922859626,363.851
7889.59133977185,310.418
7894.922997886111,310.418
7900.252898072242,511.427
7905.581041199541,755.69
7910.907428136696,407.106
7916.336446752692,457.994
7921.65928952102,496.16
7926.980378718883,1262.028
7932.29971521271,221.364
7937.617299868325,1353.627
7942.933133550996,284.974
7948.247217125423,867.644
7953.559551455743,3562.177
7958.870137405502,793.857
7964.178975837705,340.951
7969.486067614758,488.527
7974.791413598527,175.564
7980.0950146503055,430.006
7985.396871630804,402.017
7990.696985400187,198.464
7995.995356818043,511.427
8001.291986743403,-94.143
8006.586876034729,-139.943
8011.880025549901,580.126
8017.067699705829,267.163
8022.357406311574,371.484
8027.645375694708,493.616
8032.931608710882,768.412
8038.216106215201,173.02
8043.498869062179,391.839
8048.779898105804,440.183
8053.955695240969,-17.811
8059.233293192043,-221.364
8064.509159881611,569.948
8069.783296161415,376.573
8074.952338977277,335.862
8080.223050878609,58.521
8085.492034905405,562.315
8090.759291907168,91.599
8095.921593616502,-30.533
8101.185432936367,516.516
8106.447547759821,-86.51
8111.604810570996,272.252
8116.863512715307,134.854
8122.120492886879,-10.178
8127.272724173963,78.877
8132.526296659391,412.195
8137.778149690843,384.206
8142.925356813517,231.541
8148.173807142077,704.802
8153.4205405305,-427.461
8158.562730834117,175.564
8163.806066493191,-38.166
8168.944927307508,-198.464
8174.184868536668,25.444
8179.32040309432,473.261
8184.55695318873,628.47
8189.689164718173,340.951
8194.922326968728,297.696
8200.051218694258,343.496
8205.280996387602,267.163
8210.406571529322,203.553
8215.632967947844,442.728
8220.7552297217,564.859
8225.978248143558,-173.02
8231.097199761349,564.859
8236.316843460441,38.166
8241.43248812982,-432.55
8246.546496881761,-33.077
8251.76110130029,-6297.42
8256.871807891675,-1684.401
8261.98088093357,310.418
8267.190453365733,450.361
8272.296229025691,-114.499
8277.400373499535,631.014
8282.604921225458,3259.392
8287.705773086778,643.736
8292.804996120794,145.031
8298.004526406577,531.782
8303.100461588281,511.427
8308.194770296956,407.106
8313.28745331115,837.112
8318.48031600209,4752.962
8323.569717486189,1463.037
8328.657495624051,427.461
8333.743651192239,284.974
8338.828184966831,694.624
8344.012739449463,76.332
8349.093999566121,-480.894
8354.17364022991,842.2
8359.251662214898,603.026
8364.328066294685,7.633
8369.402853242376,765.868
8374.476023830553,-175.564
8379.547578831349,412.195
8384.718901354245,195.92
8389.787195221597,30.533
8394.853875830348,653.914
8399.91894395064,259.53
8404.98240035212,-5.089
8410.044245803958,129.765
8415.104481074803,3366.257
8420.163106932847,4409.466
8425.220124145773,595.392
8430.275533480788,295.152
8435.32933570461,228.997
8440.381531583458,422.372
8445.432121883085,150.12
8450.48110736873,244.264
8455.528488805172,287.519
8460.473367100913,-7.633
8465.51757477424,170.476
8470.560180674485,709.891
8475.601185564497,282.43
8480.64059020661,287.519
8485.67839536271,338.407
8490.714601794163,585.215
8495.749210261878,279.885
8500.681576948675,318.051
8505.713023691114,727.702
8510.742874734438,-974.51
8515.771130837642,-3928.572
8520.797792759218,-180.653
8525.722375497866,366.395
8530.745883175656,384.206
8535.7677989293,478.349
8540.788123515384,445.272
8545.706498587671,33.077
8550.723674892208,170.476
8555.739262280982,-117.043
8560.652997083213,241.719
8565.665440644778,302.785
8570.676297538128,-12.722
8575.585398634048,241.719
8580.593116146138,852.378
8585.599249233324,714.98
8590.503723174297,-129.765
8595.506721317797,903.266
8600.508137275468,3697.031
8605.40799060051,1061.02
8610.406276043708,508.882
8615.303062904772,43.255
8620.298220771765,292.607
8625.191944046568,-211.186
8630.18397727198,623.381
8635.074639834631,544.504
8640.063551349394,572.493
8644.951156070434,776.046
8649.936948801806,-66.155
8654.821498548154,371.484
8659.804175419777,399.473
8664.685673054784,81.421
8669.665236986599,463.083
8674.543685370048,340.951
8679.520139278378,442.728
8684.395541266465,-157.754
8689.2694364983,590.304
8694.241246509358,356.218
8699.112099609058,384.206
8703.981448060618,145.031
8708.948620671701,498.705
8713.81493124642,12.722
8718.779005433622,-422.372
8723.642280973501,559.771
8728.504055374753,348.584
8733.364329332315,323.14
8738.32224658698,646.281
8743.179491154478,111.954
8748.035237374625,-137.398
8752.889485940628,786.223
8757.8412577103,203.553
8762.692482517024,-727.702
8767.542211760752,234.086
8772.39044613298,104.321
8777.336083836857,442.728
8782.18130006664,183.198
8787.02502351089,259.53
8791.867254859393,765.868
8796.707994801498,167.931
8801.547244026118,-1452.859
8806.385003221756,73.788
8811.319956958603,679.358
8816.154707786565,485.983
8820.987970662514,600.481
8825.819746273257,1379.071
8830.650035305174,910.899
8835.478838444196,714.98
8840.306156375878,819.301
8845.131989785303,427.461
8849.956339357173,152.665
8854.779205775758,496.16
8859.60058972489,676.814
8864.420491888006,742.968
8869.238912948098,651.369
8874.055853587757,575.037
8878.871314489159,1170.43
8883.685296334032,-129.765
8888.497799803714,519.06
8893.308825579123,325.685
8898.118374340735,539.415
8902.926446768637,-38.166
8907.634964476681,106.865
8912.440116370435,343.496
8917.243793954342,585.215
8922.045997906822,307.874
8926.846728905857,470.716
8931.645987629043,-193.375
8936.443774753548,134.854
8941.142221650607,1068.653
8945.937097605834,539.415
8950.73050397759,91.599
8955.522441441404,521.604
8960.215160665939,361.307
8965.004192282166,689.536
8969.791757000756,267.163
8974.577855495572,534.327
8979.26485751475,129.765
8984.048055470721,824.389
8988.829789208343,664.092
8993.51251749025,702.258
8998.291354655303,10.178
9003.068729603765,806.579
9007.747189991118,427.461
9012.521672326067,994.865
9017.294694442531,732.791
9021.968892767374,94.143
9026.739026222178,450.361
9031.41039612206,4376.389
9036.17764353675,664.092
9040.943434050514,361.307
9045.610551571128,310.418
9050.373459984672,582.67
9055.037755503963,-27.989
9059.797784430888,-173.02
9064.45926050758,999.954
9069.216412558366,226.453
9073.87507174812,165.387
9078.629349530078,190.831
9083.285194385431,78.877
9088.036600502714,389.295
9092.689633573158,-391.839
9097.438170626783,33.077
9102.088394458704,58.521
9106.73722909284,333.318
9111.481482183284,587.759
9116.12751137963,137.398
9120.868901881862,409.65
9125.512128179163,580.126
9130.153968412898,-145.031
9134.891084617178,226.453
9139.53012574118,86.51
9144.167782675046,923.622
9148.9006303586,437.639
9153.535491965213,251.897
9158.168971251744,480.894
9162.801068836525,328.229
9167.528243916331,157.754
9172.157551197888,432.55
9176.785478643267,717.524
9181.412026869286,1027.942
9186.13353953768,201.009
9190.757302472506,287.519
9195.37968804908,412.195
9200.000696882766,246.808
9204.620329588544,226.453
9209.334785850184,-213.731
9213.951639506451,35.622
9218.567118890363,396.928
9223.181224615444,7.633
9227.79395729483,249.352
9232.40531754132,608.114
9237.015305967328,249.352
9241.623923184923,295.152
9246.23116980579,320.596
9250.932987640888,15.266
9255.537466379788,694.624
9260.140576367572,488.527
9264.742318214474,366.395
9269.342692530376,226.453
9273.941699924766,269.708
9278.539341006806,564.859
9283.135616385269,460.539
9287.730526668583,452.905
9292.324072464791,552.137
9296.91625438162,-447.817
9301.411444872112,239.175
9306.00092923447,1028.602
9310.589051525738,1428.265
9315.175812352172,1528.637
9319.761212319692,1420.176
9324.345252033823,1193.353
9328.927932099774,938.631
9333.509253122353,746.471
9338.08921570604,707.347
9342.572446701386,608.114
9347.149722488744,-188.286
9351.7256416359,539.415
9356.300204745894,1221.3
9360.873412421412,1584.746
9365.350032145325,1681.459
9369.920558965528,1563.147
9374.489732144635,1281.51
9379.05755228394,888.259
9383.528899030936,435.094
9388.09404305015,25.444
9392.657835818722,-45.799
9397.125240831178,506.338
9401.6863610176,381.662
9406.246131739394,679.358
9410.80455359534,702.258
9415.266701898625,173.02
9419.822455888205,162.842
9424.281993052333,475.805
9428.835081516963,-262.074
9433.38682407955,38.166
9437.84243511156,389.295
9442.391515668474,330.774
9446.84452129656,363.851
9451.390942182352,506.338
9455.93602012123,282.43
9460.385108237591,918.533
9464.927530014324,147.576
9469.374018445214,460.539
9473.913786387537,195.92
9478.35767741084,127.221
9482.894793843763,340.951
9487.33608973474,363.851
9491.87055698055,-201.009
9496.30926001177,353.673
9500.74668109923,417.284
9505.277192831463,633.559
9509.71202445114,659.003
9514.23989277796,127.221
9518.672137195834,478.349
9523.103102466685,587.759
9527.62702390948,725.157
9532.05540536064,391.839
9536.57668916292,-53.433
9541.002489053764,407.106
9545.42701258622,-628.47
9549.850260312329,-226.453
9554.36630345335,236.63
9558.78697410632,722.613
9563.206370618926,272.252
9567.718482324255,188.286
9572.13530512818,40.711
9576.550855454823,-208.642
9580.965133854,139.943
9585.47202083257,-272.252
9589.883729992052,1206.051
9594.294168883298,-33.077
9598.703338054846,447.817
9603.111238054931,379.117
9607.611613766734,190.831
9612.016950092931,376.573
9616.421018902103,463.083
9620.823820741218,447.817
9625.225356156909,552.137
9629.625625695517,941.432
9634.02462990307,366.395
9638.422369325252,496.16
9642.81884450748,226.453
9647.21405599481,485.983
9651.701478874824,53.433
9656.094137748323,241.719
9660.485534571855,544.504
9664.875669889248,608.114
9669.264544244,-353.673
9673.65215817932,358.762
9678.03851223808,730.246
9682.423606962846,226.453
9686.807442895892,30.533
9691.19002057915,127.221
9695.478134071804,692.08
9699.858223622705,-142.487
9704.23705653629,638.647
9708.614633353289,526.693
9712.990954614088,837.112
9717.36602085878,804.034
9721.739832627154,679.358
9726.112390458671,610.659
9730.483694892511,442.728
9734.760779687776,547.049
9739.129605581998,1005.043
9743.497179682729,162.842
9747.863502527893,419.828
9752.228574655115,68.699
9756.499562339395,50.888
9760.862161224974,1172.974
9765.223510992222,575.037
9769.583612177565,58.521
9773.849736751828,549.593
9778.207368918504,646.281
9782.563754099236,396.928
9786.918892829211,651.369
9791.18016259473,430.006
9795.532836519418,671.725
9799.884265585692,793.857
9804.14190615754,323.14
9808.490873566669,473.261
9812.83859770701,178.109
9817.09261371952,239.175
9821.437879345483,58.521
9825.689490172908,124.676
9830.032299369228,-40.711
9834.373867936378,124.676
9838.621861899856,676.814
9842.960977171238,437.639
9847.206571054325,730.246
9851.543235108787,228.997
9855.786430944943,381.662
9860.12064585897,564.859
9864.361445679362,727.702
9868.693213527116,455.45
9872.931619360628,-292.607
9877.26094221391,-3221.226
9881.49695608711,-3396.79
9885.823836015392,259.53
9890.057459952584,218.819
9894.289902518456,1175.518
9898.613135046206,94.143
9902.843190697367,374.029
9907.163985452502,773.501
9911.391656207565,361.307
9915.61814808206,295.152
9919.935303126713,536.871
9924.15941311792,226.453
9928.38234571751,-312.963
9932.695865648708,475.805
9936.91641937277,188.286
9941.135797191648,142.487
9945.445686598703,409.65
9949.662688544726,312.963
9953.878516069532,33.077
9958.09316966365,333.318
9962.398234183594,384.206
9966.61051589339,178.109
9970.821625153134,508.882
9975.031562452265,58.521
9979.240328279942,132.309
9983.53937957713,-15.266
9987.745778488254,-468.172
9991.95100740443,653.914
9996.155066813732,402.017
10000.357957203963,709.891
10004.55967906266,536.871
10008.760232877092,58.521
10013.050897176752,259.53
10017.249090997648,264.619
10021.446118245014,264.619
10025.641979405023,684.447
10029.83667496358,127.221
10034.03020540632,363.851
10038.222571218605,1137.352
10042.413772885537,936.344
10046.603810891938,198.464
10050.79268572236,340.951
10054.980397861098,244.264
10059.16694779218,124.676
10063.352335999334,328.229
10067.536562966066,167.931
10071.719629175575,251.897
10075.90153511081,1017.765
10080.082281254454,577.582
10084.26186808891,244.264
10088.440296096323,323.14
10092.52676786215,152.665
10096.702904826674,659.003
10100.877884398516,468.172
10105.051707058765,-137.398
10109.224373288234,516.516
10113.395883567471,162.842
10117.475590772649,305.329
10121.64481569536,340.951
10125.812886097472,76.332
10129.979802458443,-246.808
10134.145565257517,361.307
10138.219652237512,114.499
10142.383134400929,76.332
10146.545464428116,366.395
10150.706642797257,786.223
10154.776246850048,-201.009
10158.935148346747,150.12
10163.092899607942,674.269
10167.159152430871,531.782
10171.314629631466,-155.209
10175.468958016776,351.129
10179.531863747628,83.966
10183.683920879565,-38.166
10187.834830614069,218.819
10191.894393383842,272.252
10196.043034667582,318.051
10200.190529969435,-43.255
10204.246753902304,554.682
10208.391983551395,374.029
10212.44599199288,389.295
10216.588957845182,424.917
10220.640752609928,99.232
10224.781456519388,58.521
10228.831039420063,-15.266
10232.969483238625,478.349
10237.016856085897,-503.794
10241.15304166346,119.587
10245.19820626604,653.914
10249.332135450502,256.986
10253.375093615126,320.596
10257.506768252357,231.541
10261.547521783785,381.662
10265.58718577827,-20.355
10269.715494418666,-27.989
10273.752956473523,198.464
10277.87901516247,885.455
10281.91427707755,348.584
10285.948451675904,595.392
10290.0711512271,442.728
10294.10312837192,363.851
10298.13401952729,277.341
10302.253364041218,480.894
10306.282060424935,203.553
10310.309672144327,335.862
10314.425665714796,109.41
10318.451085340042,483.438
10322.475421623927,348.584
10326.498675003731,117.043
10330.610215200984,150.12
10334.631280043344,376.573
10338.651263301725,190.831
10342.670165412448,188.286
10346.687986811625,432.55
10350.704727935088,-15.266
10354.80961387438,312.963
10358.824171771252,585.215
10362.837650708272,692.08
10366.850051120337,384.206
10370.86137344214,414.739
10374.871618108127,78.877
10378.880785552512,628.47
10382.888876209276,544.504
10386.984923052532,575.037
10390.990837530662,25.444
10394.995676531347,623.381
10398.999440487634,40.711
10403.00212983234,480.894
10407.003744998048,340.951
10411.004286417105,106.865
10415.003754521616,236.63
10419.002149743475,631.014
10422.999472514348,180.653
10426.995723265634,160.298
10430.990902428544,-142.487
10434.985010434026,208.642
10438.889325180557,432.55
10442.881315942828,694.624
10446.872236829608,564.859
10450.86208827093,279.885
10454.85087069661,442.728
10458.838584536235,178.109
10462.82523021915,501.249
10466.810808174472,-300.241
10470.706785742112,333.318
10474.690253232264,422.372
10478.672654271297,150.12
10482.653989287404,195.92
10486.634258708573,564.859
10490.525047770485,203.553
10494.50321094102,-208.642
10498.480309789697,633.559
10502.45634474356,402.017
10506.342995080442,147.576
10510.316927143493,404.562
10514.2897965821,-2.544
10518.261603822417,791.312
10522.144122034457,96.688
10526.113829736623,170.476
10530.082476508169,366.395
10533.961905709137,519.06
10537.92845544769,501.249
10541.89394552126,167.931
10545.770289396216,231.541
10549.733684937964,201.009
10553.607981637546,631.014
10557.569284306495,557.226
10561.52952941227,-61.066
10565.400746905443,183.198
10569.35890163298,307.874
10573.22807600992,300.241
10577.184142013864,478.349
10581.05127489159,244.264
10585.005253824836,742.968
10588.87034681866,384.206
10592.822240332363,150.12
10596.685295055897,468.172
10600.635104799476,216.275
10604.496122864624,-160.298
10608.443850485746,236.63
10612.302833502728,7.633
10616.160811022752,582.67
10620.10543022464,12.722
10623.9613750996,-15.266
10627.903916281392,340.951
10631.757830117263,335.862
10635.61074043666,781.134
10639.550179321655,-404.562
10643.401060998756,396.928
10647.250940343372,279.885
10651.187280591832,363.851
10655.035133687184,661.547
10658.881985632182,1852.332
10662.815230898605,-188.286
10666.660058983602,259.53
10670.50388709854,450.361
10674.346715633475,101.776
10678.275847672114,460.539
10682.116655520924,-180.653
10685.956464967534,526.693
10689.795276401208,631.014
10693.633090210977,-147.576
10697.557095575656,-310.418
10701.39289265285,-147.576
10705.227693280882,22.9
10709.061497847986,305.329
10712.894306742182,274.796
10716.726120351308,549.593
10720.55693906298,597.937
10724.386763264632,178.109
10728.302600658342,323.14
10732.130414421008,206.097
10735.957234843503,379.117
10739.783062312445,554.682
10743.60789721425,234.086
10747.431739935131,-147.576
10751.254590861114,-83.966
10755.076450378,488.527
10758.897318871408,-190.831
10762.717196726757,-282.43
10766.536084329256,-197.545
10770.353982063916,-52.003
10774.170890315563,112.244
10777.98680946881,253.23
10781.801739908076,328.998
10785.615682017564,297.589
10789.341989100834,117.043
10793.153978142976,-244.264
10796.964979998098,-554.682
10800.774995049622,315.507
10804.58402368077,61.066
10808.392066274577,-119.587
10812.199123213884,239.175
10816.005194881312,1091.553
10819.723813349112,61.066
10823.52793799081,-922.899
10827.331078498672,-1337.195
10831.133235254529,-1320.728
10834.848029253728,-1012.404
10838.64824198676,-551.132
10842.447472103491,-75.818
10846.24571998498,274.631
10849.956695412544,361.307
10853.753002267928,353.673
10857.548328021428,910.899
10861.342673053316,25.444
10865.049835794096,610.659
10868.842242790466,351.129
10872.63367019626,160.298
10876.337982712816,38.166
10880.12747431772,109.41
10883.82989575329,150.12
10887.617453039476,-740.424
10891.404032613404,452.905
10895.103609289945,335.862
10898.88825677408,-984.687
10902.585945994537,66.155
10906.368662867266,76.332
10910.150403901262,-114.499
10913.845253813895,653.914
10917.62506645972,-114.499
10921.318032531915,465.627
10925.095918264182,-386.751
10928.787001936307,193.375
10932.562962228116,254.441
10936.252164939066,157.754
10939.940438510435,15.266
10943.713524449233,335.862
10947.399919206764,12.722
10951.171083372872,732.791
10954.855600751816,-124.676
10958.62484461311,-2.544
10962.307486047235,-109.41
10965.989200819247,188.286
10969.755577991731,648.825
10973.435418958636,432.55
10977.114334320191,173.02
10980.877848072992,-101.776
10984.554891765896,20.355
10988.231010908596,241.719
10991.991664505884,498.705
10995.665914113146,442.728
10999.33924022374,595.392
11003.011643185791,445.272
11006.768495629847,361.307
11010.439031890255,295.152
11014.108646053544,-915.988
11017.777338467138,-195.92
11021.530395518184,277.341
11025.197224058184,71.244
11028.863131897786,674.269
11032.528119383707,111.954
11036.192186862492,590.304
11039.855334680517,173.02
11043.602720353196,-66.155
11047.264008520897,109.41
11050.924378073953,-5.089
11054.58382935806,-139.943
11058.242362718707,-763.324
11061.899978501227,-9745.098
11065.556677050785,-315.507
11069.21245871235,104.321
11072.867323830738,-86.51
11076.521272750586,391.839
11080.174305816368,-68.699
11083.826423372368,-101.776
11087.477625762698,661.547
11091.127913331318,58.521
11094.777286422,-38.166
11098.425745378345,218.819
11102.073290543767,-142.487
11105.719922261547,-488.527
11109.36564087477,155.209
11113.010446726335,358.762
11116.654340159006,506.338
11120.29732151534,206.097
11123.93939113774,575.037
11127.580549368427,643.736
11131.22079654947,669.18
11134.77550763161,-119.587
11138.413954906267,-38.166
11142.051492148485,272.252
11145.688119699626,430.006
11149.323837900913,-208.642
11152.958647093375,111.954
11156.508048620988,249.352
11160.141061938251,165.387
11163.773167260852,206.097
11167.40436492916,-396.928
11170.950240228543,-236.63
11174.579644697213,48.344
11178.208142523734,-7.633
11181.751381744987,152.665
11185.378088371155,2615.656
11189.003889365817,452.905
11192.628785068173,315.507
11196.16850723805,25.444
11199.79161440632,175.564
11203.413817290922,669.18
11206.950910239968,-12.722
11210.571326582844,1078.831
11214.10667518314,-287.519
11217.725306305692,211.186
11221.343034819707,-185.742
11224.875759069631,-325.685
11228.49170435076,-76.332
11232.022687482247,310.418
11235.636850848638,-190.831
11239.166094148528,175.564
11242.778476917028,-491.072
11246.305981670925,-320.596
11249.91658515709,10.178
11253.442352649325,269.708
11257.05117816741,513.971
11260.575209681025,5.089
11264.182258544,-226.453
11267.704555360804,-2.544
11271.309828880325,-127.221
11274.83039228086,-89.054
11278.350099642112,-122.132
11281.952723030843,-106.865
11285.470698886753,-78.877
11288.987819646914,292.607
11292.587795825824,-356.218
11296.103186988752,45.799
11299.70139304264,-12.722
11303.215055883851,-381.662
11306.727865201254,68.699
11310.23982130582,-239.175
11313.834511810855,-12.722
11317.34474212601,412.195
11320.8541201677,-218.819
11324.446172200132,-94.143
11327.953826352135,-389.295
11331.460629168672,295.152
11334.96658095964,524.149
11338.471682034791,-63.61
11342.059356881087,55.977
11345.562737216636,346.04
11349.06526777208,-221.364
11352.566948856567,323.14
11356.067780779093,162.842
11359.56776384851,402.017
11363.1502007606,183.198
11366.648466857394,-284.974
11370.145885034064,-124.676
11373.642455598843,292.607
11377.138178859836,447.817
11380.633055125,351.129
11384.1270847021,-424.917
11387.620267898808,239.175
11391.112605022612,404.562
11394.60409638087,-231.541
11398.094742280777,-178.109
11401.584543029392,-134.854
11405.073498933603,414.739
11408.561610300185,552.137
11412.048877435727,-246.808
11415.5353006467,76.332
11419.020880239405,-30.533
11422.505616520008,48.344
11425.989509794525,669.18
11429.472560368817,-86.51
11432.954768548592,-68.699
11436.43613463944,-328.229
11439.916658946764,399.473
11443.313501961433,-445.272
11446.79236364179,-2.544
11450.270384446749,-137.398
11453.74756468115,-536.871
11457.22390464968,-338.407
11460.699404656869,409.65
11464.091344754375,-178.109
11467.565185732994,-142.487
11471.038187655771,71.244
11474.51035082668,-201.009
11477.981675549512,-83.966
11481.369541233144,287.519
11484.839209915755,-361.307
11488.30804105362,-302.785
11491.693473394258,-1170.43
11495.16065027576,117.043
11498.626990514544,463.083
11502.092494413417,773.501
11505.474679896604,-315.507
11508.938531918346,-68.699
11512.401548500471,-30.533
11515.78130675673,5.089
11519.242673239612,96.688
11522.620821260369,274.796
11526.080538823127,318.051
11529.5394224415,12.722
11532.915147579475,791.312
11536.372384051368,-78.877
11539.74650183491,-442.728
11543.202092336618,61.066
11546.574603913472,-117.043
11550.028549620163,351.129
11553.399456136987,33.077
11556.85175822272,221.364
11560.221060825072,208.642
11563.67172046279,-234.086
11567.039420295116,-198.464
11570.488438656655,45.799
11573.854536862347,389.295
11577.301915118398,399.473
11580.666412839755,76.332
11584.030120381583,-55.977
11587.475050538147,-221.364
11590.837159300165,86.51
11594.280452266124,-12.722
11597.64096338792,-193.375
11601.000685734118,139.943
11604.441534950183,-745.513
11607.79966135666,277.341
11611.156999826935,-89.054
11614.59540789372,544.504
11617.951152122365,-33.077
11621.306109253032,302.785
11624.66027956261,279.885
11628.09544335218,101.776
11631.44802167594,-417.284
11634.799814015252,-127.221
11638.15082064648,-33.077
11641.58274474832,241.719
11644.932161645294,2348.492
11648.280793669244,407.106
11651.62864109602,-193.375
11654.975704201344,5.089
11658.403590030808,213.731
11661.749066206958,-55.977
11665.093758894744,-269.708
11668.43766836938,-211.186
11671.780794905935,318.051
11675.12313877933,475.805
11678.4647002644,4541.775
11681.805479635816,709.891
11685.145477168146,134.854
11688.484693135812,290.063
11691.904543291126,173.02
11695.24217790648,228.997
11698.579031786354,-122.132
11701.915105204676,-99.232
11705.25039843522,-366.395
11708.584911751648,180.653
11711.918645427471,134.854
11715.251599736104,320.596
11718.502511651865,-358.762
11721.83392703817,-292.607
11725.164563870054,7.633
11728.4944224204,295.152
11731.823502961994,-157.754
11735.15180576744,-122.132
11738.479331109273,-201.009
11741.806079259855,485.983
11745.132050491462,83.966
11748.457245076206,-203.553
11751.70058915004,-183.198
11755.024250183047,-180.653
11758.34713537819,76.332
11761.669245007088,-139.943
11764.990579341233,343.496
11768.230158619372,-55.977
11771.549962071174,147.576
11774.86899103535,178.109
11778.187245782876,-318.051
11781.423821624776,251.897
11784.740547618409,-234.086
11788.05650020102,-552.137
11791.371679643096,-20.355
11794.605256223578,249.352
11797.91890903626,-119.587
11801.231789512534,251.897
11804.46312397414,162.842
11807.774479408556,-394.384
11811.085063309589,43.255
11814.314157983485,-223.908
11817.623218427994,-127.221
11820.850827315822,183.198
11824.158365355152,-22.9
11827.4651331948,-170.476
11830.690506166697,-361.307
11833.995753182851,-4752.962
11837.219642936305,-218.819
11840.52337017791,2.544
11843.745777735792,216.275
11847.047986250807,562.315
11850.26891263506,-249.352
11853.569603470474,-513.971
11856.789049702087,-68.699
11860.088223903953,114.499
11863.30619100298,-61.066
11866.603849616356,-557.226
11869.820338601929,-3506.2
11873.11648267094,-768.412
11876.331494561222,-150.12
11879.545777396996,267.163
11882.839660941268,-86.51
11886.052468201013,145.031
11889.26454715598,-195.92
11892.55617250015,81.421
11895.766777396242,315.507
11899.056892350098,-170.476
11902.26602420178,-361.307
11905.474428998024,-361.059
11908.682106985869,-276.608
11911.969222890988,-140.96
11915.17542984806,12.882
11918.380910743392,151.917
11921.66577540321,243.137
11924.869786778698,253.537
11928.07307283808,150.12
11931.27563382762,-48.344
11934.477469993468,-155.209
11937.758600089848,-89.054
11940.95896924119,559.771
11944.158614312782,-208.642
11947.35753555032,519.06
11950.55573319941,302.785
11953.753207505528,155.209
11957.029868231695,241.719
11960.225878519712,-511.427
11963.42116620667,147.576
11966.615731537608,488.527
11969.809574757444,254.441
11973.002696111003,-1427.415
11976.195095842992,-35.622
11979.386774197992,272.252
11982.577731420495,101.776
11985.767967754866,-195.92
11988.957483445382,-259.53
11992.146278736183,129.765
11995.334353871312,-160.298
11998.521709094712,-109.41
12001.708344650193,-3078.738
12004.894260781464,-1330.727
12008.079457732136,-152.665
12011.2639357457,188.286
12014.44769506553,-63.61
12017.630735934905,147.576
12020.81305859698,274.796
12023.994663294816,-10.178
12027.175550271351,117.043
12030.27622427429,259.53
12033.455694464548,292.607
12036.634447655608,175.564
12039.812484089987,-203.553
12042.989804010074,-50.888
12046.166407658158,-264.619
12049.26290681064,5.089
12052.4380965329,-234.086
12055.612570703324,139.943
12058.786329563762,-455.45
12061.880055974125,2788.676
12065.052402807443,1788.722
12068.224035049663,-201.009
12071.394952942192,-78.877
12074.485910333004,-371.484
12077.655418093736,-325.685
12080.824212222367,575.037
12083.913099633974,22.9
12087.080485047096,38.166
12090.247157544738,-447.817
12093.333977055809,81.421
