Raman Shift,Intensity
91.55994,541.2828
92.04205,545.8157
92.52417,552.0067
93.00629,558.0598
93.4884,560.5817
93.97052,556.4982
94.45264,545.4792
94.93475,535.102
95.41687,525.2756
95.89898,516.1797
96.3811,507.9511
96.86321,500.865
97.34533,494.6878
97.82745,488.1273
98.30956,481.491
98.79168,474.4102
99.2738,467.8522
99.75591,462.3378
100.238,457.4485
100.7201,452.0956
101.2023,445.208
101.6844,437.4397
102.1665,431.3331
102.6486,427.6441
103.1307,424.9515
103.6128,422.0309
104.095,418.7886
104.5771,415.6034
105.0592,412.4738
105.5413,409.454
106.0234,406.727
106.5055,404.3255
106.9877,402.2383
107.4698,400.5748
107.9519,400.2643
108.434,399.1084
108.9161,396.0993
109.3982,391.5482
109.8804,386.2767
110.3625,380.7178
110.8446,374.5932
111.3267,369.783
111.8088,367.1173
112.2909,364.939
112.7731,362.4828
113.2552,359.6555
113.7373,356.8308
114.2194,354.5754
114.7015,353.151
115.1836,351.8932
115.6658,351.336
116.1479,350.7008
116.63,349.1018
117.1121,346.1848
117.5942,342.5045
118.0763,339.3799
118.5584,337.0231
119.0406,334.619
119.5227,331.629
120.0048,328.3624
120.4869,325.6906
120.969,324.1614
121.4511,323.4123
121.9333,322.5088
122.4154,321.3504
122.8975,320.2027
123.3796,319.4286
123.8617,319.0979
124.3438,318.5138
124.826,317.0511
125.3081,315.261
125.7902,313.6359
126.2723,312.4389
126.7544,311.4014
127.2365,309.8415
127.7187,307.1657
128.2008,304.9819
128.6829,304.0433
129.165,303.7414
129.6471,303.2605
130.1292,302.0495
130.6114,300.1748
131.0935,298.5981
131.5756,297.7395
132.0577,296.7856
132.5398,295.4283
133.0219,293.79
133.5041,292.2502
133.9862,291.1957
134.4683,290.7989
134.9504,289.6125
135.4325,286.916
135.9146,284.161
136.3968,282.0767
136.8789,280.7682
137.361,280.073
137.8431,279.9762
138.3252,280.6749
138.8073,280.8876
139.2895,280.2293
139.7716,279.1725
140.2537,278.3575
140.7358,278.0143
141.2179,277.57
141.7,276.0576
142.1821,273.5811
142.6643,271.2828
143.1464,269.7676
143.6285,268.8403
144.1106,267.7475
144.5927,266.131
145.0748,264.5453
145.557,263.4809
146.0391,262.9435
146.5212,262.5722
147.0033,262.1151
147.4854,261.5744
147.9675,260.9147
148.4497,260.1044
148.9318,259.1709
149.4139,258.0219
149.896,256.6638
150.3781,255.3186
150.8602,254.3511
151.3424,253.9304
151.8245,253.5258
152.3066,253.0476
152.7887,252.5784
153.2708,252.2196
153.7529,252.0048
154.2351,251.8329
154.7172,251.4466
155.1993,250.5315
155.6814,249.7705
156.1635,249.5132
156.6456,249.3345
157.1278,248.5996
157.6099,246.9487
158.092,244.7219
158.5741,243.408
159.0562,243.7278
159.5383,244.0006
160.0205,243.6841
160.5026,243.0085
160.9847,242.5706
161.4668,242.8076
161.9489,243.4861
162.431,243.5724
162.9131,242.7295
163.3953,241.6799
163.8774,240.7565
164.3595,239.9575
164.8416,239.284
165.3237,238.7347
165.8058,238.3315
166.288,238.1114
166.7701,238.3155
167.2522,238.5164
167.7343,238.1102
168.2164,236.9485
168.6985,235.8882
169.1807,235.5384
169.6628,235.5658
170.1449,235.6051
170.627,235.537
171.1091,235.3889
171.5912,235.2503
172.0734,235.228
172.5555,234.9968
173.0376,234.2703
173.5197,233.3218
174.0018,232.5649
174.4839,232.3232
174.9661,232.4654
175.4482,232.1616
175.9303,230.7461
176.4124,229.6278
176.8945,229.3207
177.3766,229.5646
177.8588,229.8972
178.3409,229.9964
178.823,229.8609
179.3051,229.641
179.7872,229.0413
180.2693,228.6431
180.7515,228.8144
181.2336,229.3707
181.7157,229.827
182.1978,229.7429
182.6799,229.0362
183.162,228.5802
183.6441,228.5212
184.1263,228.5184
184.6084,228.4235
185.0905,228.2275
185.5726,227.9842
186.0547,227.7349
186.5368,227.4769
187.019,227.2633
187.5011,227.0716
187.9832,226.939
188.4653,226.9688
188.9474,227.1589
189.4296,227.2742
189.9117,227.0431
190.3938,226.4725
190.8759,225.948
191.358,225.4036
191.8401,224.976
192.3223,224.9255
192.8044,225.3566
193.2865,225.7676
193.7686,225.5164
194.2507,224.8062
194.7328,224.2425
195.215,224.073
195.6971,224.1612
196.1792,224.2526
196.6613,224.3389
197.1434,224.4001
197.6255,224.4227
198.1077,224.4115
198.5898,224.3737
199.0719,224.2375
199.554,224.0577
200.0361,224.0996
200.5182,224.5474
201.0004,224.9727
201.4825,225.1628
201.9646,225.1563
202.4467,225.0469
202.9288,224.829
203.4109,224.5191
203.893,224.4186
204.3752,224.7765
204.8573,225.0987
205.3394,225.1557
205.8215,225.0197
206.3036,224.8845
206.7857,224.9074
207.2679,225.0957
207.75,225.3053
208.2321,225.6109
208.7142,225.8692
209.1963,226.0146
209.6784,226.0665
210.1606,226.0932
210.6427,226.1673
211.1248,226.3102
211.6069,226.2941
212.089,225.8635
212.5711,225.5238
213.0533,225.5251
213.5354,225.817
214.0175,226.1855
214.4996,226.445
214.9817,226.5893
215.4638,226.6488
215.946,226.3904
216.4281,226.2682
216.9102,226.5914
217.3923,227.3035
217.8744,228.0802
218.3565,228.6107
218.8387,228.849
219.3208,229.2827
219.8029,230.3017
220.285,231.1823
220.7671,231.313
221.2492,230.7567
221.7314,230.2301
222.2135,230.4252
222.6956,231.3906
223.1777,231.8294
223.6598,231.1931
224.1419,230.438
224.624,230.2751
225.1062,230.7358
225.5883,231.4682
226.0704,232.3603
226.5525,233.3215
227.0346,233.8201
227.5167,233.452
227.9989,232.8373
228.481,232.5022
228.9631,232.4737
229.4452,232.6269
229.9273,232.9447
230.4094,233.3823
230.8916,233.8148
231.3737,234.2382
231.8558,234.6374
232.3379,235.022
232.82,235.4054
233.3021,235.6749
233.7843,235.6015
234.2664,235.3933
234.7485,235.3799
235.2306,235.7172
235.7127,236.2225
236.1948,236.6178
236.677,236.8488
237.1591,237.2077
237.6412,238.0639
238.1233,239.0683
238.6054,239.7955
239.0875,239.9892
239.5697,240.034
240.0518,240.6538
240.5339,242.1179
241.016,243.2939
241.4981,243.5677
241.9802,243.429
242.4624,243.2908
242.9445,243.2859
243.4266,243.3559
243.9087,243.3644
244.3908,243.2121
244.8729,243.2793
245.355,243.7722
245.8372,244.4532
246.3193,245.1455
246.8014,245.7922
247.2835,246.4073
247.7656,247.0762
248.2477,247.9599
248.7299,248.4773
249.212,248.2088
249.6941,247.7707
250.1762,247.5669
250.6583,247.7315
251.1404,248.2483
251.6226,249.2195
252.1047,251.1177
252.5868,252.3554
253.0689,252.5386
253.551,252.2995
254.0331,251.9719
254.5153,251.6804
254.9974,251.4948
255.4795,251.4863
255.9616,251.5203
256.4437,252.0835
256.9258,253.6589
257.408,255.3186
257.8901,256.4575
258.3722,256.9688
258.8543,257.1583
259.3364,257.4177
259.8185,257.7553
260.3007,258.1525
260.7828,258.5966
261.2649,259.0979
261.747,259.636
262.2291,260.225
262.7112,260.9335
263.1934,261.901
263.6755,263.3525
264.1576,264.1901
264.6397,263.8274
265.1218,263.4615
265.6039,263.734
266.0861,264.6623
266.5682,265.9373
267.0503,267.3195
267.5324,268.8875
268.0145,269.9696
268.4966,270.2706
268.9788,270.4622
269.4609,270.8658
269.943,271.4629
270.4251,272.069
270.9072,272.5432
271.3893,272.8806
271.8715,273.1122
272.3536,272.8214
272.8357,272.847
273.3178,273.7611
273.7999,275.3199
274.282,276.8189
274.7642,277.7597
275.2463,278.2067
275.7284,278.946
276.2105,280.2972
276.6926,281.5248
277.1747,282.3015
277.6568,282.7697
278.1389,283.2432
278.6211,283.8843
279.1032,284.6705
279.5853,285.5262
280.0674,286.4748
280.5495,287.4522
281.0316,288.4686
281.5138,289.5016
281.9959,290.5342
282.478,291.5726
282.9601,292.5655
283.4422,293.3357
283.9243,293.7946
284.4065,294.2505
284.8886,294.6003
285.3707,295.0273
285.8528,295.8818
286.3349,297.3179
286.817,298.9828
287.2992,300.2994
287.7813,301.2136
288.2634,301.9963
288.7455,302.391
289.2276,302.788
289.7097,303.7979
290.1919,305.582
290.674,307.4847
291.1561,308.6568
291.6382,308.9736
292.1203,309.4897
292.6024,310.5844
293.0846,311.7667
293.5667,312.4909
294.0488,312.6971
294.5309,312.8095
295.013,313.1727
295.4951,313.8117
295.9773,314.6485
296.4594,315.9294
296.9415,317.2262
297.4236,318.2425
297.9057,318.9596
298.3878,319.4208
298.87,319.5295
299.3521,319.3922
299.8342,319.6488
300.3163,320.6606
300.7984,321.7243
301.2805,322.3896
301.7627,322.7334
302.2448,323.141
302.7269,323.8354
303.209,324.7211
303.6911,325.533
304.1732,326.4683
304.6554,327.0525
305.1375,326.6638
305.6196,325.7357
306.1017,325.4898
306.5838,326.5486
307.0659,328.2034
307.5481,329.002
308.0302,328.745
308.5123,328.6522
308.9944,329.3216
309.4765,330.3675
309.9586,331.1294
310.4408,331.4288
310.9229,331.4535
311.405,331.3443
311.8871,331.0819
312.3692,331.0114
312.8513,331.3921
313.3335,331.9095
313.8156,332.1359
314.2977,331.9975
314.7798,331.8568
315.2619,332.0822
315.744,332.6508
316.2262,333.1245
316.7083,333.4873
317.1904,333.7274
317.6725,333.8091
318.1546,333.7395
318.6367,333.5945
319.1188,333.3837
319.601,333.1442
320.0831,333.0257
320.5652,333.0247
321.0473,333.1419
321.5294,333.4406
322.0115,333.8744
322.4937,334.3093
322.9758,334.73
323.4579,335.0522
323.94,335.0256
324.4221,334.4842
324.9042,334.0231
325.3864,333.9607
325.8685,334.1071
326.3506,334.1069
326.8327,333.8474
327.3148,333.4144
327.7969,332.8081
328.2791,331.8931
328.7612,331.5322
329.2433,332.358
329.7254,333.6051
330.2075,334.4793
330.6896,334.8442
331.1718,334.7224
331.6539,333.9159
332.136,332.3621
332.6181,331.5716
333.1002,332.4311
333.5823,333.4354
334.0645,333.3241
334.5466,332.1814
335.0287,331.0495
335.5108,330.6079
335.9929,330.8211
336.475,331.2408
336.9572,332.3663
337.4393,333.1595
337.9214,332.9713
338.4035,332.1094
338.8856,331.3106
339.3677,330.9214
339.8499,330.7879
340.332,330.4873
340.8141,329.8286
341.2962,329.3672
341.7783,329.3925
342.2604,329.6063
342.7426,329.6303
343.2247,329.3573
343.7068,328.9005
344.1889,328.3842
344.671,327.7233
345.1531,327.3007
345.6353,327.3116
346.1174,327.4335
346.5995,327.5311
347.0816,327.5406
347.5637,327.2613
348.0458,326.4328
348.528,325.0074
349.0101,324.1416
349.4922,324.2562
349.9743,324.4065
350.4564,324.3221
350.9385,323.9622
351.4207,323.2415
351.9028,322.0683
352.3849,320.5965
352.867,319.4807
353.3491,318.8541
353.8312,318.4183
354.3134,318.3795
354.7955,318.4207
355.2776,318.1701
355.7597,317.4992
356.2418,316.5471
356.7239,315.5102
357.2061,314.1497
357.6882,313.2326
358.1703,313.3038
358.6524,313.3673
359.1345,312.5285
359.6166,310.8581
360.0987,309.2651
360.5808,308.7012
361.063,309.3285
361.5451,309.398
362.0272,308.4616
362.5093,307.4724
362.9914,306.7983
363.4735,306.2981
363.9557,305.6726
364.4378,304.7357
364.9199,303.5443
365.402,302.3195
365.8841,300.7776
366.3662,299.6284
366.8484,299.2091
367.3305,299.0735
367.8126,298.876
368.2947,298.4838
368.7768,297.8291
369.2589,296.6837
369.7411,294.6662
370.2232,293.2216
370.7053,292.8953
371.1874,292.6927
371.6695,292.072
372.1516,291.0511
372.6338,289.9857
373.1159,289.2656
373.598,288.8692
374.0801,287.9759
374.5622,285.8983
375.0443,284.1715
375.5265,283.4891
376.0086,283.4186
376.4907,283.3251
376.9728,282.925
377.4549,282.2638
377.937,281.4284
378.4192,280.3997
378.9013,279.2461
379.3834,277.6573
379.8655,276.1504
380.3476,275.2695
380.8297,275.1123
381.3119,275.0156
381.794,274.1585
382.2761,272.5634
382.7582,271.4676
383.2403,271.4414
383.7224,271.4649
384.2046,270.7773
384.6867,269.5403
385.1688,268.3389
385.6509,267.5583
386.133,267.0269
386.6151,266.3036
387.0973,265.3035
387.5794,264.4225
388.0615,263.9956
388.5436,263.7994
389.0257,263.5399
389.5078,263.1767
389.99,262.7092
390.4721,262.0917
390.9542,261.3414
391.4363,260.639
391.9184,260.1163
392.4005,259.5698
392.8827,258.6729
393.3648,257.4013
393.8469,256.1902
394.329,255.135
394.8111,254.2731
395.2932,253.7709
395.7754,253.6828
396.2575,253.5843
396.7396,253.0314
397.2217,252.0783
397.7038,251.3919
398.1859,251.175
398.6681,251.074
399.1501,250.9443
399.6323,250.7511
400.1144,250.3694
400.5965,249.6968
401.0786,248.8589
401.5607,248.2385
402.0428,247.9372
402.525,247.6313
403.0071,247.3518
403.4892,246.9974
403.9713,246.3904
404.4534,245.5098
404.9355,244.5854
405.4177,243.8974
405.8998,243.5171
406.3819,243.0439
406.864,242.4547
407.3461,241.8111
407.8282,240.9776
408.3104,240.1064
408.7925,239.6214
409.2746,239.8429
409.7567,240.5112
410.2388,240.4175
410.7209,238.6515
411.2031,237.2764
411.6852,236.6815
412.1673,236.4234
412.6494,236.0956
413.1315,235.5842
413.6136,235.0101
414.0958,234.5439
414.5779,234.2261
415.06,233.8455
415.5421,233.5042
416.0242,233.0027
416.5063,232.2054
416.9885,231.1758
417.4706,230.0558
417.9527,228.8654
418.4348,227.7073
418.9169,226.9908
419.399,227.0187
419.8812,226.8215
420.3633,226.0115
420.8454,224.9086
421.3275,223.7432
421.8096,222.5659
422.2917,221.4587
422.7739,220.5498
423.256,219.8283
423.7381,219.0418
424.2202,218.1256
424.7023,217.1714
425.1844,216.273
425.6666,215.4028
426.1487,214.45
426.6308,213.3336
427.1129,212.1211
427.595,210.9019
428.0771,209.667
428.5593,208.47
429.0414,207.3687
429.5235,206.3157
430.0056,205.225
430.4877,204.1318
430.9698,202.922
431.452,201.3461
431.9341,199.6499
432.4162,198.3727
432.8983,197.6863
433.3804,197.2062
433.8625,196.5183
434.3447,195.5973
434.8268,194.5993
435.3089,193.543
435.791,192.3985
436.2731,190.9966
436.7552,189.4632
437.2374,188.234
437.7195,187.606
438.2016,187.3838
438.6837,186.8334
439.1658,185.8198
439.6479,184.6374
440.1301,183.1632
440.6122,181.6129
441.0943,180.1805
441.5764,178.9169
442.0585,177.7612
442.5406,176.6484
443.0227,175.563
443.5049,174.621
443.987,174.1062
444.4691,173.4442
444.9512,172.3441
445.4333,171.0045
445.9154,169.7408
446.3976,168.7242
446.8797,167.8714
447.3618,167.013
447.8439,166.1579
448.326,165.2693
448.8081,164.3201
449.2903,163.3428
449.7724,162.3578
450.2545,161.3643
450.7366,160.3416
451.2187,159.2608
451.7008,158.1345
452.183,157.0423
452.6651,155.9902
453.1472,154.9719
453.6293,153.966
454.1114,152.9959
454.5935,152.1196
455.0757,151.4126
455.5578,150.6844
456.0399,149.7253
456.522,148.5948
457.0041,147.5311
457.4862,146.5952
457.9684,145.7612
458.4505,145.0642
458.9326,144.5114
459.4147,143.7886
459.8968,142.7007
460.3789,141.5245
460.8611,140.5108
461.3432,139.6478
461.8253,138.7757
462.3074,137.7825
462.7895,136.7129
463.2716,135.7283
463.7538,134.8988
464.2359,134.0563
464.718,133.2023
465.2001,132.3066
465.6822,131.2557
466.1643,130.0659
466.6465,129.0039
467.1286,128.4062
467.6107,128.3437
468.0928,128.0059
468.5749,127.1559
469.057,126.2756
469.5392,125.4203
470.0213,124.6355
470.5034,124.0105
470.9855,123.5909
471.4676,123.2361
471.9497,122.7298
472.4319,122.0929
472.914,121.2119
473.3961,119.6583
473.8782,118.2158
474.3603,117.3775
474.8424,117.0755
475.3246,116.9083
475.8067,116.7364
476.2888,116.5099
476.7709,116.1059
477.253,115.5124
477.7351,114.8238
478.2173,114.0153
478.6994,113.1718
479.1815,112.4112
479.6636,111.7249
480.1457,111.1738
480.6278,110.9231
481.11,110.7948
481.592,110.4414
482.0742,109.7954
482.5563,109.0653
483.0384,108.4223
483.5205,107.868
484.0026,107.3014
484.4847,106.649
484.9669,106.0648
485.449,105.8102
485.9311,105.621
486.4132,104.9399
486.8953,103.563
487.3774,101.9751
487.8596,101.0247
488.3417,101.1034
488.8238,100.7245
489.3059,99.62666
489.788,98.40469
490.2701,97.30759
490.7523,96.32589
491.2344,95.35632
491.7165,94.32887
492.1986,93.30774
492.6807,92.5061
493.1628,92.05027
493.645,91.4706
494.1271,90.50452
494.6092,89.50547
495.0913,88.76797
495.5734,88.2774
496.0555,87.70627
496.5377,86.71092
497.0198,85.47768
497.5019,84.5554
497.984,84.0116
498.4661,83.50719
498.9482,82.86359
499.4304,82.13039
499.9125,81.40813
500.3946,80.69686
500.8767,80.00338
501.3588,79.29542
501.8409,78.61238
502.3231,78.01923
502.8052,77.53138
503.2873,77.11744
503.7694,76.77953
504.2515,76.51904
504.7336,76.08725
505.2158,75.3088
505.6979,74.57572
506.18,74.00115
506.6621,73.56843
507.1442,73.29588
507.6263,73.17928
508.1085,73.07925
508.5906,72.76208
509.0727,72.13374
509.5548,71.62638
510.0369,71.28755
510.519,71.02386
511.0012,70.91125
511.4833,70.83211
511.9654,70.55092
512.4475,69.9126
512.9296,69.14
513.4117,68.6359
513.8939,68.42491
514.376,68.29263
514.8581,68.31319
515.3402,68.27258
515.8223,67.94348
516.3044,67.37179
516.7866,66.86766
517.2687,66.63147
517.7508,66.49113
518.2329,66.22152
518.715,65.82752
519.1971,65.42144
519.6793,65.04859
520.1614,64.70344
520.6435,64.37284
521.1256,64.02236
521.6077,63.77152
522.0898,63.75928
522.572,63.77277
523.0541,63.55354
523.5362,63.14643
524.0183,62.87516
524.5004,63.01025
524.9825,63.42546
525.4647,63.44117
525.9468,62.42006
526.4289,61.92428
526.911,62.70944
527.3931,63.61481
527.8752,63.59783
528.3574,62.61638
528.8395,61.44263
529.3216,60.71938
529.8037,60.38874
530.2858,60.09059
530.7679,59.80255
531.2501,59.60218
531.7322,59.74417
532.2143,59.88473
532.6964,59.5554
533.1785,58.60303
533.6606,57.77544
534.1428,57.69884
534.6249,58.06694
535.107,58.2327
535.5891,58.10868
536.0712,57.84634
536.5533,57.50401
537.0355,57.11643
537.5176,56.89043
537.9997,57.06739
538.4818,57.0959
538.9639,56.65525
539.446,56.05587
539.9282,55.70496
540.4103,55.6747
540.8924,55.73244
541.3745,55.63097
541.8566,55.36344
542.3387,55.17126
542.8209,54.90884
543.3029,54.9162
543.785,55.41957
544.2672,56.15046
544.7493,57.00555
545.2314,57.91193
545.7135,58.32278
546.1956,57.23096
546.6777,54.82003
547.1599,53.3999
547.642,53.42072
548.1241,53.73657
548.6062,53.70881
549.0883,53.49213
549.5704,53.32607
550.0526,53.2747
550.5347,53.2262
551.0168,53.0718
551.4989,52.87627
551.981,52.80379
552.4631,52.89193
552.9453,52.9784
553.4274,52.91662
553.9095,52.70476
554.3916,52.43145
554.8737,52.06226
555.3558,51.68268
555.838,51.25437
556.3201,50.85405
556.8022,50.59149
557.2843,50.48637
557.7664,50.45915
558.2485,50.43209
558.7307,50.4073
559.2128,50.33107
559.6949,50.20756
560.177,50.02163
560.6591,49.66595
561.1412,49.29841
561.6234,49.15757
562.1055,49.32645
562.5876,49.47277
563.0697,49.24546
563.5518,48.75795
564.0339,48.40152
564.5161,48.23882
564.9982,48.10891
565.4803,47.89095
565.9624,47.61161
566.4445,47.39141
566.9266,47.25664
567.4088,47.14275
567.8909,47.0131
568.373,46.89929
568.8551,46.86717
569.3372,46.91434
569.8193,46.93877
570.3015,46.83717
570.7836,46.6182
571.2657,46.45819
571.7478,46.3993
572.2299,46.34505
572.712,46.34394
573.1942,46.30114
573.6763,46.07296
574.1584,45.66576
574.6405,45.30348
575.1226,45.22961
575.6047,45.36855
576.0869,45.40826
576.569,45.33809
577.0511,45.20501
577.5332,44.94227
578.0153,44.68424
578.4974,44.67993
578.9796,45.01284
579.4617,45.23812
579.9438,45.15223
580.4259,44.8928
580.908,44.58384
581.3901,44.24939
581.8723,43.89368
582.3544,43.49883
582.8365,43.12538
583.3186,42.98284
583.8007,43.31112
584.2828,43.50972
584.765,43.57967
585.2471,43.5177
585.7292,43.23351
586.2113,42.80766
586.6934,42.46014
587.1755,42.34083
587.6577,42.36249
588.1398,42.34072
588.6219,42.27491
589.104,42.16818
589.5861,42.01905
590.0682,41.82801
590.5504,41.52729
591.0325,41.15452
591.5146,40.97179
591.9967,41.28501
592.4788,41.62913
592.9609,41.51305
593.4431,41.09234
593.9252,40.8841
594.4073,41.09168
594.8894,41.40281
595.3715,41.36229
595.8536,40.85513
596.3358,40.51494
596.8179,40.41345
597.3,40.37282
597.7821,40.39044
598.2642,40.40765
598.7463,40.35186
599.2285,40.19816
599.7106,39.97718
600.1927,39.66371
600.6748,39.26681
601.1569,39.11033
601.639,39.33117
602.1212,39.53102
602.6033,39.4554
603.0854,39.22068
603.5675,38.97447
604.0496,38.69725
604.5317,38.51588
605.0139,38.55763
605.496,38.70572
605.9781,38.81098
606.4602,38.84935
606.9423,38.81114
607.4244,38.67272
607.9066,38.46997
608.3887,38.36767
608.8708,38.55341
609.3529,38.56792
609.835,38.22128
610.3171,37.8447
610.7993,37.65988
611.2814,37.66313
611.7635,37.7597
612.2456,37.93353
612.7277,38.09159
613.2098,37.98637
613.692,37.58581
614.1741,37.29755
614.6562,37.257
615.1383,37.31187
615.6204,37.29604
616.1025,37.22895
616.5847,37.24348
617.0668,37.51308
617.5489,37.72715
618.031,37.61662
618.5131,37.31868
618.9952,37.13255
619.4774,37.14363
619.9595,37.18119
620.4416,37.03006
620.9237,36.66977
621.4058,36.42774
621.8879,36.45204
622.3701,36.41448
622.8522,36.14536
623.3343,35.84102
623.8164,35.69835
624.2985,35.75648
624.7806,35.93531
625.2628,36.28571
625.7448,36.69136
626.2269,36.7858
626.709,36.53481
627.1912,36.30015
627.6733,36.25403
628.1554,36.31165
628.6375,36.31974
629.1196,36.2778
629.6017,36.20674
630.0839,36.05275
630.566,35.92074
631.0481,35.92705
631.5302,36.01109
632.0123,36.003
632.4944,35.82462
632.9766,35.60194
633.4587,35.57298
633.9408,35.79472
634.4229,35.91561
634.905,35.8866
635.3871,35.80959
635.8693,35.70271
636.3514,35.59041
636.8335,35.51044
637.3156,35.47469
637.7977,35.45969
638.2798,35.44708
638.762,35.44456
639.2441,35.50306
639.7262,35.62118
640.2083,35.63129
640.6904,35.38707
641.1725,34.99685
641.6547,34.8235
642.1368,35.06588
642.6189,35.2415
643.101,35.31004
643.5831,35.34769
644.0652,35.41911
644.5474,35.50016
645.0295,35.50893
645.5116,35.39071
645.9937,35.23707
646.4758,35.21968
646.9579,35.33691
647.4401,35.37487
647.9222,35.26323
648.4043,35.15054
648.8864,35.16122
649.3685,35.26242
649.8506,35.35278
650.3328,35.43383
650.8149,35.48967
651.297,35.53512
651.7791,35.54044
652.2612,35.42825
652.7433,35.21895
653.2255,35.06796
653.7076,35.10812
654.1897,35.25701
654.6718,35.17223
655.1539,34.67619
655.636,34.37795
656.1182,34.5151
656.6003,34.74321
657.0824,34.91432
657.5645,35.02356
658.0466,35.08845
658.5287,35.10506
659.0109,35.09704
659.493,35.0797
659.9751,35.05564
660.4572,35.0484
660.9393,35.06501
661.4214,35.02264
661.9036,34.81796
662.3857,34.48055
662.8678,34.33239
663.3499,34.58327
663.832,34.74855
664.3141,34.67045
664.7963,34.58203
665.2784,34.76849
665.7605,35.14238
666.2426,35.30178
666.7247,34.92291
667.2068,34.31739
667.689,34.06182
668.1711,34.14642
668.6532,34.23447
669.1353,34.25502
669.6174,34.25488
670.0995,34.29839
670.5817,34.36966
671.0638,34.33308
671.5459,33.99222
672.028,33.78226
672.5101,33.94463
672.9922,34.24677
673.4744,34.47542
673.9565,34.58108
674.4386,34.56596
674.9207,34.41148
675.4028,34.17136
675.8849,33.99312
676.3671,33.84678
676.8492,33.88962
677.3313,34.11181
677.8134,34.59278
678.2955,35.79216
678.7776,37.35316
679.2598,37.93006
679.7419,36.51912
680.224,34.94893
680.7061,34.22729
681.1882,34.06755
681.6703,34.09967
682.1525,34.22063
682.6346,34.34039
683.1167,34.38689
683.5988,34.36881
684.0809,34.32552
684.563,34.24096
685.0452,34.16668
685.5273,34.12766
686.0094,34.08506
686.4915,33.99323
686.9736,33.87782
687.4557,33.82403
687.9379,33.91423
688.42,33.98595
688.9021,33.81776
689.3842,33.53301
689.8663,33.44171
690.3484,33.59639
690.8306,33.81032
691.3127,33.94128
691.7948,34.00724
692.2769,34.11026
692.759,34.44457
693.2411,34.49419
693.7233,33.89417
694.2054,33.33487
694.6875,33.32495
695.1696,33.69804
695.6517,33.95589
696.1339,33.85323
696.616,33.64779
697.0981,33.64842
697.5802,33.78767
698.0623,33.80158
698.5444,33.64117
699.0266,33.50063
699.5087,33.52752
699.9908,33.67207
700.4729,33.74537
700.955,33.72017
701.4371,33.66065
701.9193,33.49932
702.4014,33.3667
702.8835,33.33204
703.3656,33.39103
703.8477,33.53674
704.3298,33.77413
704.812,34.01744
705.2941,34.17448
705.7762,34.24655
706.2583,34.21803
706.7404,34.07214
707.2225,33.93337
707.7046,33.87474
708.1867,33.87062
708.6688,33.85345
709.1509,33.80043
709.6331,33.79257
710.1152,33.85976
710.5973,33.94931
711.0794,34.05671
711.5615,34.15641
712.0436,34.21075
712.5258,34.20623
713.0079,34.1579
713.49,34.09101
713.9721,33.99805
714.4542,33.79034
714.9363,33.42675
715.4185,33.20909
715.9006,33.32473
716.3827,33.61302
716.8648,33.81354
717.3469,33.91573
717.829,34.00512
718.3112,34.08426
718.7933,34.15636
719.2754,34.27795
719.7575,34.37066
720.2396,34.26562
720.7217,33.95044
721.2039,33.67988
721.686,33.74734
722.1681,34.0512
722.6502,34.16283
723.1323,34.05138
723.6144,34.02625
724.0966,34.25103
724.5787,34.50187
725.0608,34.48447
725.5429,34.2053
726.025,34.00956
726.5071,33.8917
726.9893,33.88796
727.4714,34.1359
727.9535,34.43147
728.4356,34.51442
728.9177,34.38258
729.3998,34.2415
729.882,34.23658
730.3641,34.3289
730.8462,34.46855
731.3283,34.66094
731.8104,34.70557
732.2925,34.50764
732.7747,34.28304
733.2568,34.19471
733.7389,34.23082
734.221,34.30528
734.7031,34.44384
735.1852,34.57907
735.6674,34.72799
736.1495,34.84395
736.6316,34.8868
737.1137,34.86295
737.5958,34.78677
738.0779,34.65892
738.5601,34.53954
739.0422,34.5232
739.5243,34.60146
740.0064,34.71999
740.4885,34.90514
740.9706,34.97091
741.4528,34.7136
741.9349,34.3422
742.417,34.36743
742.8991,34.94749
743.3812,35.34081
743.8633,35.37775
744.3455,35.32972
744.8276,35.3211
745.3097,35.32928
745.7918,35.28428
746.2739,35.17479
746.756,35.09356
747.2382,35.18776
747.7203,35.37069
748.2024,35.29364
748.6845,34.94518
749.1666,34.87718
749.6487,35.37986
750.1309,35.96564
750.613,36.01254
751.0951,35.47543
751.5772,35.24585
752.0593,35.50364
752.5414,35.80733
753.0236,36.09442
753.5057,36.36216
753.9878,36.66056
754.4699,36.94897
754.952,37.05779
755.4341,36.79764
755.9163,36.51176
756.3984,36.77388
756.8805,37.44799
757.3626,37.94381
757.8447,38.16527
758.3268,38.2233
758.809,38.15528
759.2911,38.02235
759.7732,38.03067
760.2553,38.26714
760.7374,38.4918
761.2195,38.66307
761.7017,38.86745
762.1838,39.18172
762.6659,39.54346
763.148,39.83579
763.6301,40.02172
764.1122,40.24712
764.5944,40.6064
765.0765,41.0804
765.5586,41.72199
766.0407,42.47939
766.5228,43.02973
767.0049,43.23678
767.4871,43.37281
767.9692,43.79264
768.4513,44.5092
768.9334,45.26116
769.4155,46.06478
769.8976,46.88228
770.3798,47.76625
770.8619,48.61378
771.344,49.22565
771.8261,49.6852
772.3082,50.42248
772.7903,51.82975
773.2725,53.2313
773.7546,54.10652
774.2367,54.68844
774.7188,55.27328
775.2009,55.93564
775.683,56.75572
776.1652,57.81112
776.6473,58.96173
777.1294,59.88527
777.6115,60.57566
778.0936,61.07719
778.5757,61.2968
779.0579,61.50701
779.54,61.93562
780.0221,62.40978
780.5042,62.62167
780.9863,62.5167
781.4684,62.38953
781.9506,62.3318
782.4327,62.25316
782.9148,62.11771
783.3969,61.91224
783.879,61.63771
784.3611,61.28679
784.8433,60.80302
785.3254,60.04639
785.8075,59.17123
786.2896,58.73438
786.7717,58.74617
787.2538,58.54269
787.736,57.88671
788.2181,57.20576
788.7002,56.95631
789.1823,57.05724
789.6644,56.8255
790.1465,56.01313
790.6286,55.23971
791.1107,54.39244
791.5928,53.74391
792.075,53.64846
792.5571,53.8517
793.0392,53.78762
793.5213,53.22926
794.0034,52.59501
794.4855,52.2759
794.9677,52.12023
795.4498,51.87278
795.9319,51.517
796.414,51.04165
796.8961,50.42562
797.3782,49.84577
797.8604,49.56958
798.3425,49.61281
798.8246,49.53446
799.3067,49.24854
799.7888,48.99535
800.2709,48.92544
800.7531,48.83659
801.2352,48.52033
801.7173,48.03257
802.1994,47.6692
802.6815,47.59149
803.1636,47.53097
803.6458,47.29677
804.1279,47.03867
804.61,46.99331
805.0921,47.10761
805.5742,47.10774
806.0563,46.84081
806.5385,46.46209
807.0206,46.22276
807.5027,46.11105
807.9848,45.95819
808.4669,45.74111
808.949,45.57844
809.4312,45.57938
809.9133,45.58265
810.3954,45.29256
810.8775,44.62003
811.3596,44.26158
811.8417,44.5582
812.3239,44.73159
812.806,44.42787
813.2881,44.00981
813.7702,43.85628
814.2523,43.94059
814.7344,43.95177
815.2166,43.68623
815.6987,43.39324
816.1808,43.43304
816.6629,43.61755
817.145,43.42884
817.6271,42.86637
818.1093,42.51067
818.5914,42.71969
819.0735,43.16444
819.5556,43.18429
820.0377,42.69358
820.5198,42.30992
821.002,42.04313
821.4841,41.86147
821.9662,41.8592
822.4483,41.86204
822.9304,41.60436
823.4125,41.10067
823.8947,40.82411
824.3768,40.94703
824.8589,41.22163
825.341,41.83774
825.8231,42.35667
826.3052,42.17538
826.7874,41.39204
827.2695,40.5733
827.7516,39.99823
828.2337,39.69249
828.7158,39.8602
829.1979,40.34415
829.6801,40.43372
830.1622,40.06488
830.6443,39.68531
831.1264,39.51722
831.6085,39.45429
832.0906,39.32337
832.5728,39.11654
833.0549,38.90167
833.537,38.65563
834.0191,38.43714
834.5012,38.23545
834.9833,38.08453
835.4655,38.0867
835.9476,38.18402
836.4297,38.09072
836.9118,37.52456
837.3939,37.06511
837.876,37.17222
838.3582,37.45887
838.8403,37.46402
839.3224,37.2157
839.8045,36.96891
840.2866,36.84379
840.7687,36.79673
841.2509,36.82226
841.733,36.88704
842.2151,36.75136
842.6972,36.39519
843.1793,36.13118
843.6614,36.09385
844.1436,36.12959
844.6257,36.05382
845.1078,35.87062
845.5899,35.77666
846.072,35.87758
846.5541,35.91263
847.0363,35.71985
847.5184,35.58752
848.0005,35.79268
848.4826,36.18046
848.9647,36.3909
849.4468,36.31544
849.929,36.13782
850.4111,35.8773
850.8932,35.62664
851.3753,35.4524
851.8574,35.36989
852.3395,35.45854
852.8217,35.71333
853.3038,35.89049
853.7859,35.70199
854.268,35.29313
854.7501,35.13886
855.2322,35.23855
855.7144,35.3297
856.1965,35.36741
856.6786,35.35848
857.1607,35.30547
857.6428,35.21098
858.1249,35.07867
858.6071,34.86966
859.0892,34.70789
859.5713,34.54836
860.0534,34.48634
860.5355,34.65307
861.0176,34.87999
861.4998,34.96429
861.9819,34.88581
862.464,34.76523
862.9461,34.56636
863.4282,34.43121
863.9103,34.53037
864.3925,34.71479
864.8746,34.76283
865.3567,34.67169
865.8388,34.58483
866.3209,34.58778
866.803,34.6195
867.2852,34.59764
867.7673,34.52367
868.2494,34.36043
868.7315,34.09989
869.2136,34.00657
869.6957,34.23824
870.1779,34.51219
870.66,34.42819
871.1421,33.98203
871.6242,33.67416
872.1063,33.50303
872.5884,33.47313
873.0705,33.79253
873.5526,34.06157
874.0347,33.91446
874.5168,33.54747
874.999,33.48595
875.4811,33.96132
875.9632,34.28871
876.4453,34.1288
876.9274,33.83198
877.4095,33.61213
877.8917,33.45634
878.3738,33.29372
878.8559,33.11747
879.338,33.0084
879.8201,33.04873
880.3022,33.17028
880.7844,33.31332
881.2665,33.44302
881.7486,33.39887
882.2307,33.16546
882.7128,32.90821
883.1949,32.71862
883.6771,32.62859
884.1592,32.74516
884.6413,33.11978
885.1234,33.3144
885.6055,33.30395
886.0876,33.16623
886.5698,32.85776
887.0519,32.50509
887.534,32.20716
888.0161,31.97214
888.4982,31.90598
888.9803,32.15144
889.4625,32.36842
889.9446,32.58387
890.4267,32.67365
890.9088,32.45834
891.3909,32.079
891.873,31.79468
892.3552,31.67341
892.8373,31.67442
893.3194,31.87689
893.8015,32.10056
894.2836,32.13758
894.7657,32.04993
895.2479,31.9781
895.73,31.9485
896.2121,31.88998
896.6942,31.74067
897.1763,31.56304
897.6584,31.50898
898.1406,31.55991
898.6227,31.50201
899.1048,31.30309
899.5869,31.15275
900.069,31.13318
900.5511,31.23477
901.0333,31.48431
901.5154,31.90066
901.9975,32.01922
902.4796,31.62791
902.9617,31.33315
903.4438,31.29971
903.926,31.34607
904.4081,31.3878
904.8902,31.4095
905.3723,31.35771
905.8544,31.16913
906.3365,31.07345
906.8187,31.27235
907.3008,31.42546
907.7829,31.26399
908.265,30.96348
908.7471,30.75117
909.2292,30.67443
909.7114,30.68833
910.1935,30.79609
910.6756,30.93666
911.1577,31.09931
911.6398,31.22953
912.1219,31.22156
912.6041,31.07537
913.0862,30.79813
913.5683,30.39277
914.0504,30.08187
914.5325,30.27608
915.0146,30.83688
915.4968,30.89429
915.9789,30.42747
916.461,30.08048
916.9431,30.02518
917.4252,30.0719
917.9073,30.07951
918.3895,30.0505
918.8716,29.98709
919.3537,29.8461
919.8358,29.7826
920.3179,29.86207
920.8,29.92447
921.2822,29.82258
921.7643,29.72673
922.2464,29.89819
922.7285,30.31866
923.2106,30.51842
923.6927,30.24894
924.1749,30.00021
924.657,29.92547
925.1391,29.90748
925.6212,29.87698
926.1033,29.82349
926.5854,29.72942
927.0676,29.58739
927.5497,29.49422
928.0318,29.53382
928.5139,29.63568
928.996,29.75407
929.4781,29.8725
929.9603,29.98308
930.4424,30.07176
930.9245,30.07053
931.4066,29.92077
931.8887,29.74931
932.3708,29.7882
932.853,29.9802
933.3351,30.08061
933.8172,30.08132
934.2993,30.09509
934.7814,30.16636
935.2635,30.23019
935.7457,30.21378
936.2278,30.12886
936.7099,30.02977
937.192,29.88916
937.6741,29.86399
938.1563,30.01885
938.6384,30.18838
939.1205,30.29813
939.6026,30.35507
940.0847,30.36527
940.5668,30.31879
941.049,30.28465
941.5311,30.21434
942.0132,30.22211
942.4953,30.42087
942.9774,30.62282
943.4595,30.6687
943.9417,30.61003
944.4238,30.59855
944.9059,30.68126
945.388,30.74351
945.8701,30.75676
946.3522,30.72419
946.8344,30.59146
947.3165,30.44575
947.7986,30.44523
948.2807,30.5686
948.7628,30.59274
949.2449,30.34764
949.7271,30.09504
950.2092,30.10505
950.6913,30.25668
951.1734,30.37142
951.6555,30.45144
952.1376,30.58462
952.6198,30.79129
953.1019,30.94717
953.584,30.91604
954.0661,30.77166
954.5482,30.70446
955.0303,30.69542
955.5124,30.58486
955.9945,30.35071
956.4766,30.22582
956.9587,30.35334
957.4409,30.55033
957.923,30.49967
958.4051,30.20824
958.8872,30.13196
959.3693,30.36159
959.8514,30.39136
960.3336,30.023
960.8157,29.63868
961.2978,29.53461
961.7799,29.622
962.262,29.65527
962.7441,29.62543
963.2263,29.56951
963.7084,29.48582
964.1905,29.37823
964.6726,29.2814
965.1547,29.13554
965.6368,28.82026
966.119,28.39654
966.6011,28.14694
967.0832,28.20229
967.5653,28.2349
968.0474,28.1741
968.5295,28.07338
969.0117,27.91619
969.4938,27.76443
969.9759,27.78654
970.458,27.94084
970.9401,27.81154
971.4222,26.92812
971.9044,26.1846
972.3865,26.35156
972.8686,26.78087
973.3507,26.82258
973.8328,26.53112
974.3149,26.12875
974.7971,25.70645
975.2792,25.38158
975.7613,25.28605
976.2434,25.2984
976.7255,25.31693
977.2076,25.29919
977.6898,25.10066
978.1719,24.75334
978.654,24.50123
979.1361,24.4584
979.6182,24.46623
980.1003,24.31778
980.5825,24.064
981.0646,23.87826
981.5467,23.75381
982.0288,23.63234
982.5109,23.50295
982.993,23.38404
983.4752,23.28674
983.9573,23.21479
984.4394,23.19328
984.9215,23.22336
985.4036,23.13619
985.8857,22.90071
986.3679,22.74236
986.85,22.74187
987.3321,22.75949
987.8142,22.67637
988.2963,22.52936
988.7784,22.43254
989.2606,22.39024
989.7427,22.39165
990.2248,22.49645
990.7069,22.52655
991.189,22.3848
991.6711,22.19031
992.1533,22.01838
992.6354,21.88489
993.1175,21.89434
993.5996,22.22601
994.0817,22.37745
994.5638,22.15458
995.046,21.97518
995.5281,22.07048
996.0102,22.24031
996.4923,22.22706
996.9744,22.05906
997.4565,22.03351
997.9387,22.38209
998.4208,22.58256
998.9029,22.37856
999.385,22.1179
999.8671,21.98655
1000.349,21.95422
1000.831,21.99857
1001.313,22.09432
1001.796,22.10207
1002.278,21.85776
1002.76,21.6749
1003.242,21.78401
1003.724,21.97993
1004.206,22.14183
1004.688,22.21559
1005.17,22.06689
1005.653,21.70294
1006.135,21.48302
1006.617,21.7379
1007.099,22.0898
1007.581,22.22233
1008.063,22.20513
1008.545,22.06021
1009.027,21.86379
1009.509,21.81374
1009.992,21.96649
1010.474,22.11298
1010.956,22.0316
1011.438,21.87938
1011.92,21.91468
1012.402,22.05845
1012.884,22.14787
1013.366,22.15686
1013.849,22.05452
1014.331,21.83206
1014.813,21.65549
1015.295,21.73945
1015.777,21.98421
1016.259,22.17752
1016.741,22.3097
1017.223,22.27875
1017.705,22.09337
1018.188,22.02048
1018.67,22.20247
1019.152,22.46918
1019.634,22.59416
1020.116,22.59865
1020.598,22.58352
1021.08,22.54869
1021.562,22.47284
1022.044,22.34731
1022.527,22.28101
1023.009,22.34218
1023.491,22.47078
1023.973,22.57999
1024.455,22.66834
1024.937,22.68139
1025.419,22.5955
1025.901,22.67323
1026.384,23.02261
1026.866,23.25486
1027.348,23.08496
1027.83,22.74587
1028.312,22.68311
1028.794,22.91201
1029.276,23.0286
1029.758,23.01875
1030.24,22.93305
1030.723,22.72815
1031.205,22.56973
1031.687,22.55348
1032.169,22.67341
1032.651,22.96293
1033.133,23.48248
1033.615,23.64057
1034.097,23.24235
1034.579,22.89881
1035.062,22.67433
1035.544,22.61014
1036.026,22.81639
1036.508,23.15355
1036.99,23.31952
1037.472,23.27448
1037.954,23.28128
1038.436,23.39805
1038.919,23.47327
1039.401,23.4803
1039.883,23.4388
1040.365,23.2639
1040.847,23.07947
1041.329,23.18442
1041.811,23.66042
1042.293,23.99329
1042.776,24.10667
1043.258,24.17239
1043.74,24.21413
1044.222,24.22598
1044.704,24.16562
1045.186,24.08493
1045.668,24.09088
1046.15,24.20288
1046.632,24.30929
1047.115,24.45968
1047.597,24.51822
1048.079,24.30332
1048.561,24.13046
1049.043,24.30119
1049.525,24.63732
1050.007,24.77172
1050.489,24.64066
1050.971,24.58647
1051.454,24.76073
1051.936,24.90289
1052.418,24.92611
1052.9,24.89987
1053.382,24.79003
1053.864,24.70148
1054.346,24.88038
1054.828,25.37182
1055.311,25.65616
1055.793,25.35607
1056.275,25.15373
1056.757,25.43437
1057.239,25.74984
1057.721,25.69498
1058.203,25.4623
1058.685,25.42904
1059.167,25.65077
1059.65,25.87219
1060.132,26.0226
1060.614,26.14212
1061.096,26.22787
1061.578,26.30684
1062.06,26.42393
1062.542,26.53786
1063.024,26.52586
1063.506,26.39264
1063.989,26.43038
1064.471,26.93237
1064.953,27.35843
1065.435,27.38367
1065.917,27.35084
1066.399,27.54539
1066.881,27.84796
1067.363,28.07621
1067.846,28.19141
1068.328,28.18358
1068.81,27.9509
1069.292,27.76669
1069.774,27.72442
1070.256,27.80587
1070.738,28.1063
1071.22,28.45921
1071.703,28.64348
1072.185,28.63965
1072.667,28.54655
1073.149,28.27714
1073.631,28.20753
1074.113,28.80893
1074.595,29.36345
1075.077,29.2816
1075.559,28.87859
1076.042,28.50701
1076.524,28.25809
1077.006,28.2351
1077.488,28.57586
1077.97,28.81043
1078.452,28.59329
1078.934,28.33607
1079.416,28.35375
1079.898,28.46487
1080.38,28.41154
1080.863,28.229
1081.345,28.16836
1081.827,28.36171
1082.309,28.3996
1082.791,27.92673
1083.273,27.44129
1083.755,27.29699
1084.237,27.26126
1084.72,27.07441
1085.202,26.7661
1085.684,26.4798
1086.166,26.24954
1086.648,26.08197
1087.13,26.05123
1087.612,25.99529
1088.094,25.80741
1088.577,25.57383
1089.059,25.37665
1089.541,25.20004
1090.023,24.98656
1090.505,24.72269
1090.987,24.49612
1091.469,24.3411
1091.951,24.22659
1092.433,24.16373
1092.916,24.11272
1093.398,24.0202
1093.88,23.92896
1094.362,23.95441
1094.844,24.09389
1095.326,24.10389
1095.808,23.81927
1096.29,23.52521
1096.772,23.25573
1097.255,23.06941
1097.737,23.06965
1098.219,23.13279
1098.701,23.092
1099.183,22.94497
1099.665,22.80274
1100.147,22.69403
1100.629,22.58403
1101.112,22.47584
1101.594,22.3505
1102.076,22.19551
1102.558,22.02017
1103.04,21.80115
1103.522,21.57008
1104.004,21.43597
1104.486,21.426
1104.969,21.4749
1105.451,21.69353
1105.933,21.81
1106.415,21.64094
1106.897,21.41508
1107.379,21.31786
1107.861,21.30825
1108.343,21.26742
1108.825,21.17879
1109.307,21.1038
1109.79,20.99162
1110.272,20.97361
1110.754,21.25977
1111.236,21.45359
1111.718,21.17768
1112.2,20.72265
1112.682,20.58049
1113.164,20.77217
1113.647,20.95104
1114.129,21.18254
1114.611,21.28963
1115.093,21.17399
1115.575,21.0495
1116.057,21.00401
1116.539,20.99732
1117.021,20.99703
1117.504,20.99693
1117.986,20.94505
1118.468,20.77982
1118.95,20.71669
1119.432,20.82755
1119.914,20.89382
1120.396,20.80389
1120.878,20.72372
1121.36,20.83319
1121.843,21.03309
1122.325,21.00167
1122.807,20.66037
1123.289,20.58867
1123.771,20.87947
1124.253,21.13263
1124.735,21.28269
1125.217,21.31675
1125.699,21.20991
1126.182,21.01385
1126.664,20.79469
1127.146,20.56228
1127.628,20.50759
1128.11,20.64356
1128.592,20.8741
1129.074,21.21351
1129.556,21.4213
1130.039,21.37203
1130.521,21.23919
1131.003,21.22282
1131.485,21.2782
1131.967,21.22256
1132.449,21.06798
1132.931,21.07886
1133.413,21.26173
1133.896,21.26542
1134.378,20.98309
1134.86,20.6733
1135.342,20.52814
1135.824,20.51945
1136.306,20.64584
1136.788,20.85937
1137.27,20.95773
1137.752,20.96615
1138.234,21.05037
1138.717,21.2177
1139.199,21.2652
1139.681,21.08843
1140.163,20.88212
1140.645,20.87308
1141.127,20.97008
1141.609,21.02414
1142.091,21.04556
1142.574,21.04809
1143.056,21.04014
1143.538,21.04888
1144.02,21.07697
1144.502,21.07228
1144.984,20.98774
1145.466,20.87959
1145.948,20.76858
1146.431,20.69861
1146.913,20.77088
1147.395,20.90577
1147.877,20.97009
1148.359,20.94015
1148.841,20.82756
1149.323,20.61589
1149.805,20.45536
1150.287,20.43221
1150.77,20.50381
1151.252,20.71189
1151.734,20.93909
1152.216,21.07612
1152.698,21.12365
1153.18,21.10614
1153.662,21.02925
1154.144,20.93883
1154.626,20.84832
1155.109,20.74913
1155.591,20.56811
1156.073,20.45484
1156.555,20.56393
1157.037,20.75514
1157.519,20.87188
1158.001,20.89995
1158.483,20.82503
1158.966,20.53042
1159.448,20.38014
1159.93,20.51624
1160.412,20.63547
1160.894,20.68174
1161.376,20.65409
1161.858,20.48002
1162.34,20.27217
1162.822,20.29527
1163.305,20.57807
1163.787,20.78752
1164.269,20.9302
1164.751,20.96985
1165.233,20.87383
1165.715,20.74435
1166.197,20.60081
1166.679,20.52402
1167.161,20.62891
1167.644,20.86001
1168.126,20.99583
1168.608,21.03502
1169.09,21.00401
1169.572,20.90156
1170.054,20.80837
1170.536,20.74529
1171.018,20.7684
1171.5,20.92917
1171.983,21.10695
1172.465,21.09596
1172.947,20.94886
1173.429,20.80033
1173.911,20.67423
1174.393,20.67214
1174.875,20.79086
1175.357,20.98065
1175.84,21.20992
1176.322,21.33705
1176.804,21.21682
1177.286,21.00487
1177.768,20.85061
1178.25,20.7604
1178.732,20.79235
1179.214,20.87496
1179.697,20.84693
1180.179,20.71859
1180.661,20.65501
1181.143,20.73047
1181.625,20.82434
1182.107,20.85042
1182.589,20.88604
1183.071,20.97262
1183.553,21.10053
1184.036,21.3236
1184.518,21.55215
1185.0,21.61554
1185.482,21.49668
1185.964,21.36376
1186.446,21.21817
1186.928,21.12027
1187.41,21.07652
1187.892,21.08703
1188.375,21.23645
1188.857,21.36546
1189.339,21.28904
1189.821,21.08908
1190.303,21.01458
1190.785,21.10446
1191.267,21.06904
1191.749,20.78394
1192.232,20.75512
1192.714,21.17351
1193.196,21.52781
1193.678,21.55952
1194.16,21.41031
1194.642,21.23522
1195.124,21.04393
1195.606,20.85611
1196.089,20.6757
1196.571,20.6428
1197.053,20.75696
1197.535,20.88272
1198.017,20.98346
1198.499,21.05204
1198.981,21.08328
1199.463,21.08908
1199.945,21.06205
1200.427,21.03843
1200.91,21.1869
1201.392,21.35534
1201.874,21.08706
1202.356,20.53503
1202.838,20.28156
1203.32,20.45585
1203.802,20.70554
1204.284,20.84672
1204.767,20.93817
1205.249,21.02615
1205.731,21.08013
1206.213,21.0441
1206.695,20.98146
1207.177,20.94412
1207.659,20.95242
1208.141,21.0632
1208.624,21.29902
1209.106,21.42506
1209.588,21.35359
1210.07,21.21399
1210.552,20.94476
1211.034,20.71731
1211.516,20.59939
1211.998,20.58191
1212.48,20.71567
1212.963,20.93201
1213.445,20.95476
1213.927,20.72766
1214.409,20.59065
1214.891,20.56098
1215.373,20.5721
1215.855,20.64116
1216.337,20.57656
1216.819,20.24306
1217.302,19.91876
1217.784,19.97199
1218.266,20.25824
1218.748,20.30779
1219.23,20.18112
1219.712,20.21062
1220.194,20.37139
1220.676,20.42451
1221.159,20.33057
1221.641,20.2301
1222.123,20.19876
1222.605,20.17988
1223.087,20.07484
1223.569,19.99359
1224.051,20.14713
1224.533,20.33559
1225.016,20.24302
1225.498,19.99609
1225.98,19.89791
1226.462,19.97319
1226.944,19.99385
1227.426,19.85201
1227.908,19.73672
1228.39,19.72174
1228.872,19.73444
1229.354,19.75273
1229.837,19.77889
1230.319,19.84609
1230.801,19.90695
1231.283,19.8607
1231.765,19.71254
1232.247,19.64892
1232.729,19.71006
1233.211,19.72934
1233.694,19.68378
1234.176,19.65834
1234.658,19.68612
1235.14,19.70398
1235.622,19.6637
1236.104,19.59671
1236.586,19.55046
1237.068,19.52692
1237.551,19.54478
1238.033,19.59249
1238.515,19.66019
1238.997,19.71156
1239.479,19.52664
1239.961,19.09634
1240.443,18.83252
1240.925,19.01858
1241.407,19.33894
1241.89,19.62625
1242.372,19.75882
1242.854,19.49982
1243.336,19.11014
1243.818,18.89519
1244.3,18.81879
1244.782,18.72243
1245.264,18.58591
1245.746,18.54203
1246.229,18.76362
1246.711,18.82369
1247.193,18.43481
1247.675,18.16714
1248.157,18.27931
1248.639,18.49858
1249.121,18.68646
1249.603,18.80787
1250.085,18.7934
1250.568,18.64811
1251.05,18.42452
1251.532,18.0941
1252.014,18.04364
1252.496,18.3143
1252.978,18.52657
1253.46,18.56613
1253.942,18.42608
1254.425,18.07925
1254.907,17.79678
1255.389,18.0991
1255.871,18.62011
1256.353,18.63409
1256.835,18.37343
1257.317,18.24401
1257.799,18.23397
1258.281,18.18802
1258.764,18.08483
1259.246,18.03356
1259.728,18.10689
1260.21,18.13588
1260.692,18.00917
1261.174,17.86321
1261.656,17.73136
1262.138,17.63629
1262.62,17.63698
1263.103,17.65866
1263.585,17.54387
1264.067,17.32486
1264.549,17.29885
1265.031,17.56365
1265.513,17.68395
1265.995,17.63374
1266.477,17.5234
1266.96,17.35835
1267.442,17.28651
1267.924,17.40277
1268.406,17.53287
1268.888,17.45486
1269.37,17.26854
1269.852,17.17208
1270.334,17.16551
1270.817,17.25985
1271.299,17.44168
1271.781,17.77488
1272.263,18.16475
1272.745,18.20354
1273.227,17.73411
1273.709,17.35799
1274.191,17.51574
1274.673,17.7413
1275.156,17.9121
1275.638,17.9471
1276.12,17.66765
1276.602,17.32255
1277.084,17.20573
1277.566,17.25959
1278.048,17.24472
1278.53,17.13764
1279.012,17.19633
1279.495,17.51159
1279.977,17.64745
1280.459,17.53165
1280.941,17.35478
1281.423,17.16778
1281.905,17.11922
1282.387,17.34998
1282.869,17.65365
1283.352,17.65635
1283.834,17.47896
1284.316,17.37849
1284.798,17.35574
