Raman Shift,Intensity
90.587,1459.0
91.981,1459.0
93.375,1483.0
94.768,1472.0
96.161,1482.0
97.554,1528.0
98.947,1530.0
100.34,1552.0
101.732,1556.0
103.124,1602.0
104.516,1541.0
105.908,1610.0
107.3,1625.0
108.691,1575.0
110.082,1590.0
111.473,1603.0
112.864,1577.0
114.254,1606.0
115.644,1633.0
117.034,1679.0
118.424,1652.0
119.813,1652.0
121.203,1693.0
122.592,1695.0
123.981,1749.0
125.369,1766.0
126.758,1778.0
128.146,1812.0
129.534,1876.0
130.922,1929.0
132.309,1901.0
133.696,1902.0
135.083,1907.0
136.47,1912.0
137.857,1926.0
139.243,1936.0
140.63,1872.0
142.016,1856.0
143.401,1853.0
144.787,1862.0
146.172,1889.0
147.557,1902.0
148.942,1943.0
150.327,1979.0
151.711,1986.0
153.096,2033.0
154.48,2070.0
155.863,2078.0
157.247,2024.0
158.63,2057.0
160.013,1982.0
161.396,2010.0
162.779,1994.0
164.161,1998.0
165.544,2035.0
166.926,2016.0
168.308,2032.0
169.689,2054.0
171.07,2080.004
172.452,2141.0
173.833,2164.0
175.213,2198.0
176.594,2243.0
177.974,2274.0
179.354,2251.0
180.734,2279.0
182.114,2263.0
183.493,2235.0
184.872,2234.0
186.251,2171.0
187.63,2205.0
189.008,2202.0
190.387,2263.0
191.765,2201.0
193.143,2228.0
194.52,2246.0
195.898,2247.0
197.275,2358.0
198.652,2383.0
200.029,2461.0
201.405,2471.0
202.782,2549.0
204.158,2587.0
205.534,2696.0
206.909,2727.0
208.285,2726.0
209.66,2682.0
211.035,2641.0
212.41,2602.0
213.784,2565.0
215.159,2496.0
216.533,2508.0
217.907,2444.0
219.281,2501.0
220.654,2466.0
222.027,2494.0
223.4,2505.0
224.773,2485.0
226.146,2545.0
227.518,2520.0
228.891,2464.0
230.263,2491.0
231.634,2480.0
233.006,2503.0
234.377,2498.0
235.748,2483.0
237.119,2438.0
238.49,2417.0
239.86,2479.0
241.231,2434.0
242.601,2432.0
243.97,2460.0
245.34,2447.0
246.709,2422.0
248.079,2443.0
249.448,2454.0
250.816,2456.0
252.185,2485.0
253.553,2480.0
254.921,2511.0
256.289,2521.0
257.657,2502.0
259.024,2552.0
260.391,2535.0
261.758,2632.0
263.125,2599.0
264.492,2637.0
265.858,2681.0
267.224,2690.0
268.59,2726.0
269.956,2734.0
271.321,2790.0
272.687,2758.0
274.052,2779.0
275.416,2846.0
276.781,2919.0
278.146,2902.0
279.51,2915.0
280.874,2981.0
282.237,2994.0
283.601,2995.0
284.964,3009.0
286.327,3031.0
287.69,3038.452
289.053,3039.765
290.416,3052.0
291.778,3040.0
293.14,3014.0
294.502,3030.0
295.863,3051.0
297.225,3021.0
298.586,3003.0
299.947,2976.0
301.308,3065.0
302.668,3047.0
304.029,2986.0
305.389,3014.0
306.749,2972.0
308.108,3029.0
309.468,3015.0
310.827,3004.0
312.186,2976.0
313.545,2970.0
314.903,2968.0
316.262,2971.0
317.62,2955.307
318.978,2924.0
320.336,2944.0
321.693,2940.0
323.051,2972.0
324.408,2975.592
325.765,2977.106
327.121,2987.0
328.478,2975.0
329.834,2961.0
331.19,2958.0
332.546,2956.0
333.902,2992.0
335.257,3020.0
336.612,2974.0
337.967,2979.0
339.322,2920.0
340.677,3018.0
342.031,2982.0
343.385,3020.0
344.739,3027.0
346.093,3004.0
347.446,3030.0
348.799,3033.0
350.153,3076.0
351.505,3086.0
352.858,3140.0
354.21,3156.0
355.563,3166.093
356.915,3079.0
358.267,3159.0
359.618,3173.0
360.969,3133.0
362.321,3202.0
363.672,3210.0
365.022,3231.0
366.373,3231.0
367.723,3229.0
369.073,3314.0
370.423,3287.0
371.773,3303.0
373.122,3264.0
374.471,3279.0
375.821,3285.627
377.169,3334.0
378.518,3321.0
379.866,3332.0
381.215,3365.0
382.563,3363.564
383.91,3389.0
385.258,3404.0
386.605,3434.0
387.952,3453.985
389.299,3501.0
390.646,3502.0
391.992,3505.0
393.339,3533.0
394.685,3512.0
396.031,3639.0
397.376,3701.0
398.722,3577.0
400.067,3687.0
401.412,3693.0
402.757,3722.0
404.101,3778.0
405.446,3785.0
406.79,3811.0
408.134,3874.0
409.478,3887.0
410.821,3941.0
412.165,3996.0
413.508,4032.0
414.851,4201.0
416.193,4360.0
417.536,4407.0
418.878,4639.0
420.22,4841.0
421.562,5054.0
422.904,5314.0
424.245,5763.0
425.586,6224.0
426.927,6659.0
428.268,6789.0
429.609,6720.0
430.949,6485.0
432.289,6270.0
433.629,6032.0
434.969,5667.0
436.309,5474.0
437.648,5279.0
438.987,5185.0
440.326,5063.0
441.665,4925.0
443.003,4967.0
444.342,5076.0
445.68,4926.0
447.018,4948.0
448.355,4958.0
449.693,4842.0
451.03,4875.0
452.367,4850.0
453.704,4810.0
455.041,4716.0
456.377,4761.0
457.713,4706.0
459.049,4748.0
460.385,4676.0
461.721,4753.0
463.056,4745.0
464.391,4655.0
465.726,4647.0
467.061,4712.0
468.395,4756.0
469.73,4644.0
471.064,4668.0
472.398,4689.0
473.731,4661.614
475.065,4745.0
476.398,4686.0
477.731,4801.0
479.064,4830.0
480.397,4817.0
481.729,4846.0
483.062,4854.0
484.394,4874.0
485.725,4873.0
487.057,4921.0
488.389,4929.0
489.72,4998.0
491.051,4931.0
492.382,4970.0
493.712,4975.0
495.043,5102.0
496.373,5059.0
497.703,5072.0
499.032,5086.0
500.362,5242.0
501.691,5074.0
503.02,5200.0
504.349,5175.0
505.678,5180.0
507.007,5173.0
508.335,5259.0
509.663,5259.0
510.991,5342.0
512.319,5368.0
513.646,5327.0
514.973,5420.0
516.3,5353.0
517.627,5454.0
518.954,5540.0
520.28,5452.0
521.607,5538.0
522.933,5513.0
524.259,5578.0
525.584,5593.0
526.91,5574.0
528.235,5621.0
529.56,5683.0
530.885,5749.0
532.209,5771.989
533.534,5766.0
534.858,5820.0
536.182,5800.0
537.506,5818.0
538.829,5850.0
540.152,5981.0
541.476,5908.0
542.799,6074.0
544.121,5909.0
545.444,6089.0
546.766,6060.0
548.088,6051.0
549.41,6104.0
550.732,6178.0
552.053,6223.0
553.375,6281.0
554.696,6307.229
556.017,6343.0
557.337,6355.0
558.658,6376.0
559.978,6421.0
561.298,6460.0
562.618,6497.289
563.938,6492.0
565.257,6567.0
566.576,6658.0
567.895,6666.0
569.214,6742.0
570.533,6877.0
571.851,6948.0
573.17,7067.542
574.488,7135.0
575.805,7291.0
577.123,7347.0
578.44,7446.0
579.758,7511.0
581.075,7777.0
582.391,7806.0
583.708,8208.0
585.024,8461.0
586.341,8851.0
587.657,9452.0
588.972,9754.0
590.288,9873.0
591.603,9383.0
592.918,8686.0
594.233,8408.0
595.548,8195.0
596.863,7896.0
598.177,7801.0
599.491,7772.0
600.805,7763.0
602.119,7805.0
603.432,7813.0
604.746,7828.0
606.059,7924.0
607.372,7867.0
608.685,7859.0
609.997,7930.0
611.309,7854.0
612.621,7806.0
613.933,7977.0
615.245,7968.0
616.557,7961.0
617.868,7942.0
619.179,8031.0
620.49,8013.0
621.801,8055.587
623.111,8056.0
624.421,8071.0
625.731,8141.0
627.041,8043.0
628.351,8288.0
629.66,8196.0
630.97,8203.0
632.279,8354.0
633.588,8300.0
634.896,8294.0
636.205,8234.0
637.513,8357.0
638.821,8348.0
640.129,8478.0
641.437,8493.0
642.744,8575.0
644.051,8544.0
645.358,8693.0
646.665,8658.0
647.972,8735.0
649.278,8688.0
650.584,8733.0
651.89,8704.0
653.196,8832.0
654.502,8751.0
655.807,8958.0
657.113,8870.0
658.418,8924.0
659.722,9122.0
661.027,9025.0
662.331,9077.0
663.636,9143.0
664.94,9053.0
666.244,9115.0
667.547,9226.0
668.851,9094.0
670.154,9289.0
671.457,9214.0
672.76,9254.0
674.062,9403.0
675.365,9331.0
676.667,9380.0
677.969,9488.0
679.271,9450.0
680.572,9558.0
681.874,9494.0
683.175,9664.0
684.476,9657.0
685.777,9596.0
687.077,9728.0
688.378,9650.0
689.678,9863.0
690.978,9826.0
692.278,9864.0
693.577,9727.0
694.877,10022.0
696.176,9934.0
697.475,9976.0
698.774,10074.0
700.072,10173.0
701.371,10054.0
702.669,10233.0
703.967,10014.0
705.265,10249.0
706.562,10325.0
707.86,10234.0
709.157,10184.0
710.454,10432.0
711.751,10266.0
713.047,10626.0
714.344,10352.0
715.64,10501.0
716.936,10466.0
718.232,10383.0
719.527,10620.0
720.823,10692.0
722.118,10628.0
723.413,10679.0
724.708,10755.0
726.002,10723.0
727.297,10852.0
728.591,10874.718
729.885,10883.0
731.179,10960.0
732.472,10938.0
733.766,10929.0
735.059,11008.0
736.352,11075.0
737.645,11168.0
738.937,11126.0
740.23,11286.0
741.522,11211.0
742.814,11203.0
744.106,11333.0
745.397,11406.0
746.689,11252.0
747.98,11310.0
749.271,11504.0
750.562,11340.0
751.853,11640.0
753.143,11421.0
754.433,11637.0
755.723,11427.0
757.013,11574.0
758.303,11738.0
759.592,11607.0
760.881,11604.0
762.17,11652.0
763.459,11869.0
764.748,11843.0
766.036,11721.0
767.325,11987.0
768.613,11811.0
769.901,12026.0
771.188,12036.0
772.476,11988.0
773.763,12151.0
775.05,11998.0
776.337,12219.0
777.624,12245.0
778.91,12218.0
780.196,12236.0
781.482,12267.274
782.768,12156.0
784.054,12382.0
785.339,12362.0
786.625,12499.0
787.91,12319.0
789.195,12416.0
790.479,12550.0
791.764,12498.0
793.048,12604.0
794.332,12552.0
795.616,12780.0
796.9,12718.0
798.183,12664.0
799.467,12853.0
800.75,12861.0
802.033,12825.0
803.316,12852.0
804.598,13030.0
805.88,12906.0
807.163,13168.0
808.445,13027.0
809.726,13032.0
811.008,13091.0
812.289,13184.0
813.57,13271.0
814.851,13196.0
816.132,13217.0
817.413,13409.0
818.693,13304.0
819.973,13372.0
821.253,13546.0
822.533,13502.0
823.813,13532.0
825.092,13528.0
826.371,13728.0
827.65,13558.0
828.929,13673.0
830.208,13811.0
831.486,13778.0
832.764,13798.0
834.042,13753.0
835.32,13952.0
836.598,13792.0
837.875,14192.0
839.152,13910.0
840.429,14108.0
841.706,14184.0
842.983,13956.0
844.259,14192.0
845.536,14202.0
846.812,14054.0
848.088,14192.0
849.363,14058.0
850.639,14257.0
851.914,14440.0
853.189,14148.0
854.464,14305.0
855.739,14298.0
857.013,14654.0
858.288,14432.0
859.562,14448.0
860.836,14746.0
862.11,14751.0
863.383,14565.0
864.656,14837.0
865.93,14809.0
867.203,14832.0
868.475,14924.0
869.748,14907.0
871.02,14967.701
872.292,15088.0
873.564,14991.0
874.836,15092.0
876.108,14990.0
877.379,15020.0
878.65,15216.0
879.922,15326.0
881.192,15310.0
882.463,15266.0
883.733,15260.0
885.004,15302.0
886.274,15324.0
887.544,15334.0
888.813,15418.671
890.083,15503.0
891.352,15544.0
892.621,15554.0
893.89,15530.0
895.159,15603.0
896.427,15622.0
897.695,15597.0
898.964,15688.338
900.232,15865.0
901.499,15849.0
902.767,15941.0
904.034,16084.0
905.301,15965.0
906.568,15936.0
907.835,16032.281
909.102,16212.0
910.368,16167.0
911.634,16234.0
912.9,16292.0
914.166,16290.0
915.432,16541.0
916.697,16484.0
917.962,16307.0
919.227,16611.0
920.492,16715.0
921.757,16591.0
923.021,16614.0
924.285,16908.0
925.55,16803.0
926.813,16978.0
928.077,16906.0
929.341,17116.0
930.604,17086.0
931.867,17286.0
933.13,17084.0
934.393,17352.0
935.655,17533.0
936.918,17414.0
938.18,17943.0
939.442,17744.0
940.703,17858.0
941.965,18139.0
943.226,18282.0
944.488,18343.0
945.749,18636.0
947.009,19194.0
948.27,19408.0
949.53,19906.0
950.791,20480.0
952.051,21398.0
953.311,22469.0
954.57,24228.0
955.83,27283.0
957.089,30720.0
958.348,36182.0
959.607,42421.0
960.866,50088.0
962.124,54241.0
963.383,53928.0
964.641,48562.0
965.899,40648.0
967.156,34652.0
968.414,30042.0
969.671,26819.0
970.928,24900.0
972.185,23179.0
973.442,21870.0
974.699,20962.0
975.955,20304.0
977.211,19772.0
978.468,19480.0
979.723,19454.0
980.979,19196.0
982.234,19050.0
983.49,19360.0
984.745,18631.0
986.0,19122.0
987.254,19066.0
988.509,18796.0
989.763,19179.0
991.017,19138.0
992.271,19146.0
993.525,19162.0
994.779,19159.0
996.032,19329.0
997.285,19377.0
998.538,19420.0
999.791,19365.0
1001.044,19570.0
1002.296,19534.0
1003.548,19884.0
1004.8,19850.0
1006.052,19834.0
1007.304,20137.0
1008.555,19918.0
1009.807,20001.0
1011.058,19983.0
1012.309,20148.0
1013.559,20112.0
1014.81,20075.0
1016.06,19957.0
1017.31,20179.0
1018.56,20221.0
1019.81,20122.0
1021.06,20368.0
1022.309,20657.0
1023.558,20386.0
1024.807,20814.0
1026.056,20723.0
1027.305,20906.0
1028.553,21035.0
1029.801,21314.0
1031.049,21194.0
1032.297,21344.0
1033.545,21542.0
1034.793,21715.0
1036.04,21788.0
1037.287,22126.0
1038.534,22260.0
1039.781,22471.0
1041.027,22972.0
1042.274,22779.0
1043.52,22893.0
1044.766,23278.0
1046.012,23356.0
1047.257,23699.0
1048.503,24336.0
1049.748,24806.0
1050.993,24398.0
1052.238,24417.0
1053.483,23666.0
1054.727,23070.0
1055.971,22892.0
1057.216,22857.0
1058.459,22601.0
1059.703,22643.0
1060.947,22230.0
1062.19,22464.0
1063.433,22470.0
1064.676,22291.0
1065.919,22134.0
1067.162,22265.0
1068.404,22498.0
1069.646,22280.0
1070.888,22369.0
1072.13,22606.0
1073.372,22617.0
1074.613,22843.0
1075.855,23016.0
1077.096,22912.0
1078.337,23029.0
1079.578,23138.0
1080.818,22852.0
1082.059,22819.0
1083.299,22725.0
1084.539,22762.0
1085.779,22657.0
1087.018,22761.0
1088.258,22758.0
1089.497,22885.0
1090.736,22716.0
1091.975,22745.0
1093.213,22553.0
1094.452,22608.0
1095.69,22632.953
1096.928,22758.0
1098.166,22877.0
1099.404,22826.0
1100.642,22902.717
1101.879,22842.0
1103.116,22948.0
1104.353,23013.0
1105.59,23110.0
1106.827,22938.0
1108.063,23195.0
1109.299,22893.0
1110.536,23166.0
1111.771,23274.0
1113.007,22981.0
1114.243,23386.0
1115.478,23258.0
1116.713,23357.0
1117.948,23458.0
1119.183,23433.0
1120.418,23395.0
1121.652,23520.0
1122.886,23827.0
1124.12,23610.0
1125.354,23921.0
1126.588,23691.0
1127.821,23937.0
1129.055,23768.0
1130.288,24175.0
1131.521,24227.0
1132.753,24151.0
1133.986,23790.0
1135.218,24056.0
1136.45,24482.0
1137.682,24027.0
1138.914,24608.0
1140.146,24136.0
1141.377,24320.0
1142.609,24394.0
1143.84,24440.0
1145.071,24553.0
1146.301,24672.0
1147.532,24602.0
1148.762,24682.0
1149.992,24738.0
1151.222,24564.0
1152.452,24765.0
1153.682,24836.287
1154.911,24605.0
1156.14,25065.0
1157.369,24946.0
1158.598,24822.0
1159.827,25166.0
1161.055,25210.0
1162.284,24986.0
1163.512,25305.0
1164.74,25341.0
1165.967,25402.0
1167.195,25024.0
1168.422,25484.0
1169.65,25732.0
1170.877,25323.0
1172.103,25408.0
1173.33,25504.0
1174.557,25520.0
1175.783,25745.0
1177.009,25561.0
1178.235,25358.0
1179.461,25740.0
1180.686,25675.0
1181.912,25746.0
1183.137,25978.0
1184.362,26113.0
1185.587,26140.723
1186.811,26230.439
1188.036,26139.0
1189.26,26249.0
1190.484,26168.0
1191.708,26158.0
1192.932,26249.139
1194.155,26257.766
1195.378,26406.0
1196.602,26400.0
1197.825,26483.959
1199.047,26552.0
1200.27,26722.0
1201.492,26800.0
1202.715,26920.0
1203.937,26976.854
1205.159,26857.0
1206.38,27009.0
1207.602,26945.0
1208.823,26854.0
1210.044,26934.0
1211.265,27109.0
1212.486,26948.0
1213.707,27302.0
1214.927,27118.0
1216.147,27296.0
1217.367,27121.0
1218.587,27367.0
1219.807,27320.0
1221.027,27411.0
1222.246,27192.0
1223.465,27354.0
1224.684,27577.0
1225.903,27525.0
1227.121,27734.0
1228.34,27504.0
1229.558,27722.0
1230.776,27904.0
1231.994,27659.0
1233.212,27531.0
1234.429,27812.0
1235.646,27968.0
1236.864,28072.0
1238.081,28498.0
1239.297,28411.16
1240.514,27914.0
1241.73,28397.0
1242.947,28140.0
1244.163,28121.0
1245.378,28049.0
1246.594,28329.0
1247.81,28420.0
1249.025,28403.791
1250.24,28514.0
1251.455,28443.0
1252.67,28382.0
1253.885,28508.0
1255.099,28549.0
1256.313,28481.0
1257.527,28314.0
1258.741,28792.0
1259.955,28793.0
1261.168,28472.0
1262.382,28438.0
1263.595,28824.0
1264.808,28698.0
1266.021,28830.0
1267.233,28993.0
1268.446,28730.0
1269.658,28980.0
1270.87,28583.0
1272.082,29084.0
1273.294,28925.0
1274.505,29031.0
1275.716,29068.0
1276.928,29193.0
1278.139,29043.0
1279.349,29246.0
1280.56,29188.0
1281.77,29248.0
1282.981,29254.0
1284.191,29156.0
1285.401,29627.0
1286.61,29552.0
1287.82,29395.0
1289.029,29553.0
1290.239,29433.0
1291.448,29753.0
1292.656,29538.0
1293.865,29646.0
1295.073,29703.0
1296.282,29945.0
1297.49,29521.0
1298.698,29761.0
1299.906,29917.0
1301.113,29811.0
1302.32,29965.0
1303.528,29909.0
1304.735,30184.0
1305.942,29904.0
1307.148,29948.0
1308.355,30357.0
1309.561,30110.0
1310.767,30400.0
1311.973,30178.0
1313.179,30303.0
1314.384,30272.0
1315.59,30648.0
1316.795,30352.0
1318.0,30657.0
1319.205,30560.0
1320.41,30763.0
1321.614,30691.0
1322.819,30819.996
1324.023,30990.0
1325.227,31012.0
1326.431,31054.0
1327.634,31050.0
1328.838,31122.949
1330.041,31032.0
1331.244,31280.0
1332.447,31317.0
1333.65,31444.508
1334.852,31326.0
1336.055,31400.0
1337.257,31454.0
1338.459,31234.0
1339.661,31288.0
1340.862,31825.0
1342.064,31497.0
1343.265,31660.0
1344.466,31464.0
1345.667,31813.0
1346.868,31664.0
1348.068,32041.0
1349.269,32025.0
1350.469,31896.0
1351.669,32158.0
1352.869,32059.0
1354.069,32200.0
1355.268,32151.0
1356.468,31985.0
1357.667,32637.0
1358.866,32570.0
1360.065,32330.0
1361.263,32850.0
1362.462,32533.0
1363.66,32846.0
1364.858,32764.0
1366.056,32580.0
1367.254,32814.0
1368.451,32896.0
1369.649,33147.0
1370.846,32850.0
1372.043,32998.0
1373.24,33048.0
1374.436,33027.0
1375.633,33237.0
1376.829,33184.0
1378.025,33155.0
1379.221,33027.0
1380.417,33304.0
1381.613,33267.0
1382.808,33181.0
1384.003,33524.0
1385.199,33462.0
1386.393,33631.0
1387.588,33358.0
1388.783,33477.0
1389.977,33593.0
1391.171,33692.0
1392.365,33609.0
1393.559,33842.0
1394.753,33866.0
1395.946,33705.0
1397.14,34041.0
1398.333,33803.0
1399.526,34126.0
1400.719,34036.0
1401.911,34138.0
1403.104,34088.0
1404.296,34260.0
1405.488,34277.0
1406.68,34499.0
1407.872,34120.0
1409.063,34347.0
1410.255,34686.0
1411.446,34231.0
1412.637,34935.0
1413.828,34489.0
1415.018,34854.0
1416.209,34792.0
1417.399,35068.0
1418.589,34850.0
1419.779,35109.0
1420.969,34939.0
1422.159,35179.0
1423.348,34925.0
1424.537,35232.0
1425.726,35108.0
1426.915,35126.0
1428.104,35321.0
