Raman Shift,Intensity
94.768,1848.0
96.161,1838.0
97.554,1930.0
98.947,1975.0
100.34,2019.0
101.732,2029.0
103.124,2050.0
104.516,2112.0
105.908,2140.0
107.3,2185.0
108.691,2178.0
110.082,2227.0
111.473,2235.0
112.864,2269.0
114.254,2366.0
115.644,2407.0
117.034,2470.0
118.424,2436.0
119.813,2397.0
121.203,2454.0
122.592,2400.0
123.981,2426.0
125.369,2432.0
126.758,2432.0
128.146,2498.0
129.534,2506.0
130.922,2560.0
132.309,2562.0
133.696,2617.0
135.083,2569.0
136.47,2668.0
137.857,2599.0
139.243,2711.0
140.63,2703.0
142.016,2737.0
143.401,2741.0
144.787,2786.0
146.172,2821.0
147.557,2842.0
148.942,2817.0
150.327,2868.0
151.711,2928.0
153.096,2926.0
154.48,3043.0
155.863,3059.0
157.247,3178.0
158.63,3284.0
160.013,3496.0
161.396,3653.0
162.779,3979.0
164.161,4356.0
165.544,4763.0
166.926,5406.0
168.308,6113.0
169.689,6702.0
171.07,7052.0
172.452,7089.229
173.833,7073.0
175.213,6578.0
176.594,5866.0
177.974,5156.0
179.354,4694.0
180.734,4269.0
182.114,3966.0
183.493,3674.0
184.872,3588.0
186.251,3462.0
187.63,3321.0
189.008,3237.0
190.387,3214.0
191.765,3170.0
193.143,3089.0
194.52,3101.0
195.898,3048.0
197.275,3065.0
198.652,3038.0
200.029,3065.0
201.405,2992.0
202.782,3021.0
204.158,3005.0
205.534,3080.0
206.909,3063.0
208.285,2999.0
209.66,2997.0
211.035,2990.0
212.41,2948.0
213.784,3001.0
215.159,2973.0
216.533,3018.0
217.907,2990.0
219.281,3006.0
220.654,3060.0
222.027,2990.0
223.4,3065.0
224.773,3070.0
226.146,2989.0
227.518,3050.0
228.891,3073.0
230.263,3050.0
231.634,3042.0
233.006,3125.0
234.377,3055.0
235.748,3078.0
237.119,3133.0
238.49,3095.0
239.86,3141.0
241.231,3155.0
242.601,3131.0
243.97,3203.0
245.34,3229.0
246.709,3230.0
248.079,3258.0
249.448,3288.0
250.816,3317.0
252.185,3382.0
253.553,3380.0
254.921,3438.0
256.289,3498.0
257.657,3516.0
259.024,3596.0
260.391,3640.0
261.758,3720.0
263.125,3746.0
264.492,3930.0
265.858,3965.0
267.224,4097.0
268.59,4250.0
269.956,4270.0
271.321,4525.0
272.687,4674.0
274.052,4876.0
275.416,5154.0
276.781,5533.0
278.146,5767.0
279.51,6205.0
280.874,6702.0
282.237,7103.0
283.601,7990.0
284.964,8614.0
286.327,9304.0
287.69,10377.0
289.053,11147.0
290.416,11943.0
291.778,12854.0
293.14,13068.0
294.502,13230.0
295.863,12746.0
297.225,12141.0
298.586,11173.0
299.947,9984.0
301.308,9007.0
302.668,8027.0
304.029,7282.0
305.389,6651.0
306.749,5997.0
308.108,5484.0
309.468,5300.0
310.827,4897.0
312.186,4693.0
313.545,4502.0
314.903,4370.0
316.262,4231.0
317.62,4110.0
318.978,4062.0
320.336,3976.0
321.693,3961.0
323.051,3870.0
324.408,3832.0
325.765,3803.0
327.121,3754.773
328.478,3700.0
329.834,3719.0
331.19,3718.0
332.546,3748.0
333.902,3687.0
335.257,3715.0
336.612,3671.0
337.967,3726.0
339.322,3742.0
340.677,3692.0
342.031,3622.0
343.385,3608.0
344.739,3609.0
346.093,3576.0
347.446,3556.812
348.799,3543.0
350.153,3507.0
351.505,3513.0
352.858,3510.0
354.21,3457.0
355.563,3480.0
356.915,3499.0
358.267,3430.0
359.618,3495.0
360.969,3441.0
362.321,3501.0
363.672,3511.0
365.022,3537.0
366.373,3460.0
367.723,3427.0
369.073,3500.0
370.423,3458.0
371.773,3532.0
373.122,3501.0
374.471,3456.0
375.821,3530.0
377.169,3476.0
378.518,3531.0
379.866,3487.0
381.215,3488.0
382.563,3522.0
383.91,3521.0
385.258,3535.134
386.605,3546.0
387.952,3548.0
389.299,3527.0
390.646,3517.0
391.992,3498.0
393.339,3490.0
394.685,3572.0
396.031,3507.0
397.376,3633.0
398.722,3534.0
400.067,3556.0
401.412,3576.0
402.757,3592.0
404.101,3586.0
405.446,3571.0
406.79,3551.0
408.134,3585.0
409.478,3596.0
410.821,3602.0
412.165,3615.0
413.508,3574.0
414.851,3617.0
416.193,3627.0
417.536,3601.0
418.878,3639.0
420.22,3641.0
421.562,3648.0
422.904,3589.0
424.245,3690.0
425.586,3669.0
426.927,3625.0
428.268,3683.0
429.609,3682.0
430.949,3636.0
432.289,3612.0
433.629,3707.0
434.969,3705.0
436.309,3760.0
437.648,3676.0
438.987,3676.0
440.326,3773.0
441.665,3680.0
443.003,3754.0
444.342,3742.0
445.68,3744.0
447.018,3730.0
448.355,3700.0
449.693,3724.0
451.03,3746.0
452.367,3739.0
453.704,3820.0
455.041,3781.0
456.377,3721.0
457.713,3787.0
459.049,3786.0
460.385,3755.0
461.721,3764.0
463.056,3777.0
464.391,3777.0
465.726,3763.0
467.061,3831.0
468.395,3822.0
469.73,3824.0
471.064,3769.0
472.398,3756.0
473.731,3773.518
475.065,3866.0
476.398,3826.0
477.731,3848.0
479.064,3887.0
480.397,3855.0
481.729,3935.0
483.062,3896.0
484.394,3870.0
485.725,3865.0
487.057,3859.0
488.389,3916.0
489.72,3886.0
491.051,3873.0
492.382,3946.0
493.712,3928.0
495.043,3925.0
496.373,3927.0
497.703,3922.0
499.032,3976.0
500.362,3992.0
501.691,3988.0
503.02,3962.0
504.349,3958.0
505.678,3963.803
507.007,4023.0
508.335,3982.0
509.663,4022.0
510.991,4027.0
512.319,4010.0
513.646,4049.0
514.973,4050.0
516.3,4121.0
517.627,4091.0
518.954,4080.0
520.28,4032.0
521.607,4018.0
522.933,4012.0
524.259,4096.0
525.584,4065.0
526.91,4134.0
528.235,4117.0
529.56,4133.0
530.885,4096.0
532.209,4117.0
533.534,4124.0
534.858,4122.0
536.182,4096.0
537.506,4148.0
538.829,4151.0
540.152,4116.0
541.476,4168.0
542.799,4147.855
544.121,4128.0
545.444,4154.0
546.766,4181.0
548.088,4194.0
549.41,4205.0
550.732,4197.0
552.053,4207.138
553.375,4178.0
554.696,4224.0
556.017,4196.0
557.337,4228.0
558.658,4230.0
559.978,4189.0
561.298,4268.0
562.618,4302.0
563.938,4212.0
565.257,4280.0
566.576,4273.0
567.895,4233.0
569.214,4274.0
570.533,4291.0
571.851,4340.0
573.17,4240.0
574.488,4340.0
575.805,4332.0
577.123,4262.0
578.44,4325.0
579.758,4314.0
581.075,4408.0
582.391,4356.0
583.708,4411.0
585.024,4314.0
586.341,4388.0
587.657,4379.0
588.972,4393.0
590.288,4405.0
591.603,4384.0
592.918,4318.0
594.233,4407.0
595.548,4403.0
596.863,4494.0
598.177,4398.0
599.491,4393.0
600.805,4392.0
602.119,4412.0
603.432,4461.0
604.746,4468.0
606.059,4510.0
607.372,4480.0
608.685,4476.0
609.997,4489.0
611.309,4496.569
612.621,4505.889
613.933,4509.343
615.245,4525.0
616.557,4503.0
617.868,4497.0
619.179,4472.0
620.49,4503.0
621.801,4475.0
623.111,4576.0
624.421,4451.0
625.731,4620.0
627.041,4502.0
628.351,4555.0
629.66,4544.0
630.97,4564.0
632.279,4613.0
633.588,4535.0
634.896,4632.0
636.205,4594.0
637.513,4603.0
638.821,4574.0
640.129,4590.0
641.437,4630.0
642.744,4625.0
644.051,4637.0
645.358,4623.0
646.665,4612.0
647.972,4652.0
649.278,4656.0
650.584,4663.0
651.89,4601.0
653.196,4689.0
654.502,4701.0
655.807,4743.0
657.113,4665.0
658.418,4700.0
659.722,4682.0
661.027,4695.0
662.331,4653.0
663.636,4693.0
664.94,4739.0
666.244,4716.0
667.547,4771.0
668.851,4687.0
670.154,4808.0
671.457,4716.0
672.76,4797.0
674.062,4815.0
675.365,4809.0
676.667,4702.0
677.969,4779.0
679.271,4812.0
680.572,4860.0
681.874,4899.0
683.175,4906.0
684.476,4866.0
685.777,4859.0
687.077,4821.0
688.378,4910.0
689.678,4913.0
690.978,4930.0
692.278,4957.0
693.577,4954.567
694.877,5002.0
696.176,4950.0
697.475,5012.0
698.774,4990.0
700.072,5099.0
701.371,5060.0
702.669,5081.0
703.967,5073.0
705.265,5230.0
706.562,5347.0
707.86,5343.0
709.157,5412.0
710.454,5612.0
711.751,5649.0
713.047,5952.0
714.344,6090.0
715.64,6481.0
716.936,6667.0
718.232,7036.0
719.527,7441.0
720.823,7630.0
722.118,7590.0
723.413,7450.0
724.708,7164.0
726.002,6836.0
727.297,6609.0
728.591,6218.0
729.885,6060.0
731.179,5836.0
732.472,5672.0
733.766,5527.0
735.059,5450.0
736.352,5385.0
737.645,5375.0
738.937,5343.0
740.23,5308.0
741.522,5285.171
742.814,5256.632
744.106,5240.0
745.397,5214.0
746.689,5224.0
747.98,5218.0
749.271,5184.0
750.562,5201.0
751.853,5252.0
753.143,5200.0
754.433,5259.0
755.723,5246.0
757.013,5170.0
758.303,5299.0
759.592,5159.0
760.881,5265.0
762.17,5233.0
763.459,5245.0
764.748,5273.0
766.036,5228.0
767.325,5253.0
768.613,5258.675
769.901,5285.0
771.188,5295.0
772.476,5289.722
773.763,5276.0
775.05,5274.0
776.337,5282.0
777.624,5278.0
778.91,5264.0
780.196,5292.0
781.482,5304.0
782.768,5288.0
784.054,5288.0
785.339,5325.0
786.625,5321.403
787.91,5315.0
789.195,5352.0
790.479,5335.0
791.764,5349.0
793.048,5356.983
794.332,5356.0
795.616,5379.0
796.9,5379.0
798.183,5417.0
799.467,5384.0
800.75,5374.0
802.033,5495.0
803.316,5433.0
804.598,5507.0
805.88,5342.0
807.163,5446.0
808.445,5489.0
809.726,5447.0
811.008,5461.0
812.289,5438.0
813.57,5452.0
814.851,5451.969
816.132,5457.0
817.413,5465.0
818.693,5476.233
819.973,5487.415
821.253,5500.0
822.533,5534.0
823.813,5535.0
825.092,5598.0
826.371,5575.0
827.65,5597.0
828.929,5604.0
830.208,5577.0
831.486,5620.0
832.764,5534.0
834.042,5568.0
835.32,5603.0
836.598,5588.0
837.875,5626.0
839.152,5612.0
840.429,5595.0
841.706,5725.0
842.983,5584.0
844.259,5633.0
845.536,5705.0
846.812,5624.0
848.088,5788.0
849.363,5601.0
850.639,5665.0
851.914,5723.0
853.189,5643.0
854.464,5723.0
855.739,5723.0
857.013,5789.0
858.288,5732.0
859.562,5718.0
860.836,5803.0
862.11,5756.0
863.383,5785.0
864.656,5836.0
865.93,5758.0
867.203,5827.0
868.475,5873.0
869.748,5901.0
871.02,5935.177
872.292,5955.0
873.564,5963.0
874.836,5947.0
876.108,5939.0
877.379,5932.0
878.65,5988.0
879.922,6016.0
881.192,6030.0
882.463,5958.0
883.733,5946.0
885.004,5841.0
886.274,5946.0
887.544,5896.0
888.813,5980.0
890.083,5884.0
891.352,5927.0
892.621,5942.0
893.89,5934.0
895.159,5954.0
896.427,5917.0
897.695,5958.0
898.964,6003.0
900.232,6001.0
901.499,5983.0
902.767,5999.0
904.034,6029.0
905.301,5913.0
906.568,6050.0
907.835,6074.0
909.102,5978.0
910.368,6051.0
911.634,6068.0
912.9,5993.0
914.166,6061.0
915.432,6120.0
916.697,6105.0
917.962,6031.0
919.227,6073.0
920.492,6110.0
921.757,6193.0
923.021,6125.0
924.285,6164.0
925.55,6144.0
926.813,6198.0
928.077,6131.0
929.341,6121.0
930.604,6122.0
931.867,6198.0
933.13,6165.0
934.393,6200.0
935.655,6272.0
936.918,6155.0
938.18,6212.0
939.442,6177.0
940.703,6243.0
941.965,6248.0
943.226,6198.0
944.488,6194.0
945.749,6258.0
947.009,6250.0
948.27,6269.0
949.53,6279.0
950.791,6282.0
952.051,6361.0
953.311,6335.0
954.57,6258.0
955.83,6361.0
957.089,6337.0
958.348,6387.0
959.607,6327.0
960.866,6350.0
962.124,6339.0
963.383,6344.0
964.641,6331.0
965.899,6378.0
967.156,6372.0
968.414,6391.793
969.671,6372.0
970.928,6411.0
972.185,6427.0
973.442,6406.0
974.699,6358.0
975.955,6422.0
977.211,6439.0
978.468,6427.0
979.723,6508.0
980.979,6514.0
982.234,6500.0
983.49,6546.0
984.745,6445.0
986.0,6520.0
987.254,6534.0
988.509,6464.0
989.763,6578.0
991.017,6535.0
992.271,6540.0
993.525,6566.0
994.779,6599.0
996.032,6573.0
997.285,6560.0
998.538,6608.0
999.791,6545.0
1001.044,6595.344
1002.296,6583.0
1003.548,6670.0
1004.8,6627.0
1006.052,6690.0
1007.304,6750.0
1008.555,6705.0
1009.807,6660.0
1011.058,6744.0
1012.309,6732.0
1013.559,6703.0
1014.81,6867.0
1016.06,6748.0
1017.31,6852.0
1018.56,6818.0
1019.81,6787.0
1021.06,6926.0
1022.309,6877.0
1023.558,6868.0
1024.807,6925.0
1026.056,6964.0
1027.305,6932.0
1028.553,6876.0
1029.801,7033.0
1031.049,7058.0
1032.297,6986.0
1033.545,6967.0
1034.793,7070.0
1036.04,6995.0
1037.287,6994.0
1038.534,7104.0
1039.781,7180.0
1041.027,7218.0
1042.274,7232.0
1043.52,7273.0
1044.766,7274.0
1046.012,7280.0
1047.257,7384.0
1048.503,7317.0
1049.748,7405.0
1050.993,7305.0
1052.238,7420.0
1053.483,7631.0
1054.727,7480.0
1055.971,7479.0
1057.216,7618.0
1058.459,7569.0
1059.703,7742.0
1060.947,7712.0
1062.19,7779.0
1063.433,7922.0
1064.676,7883.0
1065.919,8006.0
1067.162,8219.0
1068.404,8452.0
1069.646,8463.0
1070.888,8707.0
1072.13,8897.0
1073.372,9106.0
1074.613,9344.0
1075.855,9585.0
1077.096,9865.0
1078.337,10316.0
1079.578,10971.0
1080.818,11688.0
1082.059,12786.0
1083.299,14123.0
1084.539,16135.0
1085.779,18582.0
1087.018,21474.0
1088.258,25276.0
1089.497,30153.0
1090.736,36994.0
1091.975,45693.0
1093.213,54740.0
1094.452,60790.0
1095.69,60630.0
1096.928,52986.0
1098.166,42507.0
1099.404,32208.0
1100.642,23964.0
1101.879,18401.0
1103.116,14793.0
1104.353,12335.0
1105.59,11027.0
1106.827,9987.0
1108.063,9506.0
1109.299,8942.0
1110.536,8607.0
1111.771,8387.0
1113.007,8233.0
1114.243,8092.0
1115.478,8044.0
1116.713,7920.0
1117.948,7727.0
1119.183,7759.0
1120.418,7608.0
1121.652,7714.0
1122.886,7801.0
1124.12,7641.0
1125.354,7593.0
1126.588,7443.0
1127.821,7532.0
1129.055,7439.0
1130.288,7470.0
1131.521,7434.0
1132.753,7412.0
1133.986,7354.0
1135.218,7430.0
1136.45,7463.0
1137.682,7354.0
1138.914,7492.0
1140.146,7421.0
1141.377,7471.0
1142.609,7389.0
1143.84,7457.0
1145.071,7385.0
1146.301,7379.0
1147.532,7403.0
1148.762,7338.0
1149.992,7347.0
1151.222,7422.0
1152.452,7408.0
1153.682,7414.0
1154.911,7280.0
1156.14,7381.0
1157.369,7343.0
1158.598,7297.0
1159.827,7352.0
1161.055,7456.0
1162.284,7457.0
1163.512,7440.0
1164.74,7346.0
1165.967,7382.0
1167.195,7369.0
1168.422,7425.0
1169.65,7481.0
1170.877,7476.0
1172.103,7432.0
1173.33,7390.0
1174.557,7432.0
1175.783,7412.642
1177.009,7437.59
1178.235,7453.0
1179.461,7477.0
1180.686,7519.0
1181.912,7504.0
1183.137,7471.0
1184.362,7511.0
1185.587,7524.0
1186.811,7499.0
1188.036,7552.0
1189.26,7549.0
1190.484,7585.0
1191.708,7564.0
1192.932,7596.0
1194.155,7579.0
1195.378,7572.0
1196.602,7618.0
1197.825,7646.0
1199.047,7592.0
1200.27,7578.0
1201.492,7566.0
1202.715,7735.0
1203.937,7558.0
1205.159,7690.0
1206.38,7687.0
1207.602,7676.0
1208.823,7584.0
1210.044,7613.0
1211.265,7724.0
1212.486,7627.0
1213.707,7695.0
1214.927,7654.0
1216.147,7649.0
1217.367,7656.0
1218.587,7820.0
1219.807,7671.0
1221.027,7753.0
1222.246,7727.0
1223.465,7707.0
1224.684,7703.0
1225.903,7716.0
1227.121,7825.0
1228.34,7774.0
1229.558,7896.0
1230.776,7745.0
1231.994,7828.0
1233.212,7725.0
1234.429,7844.0
1235.646,7757.0
1236.864,7792.0
1238.081,7896.0
1239.297,7802.0
1240.514,7843.0
1241.73,7800.0
1242.947,7818.0
1244.163,7890.0
1245.378,7796.0
1246.594,7884.0
1247.81,7854.0
1249.025,7816.0
1250.24,7892.0
1251.455,7868.0
1252.67,7894.0
1253.885,7909.0
1255.099,7870.0
1256.313,7872.0
1257.527,7896.0
1258.741,7983.0
1259.955,7927.0
1261.168,7868.0
1262.382,7885.0
1263.595,7990.0
1264.808,7934.0
1266.021,7996.0
1267.233,8002.0
1268.446,7970.0
1269.658,7995.0
1270.87,7946.0
1272.082,7983.0
1273.294,7993.0
1274.505,8073.0
1275.716,7998.0
1276.928,8026.0
1278.139,8024.0
1279.349,8034.0
1280.56,8038.0
1281.77,8105.0
1282.981,8103.0
1284.191,7993.0
1285.401,8088.0
1286.61,8104.0
1287.82,8057.0
1289.029,8130.0
1290.239,8079.0
1291.448,8183.0
1292.656,8092.0
1293.865,8107.0
1295.073,8091.0
1296.282,8186.0
1297.49,8102.0
1298.698,8155.0
1299.906,8157.0
1301.113,8248.0
1302.32,8138.0
1303.528,8204.0
1304.735,8192.0
1305.942,8126.0
1307.148,8243.0
1308.355,8264.0
1309.561,8229.0
1310.767,8354.0
1311.973,8224.0
1313.179,8230.0
1314.384,8242.0
1315.59,8333.0
1316.795,8237.0
1318.0,8302.0
1319.205,8334.0
1320.41,8338.0
1321.614,8304.0
1322.819,8198.0
1324.023,8366.0
1325.227,8300.0
1326.431,8409.0
1327.634,8357.0
1328.838,8355.0
1330.041,8349.0
1331.244,8394.0
1332.447,8401.0
1333.65,8432.0
1334.852,8464.0
1336.055,8428.0
1337.257,8375.0
1338.459,8519.0
1339.661,8488.0
1340.862,8624.0
1342.064,8696.0
1343.265,8552.0
1344.466,8571.0
1345.667,8619.0
1346.868,8515.0
1348.068,8659.0
1349.269,8633.0
1350.469,8636.0
1351.669,8666.0
1352.869,8644.0
1354.069,8608.0
1355.268,8643.0
1356.468,8626.412
1357.667,8756.0
1358.866,8666.0
1360.065,8655.0
1361.263,8726.0
1362.462,8665.0
1363.66,8655.0
1364.858,8768.0
1366.056,8685.0
1367.254,8776.0
1368.451,8889.0
1369.649,8855.0
1370.846,8711.0
1372.043,8807.0
1373.24,8785.0
1374.436,8705.0
1375.633,8775.0
1376.829,8733.034
1378.025,8883.0
1379.221,8772.0
1380.417,8817.0
1381.613,8928.0
1382.808,8866.0
1384.003,8960.0
1385.199,8954.0
1386.393,8896.0
1387.588,8948.0
1388.783,8958.0
1389.977,8886.0
1391.171,8923.0
1392.365,8985.0
1393.559,9025.0
1394.753,9072.0
1395.946,9046.0
1397.14,9040.0
1398.333,9032.0
1399.526,9108.0
1400.719,9030.0
1401.911,9164.0
1403.104,9161.0
1404.296,9196.0
1405.488,9106.0
1406.68,9224.0
1407.872,9275.0
1409.063,9249.0
1410.255,9388.0
1411.446,9182.0
1412.637,9235.0
1413.828,9256.0
1415.018,9336.0
1416.209,9414.0
1417.399,9478.0
1418.589,9394.0
1419.779,9494.0
1420.969,9501.0
1422.159,9507.0
1423.348,9591.0
1424.537,9716.0
1425.726,9692.0
1426.915,9726.0
1428.104,9693.0
1429.293,9721.0
1430.481,9837.0
1431.669,9895.0
1432.857,10071.0
1434.045,10088.0
1435.233,10119.0
1436.42,10300.0
1437.608,10401.0
1438.795,10385.0
1439.982,10453.0
1441.169,10441.917
1442.355,10468.0
1443.542,10395.0
1444.728,10308.0
1445.914,10257.0
1447.1,10144.0
1448.286,10000.0
1449.472,9902.0
1450.657,9902.0
1451.842,10002.0
1453.027,9916.0
1454.212,9868.0
1455.397,9946.0
1456.581,9785.0
1457.766,9793.0
1458.95,9880.0
1460.134,9796.0
1461.318,9865.0
1462.501,9799.0
1463.685,9801.0
1464.868,9823.0
1466.051,9801.0
1467.234,9842.0
1468.417,9814.0
1469.6,9831.0
1470.782,9837.0
1471.965,9819.0
1473.147,9830.919
1474.329,9814.441
1475.51,9825.0
1476.692,9803.0
1477.873,9785.0
1479.055,9811.0
1480.236,9789.0
1481.416,9858.0
1482.597,9864.0
1483.778,9887.0
1484.958,9885.0
1486.138,9826.0
1487.318,9920.0
1488.498,10023.0
1489.678,9891.0
1490.857,9895.0
1492.037,9901.0
1493.216,9991.0
1494.395,9937.0
1495.574,9914.0
1496.752,9981.0
1497.931,9866.0
1499.109,10005.0
1500.287,9865.0
1501.465,9974.0
1502.643,9907.0
1503.82,9848.0
1504.998,9944.0
1506.175,9990.0
1507.352,9952.0
1508.529,9988.0
1509.706,10024.0
1510.882,9968.0
1512.059,9995.0
1513.235,10148.0
1514.411,10088.0
1515.587,9999.0
1516.762,10129.0
1517.938,10067.0
1519.113,10067.0
1520.288,10197.0
1521.463,10129.0
1522.638,10100.0
