Wavenumber (cm⁻¹),Intensity
200.0,27.323
201.00097751710655,24.882616813294238
202.0019550342131,22.44223362658847
203.00293255131965,20.001850439882706
204.0039100684262,17.561467253176943
205.00488758553274,15.121084066471175
206.0058651026393,12.68070087976541
207.00684261974584,10.240317693059644
208.0078201368524,7.799934506353878
209.00879765395894,5.359551319648114
210.00977517106548,2.991093841642185
211.01075268817203,7.918107526881671
212.01173020527858,13.068762463343035
213.01270772238513,19.973924731182706
214.01368523949168,27.92062267839678
215.01466275659823,35.633131964809294
216.01564027370478,42.46912023460401
217.01661779081132,49.33815933528825
218.01759530791787,57.00036656891483
219.01857282502445,64.77692375366576
220.019550342131,70.50037243401765
221.02052785923755,74.23803225806455
222.0215053763441,76.92519354838707
223.02248289345064,73.11578885630496
224.0234604105572,69.19356011730201
225.02443792766374,63.61378005865099
226.0254154447703,57.46534604105568
227.02639296187684,51.49971847507329
228.02737047898339,45.805900293255114
229.02834799608993,40.396452590420324
230.02932551319648,37.72260117302052
231.03030303030303,34.83330303030303
232.03128054740958,31.692548387096775
233.03225806451613,29.202709677419357
234.03323558162268,27.379276637341153
235.03421309872923,26.940291300097755
236.03519061583577,26.55931378299121
237.03616813294232,24.295991202346055
238.03714565004887,21.381107526881735
239.03812316715542,18.98397947214077
240.03910068426197,17.218786901270786
241.04007820136852,15.343218963831877
242.04105571847506,14.048888563049864
243.0420332355816,12.685297165200414
244.0430107526882,10.3008279569892
245.04398826979474,7.715571847507297
246.0449657869013,5.712015640273684
247.04594330400784,4.380341153470167
248.04692082111438,3.160384164222867
249.04789833822093,2.6779130009775107
250.04887585532748,2.1803880742912902
251.04985337243403,1.3839824046920717
252.05083088954058,0.5023636363636315
253.05180840664713,0.06369403714565056
254.05278592375367,0.11542815249266904
255.05376344086022,0.1620107526881725
256.05474095796677,0.23563734115347285
257.0557184750733,0.5663695014662729
258.05669599217987,0.1677184750733171
259.0576735092864,0.7986803519061612
260.05865102639297,1.4002873900293256
261.0596285434995,1.438967741935484
262.06060606060606,1.4717575757575758
263.0615835777126,1.5005395894428153
264.06256109481916,1.5410791788856304
265.0635386119257,1.8250840664711627
266.06451612903226,2.253903225806451
267.0654936461388,2.4427546432062575
268.06647116324535,2.026148582600197
269.0674486803519,1.6065366568914976
270.06842619745845,1.1840557184750757
271.069403714565,0.7765356793743903
272.07038123167155,0.5959296187683284
273.0713587487781,0.5888631476050837
274.07233626588464,0.4778954056696031
275.0733137829912,0.09886803519061317
276.07429130009774,0.3819452590420286
277.0752688172043,0.8123655913978445
278.07624633431084,1.2428621700879712
279.0772238514174,1.6742062561094762
280.07820136852393,2.104704789833816
281.0791788856305,2.5360469208211076
282.08015640273703,2.9664672531769236
283.0811339198436,3.425041055718462
284.08211143695013,4.20912316715541
285.0830889540567,5.047007820136841
286.0840664711632,5.678644183773208
287.0850439882698,6.112498533724329
288.0860215053764,6.711419354838755
289.0869990224829,7.984401759530836
290.0879765395895,9.254290322580689
291.088954056696,10.52034897360708
292.0899315738026,11.889713587487858
293.0909090909091,14.451090909091027
294.09188660801567,18.302670576735213
295.0928641251222,22.48083870967758
296.09384164222877,28.030351906158515
297.0948191593353,33.77183284457499
298.09579667644186,41.39286901270794
299.0967741935484,49.37254838709694
300.09775171065496,55.78243304007832
301.0987292277615,60.404391006842715
302.09970674486806,63.628258064516075
303.1006842619746,61.04093255131959
304.10166177908116,58.08027565982392
305.1026392961877,51.69573313782976
306.10361681329425,44.528998044965675
307.1045943304008,38.75076735092856
308.10557184750735,34.49569794721401
309.1065493646139,30.93647409579666
310.10752688172045,30.07674193548386
311.108504398827,29.476794721407646
312.10948191593354,31.07449560117305
313.1104594330401,33.0798035190616
314.11143695014664,33.7167478005865
315.1124144672532,32.983472140762466
316.11339198435974,32.83060019550344
317.1143695014663,34.65472434017597
318.11534701857283,36.68382697947217
319.1163245356794,40.31285532746826
320.11730205278593,44.444366568914994
321.1182795698925,49.85115053763445
322.119257086999,56.41085923753669
323.1202346041056,62.8633988269795
324.1212121212121,69.00215151515154
325.1221896383187,74.426045943304
326.1231671554252,74.59040762463343
327.12414467253177,73.62401857282502
328.1251221896383,71.08228641251222
329.12609970674487,67.30651906158359
330.1270772238514,63.76926588465299
331.12805474095796,60.82500684261975
332.1290322580645,58.42225806451613
333.13000977517106,59.764497556207225
334.1309872922776,61.4650606060606
335.13196480938416,62.44658651026393
336.1329423264907,62.85500097751711
337.13391984359725,62.42323264907137
338.1348973607038,60.316636363636384
339.13587487781035,57.7632160312806
340.1368523949169,52.35863734115353
341.13782991202345,46.73673020527866
342.13880742913,40.85068523949177
343.13978494623655,34.87626881720438
344.1407624633431,29.373363636363706
345.14173998044964,24.62728641251229
346.1427174975562,20.197075268817244
347.14369501466274,17.609260997067494
348.1446725317693,15.194351906158383
349.14565004887584,13.889469208211159
350.1466275659824,13.033780058651043
351.14760508308893,12.17894525904205
352.1485826001955,11.318910068426216
353.14956011730203,10.369516129032286
354.1505376344086,9.080655913978525
355.1515151515151,8.093545454545437
356.1524926686217,8.905850439882666
357.1534701857282,10.179356793743862
358.1544477028348,11.240516129032235
359.1554252199413,12.118005865102612
360.15640273704787,13.205036168132896
361.1573802541544,14.875825024437878
362.15835777126097,16.78578592375357
363.1593352883675,20.00611339198425
364.16031280547406,23.610269794721265
365.1612903225806,28.176806451612734
366.16226783968716,33.3546226783967
367.1632453567937,38.47826588465281
368.16422287390026,43.569401759530614
369.1652003910068,47.89864418377319
370.16617790811335,48.34168426197457
371.1671554252199,47.96632551319662
372.16813294232645,43.85265200391029
373.169110459433,38.06263636363659
374.17008797653955,32.428313782991424
375.1710654936461,27.043722385141958
376.1720430107527,22.17393548387092
377.17302052785925,19.002369501466234
378.1739980449658,15.981184750733108
379.17497556207235,13.584679374389026
380.1759530791789,11.395686217008777
381.17693059628544,9.426594330400764
382.177908113392,7.699628543499498
383.17888563049854,6.403225806451609
384.1798631476051,5.985536656891492
385.18084066471164,5.500061583577708
386.1818181818182,4.6855454545454505
387.18279569892474,3.989333333333333
388.1837732160313,4.050740957966766
389.18475073313783,4.4167859237536655
390.1857282502444,4.09501075268817
391.18670576735093,2.8358739002932545
392.1876832844575,2.0483548387096775
393.188660801564,2.962247311827956
394.1896383186706,3.750599217986314
395.1906158357771,3.961624633431085
396.1915933528837,4.080983382209187
397.1925708699902,4.6245874877810325
398.19354838709677,5.590870967741929
399.1945259042033,6.969877810361667
400.19550342130987,9.222687194525887
401.1964809384164,11.708287390029298
402.19745845552296,15.179519061583546
403.1984359726295,18.978656891495554
404.19941348973606,23.810058651026335
405.2003910068426,28.803576735092822
406.20136852394916,31.637525904203322
407.2023460410557,31.672351906158358
408.20332355816225,30.653638318670637
409.20430107526886,26.38213978494606
410.2052785923754,22.437586510263824
411.20625610948196,19.948674486803437
412.2072336265885,17.95709677419349
413.20821114369505,16.6333929618768
414.2091886608016,15.847930596285412
415.21016617790815,15.370718475073316
416.2111436950147,15.421979472140764
417.21212121212125,15.383878787878775
418.2130987292278,15.007530791788843
419.21407624633434,14.685659824046917
420.2150537634409,14.633612903225808
421.21603128054744,14.607086021505367
422.217008797654,14.177750733137804
423.21798631476054,13.365548387096753
424.2189638318671,12.687479960899305
425.21994134897363,12.30132258064515
426.2209188660802,12.00188367546432
427.22189638318673,12.017426197458457
428.2228739002933,12.07325806451613
429.2238514173998,12.12875953079179
430.2248289345064,12.150966764418374
431.2258064516129,11.988064516129024
432.2267839687195,11.602914956011722
433.227761485826,11.218539589442807
434.22873900293257,10.834164222873893
435.2297165200391,10.450018572825018
436.23069403714567,10.066644183773208
437.2316715542522,9.6832697947214
438.23264907135876,9.300128054740952
439.2336265884653,8.917521016617785
440.23460410557186,8.53438123167155
441.2355816226784,8.155777126099702
442.23655913978496,7.890430107526883
443.2375366568915,7.951489736070382
444.23851417399806,7.849167155425214
445.2394916911046,7.17689833822091
446.24046920821115,6.5182961876832834
447.2414467253177,6.537413489736075
448.24242424242425,7.017515151515154
449.2434017595308,7.332064516129033
450.24437927663735,7.3978846529814275
451.2453567937439,7.246052785923751
452.24633431085044,6.426252199413487
453.247311827957,5.853021505376344
454.24828934506354,6.115117302052787
455.2492668621701,6.522193548387097
456.25024437927664,6.486909090909091
457.2512218963832,6.141426197458456
458.25219941348973,5.961410557184751
459.2531769305963,6.034481915933529
460.25415444770283,5.995979472140764
461.2551319648094,5.628601173020529
462.2561094819159,5.342499511241447
463.2570869990225,5.331281524926686
464.258064516129,5.406612903225805
465.2590420332356,5.482687194525903
466.2600195503421,5.530679374389051
467.26099706744867,5.410953079178889
468.2619745845552,5.042855327468235
469.26295210166177,4.792510263929618
470.2639296187683,4.8711143695014645
471.26490713587486,4.951722385141738
472.2658846529814,5.033802541544476
473.26686217008796,5.116149560117301
474.2678396871945,5.199498533724339
475.26881720430106,5.28384946236559
476.2697947214076,5.369202346041054
477.27077223851416,5.458535679374387
478.2717497556207,5.6756578690126975
479.27272727272725,6.212181818181807
480.2737047898338,6.653456500488755
481.27468230694035,6.815545454545452
482.2756598240469,6.9086363636363615
483.27663734115345,7.002003910068424
484.27761485826,7.134406647116319
485.27859237536654,7.453275659824032
486.2795698924731,7.988698924731168
487.28054740957964,8.386213098729225
488.2815249266862,8.483589442815246
489.2825024437928,8.581685239491694
490.28347996089934,8.679781036168135
491.2844574780059,8.55059530791787
492.28543499511244,7.693633431085013
493.286412512219,6.586899315738008
494.28739002932554,6.074451612903228
495.2883675464321,6.139809384164222
496.28934506353863,5.896102639296171
497.2903225806452,5.0973225806451445
498.29130009775173,4.415936461388067
499.2922776148583,4.033702834799603
500.2932551319648,3.5953841642228626
501.2942326490714,2.900908113391971
502.2952101661779,2.1589882697947123
503.2961876832845,1.6303343108504347
504.297165200391,1.2511671554252137
505.29814271749757,0.6984858260019446
506.2991202346041,0.2943372434017659
507.30009775171067,0.637791788856304
508.3010752688172,0.5497956989247301
509.30205278592376,0.5560029325513219
510.3030303030303,0.8336666666666697
511.30400782013686,1.1133528836754651
512.3049853372434,1.1630263929618816
513.3059628543499,1.1110742913000955
514.3069403714564,1.2522707722384958
515.307917888563,1.5839853372433872
516.3088954056695,1.6072697947214367
517.3098729227761,1.0634291300098049
518.3108504398826,0.640129032258073
519.3118279569892,0.5037526881720484
520.3128054740957,0.37787976539590523
521.3137829912023,0.5624105571846927
522.3147605083088,1.3821994134897113
523.3157380254154,1.560123167155446
524.3167155425219,1.3337184750733115
525.3176930596285,1.823149560117212
526.318670576735,3.2881270772237596
527.3196480938416,4.759202346040962
528.3206256109481,6.231960899315643
529.3216031280547,7.935989247311685
530.3225806451612,10.196806451612744
531.3235581622678,13.020576735092618
532.3245356793743,17.025143695014346
533.3255131964809,21.935721407624257
534.3264907135874,27.871295210165698
535.327468230694,35.06762170087922
536.3284457478005,44.33617302052698
537.3294232649071,56.72527174975473
538.3304007820136,69.25512121212029
539.3313782991202,82.07991495601078
540.3323558162267,93.06957673509233
541.3333333333333,99.62833333333295
542.3343108504398,102.10955131964832
543.3352883675464,96.77695307917968
544.3362658846529,86.08452688172133
545.3372434017595,73.5982785923765
546.338220918866,59.373744868036304
547.3391984359725,46.483242424243294
548.3401759530791,35.71062463343197
549.3411534701856,26.603158357771747
550.3421309872922,20.92052101661824
551.3431085043987,16.26852785923782
552.3440860215054,13.213763440860145
553.345063538612,10.885619745845496
554.3460410557185,8.981029325513154
555.347018572825,7.448442815249232
556.3479960899316,6.3145307917888385
557.3489736070381,5.60053079178884
558.3499511241447,4.88888465298141
559.3509286412512,4.1735767350928485
560.3519061583578,3.581240469208204
561.3528836754643,3.245841642228733
562.3538611925709,3.1573587487781096
563.3548387096774,3.581967741935495
564.355816226784,4.18698044965788
565.3567937438905,4.793503421309883
566.3577712609971,5.38807624633432
567.3587487781036,5.955670576735101
568.3597262952102,6.50828836754644
569.3607038123167,7.063912023460418
570.3616813294233,7.614946236559146
571.3626588465298,8.45620527859239
572.3636363636364,9.855818181818197
573.3646138807429,11.313440860215067
574.3655913978495,12.794365591397863
575.366568914956,14.558281524926704
576.3675464320626,17.02885826001957
577.3685239491691,20.021802541544496
578.3695014662757,23.441888563049872
579.3704789833822,27.407053763440878
580.3714565004888,32.50969696969699
581.3724340175953,39.04703519061585
582.3734115347019,46.39376246334312
583.3743890518084,55.16411143695015
584.375366568915,64.95967741935483
585.3763440860215,76.5986451612903
586.377321603128,87.97490322580643
587.3782991202346,97.8705131964809
588.3792766373411,105.2578523949169
589.3802541544477,107.12575171065494
590.3812316715542,104.13425219941351
591.3822091886608,97.52168328445755
592.3831867057673,87.01066080156411
593.3841642228739,76.13283870967751
594.3851417399804,64.70814076246344
595.386119257087,54.82826197458463
596.3870967741935,47.63870967741943
597.3880742913001,41.535062561094875
598.3890518084066,36.93027663734121
599.3900293255132,33.201307917888606
600.3910068426197,30.39997849462369
601.3919843597263,28.255630498533755
602.3929618768328,26.53950146627568
603.3939393939394,25.249242424242443
604.3949169110459,24.35360606060607
605.3958944281525,23.918785923753674
606.396871945259,23.300402737047914
607.3978494623656,22.405913978494645
608.3988269794721,21.5138475073314
609.3998044965787,20.61677614858262
610.4007820136852,19.473624633431122
611.4017595307918,17.83978885630503
612.4027370478983,16.19182013685243
613.4037145650049,15.002849462365615
614.4046920821114,14.035217008797682
615.405669599218,12.845609970674525
616.4066471163245,11.49832551319652
617.4076246334312,10.344909090909013
618.4086021505377,9.404193548387017
619.4095796676443,8.445574780058571
620.4105571847508,7.483275659823969
621.4115347018574,6.675194525904156
622.4125122189639,6.11596871945255
623.4134897360705,5.591956011730163
624.414467253177,5.064792766373372
625.4154447702836,4.562262952101624
626.4164222873901,4.0762844574779695
627.4173998044967,3.594648093841606
628.4183773216032,3.1196177908113043
629.4193548387098,2.6823548387096485
630.4203323558163,2.450478005865102
631.4213098729228,2.44405083088954
632.4222873900294,2.2419472140762133
633.423264907136,1.7707956989246982
634.4242424242425,1.461090909090903
635.425219941349,1.4050469208211134
636.4261974584556,1.2563548387096553
637.4271749755621,0.8619560117301734
638.4281524926687,0.5899970674486807
639.4291300097752,0.7875376344086311
640.4301075268818,1.088870967741942
641.4310850439883,0.9370615835776821
642.4320625610949,0.49192766373409136
643.4330400782014,0.26104007820136715
644.434017595308,0.2358475073313766
645.4349951124145,0.20651515151514968
646.4359726295211,0.17461290322580453
647.4369501466276,0.1407067448680332
648.4379276637342,0.10435874877810147
649.4389051808407,0.06588269794721191
650.4398826979473,0.025964809384161982
651.4408602150538,0.019752688172045053
652.4418377321604,0.06088269794721646
653.4428152492669,0.0829002932551316
654.4437927663735,0.26361779081136044
655.44477028348,0.615087976539603
656.4457478005866,0.7418211143694989
657.4467253176931,0.6200811339198335
658.4477028347997,0.49515053763440753
659.4486803519062,0.9159765395894879
660.4496578690128,1.2658885630498347
661.4506353861193,0.8618445747800405
662.4516129032259,0.644161290322581
663.4525904203324,0.6792287390029356
664.453567937439,0.7492033235581652
665.4545454545455,0.8211818181818212
666.455522971652,0.7703509286412432
667.4565004887586,0.4839648093841488
668.4574780058651,0.19102639296187002
669.4584555229717,0.13396871945259364
670.4594330400782,0.21905180840665026
671.4604105571848,0.30413489736070687
672.4613880742913,0.3536911045943307
673.4623655913979,0.2017204301075153
674.4633431085044,0.1872668621701
675.464320625611,0.33828250244378977
676.4652981427175,0.24479667644183473
677.4662756598241,0.34553958944282526
678.4672531769306,0.6923509286412624
679.4682306940372,0.7289286412512119
680.4692082111437,0.30013489736068916
681.4701857282503,0.15130107526882464
682.4711632453568,0.34505865102639566
683.4721407624634,0.4485747800586537
684.4731182795699,0.5541505376344111
685.4740957966765,0.6612023460410582
686.475073313783,0.7697829912023485
687.4760508308896,0.8279521016617791
688.4770283479961,0.6591779081133845
689.4780058651027,0.3506304985337192
690.4789833822092,0.4976842619745958
691.4799608993158,1.0856969696969805
692.4809384164223,1.013020527859224
693.4819159335289,0.4160527859237472
694.4828934506354,0.22269208211143723
695.483870967742,0.17199999999999818
696.4848484848485,0.06387878787878662
697.485826001955,0.07821407624633595
698.4868035190616,0.20482404692082265
699.4877810361681,0.33243597262952246
700.4887585532747,0.35156793743890424
701.4897360703812,0.17321994134897112
702.4907135874878,0.12289345063538756
703.4916911045943,0.14560508308895304
704.4926686217009,0.06666862170087962
705.4936461388074,0.22135874877810557
706.494623655914,0.5586881720430124
707.4956011730205,0.8955219941348986
708.4965786901271,1.231850439882699
709.4975562072336,1.3343274682306938
710.4985337243402,1.1982023460410556
711.4995112414467,1.0600674486803519
712.5004887585533,0.9209315738025416
713.5014662756598,0.6007683284457485
714.5024437927664,0.3062776148582602
715.5034213098729,0.2640205278592375
716.5043988269795,0.16460703812316796
717.505376344086,0.10443010752688132
718.5063538611926,0.07108504398827062
719.5073313782991,0.07305571847507235
720.5083088954057,0.21770478983382097
721.5092864125122,0.3633558162267827
722.5102639296188,0.5094985337243387
723.5112414467253,0.609118279569892
724.5122189638319,0.46901661779081494
725.5131964809384,0.1591202346041091
726.514173998045,0.18362072336265467
727.5151515151515,0.5099393939393895
728.516129032258,0.3583225806451701
729.5171065493646,0.32034799608992404
730.5180840664711,0.45238318670577066
731.5190615835777,0.18782404692082674
732.5200391006842,0.16669012707721914
733.5210166177908,0.45772531769305347
734.5219941348973,0.6146539589442814
735.5229716520039,0.5343245356793778
736.5239491691104,0.3731202346041091
737.524926686217,0.2088621700879803
738.5259042033235,0.08003910068426422
739.5268817204301,0.1224623655913938
740.5278592375366,0.1170703812316756
741.5288367546432,0.40531085043986465
742.5298142717497,0.9504623655913865
