Wavenumber (cm⁻¹),Intensity
200.0,150.9364864758349
201.00097751710655,139.2004399979684
202.0019550342131,131.7339363904416
203.00293255131965,124.7897137312868
204.0039100684262,117.64404787690627
205.00488758553274,111.98957106439876
206.0058651026393,110.1094329376427
207.00684261974584,108.22512308984214
208.0078201368524,106.45437209291056
209.00879765395894,104.85194135663805
210.00977517106548,103.37441477747954
211.01075268817203,102.69350021210965
212.01173020527858,100.91222441876664
213.01270772238513,99.31487694927071
214.01368523949168,98.77300928620575
215.01466275659823,98.47332722508015
216.01564027370478,98.16827948012352
217.01661779081132,97.59401542575931
218.01759530791787,95.96017169210833
219.01857282502445,93.78868708093034
220.019550342131,95.67165663644701
221.02052785923755,96.62421631098304
222.0215053763441,96.2980421671094
223.02248289345064,95.46127153986217
224.0234604105572,94.23000077479938
225.02443792766374,93.81432345114432
226.0254154447703,93.52028470293193
227.02639296187684,93.0029041850932
228.02737047898339,92.2493862394256
229.02834799608993,92.06108099962022
230.02932551319648,91.04043851853541
231.03030303030303,90.26731197447306
232.03128054740958,90.37823169116136
233.03225806451613,90.37287583074053
234.03323558162268,94.26616826471455
235.03421309872923,95.26422250311091
236.03519061583577,93.6970277628788
237.03616813294232,94.44287726915535
238.03714565004887,95.69430134620184
239.03812316715542,95.83525465719077
240.03910068426197,97.21897581374087
241.04007820136852,99.81746833702259
242.04105571847506,100.99495480531472
243.0420332355816,102.18243843483309
244.0430107526882,104.21399311100853
245.04398826979474,107.7507043915276
246.0449657869013,112.02565992390743
247.04594330400784,113.680381167842
248.04692082111438,116.63365717240254
249.04789833822093,119.86417800862272
250.04887585532748,123.28340097050162
251.04985337243403,128.3032661550366
252.05083088954058,132.93475223686372
253.05180840664713,137.58031238486396
254.05278592375367,142.08415634743506
255.05376344086022,146.80177486980133
256.05474095796677,153.5043879059175
257.0557184750733,159.15443140640195
258.05669599217987,163.70673028999275
259.0576735092864,168.94984273649646
260.05865102639297,176.10555460458005
261.0596285434995,182.60936426934717
262.06060606060606,188.1776557284105
263.0615835777126,194.63524062620715
264.06256109481916,201.11274454235848
265.0635386119257,203.50770876859818
266.06451612903226,210.0254263857857
267.0654936461388,218.1653914274526
268.06647116324535,224.54379418175566
269.0674486803519,228.05254904482277
270.06842619745845,235.47703085247548
271.069403714565,243.22456127286458
272.07038123167155,251.61991800800567
273.0713587487781,261.7785402744751
274.07233626588464,273.17248018695886
275.0733137829912,282.33221373312193
276.07429130009774,294.191774506147
277.0752688172043,306.9101919549996
278.07624633431084,317.8642177231434
279.0772238514174,327.72260570550844
280.07820136852393,336.2112977633289
281.0791788856305,342.38204724874845
282.08015640273703,344.89652318451186
283.0811339198436,343.03470165200594
284.08211143695013,336.83898428150087
285.0830889540567,326.85150930575657
286.0840664711632,313.5280004021992
287.0850439882698,297.2314197080715
288.0860215053764,278.64859796098125
289.0869990224829,260.81158823654147
290.0879765395895,241.93105923717107
291.088954056696,223.2056742891909
292.0899315738026,205.12979733378174
293.0909090909091,185.89038542739092
294.09188660801567,170.85394514592056
295.0928641251222,159.21881292187942
296.09384164222877,147.904918108154
297.0948191593353,135.94976833714398
298.09579667644186,129.22167547642553
299.0967741935484,120.9063368709472
300.09775171065496,113.15592526168983
301.0987292277615,107.5117095106676
302.09970674486806,102.0540748475785
303.1006842619746,94.75947576995006
304.10166177908116,90.87100455985065
305.1026392961877,88.11670503022881
306.10361681329425,84.98482330117176
307.1045943304008,82.01773101257668
308.10557184750735,77.92320581880588
309.1065493646139,74.86119901203872
310.10752688172045,73.30953595454919
311.108504398827,72.165649799612
312.10948191593354,70.05243297008695
313.1104594330401,68.20715633484001
314.11143695014664,67.77186925340686
315.1124144672532,66.69196759105891
316.11339198435974,64.4531617063847
317.1143695014663,64.62852327896465
318.11534701857283,63.42414797114927
319.1163245356794,61.96497727158777
320.11730205278593,61.20444974208634
321.1182795698925,61.36964863397814
322.119257086999,60.91352309058833
323.1202346041056,60.41259771591906
324.1212121212121,59.58924903025274
325.1221896383187,59.17862454412848
326.1231671554252,59.43750394638925
327.12414467253177,57.69635581963115
328.1251221896383,58.61571292623326
329.12609970674487,58.30455493494068
330.1270772238514,56.69122388716844
331.12805474095796,57.066463614329464
332.1290322580645,57.20216837237928
333.13000977517106,56.73941825459767
334.1309872922776,56.50297199527645
335.13196480938416,56.61346215999859
336.1329423264907,56.641098788079525
337.13391984359725,56.54314125032569
338.1348973607038,55.472571306901045
339.13587487781035,55.495203746550736
340.1368523949169,56.542013862631876
341.13782991202345,56.37437379644651
342.13880742913,56.6652600784974
343.13978494623655,56.50062539378209
344.1407624633431,56.043507461947094
345.14173998044964,55.827660915116994
346.1427174975562,56.44197620166375
347.14369501466274,56.91805639241442
348.1446725317693,56.89361228958797
349.14565004887584,57.84269005559122
350.1466275659824,60.017906495184505
351.14760508308893,60.84188465456906
352.1485826001955,63.48686387556222
353.14956011730203,64.56567233745207
354.1505376344086,65.27757454106465
355.1515151515151,68.03312444758716
356.1524926686217,71.63864181633858
357.1534701857282,74.03534502821329
358.1544477028348,75.66367860083254
359.1554252199413,77.09616151209178
360.15640273704787,78.48557992753963
361.1573802541544,79.75355966936762
362.15835777126097,82.37450299985213
363.1593352883675,84.21638966628797
364.16031280547406,84.36301039812989
365.1612903225806,83.35404116265535
366.16226783968716,82.19160705780735
367.1632453567937,81.42579108345232
368.16422287390026,80.75958642252462
369.1652003910068,79.8420118689268
370.16617790811335,78.46186640890112
371.1671554252199,76.58993576560523
372.16813294232645,75.27825806056637
373.169110459433,73.93128341077846
374.17008797653955,73.45302545934479
375.1710654936461,73.27022664141677
376.1720430107527,70.54465957497774
377.17302052785925,71.92317633207236
378.1739980449658,72.19356392371633
379.17497556207235,71.84318929223788
380.1759530791789,72.5793807215378
381.17693059628544,72.75226246316265
382.177908113392,72.78707713894065
383.17888563049854,71.83552728238077
384.1798631476051,73.49428208880687
385.18084066471164,78.47869669319206
386.1818181818182,78.89771202424492
387.18279569892474,78.21008665379732
388.1837732160313,80.8493541369046
389.18475073313783,84.80372551637112
390.1857282502444,87.17805170723025
391.18670576735093,89.91902193118322
392.1876832844575,94.5883260767608
393.188660801564,97.80161886314212
394.1896383186706,100.35037879220774
395.1906158357771,103.70411546917781
396.1915933528837,107.44971847249825
397.1925708699902,111.88399160472784
398.19354838709677,117.07141321637198
399.1945259042033,120.87080619499693
400.19550342130987,122.4263530784895
401.1964809384164,122.54490997809557
402.19745845552296,123.29900621565841
403.1984359726295,122.04668893428735
404.19941348973606,118.80734045570436
405.2003910068426,113.88382114022191
406.20136852394916,107.31396600245779
407.2023460410557,99.913691957133
408.20332355816225,91.34272951344978
409.20430107526886,85.51664870338765
410.2052785923754,80.37933639079004
411.20625610948196,72.66570894938492
412.2072336265885,69.1665837054628
413.20821114369505,66.85473682581876
414.2091886608016,64.56436655915793
415.21016617790815,61.87596353217341
416.2111436950147,59.074133031087605
417.21212121212125,57.19010658683908
418.2130987292278,56.12238119860785
419.21407624633434,57.059542037992486
420.2150537634409,57.216234487156264
421.21603128054744,55.48084075046633
422.217008797654,54.96128729734464
423.21798631476054,54.412176348344005
424.2189638318671,55.15158500642657
425.21994134897363,55.778067810635406
426.2209188660802,56.468519206102435
427.22189638318673,59.66773590208248
428.2228739002933,61.03781448775247
429.2238514173998,62.88902186397166
430.2248289345064,64.63005002821643
431.2258064516129,67.20936769536516
432.2267839687195,71.6949216598022
433.227761485826,74.68721344847812
434.22873900293257,80.63779298564282
435.2297165200391,85.032072647352
436.23069403714567,90.11522313314234
437.2316715542522,97.71589302124582
438.23264907135876,102.92224229300152
439.2336265884653,112.21437358226048
440.23460410557186,122.85562802584778
441.2355816226784,134.09849082913834
442.23655913978496,146.14541646247486
443.2375366568915,158.8028300313692
444.23851417399806,173.53565528714716
445.2394916911046,191.50675736330328
446.24046920821115,210.39063648742268
447.2414467253177,228.41318390076782
448.24242424242425,246.10127994506374
449.2434017595308,266.1061662636158
450.24437927663735,282.8863571685706
451.2453567937439,298.0207871430042
452.24633431085044,310.02395029127825
453.247311827957,316.9095144812236
454.24828934506354,320.4279373751162
455.2492668621701,322.6501339514137
456.25024437927664,319.686925189446
457.2512218963832,313.2009819143925
458.25219941348973,305.3028761908584
459.2531769305963,296.4312461923774
460.25415444770283,289.10578664613513
461.2551319648094,283.08854243215035
462.2561094819159,277.97542084720993
463.2570869990225,273.60001304489595
464.258064516129,270.86652361889713
465.2590420332356,275.2198817101906
466.2600195503421,278.3055573879185
467.26099706744867,284.9114110438957
468.2619745845552,294.42585438825296
469.26295210166177,304.801049120711
470.2639296187683,317.57623752473694
471.26490713587486,328.74013173929717
472.2658846529814,335.7786555516625
473.26686217008796,339.77435276694905
474.2678396871945,337.34248488567175
475.26881720430106,324.96930118522675
476.2697947214076,315.3311390675939
477.27077223851416,300.5196796385891
478.2717497556207,279.76889147078407
479.27272727272725,259.9272982519662
480.2737047898338,246.10572014940388
481.27468230694035,231.37989314144366
482.2756598240469,218.73664993755955
483.27663734115345,209.81062809813227
484.27761485826,202.9183145062649
485.27859237536654,197.27905500568448
486.2795698924731,193.53408469063444
487.28054740957964,191.03879246527143
488.2815249266862,190.71057100168434
489.2825024437928,191.31645762273766
490.28347996089934,193.83399912862737
491.2844574780059,198.01433663517568
492.28543499511244,201.6136600281883
493.286412512219,208.80015489774212
494.28739002932554,219.77501095536942
495.2883675464321,233.67079484539673
496.28934506353863,250.6008990808664
497.2903225806452,271.7463385872295
498.29130009775173,298.6041484268586
499.2922776148583,332.5393318584224
500.2932551319648,370.74869128397876
501.2942326490714,419.82754947801936
502.2952101661779,482.0850790364968
503.2961876832845,552.663564868572
504.297165200391,629.442852855351
505.29814271749757,729.1922774319097
506.2991202346041,842.6275686518144
507.30009775171067,962.8981587101952
508.3010752688172,1091.9595977031468
509.30205278592376,1232.6617544278774
510.3030303030303,1368.5442241519147
511.30400782013686,1498.4233808032336
512.3049853372434,1594.9762468914957
513.3059628543499,1631.9129759475227
514.3069403714564,1596.9725007661418
515.307917888563,1494.0494995428803
516.3088954056695,1327.9491686688557
517.3098729227761,1148.1406082370227
518.3108504398826,975.896561612966
519.3118279569892,819.8562156173891
520.3128054740957,687.8929949834742
521.3137829912023,582.6801837461549
522.3147605083088,495.6056116517997
523.3157380254154,425.55364439675657
524.3167155425219,369.0332094250457
525.3176930596285,321.98465634282513
526.318670576735,282.88291572730475
527.3196480938416,251.62062614308033
528.3206256109481,226.45436004538476
529.3216031280547,205.8709120441437
530.3225806451612,187.62666295441474
531.3235581622678,172.01117754650792
532.3245356793743,163.57868172625007
533.3255131964809,150.04754770733703
534.3264907135874,139.03413381148806
535.327468230694,130.02646972868214
536.3284457478005,121.2434144899427
537.3294232649071,113.63540904040134
538.3304007820136,108.51073732988046
539.3313782991202,102.32901100172103
540.3323558162267,97.79953318932735
541.3333333333333,92.31668338035065
542.3343108504398,85.77750533408677
543.3352883675464,82.93564381348091
544.3362658846529,79.63863197916926
545.3372434017595,77.90859134322547
546.338220918866,75.33669423398962
547.3391984359725,71.76942126490866
548.3401759530791,68.45524188557418
549.3411534701856,65.89830830038764
550.3421309872922,64.3175201236405
551.3431085043987,62.35663882177876
552.3440860215054,60.960643742832026
553.345063538612,59.34440782902379
554.3460410557185,57.612840963112816
555.347018572825,58.938322903116315
556.3479960899316,58.23859107189062
557.3489736070381,55.18525381074746
558.3499511241447,53.78326547856873
559.3509286412512,54.2927508967366
560.3519061583578,54.68890888263835
561.3528836754643,54.95866027582162
562.3538611925709,53.80286684724271
563.3548387096774,53.32145339867007
564.355816226784,53.56559443667055
565.3567937438905,52.73260996555266
566.3577712609971,50.84980322656052
567.3587487781036,51.91616740956756
568.3597262952102,52.66335927669006
569.3607038123167,52.509683838692034
570.3616813294233,52.996527270231326
571.3626588465298,53.622177849020325
572.3636363636364,53.455603825875414
573.3646138807429,54.106691563767825
574.3655913978495,54.12833072842158
575.366568914956,54.30415975408176
576.3675464320626,54.49835695197351
577.3685239491691,54.22618317721852
578.3695014662757,53.22849873388114
579.3704789833822,51.56365511312007
580.3714565004888,52.61572340654879
581.3724340175953,51.599508103148416
582.3734115347019,51.927327540781114
583.3743890518084,52.95967739304174
584.375366568915,51.65666816198187
585.3763440860215,48.756998338038414
586.377321603128,47.148264113299106
587.3782991202346,47.711545733530194
588.3792766373411,48.39988537288496
589.3802541544477,47.352480706624675
590.3812316715542,46.51425062846379
591.3822091886608,49.26135790824924
592.3831867057673,48.168441565594726
593.3841642228739,47.27197130498838
594.3851417399804,46.34845714166372
595.386119257087,45.78159647152417
596.3870967741935,45.937996827845495
597.3880742913001,45.81896344219438
598.3890518084066,44.69775189223467
599.3900293255132,44.143795653176845
600.3910068426197,44.68574183145464
601.3919843597263,43.702454921890904
602.3929618768328,41.73478759541739
603.3939393939394,41.870469144588384
604.3949169110459,42.20581586156038
605.3958944281525,41.081734474220674
606.396871945259,40.45811540088442
607.3978494623656,40.216687412864424
608.3988269794721,39.99266897425182
609.3998044965787,39.629364038260874
610.4007820136852,37.978613104765486
611.4017595307918,37.43760769436136
612.4027370478983,37.707718991744116
613.4037145650049,37.4774707282817
614.4046920821114,36.253385126605835
615.405669599218,35.49846577558712
616.4066471163245,36.956446010842065
617.4076246334312,36.179395798501226
618.4086021505377,36.40165506194899
619.4095796676443,35.92925691864338
620.4105571847508,35.30863690432435
621.4115347018574,35.49969400624062
622.4125122189639,35.551232651573486
623.4134897360705,35.942746247082496
624.414467253177,35.45225565534089
625.4154447702836,34.46542085787713
626.4164222873901,33.890237662389794
627.4173998044967,33.67045179022899
628.4183773216032,33.64155069343296
629.4193548387098,35.01089885721748
630.4203323558163,34.71552078994368
631.4213098729228,33.270464857659746
632.4222873900294,33.33612638731702
633.423264907136,33.512880346188226
634.4242424242425,32.48771139786171
635.425219941349,33.54794763927488
636.4261974584556,32.71133722402775
637.4271749755621,32.251303424418204
638.4281524926687,32.0429691803455
639.4291300097752,31.67261722754902
640.4301075268818,31.66912702959501
641.4310850439883,32.56126896041332
642.4320625610949,33.33812649018247
643.4330400782014,31.988219936500872
644.434017595308,32.04862662590538
645.4349951124145,32.343272375030054
646.4359726295211,32.192727046399916
647.4369501466276,32.13789983574428
648.4379276637342,32.01098500217867
649.4389051808407,31.77039340663393
650.4398826979473,31.83992339511095
651.4408602150538,31.056727657359204
652.4418377321604,31.15748829686965
653.4428152492669,31.915223212046993
654.4437927663735,31.549927940689177
655.44477028348,31.718772228586932
656.4457478005866,31.228678060355406
657.4467253176931,32.05454919305873
658.4477028347997,31.651296397915363
659.4486803519062,31.879550871705774
660.4496578690128,32.98138179382802
661.4506353861193,30.753252932253254
662.4516129032259,31.001421229847075
663.4525904203324,31.02927617579937
664.453567937439,30.079408288649564
665.4545454545455,29.87133105840657
666.455522971652,29.938860558368837
667.4565004887586,28.770077312286144
668.4574780058651,27.935662608267812
669.4584555229717,28.49799041206781
670.4594330400782,28.097194106382837
671.4604105571848,27.461924854302886
672.4613880742913,27.359636715396544
673.4623655913979,27.08158181421774
674.4633431085044,26.30237903960617
675.464320625611,26.50769432940523
676.4652981427175,25.247677944813322
677.4662756598241,25.62467700611512
678.4672531769306,26.152354274164654
679.4682306940372,26.289276812006698
680.4692082111437,26.442871975734192
681.4701857282503,25.36310386934359
682.4711632453568,25.03967853496525
683.4721407624634,26.656470322270515
684.4731182795699,26.03687529172317
685.4740957966765,25.028063630712634
686.475073313783,24.909993460684266
687.4760508308896,24.755810971594432
688.4770283479961,25.246016291257185
689.4780058651027,26.52512615442826
690.4789833822092,26.40271786810838
691.4799608993158,27.10764294071696
692.4809384164223,26.9199278829425
693.4819159335289,26.132700937155285
694.4828934506354,27.415808920903867
695.483870967742,28.181969531485247
696.4848484848485,29.578239054703864
697.485826001955,29.300491547858382
698.4868035190616,28.937224826927153
699.4877810361681,29.124288158291684
700.4887585532747,29.919427850460004
701.4897360703812,32.4022644811406
702.4907135874878,38.22481709418694
703.4916911045943,35.67302905901854
704.4926686217009,34.730290374990666
705.4936461388074,37.06060032681639
706.494623655914,38.79033254507052
707.4956011730205,38.8046839314193
708.4965786901271,38.962743353226344
709.4975562072336,39.182573452802906
710.4985337243402,40.52968757797781
711.4995112414467,41.411101861720965
712.5004887585533,42.96641466794733
713.5014662756598,43.65005390377874
714.5024437927664,43.705710761867344
715.5034213098729,44.764217233040604
716.5043988269795,45.05128299373281
717.505376344086,46.48099804935265
718.5063538611926,46.85170772582196
719.5073313782991,46.89590710170132
720.5083088954057,47.32701841336121
721.5092864125122,47.952547612392664
722.5102639296188,48.25163440017738
723.5112414467253,48.625906996756065
724.5122189638319,51.34285058544167
725.5131964809384,50.49148528300251
726.514173998045,50.363573291314886
727.5151515151515,50.7288213348796
728.516129032258,52.00011825675303
729.5171065493646,54.815846183802364
730.5180840664711,56.5299913961929
731.5190615835777,56.09978228994482
732.5200391006842,57.985598790563294
733.5210166177908,59.944793576700775
734.5219941348973,62.56194270385958
735.5229716520039,64.99430077142743
736.5239491691104,66.11096053620082
737.524926686217,67.66671057085897
738.5259042033235,69.0494385684899
739.5268817204301,72.03945192290446
740.5278592375366,71.82497918589164
741.5288367546432,74.16864482070629
742.5298142717497,77.38712132961388
743.5307917888563,78.50487472847419
744.5317693059628,81.2647583960609
745.5327468230694,80.39143245734945
746.5337243401759,82.04668906439925
