Raman shift,Intensity
415.55379,205.42314
417.76603,205.42314
419.97826,206.20406
422.1905,206.20406
424.40273,206.20406
426.61497,206.20406
428.8272,206.20406
431.03944,205.42314
433.25168,205.42314
435.46391,205.42314
437.67615,205.42314
439.88838,205.42314
442.10062,204.64223
444.31285,204.64223
446.52509,204.64223
448.73732,204.64223
450.94956,204.64223
453.1618,204.64223
455.37403,203.86132
457.58627,203.86132
459.7985,203.86132
462.01074,203.86132
464.22297,204.64223
466.43521,204.64223
468.64745,204.64223
470.85968,205.42314
473.07192,205.42314
475.28415,206.20406
477.49639,206.20406
479.70862,206.20406
481.92086,206.98497
484.1331,206.98497
486.34533,207.76588
488.55757,208.5468
490.7698,208.5468
492.98204,209.32771
495.19427,209.32771
497.40651,209.32771
499.61874,210.10862
501.83098,210.10862
504.04322,210.10862
506.25545,210.10862
508.46769,210.10862
510.67992,210.10862
512.89216,209.32771
515.10439,209.32771
517.31663,208.5468
519.52887,208.5468
521.7411,207.76588
523.95334,207.76588
526.16557,206.98497
528.37781,206.20406
530.59004,206.20406
532.80228,206.20406
535.01451,205.42314
537.22675,205.42314
539.43899,204.64223
541.65122,204.64223
543.86346,204.64223
546.07569,203.86132
548.28793,203.86132
550.50016,203.86132
552.7124,203.86132
554.92464,203.86132
557.13687,203.86132
559.34911,203.86132
561.56134,203.86132
563.77358,203.86132
565.98581,203.86132
568.19805,203.86132
570.41029,203.86132
572.62252,203.86132
574.83476,203.86132
577.04699,203.86132
579.25923,204.64223
581.47146,204.64223
583.6837,205.42314
585.89593,205.42314
588.10817,205.42314
590.32041,206.20406
592.53264,206.20406
594.74488,206.98497
596.95711,206.98497
599.16935,207.76588
601.38158,208.5468
603.59382,208.5468
605.80606,209.32771
608.01829,209.32771
610.23053,210.10862
612.44276,210.88953
614.655,210.88953
616.86723,210.88953
619.07947,210.88953
621.2917,210.88953
632.30943,205.91361
661.90385,198.19316
697.93185,200.91803
697.93185,200.91803
740.39341,200.91803
762.87479,203.08041
765.08702,203.08041
767.29926,203.08041
769.51149,203.08041
771.72373,203.08041
773.93596,203.08041
776.1482,203.08041
778.36044,203.08041
780.57267,203.86132
782.78491,204.64223
784.99714,204.64223
787.20938,204.64223
789.42161,204.64223
791.63385,204.64223
793.84609,204.64223
796.05832,204.64223
798.27056,204.64223
800.48279,204.64223
802.69503,204.64223
804.90726,204.64223
807.1195,204.64223
809.33173,204.64223
811.54397,204.64223
813.75621,204.64223
815.96844,204.64223
818.18068,204.64223
820.39291,204.64223
822.60515,204.64223
824.81738,204.64223
827.02962,204.64223
829.24186,204.64223
831.45409,204.64223
833.66633,204.64223
835.87856,204.64223
838.0908,204.64223
840.30303,204.64223
842.51527,204.64223
844.72751,204.64223
846.93974,204.64223
849.15198,204.64223
851.36421,204.64223
853.57645,204.64223
855.78868,204.64223
858.00092,204.64223
860.21315,204.64223
862.42539,204.64223
864.63763,204.64223
866.84986,204.64223
869.0621,203.86132
871.27433,203.08041
873.48657,202.29949
875.6988,202.29949
877.91104,203.08041
880.12328,203.86132
882.33551,203.86132
884.54775,203.86132
886.75998,203.86132
888.97222,203.86132
891.18445,203.86132
893.39669,203.86132
895.60892,203.08041
897.82116,202.29949
900.0334,201.51858
902.24563,201.51858
904.45787,201.51858
906.6701,201.51858
908.88234,201.51858
911.09457,201.51858
913.30681,201.51858
915.51905,201.51858
917.73128,201.51858
919.94352,201.51858
922.15575,201.51858
924.36799,202.29949
926.58022,202.29949
928.79246,202.29949
931.0047,202.29949
933.21693,202.29949
935.42917,202.29949
937.6414,202.29949
939.85364,202.29949
942.06587,202.29949
944.27811,202.29949
946.49034,202.29949
948.70258,202.29949
950.91482,202.29949
953.12705,202.29949
955.33929,202.29949
957.55152,203.08041
959.76376,203.08041
961.97599,203.08041
964.18823,203.08041
966.40047,204.64223
966.40047,205.42314
966.40047,206.20406
966.40047,206.98497
966.40047,207.76588
966.40047,203.86132
968.6127,208.5468
968.6127,207.76588
970.82494,208.5468
973.03717,208.5468
975.24941,208.5468
977.46164,217.13684
977.46164,209.32771
977.46164,208.5468
977.46164,219.47958
977.46164,216.35592
977.46164,215.57501
977.46164,214.7941
977.46164,218.69866
977.46164,217.91775
977.46164,220.26049
979.67388,210.88953
979.67388,224.16505
979.67388,222.60323
979.67388,221.82231
979.67388,210.10862
979.67388,214.01319
979.67388,209.32771
979.67388,225.72688
979.67388,224.94596
979.67388,221.0414
981.88611,211.67045
981.88611,223.38414
981.88611,231.19327
981.88611,226.50779
981.88611,227.2887
981.88611,228.06962
981.88611,228.85053
981.88611,229.63144
981.88611,230.41235
981.88611,213.23227
981.88611,212.45136
984.09835,232.75509
984.09835,233.53601
984.09835,234.31692
984.09835,212.45136
984.09835,231.97418
986.31059,242.12605
986.31059,241.34513
986.31059,238.22148
986.31059,239.00239
986.31059,239.78331
986.31059,240.56422
986.31059,235.09783
986.31059,242.90696
988.52282,246.03061
988.52282,246.81152
988.52282,244.46878
988.52282,245.2497
988.52282,235.87874
988.52282,236.65966
988.52282,247.59244
988.52282,248.37335
988.52282,249.15426
988.52282,249.93517
988.52282,250.71609
988.52282,237.44057
988.52282,243.68787
990.73506,252.27791
990.73506,253.83974
990.73506,254.62065
990.73506,255.40156
990.73506,256.18248
990.73506,256.96339
990.73506,257.7443
990.73506,258.52521
990.73506,259.30613
990.73506,253.05883
990.73506,251.497
992.94729,260.86795
992.94729,261.64887
992.94729,263.21069
992.94729,263.9916
992.94729,264.77252
992.94729,265.55343
992.94729,266.33434
992.94729,260.08704
992.94729,262.42978
995.15953,268.67708
995.15953,269.45799
995.15953,267.89617
995.15953,271.01982
995.15953,271.80073
995.15953,272.58164
995.15953,273.36256
995.15953,274.14347
995.15953,267.11526
995.15953,270.23891
997.37176,274.92438
997.37176,275.7053
997.37176,276.48621
997.37176,277.26712
997.37176,278.04803
997.37176,278.82895
997.37176,279.60986
997.37176,280.39077
997.37176,281.17169
999.584,282.73351
999.584,283.51442
999.584,285.85716
999.584,284.29534
999.584,286.63808
999.584,287.41899
999.584,288.1999
999.584,281.9526
999.584,285.07625
1001.79624,290.54264
1001.79624,291.32355
1001.79624,288.98081
1001.79624,289.76173
1004.00847,296.78994
1004.00847,292.10446
1004.00847,295.22812
1004.00847,296.00903
1004.00847,299.13268
1004.00847,298.35177
1004.00847,292.88538
1006.22071,293.66629
1006.22071,297.57085
1006.22071,300.69451
1006.22071,301.47542
1006.22071,302.25633
1006.22071,299.91359
1006.22071,303.03724
1006.22071,294.4472
1008.43294,303.81816
1008.43294,304.59907
1010.64518,304.59907
1012.85741,304.59907
1015.06965,306.94181
1015.06965,307.72272
1015.06965,305.37998
1015.06965,308.50363
1015.06965,306.16089
1017.28189,307.72272
1017.28189,309.28455
1019.49412,310.06546
1019.49412,310.84637
1021.70636,309.28455
1021.70636,310.84637
1021.70636,310.06546
1023.91859,306.16089
1023.91859,304.59907
1023.91859,308.50363
1023.91859,307.72272
1026.13083,303.81816
1026.13083,306.94181
1026.13083,305.37998
1028.34306,302.25633
1028.34306,303.03724
1028.34306,301.47542
1030.5553,299.13268
1030.5553,295.22812
1030.5553,300.69451
1030.5553,299.91359
1032.76753,296.78994
1032.76753,298.35177
1032.76753,294.4472
1032.76753,297.57085
1032.76753,296.00903
1032.76753,290.54264
1034.97977,291.32355
1034.97977,292.10446
1034.97977,289.76173
1034.97977,293.66629
1034.97977,292.88538
1037.19201,287.41899
1037.19201,286.63808
1037.19201,288.1999
1037.19201,285.07625
1037.19201,285.85716
1037.19201,283.51442
1037.19201,288.98081
1037.19201,278.04803
1037.19201,284.29534
1039.40424,281.17169
1039.40424,279.60986
1039.40424,281.9526
1039.40424,278.82895
1039.40424,277.26712
1039.40424,276.48621
1039.40424,275.7053
1039.40424,280.39077
1039.40424,270.23891
1039.40424,282.73351
1041.61648,274.14347
1041.61648,272.58164
1041.61648,273.36256
1041.61648,271.01982
1041.61648,269.45799
1041.61648,268.67708
1041.61648,267.89617
1041.61648,267.11526
1041.61648,274.92438
1041.61648,271.80073
1043.82871,263.9916
1043.82871,263.21069
1043.82871,262.42978
1043.82871,264.77252
1043.82871,266.33434
1043.82871,265.55343
1043.82871,261.64887
1046.04095,257.7443
1046.04095,260.08704
1046.04095,259.30613
1046.04095,258.52521
1046.04095,260.86795
1046.04095,256.96339
1046.04095,256.18248
1046.04095,255.40156
1048.25318,250.71609
1048.25318,253.83974
1048.25318,253.05883
1048.25318,252.27791
1048.25318,251.497
1048.25318,254.62065
1048.25318,249.93517
1048.25318,249.15426
1050.46542,248.37335
1050.46542,247.59244
1050.46542,246.81152
1050.46542,246.03061
1050.46542,245.2497
1050.46542,244.46878
1050.46542,243.68787
1050.46542,242.90696
1050.46542,242.12605
1050.46542,241.34513
1052.67766,228.85053
1052.67766,239.78331
1052.67766,240.56422
1052.67766,238.22148
1052.67766,237.44057
1052.67766,236.65966
1052.67766,232.75509
1052.67766,239.00239
1054.88989,235.87874
1054.88989,231.97418
1054.88989,231.19327
1054.88989,230.41235
1054.88989,229.63144
1054.88989,233.53601
1054.88989,228.06962
1054.88989,235.09783
1054.88989,234.31692
1057.10213,213.23227
1057.10213,214.01319
1057.10213,227.2887
1059.31436,226.50779
1059.31436,224.94596
1059.31436,221.82231
1059.31436,221.0414
1059.31436,220.26049
1059.31436,214.7941
1059.31436,211.67045
1059.31436,225.72688
1059.31436,212.45136
1059.31436,213.23227
1059.31436,223.38414
1059.31436,222.60323
1059.31436,224.16505
1061.5266,219.47958
1061.5266,218.69866
1061.5266,217.91775
1061.5266,215.57501
1061.5266,211.67045
1063.73883,211.67045
1063.73883,217.13684
1063.73883,216.35592
1065.95107,211.67045
1068.16331,211.67045
1070.37554,211.67045
1070.37554,210.10862
1070.37554,210.88953
1072.58778,209.32771
1072.58778,210.10862
1072.58778,206.98497
1072.58778,206.20406
1072.58778,207.76588
1072.58778,208.5468
1074.80001,206.20406
1077.01225,206.20406
1079.22448,205.42314
1081.43672,205.42314
1083.64895,205.42314
1085.86119,205.42314
1088.07343,206.20406
1088.07343,206.98497
1090.28566,206.98497
1090.28566,207.76588
1090.28566,210.10862
1090.28566,210.88953
1090.28566,211.67045
1090.28566,212.45136
1090.28566,209.32771
1090.28566,208.5468
1092.4979,212.45136
1092.4979,213.23227
1092.4979,214.01319
1094.71013,214.7941
1096.92237,214.7941
1099.1346,214.7941
1101.34684,214.7941
1103.55908,214.7941
1103.55908,215.57501
1105.77131,215.57501
1107.98355,216.35592
1107.98355,217.91775
1107.98355,220.26049
1107.98355,217.13684
1110.19578,221.0414
1110.19578,219.47958
1110.19578,218.69866
1112.40802,222.60323
1112.40802,221.82231
1114.62025,224.16505
1114.62025,233.53601
1114.62025,232.75509
1114.62025,223.38414
1116.83249,231.97418
1116.83249,224.94596
1116.83249,225.72688
1116.83249,226.50779
1116.83249,228.85053
1116.83249,233.53601
1119.04472,231.19327
1119.04472,229.63144
1119.04472,227.2887
1119.04472,233.53601
1119.04472,228.06962
1121.25696,230.41235
1121.25696,233.53601
1123.4692,233.53601
1125.68143,233.53601
1125.68143,234.31692
1125.68143,235.09783
1127.89367,235.87874
1127.89367,236.65966
1127.89367,237.44057
1127.89367,238.22148
1127.89367,239.00239
1127.89367,239.78331
1127.89367,235.09783
1130.1059,239.78331
1132.31814,239.78331
1134.53037,239.78331
1136.74261,239.78331
1138.95485,239.00239
1138.95485,239.78331
1141.16708,239.00239
1143.37932,239.00239
1143.37932,237.44057
1143.37932,236.65966
1143.37932,235.87874
1143.37932,235.09783
1143.37932,234.31692
1143.37932,233.53601
1143.37932,232.75509
1143.37932,231.97418
1143.37932,238.22148
1145.59155,231.19327
1147.80379,230.41235
1147.80379,229.63144
1147.80379,228.85053
1147.80379,231.19327
1150.01602,228.06962
1152.22826,228.06962
1154.4405,228.06962
1154.4405,226.50779
1154.4405,225.72688
1154.4405,224.94596
1154.4405,227.2887
1156.65273,224.16505
1156.65273,223.38414
1156.65273,224.94596
1158.86497,222.60323
1158.86497,223.38414
1161.0772,221.82231
1161.0772,221.0414
1161.0772,222.60323
1163.28944,220.26049
1163.28944,221.0414
1165.50167,218.69866
1165.50167,217.91775
1165.50167,219.47958
1167.71391,217.13684
1167.71391,216.35592
1167.71391,215.57501
1167.71391,217.91775
1169.92614,214.7941
1169.92614,215.57501
1169.92614,214.01319
1172.13838,213.23227
1172.13838,212.45136
1172.13838,214.01319
1174.35062,212.45136
1174.35062,210.88953
1174.35062,211.67045
1176.56285,210.88953
1178.77509,210.88953
1180.98732,210.88953
1183.19956,210.88953
1185.41179,210.88953
1187.62403,210.88953
1189.83627,210.10862
1189.83627,210.88953
1192.0485,209.32771
1192.0485,210.10862
1194.26074,208.5468
1194.26074,209.32771
1196.47297,207.76588
1196.47297,206.98497
1196.47297,206.20406
1196.47297,205.42314
1196.47297,204.64223
1196.47297,208.5468
1198.68521,203.86132
1200.89744,203.86132
1203.10968,203.86132
1205.32192,203.86132
1207.53415,203.08041
1209.74639,203.08041
1211.95862,203.08041
1214.17086,203.86132
1216.38309,203.08041
1218.59533,203.86132
1220.80756,204.64223
1223.0198,205.42314
1225.23204,205.42314
1227.44427,205.42314
1229.65651,205.42314
1231.86874,204.64223
1234.08098,203.86132
1236.29321,204.64223
1238.50545,204.64223
1240.71769,204.64223
1242.92992,203.86132
1245.14216,203.08041
1247.35439,202.29949
1249.56663,202.29949
1251.77886,202.29949
1253.9911,202.29949
1256.20333,202.29949
1258.41557,202.29949
1260.62781,202.29949
1262.84004,202.29949
1265.05228,202.29949
1267.26451,202.29949
1269.47675,203.08041
1271.68898,203.86132
1273.90122,204.64223
1276.11346,204.64223
1278.32569,204.64223
1280.53793,204.64223
1282.75016,204.64223
1284.9624,204.64223
1287.17463,204.64223
1289.38687,204.64223
1291.59911,204.64223
1293.81134,203.86132
1296.02358,203.08041
1298.23581,203.08041
1300.44805,203.08041
1302.66028,203.08041
1304.87252,203.08041
1307.08475,203.08041
1309.29699,203.08041
1311.50923,203.08041
1313.72146,203.08041
1315.9337,203.86132
1318.14593,204.64223
1320.35817,205.42314
1322.5704,205.42314
1324.78264,205.42314
1326.99488,205.42314
1329.20711,205.42314
1331.41935,205.42314
1333.63158,205.42314
1335.84382,205.42314
1338.05605,205.42314
1340.26829,205.42314
1342.48052,205.42314
1344.69276,205.42314
1346.905,205.42314
1349.11723,205.42314
1351.32947,204.64223
1353.5417,203.86132
1355.75394,203.08041
1357.96617,203.08041
1360.17841,203.08041
1362.39065,203.08041
1364.60288,203.08041
1366.81512,203.08041
1369.02735,203.08041
1371.23959,203.08041
1373.45182,203.86132
1375.66406,204.64223
1377.8763,204.64223
1380.08853,204.64223
1382.30077,204.64223
1384.513,204.64223
1386.72524,204.64223
1388.93747,203.86132
1391.14971,203.08041
1393.36194,202.29949
1395.57418,202.29949
1397.78642,202.29949
1399.99865,202.29949
1402.21089,202.29949
1404.42312,202.29949
1406.63536,202.29949
1408.84759,202.29949
1411.05983,202.29949
1413.27207,202.29949
1415.4843,203.08041
1417.69654,203.86132
1419.90877,204.64223
1422.12101,204.64223
1424.33324,204.64223
1426.54548,204.64223
1428.75772,204.64223
1430.96995,204.64223
1433.18219,204.64223
1435.39442,204.64223
1437.60666,204.64223
1439.81889,204.64223
1442.03113,203.86132
1444.24336,203.86132
1446.4556,203.86132
1448.66784,203.86132
1450.88007,203.86132
1453.09231,203.86132
1455.30454,203.86132
1457.51678,203.86132
1459.72901,203.86132
1461.94125,203.86132
1464.15349,203.08041
1466.36572,202.29949
1468.57796,201.51858
1470.79019,201.51858
1473.00243,201.51858
1475.21466,201.51858
1477.4269,201.51858
1479.63913,201.51858
1481.85137,202.29949
1484.06361,203.08041
1486.27584,203.86132
1488.48808,204.64223
1490.70031,204.64223
1492.91255,204.64223
1495.12478,204.64223
1497.33702,204.64223
1499.54926,204.64223
1501.76149,204.64223
1503.97373,204.64223
1506.18596,204.64223
1508.3982,204.64223
1510.61043,204.64223
1512.82267,204.64223
1515.03491,204.64223
1517.24714,204.64223
1519.45938,204.64223
1521.67161,204.64223
1523.88385,204.64223
1526.09608,204.64223
1528.30832,204.64223
1530.52055,203.86132
1532.73279,203.08041
1534.94503,202.29949
1537.15726,202.29949
1539.3695,202.29949
1541.58173,202.29949
1543.79397,202.29949
1546.0062,202.29949
1548.21844,202.29949
1550.43068,202.29949
1552.64291,202.29949
1554.85515,202.29949
1557.06738,202.29949
1559.27962,203.08041
1561.49185,203.08041
1563.70409,203.08041
1565.91633,203.08041
1568.12856,203.86132
1570.3408,204.64223
1572.55303,205.42314
1574.76527,205.42314
1576.9775,206.20406
1579.18974,206.20406
1581.40197,206.20406
1583.61421,206.20406
1585.82645,206.98497
1588.03868,206.98497
1590.25092,206.98497
1592.46315,206.98497
1594.67539,206.20406
1596.88762,205.42314
1599.09986,204.64223
1601.3121,204.64223
1603.52433,204.64223
1605.73657,204.64223
1607.9488,204.64223
1610.16104,204.64223
1612.37327,204.64223
1614.58551,203.86132
1616.79774,203.86132
1619.00998,203.86132
1621.22222,203.86132
1623.43445,203.86132
1625.64669,203.86132
1627.85892,203.86132
1630.07116,203.86132
1632.28339,203.86132
1634.49563,203.08041
1636.70787,203.08041
1638.9201,203.08041
1641.13234,203.86132
1643.34457,203.08041
1645.55681,203.08041
1647.76904,203.08041
1649.98128,202.29949
1652.19352,202.29949
1654.40575,202.29949
1656.61799,203.08041
1658.83022,202.29949
1661.04246,202.29949
1663.25469,201.51858
1665.46693,201.51858
1667.67916,201.51858
1669.8914,201.51858
1672.10364,201.51858
1674.31587,201.51858
1676.52811,201.51858
1678.74034,201.51858
1680.95258,201.51858
1683.16481,201.51858
1685.37705,201.51858
1687.58929,201.51858
1689.80152,200.73767
1692.01376,200.73767
1694.22599,200.73767
1696.43823,200.73767
1698.65046,200.73767
1700.8627,200.73767
1703.07493,201.51858
1705.28717,201.51858
1707.49941,200.73767
1709.71164,200.73767
1711.92388,200.73767
1714.13611,200.73767
1716.34835,200.73767
1718.56058,200.73767
1720.77282,200.73767
1722.98506,200.73767
1725.19729,200.73767
1727.40953,200.73767
1729.62176,200.73767
1731.834,200.73767
1734.04623,200.73767
1736.25847,200.73767
1738.47071,200.73767
1740.68294,200.73767
1742.89518,200.73767
1745.10741,200.73767
1747.31965,200.73767
1749.53188,200.73767
1751.74412,200.73767
1753.95635,200.73767
1756.16859,200.73767
1758.38083,200.73767
1760.59306,200.73767
1762.8053,200.73767
1765.01753,200.73767
1767.22977,200.73767
1769.442,200.73767
1771.65424,200.73767
1773.86648,200.73767
1776.07871,200.73767
1778.29095,200.73767
1780.50318,200.73767
1782.71542,200.73767
1784.92765,200.73767
1787.13989,200.73767
1789.35213,200.73767
1791.56436,200.73767
1793.7766,200.73767
1795.98883,200.73767
1798.20107,200.73767
1800.4133,200.73767
1802.62554,200.73767
1804.83777,200.73767
1807.05001,200.73767
1809.26225,200.73767
1811.47448,200.73767
1813.68672,200.73767
1815.89895,200.73767
1818.11119,200.73767
1820.32342,200.73767
1822.53566,201.51858
1824.7479,202.29949
1826.96013,203.08041
1829.17237,203.08041
1831.3846,203.08041
1833.59684,203.08041
1835.80907,203.08041
1838.02131,203.08041
1840.23354,203.08041
1842.44578,203.08041
1844.65802,203.08041
1846.87025,202.29949
1849.08249,201.51858
1851.29472,201.51858
1853.50696,201.51858
1855.71919,201.51858
1857.93143,201.51858
1860.14367,201.51858
1862.3559,201.51858
1864.56814,201.51858
1866.78037,201.51858
1868.99261,201.51858
1871.20484,201.51858
1873.41708,201.51858
1875.62932,201.51858
1877.84155,201.51858
1880.05379,201.51858
1882.26602,201.51858
1884.47826,201.51858
1886.69049,201.51858
1888.90273,201.51858
1891.11496,201.51858
1893.3272,201.51858
1895.53944,201.51858
1897.75167,201.51858
1899.96391,201.51858
1902.17614,201.51858
1904.38838,201.51858
1906.60061,201.51858
1908.81285,201.51858
1911.02509,201.51858
1913.23732,201.51858
1915.44956,201.51858
1917.66179,201.51858
1919.87403,201.51858
1922.08626,201.51858
1924.2985,201.51858
1926.51073,201.51858
1928.72297,201.51858
1930.93521,201.51858
1933.14744,201.51858
1935.35968,201.51858
1937.57191,201.51858
1939.78415,201.51858
1941.99638,201.51858
1944.20862,201.51858
1946.42086,201.51858
1948.63309,201.51858
1950.84533,201.51858
1953.05756,201.51858
1955.2698,201.51858
1957.48203,201.51858
1959.69427,201.51858
1961.90651,201.51858
1964.11874,201.51858
1966.33098,201.51858
1968.54321,201.51858
1970.75545,201.51858
1972.96768,201.51858
1975.17992,201.51858
1977.39215,201.51858
1979.60439,201.51858
1981.81663,201.51858
1984.02886,201.51858
1986.2411,201.51858
1988.45333,201.51858
1990.66557,201.51858
1992.8778,201.51858
1995.09004,201.51858
1997.30228,201.51858
1999.51451,201.51858
2001.72675,201.51858
2003.93898,201.51858
2006.15122,201.51858
2008.36345,201.51858
2010.57569,201.51858
2012.78793,201.51858
2015.00016,201.51858
2017.2124,201.51858
2019.42463,201.51858
2021.63687,201.51858
2023.8491,201.51858
2026.06134,201.51858
2028.27357,201.51858
2030.48581,201.51858
2032.69805,201.51858
2034.91028,201.51858
2037.12252,201.51858
2039.33475,201.51858
2041.54699,201.51858
2043.75922,201.51858
2045.97146,201.51858
2048.1837,201.51858
2050.39593,201.51858
2052.60817,201.51858
2054.8204,201.51858
2057.03264,201.51858
2059.24487,201.51858
2061.45711,201.51858
2063.66934,201.51858
2065.88158,201.51858
2068.09382,201.51858
2070.30605,201.51858
2072.51829,201.51858
2074.73052,201.51858
2076.94276,201.51858
2079.15499,201.51858
2081.36723,201.51858
2083.57947,201.51858
2085.7917,201.51858
2088.00394,201.51858
2090.21617,201.51858
2092.42841,201.51858
2094.64064,201.51858
2096.85288,201.51858
2099.06512,201.51858
2101.27735,201.51858
2103.48959,201.51858
2105.70182,201.51858
2107.91406,201.51858
2110.12629,201.51858
2112.33853,201.51858
2114.55076,201.51858
2116.763,201.51858
2118.97524,201.51858
2121.18747,201.51858
2123.39971,201.51858
2125.61194,201.51858
2127.82418,201.51858
2130.03641,201.51858
2132.24865,201.51858
2134.46089,201.51858
2136.67312,201.51858
2138.88536,201.51858
2141.09759,201.51858
2143.30983,201.51858
2145.52206,201.51858
2147.7343,201.51858
2149.94654,201.51858
2152.15877,201.51858
2154.37101,201.51858
2156.58324,201.51858
2158.79548,201.51858
2161.00771,201.51858
2163.21995,201.51858
2165.43218,201.51858
2167.64442,201.51858
2169.85666,201.51858
2172.06889,201.51858
2174.28113,201.51858
2176.49336,201.51858
2178.7056,201.51858
2180.91783,201.51858
2183.13007,201.51858
2185.34231,201.51858
2187.55454,201.51858
2189.76678,201.51858
2191.97901,201.51858
2194.19125,201.51858
2196.40348,201.51858
2198.61572,201.51858
2200.82795,201.51858
2203.04019,201.51858
2205.25243,201.51858
2207.46466,201.51858
2209.6769,201.51858
2211.88913,201.51858
2214.10137,201.51858
2216.3136,201.51858
2218.52584,201.51858
2220.73808,201.51858
2222.95031,201.51858
2225.16255,201.51858
2227.37478,201.51858
2229.58702,201.51858
2231.79925,201.51858
2234.01149,201.51858
2236.22373,201.51858
2238.43596,201.51858
2240.6482,201.51858
2242.86043,201.51858
2245.07267,201.51858
2247.2849,201.51858
2249.49714,201.51858
2251.70937,201.51858
2253.92161,201.51858
2256.13385,201.51858
2258.34608,201.51858
2260.55832,201.51858
2262.77055,201.51858
2264.98279,201.51858
2267.19502,201.51858
2269.40726,201.51858
2271.6195,201.51858
2273.83173,201.51858
2276.04397,201.51858
2278.2562,201.51858
2280.46844,201.51858
2282.68067,201.51858
2284.89291,201.51858
2287.10514,201.51858
2289.31738,201.51858
2291.52962,201.51858
2293.74185,201.51858
2295.95409,201.51858
2298.16632,201.51858
2300.37856,201.51858
2302.59079,201.51858
2304.80303,201.51858
2307.01527,201.51858
2309.2275,201.51858
2311.43974,201.51858
2313.65197,201.51858
2315.86421,201.51858
2318.07644,200.73767
2320.28868,200.73767
2322.50092,200.73767
2324.71315,201.51858
2326.92539,201.51858
2329.13762,200.73767
2331.34986,200.73767
2333.56209,200.73767
2335.77433,201.51858
2337.98656,202.29949
2340.1988,201.51858
2342.41104,200.73767
2344.62327,200.73767
2346.83551,200.73767
2349.04774,200.73767
2351.25998,200.73767
2353.47221,200.73767
2355.68445,200.73767
2357.89669,200.73767
2360.10892,200.73767
2362.32116,200.73767
2364.53339,200.73767
2366.74563,200.73767
2368.95786,200.73767
2371.1701,200.73767
2373.38234,200.73767
2375.59457,200.73767
2377.80681,200.73767
2380.01904,200.73767
2382.23128,200.73767
2384.44351,201.51858
2386.65575,202.29949
2388.86798,203.08041
2391.08022,203.08041
2393.29246,203.08041
2395.50469,203.08041
2397.71693,203.08041
2399.92916,202.29949
2402.1414,202.29949
2404.35363,202.29949
2406.56587,201.51858
2408.77811,200.73767
2410.99034,199.95676
2413.20258,199.95676
2415.41481,199.95676
2417.62705,199.95676
2419.83928,199.95676
2422.05152,199.95676
2424.26375,200.73767
2426.47599,201.51858
2428.68823,202.29949
2430.90046,203.08041
2433.1127,203.08041
2435.32493,203.08041
2437.53717,203.08041
2439.7494,203.08041
2441.96164,203.08041
2444.17388,203.08041
2446.38611,203.08041
2448.59835,203.08041
2450.81058,203.08041
2453.02282,203.86132
2455.23505,203.86132
2457.44729,203.86132
2459.65953,203.86132
2461.87176,203.86132
2464.084,203.08041
2466.29623,202.29949
2468.50847,201.51858
2470.7207,202.29949
2472.93294,203.08041
2475.14517,203.08041
2477.35741,203.08041
2479.56965,203.08041
2481.78188,203.08041
2483.99412,202.29949
2486.20635,202.29949
2488.41859,202.29949
2490.63082,201.51858
2492.84306,200.73767
2495.0553,199.95676
2497.26753,199.95676
2499.47977,199.95676
2501.692,199.95676
2503.90424,199.95676
2506.11647,199.95676
2508.32871,200.73767
2510.54095,201.51858
2512.75318,202.29949
2514.96542,203.08041
2517.17765,203.08041
2519.38989,203.08041
2521.60212,203.08041
2523.81436,203.08041
2526.02659,203.08041
2528.23883,203.08041
2530.45107,203.08041
2532.6633,203.08041
2534.87554,203.08041
2537.08777,203.08041
2539.30001,203.08041
2541.51224,203.08041
2543.72448,203.08041
2545.93672,203.08041
2548.14895,203.08041
2550.36119,203.08041
2552.57342,203.08041
2554.78566,203.08041
2556.99789,203.08041
2559.21013,203.08041
2561.42236,203.08041
2563.6346,203.08041
2565.84684,203.08041
2568.05907,203.08041
2570.27131,203.08041
2572.48354,203.08041
2574.69578,203.08041
2576.90801,203.08041
2579.12025,203.08041
2581.33249,203.08041
2583.54472,203.08041
2585.75696,203.08041
2587.96919,203.08041
2590.18143,203.08041
2592.39366,203.08041
2594.6059,203.08041
2596.81814,203.08041
2599.03037,203.08041
2601.24261,203.08041
2603.45484,203.08041
2605.66708,203.08041
2607.87931,203.08041
2610.09155,203.08041
2612.30378,203.08041
2614.51602,203.08041
2616.72826,203.08041
2618.94049,203.08041
2621.15273,203.08041
2623.36496,203.08041
2625.5772,203.08041
2627.78943,203.08041
2630.00167,203.08041
2632.21391,203.08041
2634.42614,203.08041
2636.63838,203.08041
2638.85061,203.08041
2641.06285,203.08041
2643.27508,203.08041
2645.48732,203.08041
2647.69955,203.08041
2649.91179,203.08041
2652.12403,203.08041
2654.33626,203.08041
2656.5485,203.08041
2658.76073,203.08041
2660.97297,203.08041
2663.1852,203.08041
2665.39744,203.08041
2667.60968,203.08041
2669.82191,203.08041
2672.03415,203.08041
2674.24638,203.08041
2676.45862,203.08041
2678.67085,203.08041
2680.88309,203.08041
2683.09533,203.08041
2685.30756,203.08041
2687.5198,203.08041
2689.73203,203.08041
2691.94427,203.08041
2694.1565,203.08041
2696.36874,203.08041
2698.58097,203.08041
2700.79321,203.08041
2703.00545,203.08041
2705.21768,203.08041
2707.42992,203.08041
2709.64215,203.08041
2711.85439,203.08041
2714.06662,203.08041
2716.27886,203.08041
2718.4911,203.08041
2720.70333,203.08041
2722.91557,203.08041
2725.1278,203.08041
2727.34004,203.08041
2729.55227,203.08041
2731.76451,203.08041
2733.97675,203.08041
2736.18898,203.08041
2738.40122,203.08041
2740.61345,203.08041
2742.82569,203.08041
2745.03792,203.08041
2747.25016,203.08041
2749.46239,203.08041
2751.67463,203.08041
2753.88687,203.08041
2756.0991,203.08041
2758.31134,203.08041
2760.52357,203.08041
2762.73581,203.08041
2764.94804,203.08041
2767.16028,203.08041
2769.37252,203.08041
2771.58475,203.08041
2773.79699,203.08041
2776.00922,203.08041
2778.22146,203.08041
2780.43369,203.08041
2782.64593,203.08041
2784.85816,203.08041
2787.0704,203.08041
2789.28264,203.08041
2791.49487,203.08041
2793.70711,203.08041
2795.91934,203.08041
2798.13158,203.08041
2800.34381,202.29949
2802.55605,201.51858
2804.76829,200.73767
2806.98052,200.73767
2809.19276,200.73767
2811.40499,200.73767
2813.61723,200.73767
2815.82946,200.73767
2818.0417,200.73767
2820.25394,200.73767
2822.46617,200.73767
2824.67841,200.73767
2826.89064,200.73767
2829.10288,200.73767
2831.31511,200.73767
2833.52735,199.95676
2835.73958,199.95676
2837.95182,199.95676
2840.16406,199.95676
2842.37629,199.95676
2844.58853,199.95676
2846.80076,199.95676
2849.013,199.95676
2851.22523,199.95676
2853.43747,199.95676
2855.64971,199.95676
2857.86194,199.95676
2860.07418,199.95676
2862.28641,199.95676
2864.49865,199.95676
2866.71088,199.95676
2868.92312,199.95676
2871.13536,199.95676
2873.34759,199.95676
2875.55983,199.95676
2877.77206,199.95676
2879.9843,199.95676
2882.19653,199.95676
2884.40877,199.95676
2886.621,199.95676
2888.83324,199.95676
2891.04548,199.95676
2893.25771,199.95676
2895.46995,199.95676
2897.68218,199.95676
2899.89442,199.95676
2902.10665,199.95676
2904.31889,199.95676
2906.53113,199.95676
2908.74336,199.95676
2910.9556,199.95676
2913.16783,199.95676
2915.38007,199.95676
2917.5923,199.95676
2919.80454,199.95676
2922.01677,199.95676
2924.22901,199.95676
2926.44125,199.95676
2928.65348,199.95676
2930.86572,199.95676
2933.07795,199.95676
2935.29019,199.95676
2937.50242,199.95676
2939.71466,199.95676
2941.9269,199.95676
2944.13913,199.95676
2946.35137,199.95676
2948.5636,199.95676
2950.77584,199.95676
2952.98807,199.95676
2955.20031,199.95676
2957.41255,199.95676
2959.62478,199.95676
2961.83702,199.95676
2964.04925,199.95676
2966.26149,199.95676
2968.47372,199.95676
2970.68596,199.95676
2972.89819,199.95676
2975.11043,199.95676
2977.32267,199.95676
2979.5349,199.95676
2981.74714,199.95676
2983.95937,199.95676
2986.17161,199.95676
2988.38384,199.95676
2990.59608,199.95676
2992.80832,199.95676
2995.02055,199.95676
2997.23279,199.95676
2999.44502,199.95676
3001.65726,199.95676
3003.86949,199.95676
3006.08173,199.95676
3008.29396,199.95676
3010.5062,199.95676
3012.71844,199.95676
3014.93067,199.95676
3017.14291,199.95676
3019.35514,199.95676
3021.56738,199.95676
3023.77961,199.95676
3025.99185,199.95676
3028.20409,199.95676
3030.41632,199.95676
3032.62856,199.95676
3034.84079,199.95676
3037.05303,199.95676
3039.26526,199.95676
3041.4775,199.95676
3043.68974,199.95676
3045.90197,199.95676
3048.11421,199.95676
3050.32644,199.95676
3052.53868,199.95676
3054.75091,199.95676
3056.96315,199.95676
3059.17538,199.95676
3061.38762,199.95676
3063.59986,199.95676
3065.81209,199.95676
3068.02433,199.95676
3070.23656,199.95676
3072.4488,199.95676
3074.66103,199.95676
3076.87327,199.95676
3079.08551,199.95676
3081.29774,199.95676
3083.50998,199.95676
3085.72221,199.95676
3087.93445,199.95676
3090.14668,199.95676
3092.35892,199.95676
3094.57116,200.73767
3096.78339,200.73767
3098.99563,200.73767
3101.20786,200.73767
3103.4201,200.73767
3105.63233,200.73767
3107.84457,200.73767
3110.0568,200.73767
3112.26904,200.73767
3114.48128,200.73767
3116.69351,200.73767
3118.90575,200.73767
3121.11798,200.73767
3123.33022,200.73767
3125.54245,200.73767
3127.75469,200.73767
3129.96693,200.73767
3132.17916,200.73767
3134.3914,200.73767
3136.60363,200.73767
3138.81587,200.73767
3141.0281,200.73767
3143.24034,200.73767
3145.45257,200.73767
3147.66481,200.73767
3149.87705,200.73767
3152.08928,200.73767
3154.30152,200.73767
3156.51375,200.73767
3158.72599,200.73767
3160.93822,200.73767
3163.15046,200.73767
3165.3627,200.73767
3167.57493,200.73767
3169.78717,200.73767
3171.9994,200.73767
3174.21164,200.73767
3176.42387,200.73767
3178.63611,200.73767
3180.84835,200.73767
3183.06058,201.51858
3185.27282,200.73767
3187.48505,201.51858
3189.69729,200.73767
3191.90952,200.73767
3194.12176,200.73767
3196.33399,200.73767
3198.54623,200.73767
3200.75847,201.51858
3202.9707,201.51858
3205.18294,201.51858
3207.39517,201.51858
3209.60741,201.51858
3211.81964,201.51858
3214.03188,201.51858
3216.24412,201.51858
3218.45635,201.51858
3220.66859,201.51858
3222.88082,201.51858
3225.09306,201.51858
3227.30529,201.51858
3229.51753,202.29949
3231.72976,203.08041
3233.942,203.86132
3236.15424,203.86132
3238.36647,203.86132
3240.57871,203.08041
3242.79094,203.86132
3245.00318,204.64223
3247.21541,204.64223
3249.42765,204.64223
3251.63989,204.64223
3253.85212,203.86132
3256.06436,203.08041
3258.27659,202.29949
3260.48883,202.29949
3262.70106,202.29949
3264.9133,203.08041
3267.12554,203.08041
3269.33777,203.08041
3271.55001,203.08041
3273.76224,203.86132
3275.97448,204.64223
3278.18671,204.64223
3280.39895,203.86132
3282.61118,203.08041
3284.82342,203.08041
3287.03566,203.08041
3289.24789,203.08041
3291.46013,203.08041
3293.67236,203.08041
3295.8846,203.08041
3298.09683,203.08041
3300.30907,203.86132
3302.52131,204.64223
3304.73354,205.42314
3306.94578,205.42314
3309.15801,204.64223
3311.37025,205.42314
3313.58248,206.20406
3315.79472,206.20406
3318.00696,206.20406
3320.21919,205.42314
3322.43143,204.64223
3324.64366,203.86132
3326.8559,203.86132
3329.06813,203.86132
3331.28037,204.64223
3333.4926,204.64223
3335.70484,204.64223
3337.91708,204.64223
3340.12931,205.42314
3342.34155,206.20406
3344.55378,206.98497
3346.76602,206.20406
3348.97825,205.42314
3351.19049,204.64223
3353.40273,204.64223
3355.61496,205.42314
3357.8272,205.42314
3360.03943,205.42314
3362.25167,205.42314
3364.4639,206.20406
3366.67614,206.20406
3368.88837,207.76588
3368.88837,208.5468
3368.88837,209.32771
3368.88837,210.10862
3368.88837,210.88953
3368.88837,206.98497
3371.10061,210.88953
3373.31285,211.67045
3373.31285,210.88953
3375.52508,212.45136
3375.52508,211.67045
3377.73732,212.45136
3379.94955,212.45136
3382.16179,212.45136
3384.37402,212.45136
3386.58626,212.45136
3388.7985,212.45136
3391.01073,213.23227
3391.01073,214.01319
3391.01073,212.45136
3391.01073,215.57501
3391.01073,216.35592
3391.01073,214.7941
3393.22297,217.13684
3393.22297,216.35592
3395.4352,217.91775
3395.4352,217.13684
3397.64744,217.91775
3399.85967,218.69866
3399.85967,217.91775
3402.07191,218.69866
3404.28415,219.47958
3406.49638,219.47958
3408.70862,219.47958
3410.92085,218.69866
3413.13309,217.91775
3415.34532,218.69866
3417.55756,219.47958
3419.76979,219.47958
3421.98203,218.69866
3424.19427,218.69866
3426.4065,217.91775
3426.4065,217.13684
3426.4065,216.35592
3426.4065,215.57501
3426.4065,214.7941
3426.4065,218.69866
3428.61874,214.01319
3430.83097,214.01319
3433.04321,213.23227
3433.04321,214.01319
3435.25544,213.23227
3437.46768,212.45136
3439.67992,212.45136
3441.89215,213.23227
3444.10439,214.01319
3446.31662,214.7941
3448.52886,214.7941
3450.74109,214.7941
3452.95333,214.01319
3455.16557,213.23227
3457.3778,212.45136
3459.59004,211.67045
3461.80227,212.45136
3464.01451,213.23227
3464.01451,212.45136
3464.01451,214.01319
3464.01451,215.57501
3464.01451,216.35592
3464.01451,214.7941
3466.22674,217.13684
3466.22674,216.35592
3468.43898,217.13684
3470.65121,217.91775
3470.65121,217.13684
3472.86345,218.69866
3472.86345,217.91775
3475.07569,219.47958
3475.07569,218.69866
3477.28792,219.47958
3477.28792,220.26049
3479.50016,220.26049
3481.71239,221.0414
3481.71239,220.26049
3483.92463,221.82231
3483.92463,221.0414
3486.13686,222.60323
3486.13686,221.82231
3488.3491,222.60323
3490.56134,223.38414
3490.56134,222.60323
3492.77357,223.38414
3494.98581,222.60323
3497.19804,221.82231
3499.41028,222.60323
3501.62251,223.38414
3503.83475,222.60323
3503.83475,221.82231
3503.83475,220.26049
3503.83475,219.47958
3503.83475,221.0414
3503.83475,223.38414
3506.04698,219.47958
3506.04698,218.69866
3508.25922,218.69866
3508.25922,217.91775
3510.47146,217.91775
3512.68369,217.13684
3514.89593,217.13684
3514.89593,216.35592
3517.10816,215.57501
3519.3204,214.7941
3521.53263,214.7941
3521.53263,214.01319
3523.74487,213.23227
3523.74487,214.01319
3525.95711,213.23227
3528.16934,213.23227
3530.38158,213.23227
3532.59381,211.67045
3532.59381,213.23227
3532.59381,210.88953
3532.59381,212.45136
3534.80605,210.88953
3534.80605,210.10862
3537.01828,210.10862
3537.01828,209.32771
3539.23052,207.76588
3539.23052,209.32771
3539.23052,208.5468
3541.44276,207.76588
3543.65499,207.76588
3543.65499,206.98497
3545.86723,206.98497
3548.07946,206.20406
3548.07946,206.98497
3550.2917,206.20406
3552.50393,206.20406
3554.71617,206.98497
3556.9284,207.76588
3559.14064,208.5468
3561.35288,207.76588
3563.56511,207.76588
3565.77735,207.76588
3567.98958,206.98497
3570.20182,206.98497
3572.41405,206.98497
3574.62629,206.98497
3576.83853,206.98497
3579.05076,206.98497
3581.263,206.20406
3583.47523,206.98497
3585.68747,206.98497
3587.8997,206.98497
3590.11194,206.20406
3592.32417,206.20406
3594.53641,206.20406
3596.74865,206.20406
3598.96088,206.20406
3601.17312,206.20406
3603.38535,206.20406
3605.59759,206.20406
3607.80982,206.20406
3610.02206,206.20406
3612.2343,206.20406
3614.44653,206.20406
3616.65877,206.20406
3618.871,206.20406
3621.08324,205.42314
3623.29547,205.42314
3625.50771,205.42314
3627.71995,205.42314
3629.93218,205.42314
3632.14442,205.42314
3634.35665,205.42314
3636.56889,205.42314
3638.78112,205.42314
3640.99336,204.64223
3643.20559,203.86132
3645.41783,203.08041
3647.63007,203.08041
3649.8423,203.08041
3652.05454,203.08041
3654.26677,203.08041
3656.47901,203.86132
3658.69124,203.08041
3660.90348,202.29949
3663.11572,202.29949
3665.32795,202.29949
3667.54019,202.29949
3669.75242,202.29949
3671.96466,202.29949
3674.17689,203.08041
3676.38913,203.86132
3678.60137,204.64223
3680.8136,204.64223
3683.02584,204.64223
3685.23807,204.64223
3687.45031,204.64223
3689.66254,204.64223
3691.87478,203.86132
3694.08701,203.08041
3696.29925,202.29949
3698.51149,201.51858
3700.72372,201.51858
3702.93596,201.51858
3705.14819,201.51858
3707.36043,201.51858
3709.57266,201.51858
3711.7849,201.51858
3713.99714,201.51858
3716.20937,201.51858
3718.42161,201.51858
3720.63384,201.51858
3722.84608,201.51858
3725.05831,201.51858
3727.27055,201.51858
3729.48278,201.51858
3731.69502,201.51858
3733.90726,201.51858
3736.11949,201.51858
3738.33173,201.51858
3740.54396,201.51858
3742.7562,201.51858
3744.96843,201.51858
3747.18067,201.51858
3749.39291,201.51858
3751.60514,201.51858
3753.81738,201.51858
3756.02961,201.51858
3758.24185,201.51858
3760.45408,201.51858
3762.66632,201.51858
3764.87856,201.51858
3767.09079,201.51858
3769.30303,201.51858
3771.51526,201.51858
3773.7275,201.51858
3775.93973,201.51858
3778.15197,201.51858
3780.3642,201.51858
3782.57644,201.51858
3784.78868,201.51858
3787.00091,201.51858
3789.21315,201.51858
3791.42538,201.51858
3793.63762,201.51858
3795.84985,201.51858
3798.06209,201.51858
3800.27433,201.51858
3802.48656,201.51858
3804.6988,201.51858
3806.91103,201.51858
3809.12327,201.51858
3811.3355,201.51858
3813.54774,201.51858
3815.75998,201.51858
3817.97221,201.51858
3820.18445,201.51858
3822.39668,201.51858
3824.60892,201.51858
3826.82115,201.51858
3829.03339,201.51858
3831.24562,201.51858
3833.45786,201.51858
3835.6701,201.51858
3837.88233,201.51858
3840.09457,201.51858
3842.3068,201.51858
3844.51904,201.51858
3846.73127,201.51858
3848.94351,201.51858
3851.15575,201.51858
3853.36798,201.51858
3855.58022,201.51858
3857.79245,201.51858
3860.00469,201.51858
3862.21692,201.51858
3864.42916,201.51858
3866.64139,201.51858
3868.85363,201.51858
3871.06587,201.51858
3873.2781,201.51858
3875.49034,201.51858
3877.70257,201.51858
3879.91481,201.51858
3882.12704,201.51858
3884.33928,201.51858
3886.55152,201.51858
3888.76375,201.51858
3890.97599,201.51858
3893.18822,201.51858
3895.40046,201.51858
3897.61269,201.51858
3899.82493,201.51858
3902.03717,201.51858
3904.2494,201.51858
3906.46164,201.51858
3908.67387,201.51858
3910.88611,201.51858
3913.09834,201.51858
3915.31058,201.51858
3917.52281,201.51858
3919.73505,201.51858
3921.94729,201.51858
3924.15952,201.51858
3926.29735,204.55118
3952.03163,201.37217
3968.75891,204.55118
3977.76591,207.73019
3985.48619,204.55118
