Raman Shift,Intensity
55.45154,8.562992
55.93365,7.647858
56.41577,7.084441
56.89789,7.338608
57.38,8.89333
57.86212,10.66445
58.34424,11.59231
58.82635,11.58039
59.30847,11.23712
59.79059,10.6465
60.27271,9.963358
60.75482,9.371141
61.23694,9.015841
61.71906,8.766611
62.20117,8.173059
62.68329,6.680052
63.16541,5.730792
63.64752,6.09953
64.12964,7.296512
64.61176,8.514891
65.09387,9.257032
65.57599,9.519877
66.05811,9.290441
66.54022,7.598133
67.02234,6.24193
67.50446,5.974641
67.98657,6.659475
68.46869,7.621027
68.95081,8.092432
69.43292,7.749238
69.91504,7.969639
70.39716,9.769964
70.87927,11.31926
71.36139,11.10603
71.84351,8.948361
72.32562,6.128141
72.80774,4.569197
73.28986,4.881092
73.77197,5.685456
74.25409,7.811272
74.73621,10.13524
75.21832,11.1359
75.70044,10.13527
76.18256,8.12407
76.66467,7.587177
77.14679,9.220292
77.62891,10.46842
78.11102,10.14482
78.59314,8.749144
79.07526,7.713897
79.55737,7.761496
80.03949,8.510331
80.52161,9.03933
81.00372,9.489833
81.48584,9.533668
81.96796,8.655323
82.45007,6.843513
82.93219,5.236446
83.41431,4.103337
83.89642,3.672495
84.37854,4.459238
84.86066,7.319488
85.34277,10.72346
85.82489,12.20205
86.30701,11.13063
86.78912,9.824828
87.27124,9.048415
87.75336,8.756004
88.23547,9.043087
88.71759,10.28637
89.19971,12.05763
89.68182,12.58037
90.16394,10.55503
90.64606,8.943632
91.12817,9.005313
91.61029,10.15292
92.09241,11.32001
92.57452,11.70747
93.05664,11.30577
93.53876,11.02952
94.02087,11.06189
94.50299,11.06003
94.98511,10.61252
95.46722,9.960782
95.94934,9.831671
96.43146,11.1798
96.91357,14.77287
97.39569,16.22278
97.87781,13.75453
98.35992,11.03306
98.84204,10.1297
99.32416,11.18386
99.80627,12.86925
100.2884,13.52538
100.7705,12.5179
101.2526,12.02875
101.7347,12.34908
102.2169,12.98172
102.699,13.68587
103.1811,14.37696
103.6632,14.80316
104.1453,14.47256
104.6274,13.02036
105.1096,11.73075
105.5917,10.46654
106.0738,9.504282
106.5559,9.391203
107.038,10.42965
107.5201,11.95275
108.0023,12.61206
108.4844,12.23742
108.9665,11.95064
109.4486,12.48699
109.9307,13.44253
110.4128,13.56235
110.895,11.92182
111.3771,9.844818
111.8592,9.739698
112.3413,12.2739
112.8234,14.60877
113.3055,14.52735
113.7877,12.31709
114.2698,10.62356
114.7519,10.56096
115.234,11.49365
115.7161,12.69977
116.1982,14.27126
116.6804,15.68041
117.1625,16.3012
117.6446,16.04568
118.1267,15.72538
118.6088,15.35987
119.0909,15.20891
119.5731,15.51715
120.0552,16.35676
120.5373,17.66054
121.0194,19.64173
121.5015,22.92046
121.9836,25.04733
122.4658,24.2053
122.9479,22.41391
123.43,21.49138
123.9121,22.15734
124.3942,24.08444
124.8763,26.71047
125.3585,31.18462
125.8406,34.31855
126.3227,34.69579
126.8048,33.80985
127.2869,33.33553
127.769,34.1487
128.2512,35.94767
128.7333,37.47655
129.2154,38.37919
129.6975,39.44233
130.1796,40.79143
130.6617,42.38265
131.1439,44.12771
131.626,45.96943
132.1081,47.92523
132.5902,50.13534
133.0723,53.08303
133.5544,55.7988
134.0366,58.25812
134.5187,60.3387
135.0008,61.82518
135.4829,62.51921
135.965,62.46393
136.4471,62.54698
136.9293,62.00169
137.4114,62.34076
137.8935,64.30712
138.3756,67.56419
138.8577,71.36102
139.3398,75.21432
139.822,79.13175
140.3041,82.75938
140.7862,86.7562
141.2683,89.9436
141.7504,90.71932
142.2325,89.8715
142.7147,90.09617
143.1968,93.57438
143.6789,100.4415
144.161,107.3281
144.6431,115.4726
145.1252,122.5952
145.6074,126.7055
146.0895,128.1409
146.5716,129.3586
147.0537,132.1505
147.5358,136.6723
148.0179,141.8389
148.5001,148.6112
148.9822,155.3062
149.4643,160.5676
149.9464,164.3986
150.4285,167.8819
150.9106,171.7994
151.3928,176.1595
151.8749,180.777
152.357,187.27
152.8391,193.0255
153.3212,194.7262
153.8033,192.0005
154.2855,189.4316
154.7676,191.3913
155.2497,196.7734
155.7318,200.7489
156.2139,200.8336
156.696,200.0072
157.1782,202.1101
157.6603,207.7017
158.1424,213.5931
158.6245,217.428
159.1066,219.6654
159.5887,221.1373
160.0709,220.1026
160.553,219.1285
161.0351,222.1991
161.5172,229.9547
161.9993,239.6462
162.4814,252.2197
162.9636,265.3171
163.4457,274.1175
163.9278,273.383
164.4099,268.2449
164.892,268.3374
165.3741,275.128
165.8563,283.086
166.3384,289.0027
166.8205,293.6729
167.3026,298.3622
167.7847,303.6347
168.2668,309.2525
168.749,314.8585
169.2311,320.7724
169.7132,325.9509
170.1953,330.0357
170.6774,333.103
171.1595,334.9957
171.6417,334.6685
172.1238,333.5225
172.6059,335.6931
173.088,343.5519
173.5701,349.9126
174.0522,349.8088
174.5344,346.7148
175.0165,345.774
175.4986,350.3035
175.9807,358.0961
176.4628,363.0582
176.9449,364.1068
177.4271,364.1213
177.9092,362.9931
178.3913,361.9483
178.8734,363.0319
179.3555,368.0966
179.8376,375.16
180.3197,378.0588
180.8019,374.1676
181.284,370.6119
181.7661,368.8656
182.2482,368.9086
182.7303,371.1545
183.2124,376.3217
183.6946,382.9848
184.1767,386.7607
184.6588,385.3222
185.1409,384.9956
185.623,388.656
186.1051,393.7466
186.5873,397.2411
187.0694,397.5857
187.5515,395.9508
188.0336,395.3905
188.5157,396.197
188.9978,397.7222
189.48,400.4161
189.9621,403.3679
190.4442,405.2759
190.9263,405.3981
191.4084,405.1239
191.8905,407.8663
192.3727,414.7267
192.8548,422.9867
193.3369,434.1385
193.819,445.3331
194.3011,453.5312
194.7832,457.4935
195.2654,459.0342
195.7475,462.4164
196.2296,470.6922
196.7117,474.8484
197.1938,468.8273
197.6759,461.5374
198.1581,461.8257
198.6402,472.4962
199.1223,487.7417
199.6044,496.2097
200.0865,492.4572
200.5686,492.8084
201.0508,500.0634
201.5329,510.2967
202.015,521.6472
202.4971,533.2941
202.9792,543.5493
203.4613,548.9774
203.9435,545.7278
204.4256,546.3782
204.9077,552.9939
205.3898,561.982
205.8719,572.0284
206.354,582.3996
206.8362,591.6798
207.3183,597.4373
207.8004,597.3013
208.2825,599.6095
208.7646,604.7409
209.2467,611.7062
209.7289,620.592
210.211,631.0337
210.6931,641.9614
211.1752,652.083
211.6573,660.999
212.1395,670.3801
212.6216,681.8384
213.1037,692.3315
213.5858,699.5377
214.0679,703.9538
214.55,708.0864
215.0322,714.2181
215.5143,722.3663
215.9964,732.435
216.4785,748.0955
216.9606,762.3042
217.4427,770.7451
217.9249,775.083
218.407,780.5076
218.8891,791.7047
219.3712,808.8808
219.8533,824.3139
220.3354,838.6202
220.8176,850.4033
221.2997,855.8647
221.7818,858.4774
222.2639,865.2574
222.746,881.8137
223.2281,907.0074
223.7103,927.0354
224.1924,935.5721
224.6745,945.6191
225.1566,962.3893
225.6387,981.916
226.1208,997.9907
226.603,1006.748
227.0851,1009.896
227.5672,1014.455
228.0493,1020.135
228.5314,1027.974
229.0135,1037.98
229.4957,1050.082
229.9778,1064.689
230.4599,1082.068
230.942,1100.905
231.4241,1117.765
231.9062,1129.64
232.3884,1144.823
232.8705,1167.304
233.3526,1191.372
233.8347,1212.442
234.3168,1228.902
234.7989,1242.24
235.2811,1253.978
235.7632,1261.305
236.2453,1274.11
236.7274,1297.749
237.2095,1323.373
237.6916,1346.023
238.1738,1364.403
238.6559,1379.43
239.138,1391.047
239.6201,1397.167
240.1022,1407.828
240.5843,1428.01
241.0665,1448.998
241.5486,1467.05
242.0307,1481.926
242.5128,1495.16
242.9949,1507.477
243.477,1518.606
243.9592,1532.464
244.4413,1554.194
244.9234,1573.918
245.4055,1588.018
245.8876,1597.084
246.3697,1602.837
246.8519,1604.514
247.334,1603.363
247.8161,1611.103
248.2982,1635.918
248.7803,1659.033
249.2624,1675.152
249.7446,1685.317
250.2267,1690.632
250.7088,1690.225
251.1909,1687.03
251.673,1690.368
252.1551,1704.618
252.6373,1716.525
253.1194,1720.815
253.6015,1721.276
254.0836,1721.162
254.5657,1721.163
255.0478,1722.856
255.53,1730.345
256.0121,1746.193
256.4942,1757.972
256.9763,1757.664
257.4584,1754.423
257.9406,1755.231
258.4227,1761.649
258.9048,1768.926
259.3869,1771.516
259.869,1769.157
260.3511,1768.405
260.8333,1772.236
261.3154,1776.514
261.7975,1777.694
262.2796,1775.885
262.7617,1774.645
263.2438,1776.208
263.726,1780.435
264.2081,1787.287
264.6902,1799.954
265.1723,1810.13
265.6544,1809.449
266.1365,1801.039
266.6187,1795.295
267.1008,1798.169
267.5829,1806.825
268.065,1816.005
268.5471,1826.161
269.0292,1834.916
269.5114,1840.053
269.9935,1842.655
270.4756,1844.095
270.9577,1843.214
271.4398,1842.548
271.9219,1846.769
272.4041,1856.126
272.8862,1861.201
273.3683,1853.113
273.8504,1839.77
274.3325,1836.017
274.8146,1844.472
275.2968,1859.077
275.7789,1881.504
276.261,1908.358
276.7431,1924.672
277.2252,1922.255
277.7073,1910.67
278.1895,1904.949
278.6716,1904.732
279.1537,1909.421
279.6358,1925.453
280.1179,1944.795
280.6,1951.068
281.0822,1939.146
281.5643,1923.6
282.0464,1922.906
282.5285,1938.514
283.0106,1950.378
283.4927,1952.971
283.9749,1952.977
284.457,1958.916
284.9391,1970.578
285.4212,1977.111
285.9033,1968.039
286.3854,1943.615
286.8676,1926.441
287.3497,1918.243
287.8318,1914.812
288.3139,1916.723
288.796,1921.996
289.2781,1926.323
289.7603,1927.57
290.2424,1925.67
290.7245,1920.073
291.2066,1901.609
291.6887,1890.927
292.1708,1902.169
292.653,1918.969
293.1351,1917.653
293.6172,1890.283
294.0993,1852.601
294.5814,1832.598
295.0635,1839.623
295.5457,1848.292
296.0278,1866.474
296.5099,1880.552
296.992,1877.095
297.4741,1857.032
297.9562,1834.628
298.4384,1825.57
298.9205,1833.023
299.4026,1831.555
299.8847,1810.621
300.3668,1791.575
300.8489,1783.674
301.3311,1783.387
301.8131,1782.024
302.2953,1773.539
302.7774,1759.707
303.2595,1749.878
303.7416,1748.141
304.2237,1744.428
304.7058,1737.782
305.188,1727.881
305.6701,1713.163
306.1522,1692.863
306.6343,1671.295
307.1164,1655.041
307.5985,1644.311
308.0807,1638.412
308.5628,1644.157
309.0449,1649.97
309.527,1648.168
310.0091,1638.387
310.4912,1626.781
310.9734,1619.638
311.4555,1616.226
311.9376,1607.542
312.4197,1587.469
312.9018,1570.264
313.3839,1569.007
313.8661,1577.581
314.3482,1579.719
314.8303,1559.934
315.3124,1532.81
315.7945,1527.914
316.2766,1549.622
316.7588,1567.847
317.2409,1563.663
317.723,1546.304
318.2051,1530.811
318.6872,1519.021
319.1693,1509.253
319.6515,1499.476
320.1336,1490.463
320.6157,1486.426
321.0978,1490.768
321.5799,1497.647
322.062,1496.341
322.5442,1485.219
323.0263,1477.781
323.5084,1481.868
323.9905,1490.031
324.4726,1492.767
324.9547,1488.487
325.4369,1480.357
325.919,1470.351
326.4011,1458.184
326.8832,1450.067
327.3653,1447.201
327.8474,1447.04
328.3296,1450.123
328.8117,1454.977
329.2938,1457.714
329.7759,1455.892
330.258,1450.513
330.7401,1446.166
331.2223,1440.598
331.7044,1438.884
332.1865,1445.414
332.6686,1454.3
333.1507,1458.677
333.6328,1456.645
334.115,1452.206
334.5971,1451.772
335.0792,1458.538
335.5613,1460.506
336.0434,1453.269
336.5255,1445.727
337.0077,1443.274
337.4898,1444.883
337.9719,1445.627
338.454,1440.824
338.9361,1431.549
339.4182,1428.161
339.9004,1437.456
340.3825,1442.504
340.8646,1435.61
341.3467,1423.148
341.8288,1413.382
342.3109,1409.679
342.7931,1408.239
343.2752,1401.315
343.7573,1386.972
344.2394,1381.526
344.7215,1399.248
345.2036,1419.002
345.6858,1422.124
346.1679,1408.126
346.65,1393.83
347.1321,1391.79
347.6142,1397.522
348.0963,1397.524
348.5785,1388.468
349.0606,1380.028
349.5427,1383.402
350.0248,1393.965
350.5069,1397.599
350.989,1384.799
351.4712,1369.758
351.9533,1364.545
352.4354,1367.695
352.9175,1371.114
353.3996,1370.673
353.8817,1368.532
354.3639,1371.478
354.846,1385.113
355.3281,1391.327
355.8102,1378.506
356.2923,1359.558
356.7744,1351.564
357.2566,1357.603
357.7387,1366.126
358.2208,1363.576
358.7029,1346.757
359.185,1336.685
359.6671,1340.389
360.1493,1342.866
360.6314,1334.69
361.1135,1320.107
361.5956,1309.849
362.0777,1310.771
362.5598,1318.687
363.042,1317.378
363.5241,1294.854
364.0062,1282.712
364.4883,1295.982
364.9704,1312.938
365.4525,1312.906
365.9347,1292.605
366.4168,1267.935
366.8989,1257.383
367.381,1261.81
367.8631,1264.758
368.3452,1264.965
368.8274,1264.342
369.3095,1263.065
369.7916,1261.768
370.2737,1262.223
370.7558,1267.747
371.2379,1273.462
371.7201,1270.233
372.2022,1257.321
372.6843,1242.352
373.1664,1225.332
373.6485,1210.242
374.1306,1203.607
374.6128,1208.176
375.0949,1212.023
375.577,1206.518
376.0591,1196.344
376.5412,1191.827
377.0233,1195.637
377.5055,1200.738
377.9876,1200.37
378.4697,1193.888
378.9518,1184.916
379.4339,1168.281
379.916,1153.867
380.3982,1149.55
380.8803,1152.618
381.3624,1155.286
381.8445,1153.404
382.3266,1148.015
382.8087,1142.203
383.2909,1138.095
383.773,1130.528
384.2551,1113.569
384.7372,1096.959
385.2193,1090.333
385.7014,1094.13
386.1836,1099.892
386.6657,1098.46
387.1478,1089.366
387.6299,1082.327
388.112,1080.646
388.5941,1077.092
389.0763,1065.753
389.5584,1051.905
390.0405,1044.752
390.5226,1049.468
391.0047,1058.583
391.4868,1059.604
391.969,1051.557
392.4511,1044.632
392.9332,1041.39
393.4153,1040.519
393.8974,1042.751
394.3795,1047.904
394.8617,1047.796
395.3438,1032.786
395.8259,1011.896
396.308,1001.456
396.7901,1003.39
397.2722,1006.189
397.7544,1000.293
398.2365,988.6216
398.7186,986.0585
399.2007,1002.577
399.6828,1016.846
400.1649,1020.531
400.6471,1016.565
401.1292,1008.525
401.6113,997.5091
402.0934,986.3948
402.5755,979.4877
403.0576,978.5212
403.5398,976.762
404.0219,974.5178
404.504,971.3069
404.9861,965.6518
405.4682,958.7815
405.9503,953.8425
406.4325,953.1479
406.9146,955.107
407.3967,953.8977
407.8788,947.751
408.3609,942.0322
408.843,936.9212
409.3252,933.1262
409.8073,932.1022
410.2894,933.7938
410.7715,935.024
411.2536,931.5878
411.7357,924.8795
412.2179,923.165
412.7,929.4216
413.1821,934.7929
413.6642,931.4453
414.1463,922.9292
414.6284,915.9579
415.1106,911.3315
415.5927,909.0707
416.0748,911.2251
416.5569,916.0034
417.039,917.357
417.5211,912.7725
418.0033,905.6719
418.4854,900.8544
418.9675,898.5361
419.4496,898.2775
419.9317,902.4401
420.4138,906.7371
420.896,908.2289
421.3781,907.2312
421.8602,905.4716
422.3423,903.9717
422.8244,902.7685
423.3065,902.107
423.7887,903.1689
424.2708,902.8572
424.7529,899.0792
425.235,895.1144
425.7171,894.6037
426.1992,897.5347
426.6814,899.7327
427.1635,895.9289
427.6456,886.8454
428.1277,881.5834
428.6098,881.0322
429.0919,882.6838
429.5741,886.5133
430.0562,891.3144
430.5383,895.605
431.0204,899.8235
431.5025,901.7662
431.9846,899.0583
432.4668,892.4633
432.9489,883.8631
433.431,872.8616
433.9131,862.9427
434.3952,858.1903
434.8773,858.9979
435.3595,862.5663
435.8416,872.0515
436.3237,881.3143
436.8058,887.6517
437.2879,890.689
437.7701,889.8954
438.2522,884.8342
438.7343,876.8079
439.2164,868.4988
439.6985,854.1927
440.1806,850.4575
440.6628,867.34
441.1449,885.4776
441.627,891.8882
442.1091,887.3681
442.5912,880.776
443.0733,878.6871
443.5555,879.738
444.0376,878.2342
444.5197,872.8038
445.0018,868.6633
445.4839,868.5255
445.966,870.3221
446.4482,872.7012
446.9303,875.7429
447.4124,877.3517
447.8945,874.8665
448.3766,870.3011
448.8587,868.1846
449.3409,869.2518
449.823,870.8634
450.3051,871.7173
450.7872,871.4063
451.2693,867.2955
451.7514,852.6118
452.2336,842.2715
452.7157,843.7938
453.1978,851.6766
453.6799,859.5441
454.162,865.1663
454.6441,867.3425
455.1263,863.4266
455.6084,851.252
456.0905,845.3025
456.5726,854.3302
457.0547,860.8167
457.5368,856.4421
458.019,846.7341
458.5011,841.5298
458.9832,845.6652
459.4653,852.3186
459.9474,850.6431
460.4295,840.4834
460.9117,833.1068
461.3938,831.2233
461.8759,832.0146
462.358,833.2011
462.8401,834.8055
463.3222,837.1132
463.8044,842.0574
464.2865,846.2946
464.7686,846.4037
465.2507,843.0679
465.7328,838.2877
466.2149,832.2468
466.6971,827.7447
467.1792,831.0472
467.6613,850.9248
468.1434,859.6418
468.6255,847.5824
469.1076,832.9465
469.5898,827.6887
470.0719,829.9793
470.554,831.2152
471.0361,825.5524
471.5182,816.2643
472.0003,813.4357
472.4825,819.8796
472.9646,825.1646
473.4467,827.921
473.9288,828.1108
474.4109,823.1617
474.893,814.0864
475.3752,808.739
475.8573,816.5967
476.3394,829.0739
476.8215,829.4452
477.3036,817.2321
477.7857,807.0132
478.2679,806.5919
478.75,812.3303
479.2321,815.7385
479.7142,816.9153
480.1963,816.0731
480.6784,811.2303
481.1606,805.7377
481.6427,803.1979
482.1248,803.3717
482.6069,802.7939
483.089,798.3582
483.5711,791.5497
484.0533,791.0884
484.5354,803.6335
485.0175,811.5385
485.4996,809.0622
485.9817,803.8353
486.4638,802.6348
486.946,805.7325
487.4281,807.5715
487.9102,801.4261
488.3923,790.7902
488.8744,787.1617
489.3565,791.7693
489.8387,796.9575
490.3208,800.2343
490.8029,800.8483
491.285,797.1285
491.7671,786.7309
492.2492,778.8044
492.7314,779.468
493.2135,782.5659
493.6956,780.1505
494.1777,772.1346
494.6598,764.8557
495.1419,763.399
495.6241,766.6553
496.1062,767.4142
496.5883,765.0378
497.0704,760.8051
497.5525,753.0518
498.0346,744.8082
498.5168,737.6981
498.9989,732.4033
499.481,730.1298
499.9631,732.7603
500.4452,739.1765
500.9273,746.0765
501.4095,754.4932
501.8916,758.762
502.3737,753.3737
502.8558,744.1177
503.3379,740.5299
503.82,744.1501
504.3022,747.6549
504.7843,748.3248
505.2664,747.433
505.7485,746.814
506.2306,746.3424
506.7127,743.8027
507.1949,737.2639
507.677,728.0829
508.1591,722.2151
508.6412,720.4255
509.1233,721.1316
509.6054,728.6309
510.0876,735.1067
510.5697,732.9528
511.0518,723.458
511.5339,715.1113
512.0161,714.8411
512.4982,719.5634
512.9803,719.9922
513.4624,714.9501
513.9445,713.1697
514.4266,721.0854
514.9088,730.7568
515.3909,730.944
515.873,720.828
516.3551,712.3656
516.8372,710.9405
517.3193,711.4272
517.8015,708.475
518.2836,702.8289
518.7657,698.3393
519.2478,696.9468
519.7299,698.4776
520.212,703.0287
520.6942,715.3061
521.1763,721.4607
521.6584,717.1468
522.1405,711.5432
522.6226,710.6952
523.1047,712.6432
523.5869,710.6335
524.069,699.035
524.5511,686.3324
525.0332,689.6572
525.5153,708.8653
525.9974,720.3565
526.4796,716.2697
526.9617,706.4875
527.4438,700.2028
527.9259,697.1051
528.408,696.1479
528.8901,700.081
529.3723,703.2656
529.8544,701.1222
530.3365,696.0571
530.8186,692.8841
531.3007,693.2245
531.7828,695.2466
532.265,696.4065
532.7471,696.4424
533.2292,697.3296
533.7113,701.5203
534.1934,703.6647
534.6755,700.5912
535.1577,695.1463
535.6398,690.7344
536.1219,688.176
536.604,688.0556
537.0861,693.9066
537.5682,702.7403
538.0504,703.6942
538.5325,694.6918
539.0146,683.9404
539.4967,676.4493
539.9788,672.0903
540.4609,670.1167
540.9431,671.4376
541.4252,673.5682
541.9073,676.1051
542.3894,679.1605
542.8715,684.2426
543.3536,690.4951
543.8358,693.7065
544.3179,689.8201
544.8,680.8879
545.2821,676.1766
545.7642,677.2531
546.2463,678.2531
546.7285,676.7694
547.2106,675.4128
547.6927,677.2836
548.1748,681.9734
548.6569,684.268
549.139,679.2952
549.6211,672.6128
550.1032,670.7096
550.5853,672.703
551.0674,674.3638
551.5496,674.0338
552.0317,672.5024
552.5138,671.0536
552.9959,669.9023
553.478,668.0575
553.9601,662.8992
554.4423,659.9225
554.9244,663.9059
555.4065,670.7292
555.8886,673.7895
556.3707,670.6237
556.8528,664.7099
557.335,659.2646
557.8171,654.4592
558.2992,652.0416
558.7813,652.8036
559.2634,653.8929
559.7455,652.6766
560.2277,650.5132
560.7098,651.9384
561.1919,661.6868
561.674,666.7955
562.1561,657.9319
562.6382,645.6434
563.1204,641.3428
563.6025,645.6233
564.0846,652.8279
564.5667,659.5104
565.0488,664.7748
565.5309,664.595
566.0131,656.2424
566.4952,649.336
566.9773,644.322
567.4594,642.3347
567.9415,646.3175
568.4236,654.6949
568.9058,660.5165
569.3879,659.7593
569.87,656.1788
570.3521,652.349
570.8342,648.7704
571.3163,648.0113
571.7985,651.184
572.2806,653.9724
572.7627,650.6871
573.2448,640.333
573.7269,633.2305
574.209,630.2133
574.6912,629.1845
575.1733,630.7154
575.6554,633.3987
576.1375,636.0497
576.6196,638.297
577.1017,639.8057
577.5839,639.9891
578.066,639.1976
578.5481,638.8707
579.0302,639.2047
579.5123,638.2687
579.9944,634.3706
580.4766,629.405
580.9587,627.3718
581.4408,628.9948
581.9229,629.8522
582.405,629.1483
582.8871,627.6793
583.3693,625.3491
583.8514,622.7573
584.3335,621.1051
584.8156,620.9645
585.2977,621.4489
585.7798,620.7206
586.262,618.491
586.7441,618.8467
587.2262,624.0552
587.7083,628.4473
588.1904,628.1259
588.6725,625.0554
589.1547,622.1743
589.6368,619.7136
590.1189,617.8502
590.601,617.7734
591.0831,617.7384
591.5652,614.2145
592.0474,607.8676
592.5295,603.8114
593.0116,605.5693
593.4937,611.682
593.9758,618.3986
594.4579,628.465
594.9401,632.5179
595.4222,625.6838
595.9043,616.2313
596.3864,605.9556
596.8685,596.3691
597.3506,590.9363
597.8328,592.7551
598.3149,595.5997
598.797,592.2505
599.2791,585.6684
599.7612,584.1833
600.2433,589.4102
600.7255,596.1196
601.2076,600.3153
601.6897,602.0187
602.1718,601.3629
602.6539,595.1724
603.136,590.9514
603.6182,590.8356
604.1003,591.6129
604.5824,591.15
605.0645,589.307
605.5466,586.686
606.0287,582.9962
606.5109,579.5651
606.993,578.324
607.4751,579.1746
607.9572,582.1618
608.4393,588.2578
608.9214,592.6152
609.4036,589.2949
609.8857,578.2541
610.3678,572.1022
610.8499,576.2655
611.332,577.9865
611.8141,568.3194
612.2963,558.5674
612.7784,563.9427
613.2605,583.216
613.7426,598.7372
614.2247,595.0952
614.7068,579.991
615.189,572.6117
615.6711,573.3132
616.1532,573.6885
616.6353,571.1122
617.1174,567.787
617.5995,566.564
618.0817,567.4918
618.5638,566.5079
619.0459,562.7612
619.528,557.893
620.0101,549.904
620.4922,542.4537
620.9744,540.7976
621.4565,545.3824
621.9386,551.6811
622.4207,556.3425
622.9028,559.1616
623.3849,558.2878
623.8671,552.6927
624.3492,549.4012
624.8313,550.6483
625.3134,554.9623
625.7955,563.523
626.2776,576.0056
626.7598,579.6831
627.2419,563.6764
627.724,548.3255
628.2061,545.4222
628.6882,549.085
629.1703,550.6008
629.6525,547.8931
630.1346,544.0742
630.6167,541.9554
631.0988,541.3828
631.5809,541.6898
632.063,543.2323
632.5452,544.2213
633.0273,543.6499
633.5094,542.7488
633.9915,543.1833
634.4736,544.8531
634.9557,545.6115
635.4379,546.0613
635.92,544.4124
636.4021,536.0462
636.8842,526.2545
637.3663,524.5144
637.8484,532.3304
638.3306,541.8263
638.8127,545.1699
639.2948,543.3564
639.7769,542.287
640.259,542.0898
640.7411,542.1169
641.2233,541.641
641.7054,541.8712
642.1875,545.844
642.6696,552.9313
643.1517,554.5343
643.6339,541.5266
644.116,530.4588
644.5981,533.0005
645.0802,542.3349
645.5623,547.6271
646.0444,546.825
646.5266,546.0266
647.0087,552.157
647.4908,562.2828
647.9729,560.6086
648.455,543.1543
648.9371,529.944
649.4193,527.1728
649.9014,529.2551
650.3835,531.8829
650.8656,534.8654
651.3477,536.8001
651.8298,535.545
652.312,535.3694
652.7941,540.1547
653.2762,546.3049
653.7583,548.3391
654.2404,545.921
654.7225,543.6323
655.2047,545.6832
655.6868,549.9965
656.1689,548.7366
656.651,540.5573
657.1331,535.1472
657.6152,535.0146
658.0974,537.5018
658.5795,541.8078
659.0616,547.136
659.5437,549.5946
660.0258,546.1758
660.5079,543.1641
660.9901,544.3514
661.4722,545.9393
661.9543,542.892
662.4364,535.8197
662.9185,529.6849
663.4006,527.858
663.8828,528.7776
664.3649,529.1838
664.847,529.048
665.3291,529.3516
665.8112,530.2962
666.2933,531.7158
666.7755,534.945
667.2576,538.5336
667.7397,536.3962
668.2218,522.2861
668.7039,512.6525
669.186,513.9573
669.6682,518.1873
670.1503,519.3275
670.6324,517.749
671.1145,516.9785
671.5966,519.0552
672.0787,520.4341
672.5609,513.8344
673.043,501.0073
673.5251,495.2405
674.0072,498.597
674.4893,504.4911
674.9714,510.2712
675.4536,514.9907
675.9357,515.9449
676.4178,511.2686
676.8999,506.8486
677.382,502.9649
677.8641,499.2221
678.3463,494.6331
678.8284,490.3296
679.3105,488.8188
679.7926,490.8925
680.2747,492.6068
680.7568,489.4624
681.239,483.4084
681.7211,479.0711
682.2032,476.5899
682.6853,474.6098
683.1674,472.7664
683.6495,470.339
684.1317,465.6159
684.6138,457.2561
685.0959,453.821
685.578,461.2143
686.0601,466.4391
686.5422,465.3229
687.0244,461.1623
687.5065,457.3849
687.9886,454.4026
688.4707,450.6642
688.9528,442.6795
689.4349,435.4787
689.9171,436.3465
690.3992,442.775
690.8813,447.8816
691.3634,449.7241
691.8455,448.3993
692.3276,443.2692
692.8098,435.1655
693.2919,431.8391
693.774,435.4928
694.2561,439.1112
694.7382,443.723
695.2203,445.7548
695.7025,441.15
696.1846,431.6648
696.6667,423.9859
697.1488,420.7165
697.6309,418.1536
698.113,412.8853
698.5952,408.0599
699.0773,409.5098
699.5594,416.0142
700.0415,419.95
700.5236,416.494
701.0057,408.4395
701.4879,400.0717
701.97,391.0738
702.4521,389.0898
702.9342,398.034
703.4163,405.6815
703.8984,404.2241
704.3806,396.7517
704.8627,390.5544
705.3448,385.6493
705.8269,381.8261
706.309,378.3247
706.7911,376.6023
707.2733,380.1306
707.7554,385.1617
708.2375,384.382
708.7196,375.916
709.2017,367.5215
709.6838,368.764
710.166,375.1221
710.6481,374.6471
711.1302,367.5145
711.6123,358.869
712.0944,349.8186
712.5765,343.0866
713.0587,342.8178
713.5408,349.4819
714.0229,352.5836
714.505,350.3694
714.9871,346.8377
715.4692,340.872
715.9514,335.2105
716.4335,331.8993
716.9156,330.9595
717.3977,331.6644
717.8798,335.3175
718.3619,338.2182
718.8441,337.1116
719.3262,333.3758
719.8083,328.8148
720.2904,323.9684
720.7725,319.4518
721.2546,315.5931
721.7368,312.7892
722.2189,312.7714
722.701,316.3974
723.1831,316.3892
723.6652,309.823
724.1473,304.3368
724.6295,305.7399
725.1116,310.5089
725.5937,311.2049
726.0758,306.5201
726.5579,302.2411
727.04,299.4759
727.5222,297.3236
728.0043,295.5215
728.4864,293.8456
728.9685,291.8368
729.4506,289.4583
729.9327,287.5719
730.4149,288.2749
730.897,289.4978
731.3791,284.9725
731.8612,275.5663
732.3433,269.9307
732.8254,270.8825
733.3076,274.2598
733.7897,276.1013
734.2718,276.4472
734.7539,275.9304
735.236,274.9456
735.7181,272.3792
736.2003,265.4283
736.6824,259.3829
737.1645,258.4131
737.6466,260.9469
738.1287,262.5027
738.6108,261.9332
739.093,260.1105
739.5751,256.9603
740.0572,253.1964
740.5393,248.918
741.0214,244.7889
741.5035,242.781
741.9857,243.852
742.4678,245.9949
742.9499,246.3034
743.432,244.9235
743.9141,244.1712
744.3962,244.3784
744.8784,243.3177
745.3605,239.3872
745.8426,234.8788
746.3247,233.1221
746.8068,234.5279
747.2889,234.8204
747.7711,233.7075
748.2532,231.9356
748.7353,228.789
749.2174,225.7124
749.6995,224.4895
750.1816,224.6674
750.6638,223.7992
751.1459,219.9274
751.628,216.1543
752.1101,215.8871
752.5922,217.5585
753.0743,218.3432
753.5565,217.9292
754.0386,217.0867
754.5207,216.2453
755.0028,215.405
755.4849,214.4438
755.967,213.2744
756.4492,213.2176
756.9313,215.5628
757.4134,215.6985
757.8955,210.2627
758.3776,202.5233
758.8597,197.1964
759.3419,194.3263
759.824,192.7772
760.3061,193.6112
760.7882,194.3781
761.2703,193.8512
761.7524,192.9956
762.2346,193.5682
762.7167,195.1249
763.1988,194.6867
763.6809,189.5754
764.163,183.5184
764.6451,180.7784
765.1273,180.4448
765.6094,180.4963
766.0915,180.5729
766.5736,180.4926
767.0557,180.1124
767.5378,179.6501
768.02,179.8685
768.5021,181.1829
768.9842,180.2848
769.4663,175.3448
769.9484,172.0292
770.4305,173.3739
770.9127,177.3129
771.3948,181.8147
771.8769,187.2342
772.359,188.803
772.8411,182.8285
773.3232,176.6514
773.8054,173.4023
774.2875,171.169
774.7696,166.8827
775.2517,161.1843
775.7338,158.3893
776.2159,161.8621
776.6981,167.0675
777.1802,170.0059
777.6623,170.5339
778.1444,167.1819
778.6265,160.4137
779.1086,154.2729
779.5908,150.9334
780.0729,150.3127
780.555,152.9785
781.0371,159.4449
781.5192,164.1903
782.0013,167.6204
782.4835,168.117
782.9656,163.4985
783.4477,157.1128
783.9298,153.1463
784.4119,151.6326
784.894,150.5327
785.3762,149.5865
785.8583,149.2872
786.3404,150.7312
786.8225,152.1161
787.3046,151.4062
787.7867,149.1942
788.2689,147.9252
788.751,148.9185
789.2331,150.1295
789.7152,150.0384
790.1973,148.9404
790.6794,147.2366
791.1616,144.9774
791.6437,141.7797
792.1258,137.4509
792.6079,133.651
793.09,132.887
793.5721,134.8226
794.0543,136.2821
794.5364,137.3528
795.0185,137.054
795.5006,134.0307
795.9827,131.9695
796.4648,135.5821
796.947,143.986
797.4291,147.5558
797.9112,142.1432
798.3933,137.7574
798.8754,135.051
799.3575,133.2564
799.8397,132.1138
800.3218,131.5123
800.8039,131.4362
801.286,131.9915
801.7681,132.2984
802.2502,131.8848
802.7324,131.0553
803.2145,129.8997
803.6966,128.5973
804.1787,127.4342
804.6608,126.4812
805.1429,125.5558
805.6251,124.2881
806.1072,123.2416
806.5893,123.9353
807.0714,126.1246
807.5535,128.0083
808.0356,129.2929
808.5178,130.1837
808.9999,130.9179
809.482,131.152
809.9641,129.8199
810.4462,126.1737
810.9283,123.6994
811.4105,122.8147
811.8926,122.4091
812.3747,122.1128
812.8568,122.0588
813.3389,122.7398
813.821,124.1395
814.3032,124.3964
814.7853,121.2657
815.2674,119.4631
815.7495,122.4587
816.2316,126.0234
816.7137,126.2946
817.1959,123.5807
817.678,119.817
818.1601,115.377
818.6422,112.1571
819.1243,111.9771
819.6064,113.9011
820.0886,117.8896
820.5707,122.7268
821.0528,124.0008
821.5349,120.3121
822.017,115.9498
822.4991,115.8935
822.9813,118.9566
823.4634,120.0211
823.9455,119.0084
824.4276,117.4207
824.9097,115.1118
825.3918,114.2992
825.874,117.43
826.3561,122.754
826.8382,124.1445
827.3203,119.071
827.8024,115.9164
828.2845,116.1855
828.7667,116.5474
829.2488,115.6
829.7309,114.2209
830.213,113.2269
830.6951,112.6874
831.1772,113.1937
831.6594,116.4264
832.1415,118.8502
832.6236,117.9037
833.1057,116.1688
833.5878,116.7772
834.0699,119.1004
834.5521,119.981
835.0342,117.7374
835.5163,115.297
835.9984,115.413
836.4805,117.072
836.9626,119.053
837.4448,121.0509
837.9269,122.3473
838.409,122.7239
838.8911,122.8387
839.3732,123.616
839.8553,124.4793
840.3375,122.3848
840.8196,117.2159
841.3017,115.9129
841.7838,120.6132
842.2659,124.6644
842.748,123.2688
843.2302,118.5091
843.7123,115.629
844.1944,115.1936
844.6765,114.7455
845.1586,114.0924
845.6407,113.7137
846.1229,113.9006
846.605,114.3482
847.0871,114.7108
847.5692,115.0166
848.0513,115.6695
848.5334,117.7805
849.0156,118.8184
849.4977,116.1922
849.9798,113.9417
850.4619,116.9217
850.944,122.383
851.4261,123.465
851.9083,117.7766
852.3904,112.3732
852.8725,111.7631
853.3546,113.8232
853.8367,118.1007
854.3188,122.7413
854.801,123.8193
855.2831,120.9632
855.7652,117.32
856.2473,115.0639
856.7294,113.7216
857.2115,112.2769
857.6937,110.9889
858.1758,111.2912
858.6579,113.2639
859.14,115.2115
859.6221,116.3274
860.1042,117.266
860.5864,119.171
861.0685,121.9434
861.5506,123.0184
862.0327,122.0658
862.5148,120.5256
862.9969,118.0017
863.4791,116.3683
863.9612,117.6658
864.4433,120.8719
864.9254,122.248
865.4075,120.9129
865.8896,119.5809
866.3718,117.1322
866.8539,116.0108
867.336,118.8524
867.8181,122.3307
868.3002,121.9488
868.7823,117.8204
869.2645,115.5025
869.7466,118.1462
870.2287,120.5965
870.7108,120.5752
871.1929,119.7842
871.675,119.6247
872.1572,119.999
872.6393,120.3278
873.1214,120.4202
873.6035,120.43
874.0856,120.516
874.5677,120.5391
875.0499,119.7626
875.532,118.9745
876.0141,120.2973
876.4962,123.7111
876.9783,126.7674
877.4604,127.8864
877.9426,127.4766
878.4247,125.8846
878.9068,123.3182
879.3889,119.7898
879.871,115.6041
880.3531,114.5761
880.8353,118.4752
881.3174,122.4639
881.7995,120.138
882.2816,113.0445
882.7637,111.4604
883.2458,116.1714
883.728,120.8664
884.2101,125.0116
884.6922,127.2325
885.1743,125.9318
885.6564,122.9034
886.1385,122.2426
886.6207,124.8277
887.1028,125.7207
887.5849,123.0553
888.067,121.7219
888.5491,123.8349
889.0313,127.0511
889.5134,130.0772
889.9955,132.597
890.4776,133.0646
890.9597,129.0413
891.4418,127.195
891.924,131.1397
892.4061,134.5184
892.8882,132.5576
893.3703,128.7526
893.8524,128.5912
894.3345,132.4574
894.8167,134.9854
895.2988,132.848
895.7809,130.2727
896.263,128.8665
896.7451,128.6401
897.2272,130.4084
897.7094,133.2395
898.1915,134.639
898.6736,133.6971
899.1557,133.2355
899.6378,136.9527
900.1199,141.2419
900.6021,140.9605
901.0842,137.9822
901.5663,136.477
902.0484,136.9855
902.5305,137.3265
903.0126,136.0157
903.4948,134.6806
903.9769,136.5222
904.459,140.1696
904.9411,140.6765
905.4232,138.3737
905.9053,137.4693
906.3875,139.3244
906.8696,141.9229
907.3517,143.4506
907.8338,144.022
908.3159,143.8535
908.798,142.9398
909.2802,141.9293
909.7623,140.7098
910.2444,141.0656
910.7265,144.3653
911.2086,148.071
911.6907,148.2492
912.1729,144.9618
912.655,143.6073
913.1371,145.272
913.6192,145.178
914.1013,141.145
914.5834,137.7631
915.0656,137.9618
915.5477,140.9803
916.0298,145.7538
916.5119,154.3486
916.994,156.7672
917.4761,144.722
917.9583,138.2482
918.4404,147.2517
918.9225,158.9604
919.4046,163.1935
919.8867,161.6746
920.3688,161.347
920.851,163.6667
921.3331,165.1035
921.8152,164.1789
922.2973,163.3952
922.7794,164.7692
923.2615,166.3528
923.7437,165.203
924.2258,161.6407
924.7079,159.5879
925.19,161.2247
925.6721,162.8818
926.1542,162.4534
926.6364,162.0377
927.1185,164.2994
927.6006,167.3835
928.0827,167.2218
928.5648,163.3151
929.0469,160.8152
929.5291,162.9413
930.0112,167.1088
930.4933,173.5565
930.9754,179.4784
931.4575,180.4976
931.9396,177.8561
932.4218,175.7762
932.9039,175.7991
933.386,176.7746
933.8681,178.3913
934.3502,179.8566
934.8323,179.6346
935.3145,178.6444
935.7966,178.7842
936.2787,180.2062
936.7608,182.1322
937.2429,184.1831
937.725,185.9908
938.2072,186.6499
938.6893,186.9235
939.1714,188.927
939.6535,192.1866
940.1356,194.6125
940.6177,195.8151
941.0999,197.1184
941.582,199.5905
942.0641,201.9932
942.5462,201.55
943.0283,198.9598
943.5104,197.4758
943.9926,197.3055
944.4747,199.7851
944.9568,205.3993
945.4389,211.1081
945.921,214.3801
946.4031,215.2152
946.8853,212.1364
947.3674,205.1903
947.8495,204.7972
948.3316,212.2706
948.8137,218.5046
949.2958,219.8015
949.778,219.4715
950.2601,221.0927
950.7422,224.348
951.2243,228.198
951.7064,233.3799
952.1885,233.4833
952.6707,226.0582
953.1528,220.5157
953.6349,221.3859
954.117,226.0581
954.5991,231.5631
955.0812,237.7556
955.5634,241.9606
956.0455,243.5754
956.5276,244.917
957.0097,245.8617
957.4918,247.4343
957.9739,250.2848
958.4561,254.0715
958.9382,259.0047
959.4203,265.5815
959.9024,265.9388
960.3845,255.0818
960.8666,247.937
961.3488,246.4639
961.8309,249.6504
962.313,260.9323
962.7951,274.405
963.2772,277.2954
963.7593,266.5092
964.2415,261.719
964.7236,267.0213
965.2057,272.3676
965.6878,277.1102
966.1699,280.412
966.652,281.1003
967.1342,280.1143
967.6163,279.0622
968.0984,276.9884
968.5805,278.8787
969.0626,291.0613
969.5447,299.0833
970.0269,296.864
970.509,291.4301
970.9911,284.9097
971.4732,279.8988
971.9553,284.1782
972.4374,303.3629
972.9196,314.1967
973.4017,305.6381
973.8838,298.3843
974.3659,300.6064
974.848,306.4356
975.3301,311.5571
975.8123,315.6683
976.2944,318.93
976.7765,321.3603
977.2586,322.9681
977.7407,323.4243
978.2228,323.4477
978.705,321.3885
979.1871,320.5688
979.6692,325.9658
980.1513,335.546
980.6334,341.5209
981.1155,341.1011
981.5977,340.5157
982.0798,342.834
982.5619,344.0034
983.044,339.0331
983.5261,333.9467
984.0082,336.0993
984.4904,344.4221
984.9725,352.7709
985.4546,360.6156
985.9367,365.1608
986.4188,360.746
986.9009,358.0332
987.3831,366.6428
987.8652,378.1065
988.3473,381.5759
988.8294,377.8548
989.3115,375.3539
989.7936,376.6838
990.2758,379.1702
990.7579,382.9547
991.24,386.1939
991.7221,386.5195
992.2042,386.3917
992.6863,389.6334
993.1685,395.5781
993.6506,399.412
994.1327,398.1854
994.6148,398.669
995.0969,405.9875
995.579,413.7662
996.0612,417.1469
996.5433,418.7221
997.0254,421.9901
997.5075,427.0312
997.9896,432.2592
998.4717,438.2644
998.9539,440.9542
999.436,434.7473
999.9181,428.5255
1000.4,428.4869
1000.882,432.1466
1001.364,436.2559
1001.847,440.5367
1002.329,446.5913
1002.811,456.6161
1003.293,463.2949
1003.775,459.222
1004.257,454.965
1004.739,459.079
1005.221,466.4654
1005.703,469.2686
1006.186,468.4638
1006.668,472.6176
1007.15,487.6218
1007.632,497.3202
1008.114,487.5429
1008.596,477.5635
1009.078,481.0953
1009.56,490.8285
1010.043,498.9193
1010.525,504.0508
1011.007,506.2671
1011.489,504.9006
1011.971,503.2218
1012.453,498.8908
1012.935,498.9327
1013.417,513.7333
1013.899,530.7745
1014.382,533.795
1014.864,525.8817
1015.346,522.3766
1015.828,528.0467
1016.31,535.738
1016.792,544.8856
1017.274,552.7874
1017.756,558.1602
1018.239,561.4137
1018.721,561.8137
1019.203,560.6208
1019.685,561.0705
1020.167,563.9765
1020.649,568.1804
1021.131,574.5242
1021.613,580.5966
1022.095,583.1847
1022.578,586.8076
1023.06,599.0098
1023.542,615.0656
1024.024,622.2299
1024.506,616.9688
1024.988,610.6763
1025.47,602.916
1025.952,599.053
1026.435,602.0887
1026.917,608.9415
1027.399,618.2598
1027.881,629.1034
1028.363,641.4268
1028.845,656.2159
1029.327,663.4022
1029.809,652.0814
1030.292,645.5398
1030.774,653.4432
1031.256,664.6567
1031.738,672.2609
1032.22,677.5837
1032.702,683.7634
1033.184,691.1873
1033.666,697.0832
1034.148,700.3884
1034.63,703.2589
1035.113,704.488
1035.595,707.0581
1036.077,713.3986
1036.559,721.6716
1037.041,729.5076
1037.523,736.9127
1038.005,742.8002
1038.487,745.3937
1038.97,749.3457
1039.452,756.2312
1039.934,762.8018
1040.416,766.2543
1040.898,769.8551
1041.38,779.0404
1041.862,792.8069
1042.344,799.6077
1042.826,793.1415
1043.309,793.6931
1043.791,804.9221
1044.273,817.7175
1044.755,829.4669
1045.237,840.6203
1045.719,852.0203
1046.201,863.2155
1046.683,872.0737
1047.166,878.0301
1047.648,883.7047
1048.13,888.9254
1048.612,894.2874
1049.094,899.5428
1049.576,906.4711
1050.058,917.8917
1050.54,930.2783
1051.022,932.8196
1051.505,923.9028
1051.987,921.6444
1052.469,927.0712
1052.951,932.5349
1053.433,935.8724
1053.915,941.6577
1054.397,953.8391
1054.879,967.6391
1055.361,973.5154
1055.844,972.4297
1056.326,976.8669
1056.808,986.8212
1057.29,993.5486
1057.772,995.5503
1058.254,994.6188
1058.736,991.3078
1059.218,990.0432
1059.701,997.5428
1060.183,1011.067
1060.665,1022.088
1061.147,1030.72
1061.629,1036.533
1062.111,1039.988
1062.593,1045.202
1063.075,1053.645
1063.557,1060.824
1064.04,1061.536
1064.522,1059.963
1065.004,1064.072
1065.486,1071.774
1065.968,1078.216
1066.45,1083.358
1066.932,1089.292
1067.414,1096.15
1067.896,1100.279
1068.379,1098.34
1068.861,1095.869
1069.343,1097.007
1069.825,1103.076
1070.307,1122.191
1070.789,1145.149
1071.271,1151.734
1071.753,1142.539
1072.236,1135.045
1072.718,1136.881
1073.2,1143.219
1073.682,1152.363
1074.164,1162.592
1074.646,1175.413
1075.128,1186.384
1075.61,1188.368
1076.093,1184.106
1076.575,1180.932
1077.057,1180.643
1077.539,1185.948
1078.021,1202.973
1078.503,1219.305
1078.985,1228.575
1079.467,1235.725
1079.949,1244.364
1080.432,1253.762
1080.914,1262.934
1081.396,1271.57
1081.878,1277.378
1082.36,1276.405
1082.842,1278.067
1083.324,1284.404
1083.806,1292.895
1084.288,1304.016
1084.771,1315.512
1085.253,1323.454
1085.735,1329.302
1086.217,1340.825
1086.699,1361.962
1087.181,1378.086
1087.663,1387.354
1088.145,1395.323
1088.628,1404.045
1089.11,1409.93
1089.592,1406.922
1090.074,1403.585
1090.556,1420.527
1091.038,1458.794
1091.52,1486.378
1092.002,1502.339
1092.484,1511.307
1092.967,1512.824
1093.449,1515.104
1093.931,1522.128
1094.413,1533.574
1094.895,1550.59
1095.377,1569.87
1095.859,1577.333
1096.341,1574.765
1096.823,1574.221
1097.306,1577.291
1097.788,1589.67
1098.27,1612.401
1098.752,1632.661
1099.234,1639.215
1099.716,1641.96
1100.198,1657.823
1100.68,1679.984
1101.163,1693.458
1101.645,1701.544
1102.127,1714.165
1102.609,1732.163
1103.091,1751.169
1103.573,1769.207
1104.055,1784.136
1104.537,1790.615
1105.02,1796.859
1105.502,1813.852
1105.984,1832.386
1106.466,1835.248
1106.948,1832.072
1107.43,1848.561
1107.912,1888.912
1108.394,1924.818
1108.876,1943.682
1109.359,1957.746
1109.841,1963.73
1110.323,1974.925
1110.805,2007.237
1111.287,2043.94
1111.769,2064.661
1112.251,2070.372
1112.733,2072.258
1113.215,2066.052
1113.698,2068.984
1114.18,2087.104
1114.662,2105.206
1115.144,2117.442
1115.626,2132.636
1116.108,2157.808
1116.59,2188.908
1117.072,2220.098
1117.555,2251.464
1118.037,2267.073
1118.519,2261.051
1119.001,2275.985
1119.483,2321.273
1119.965,2357.518
1120.447,2367.373
1120.929,2366.44
1121.411,2368.218
1121.894,2377.031
1122.376,2413.109
1122.858,2467.168
1123.34,2485.553
1123.822,2473.552
1124.304,2471.916
1124.786,2489.498
1125.268,2514.016
1125.75,2538.647
1126.233,2563.695
1126.715,2588.513
1127.197,2614.38
1127.679,2647.62
1128.161,2680.308
1128.643,2698.355
1129.125,2704.845
1129.607,2706.886
1130.09,2708.466
1130.572,2726.001
1131.054,2781.156
1131.536,2830.392
1132.018,2842.869
1132.5,2851.072
1132.982,2878.911
1133.464,2914.146
1133.947,2939.476
1134.429,2957.336
1134.911,2985.06
1135.393,3033.335
1135.875,3061.614
1136.357,3042.641
1136.839,3039.236
1137.321,3068.969
1137.803,3106.341
1138.286,3137.298
1138.768,3167.692
1139.25,3207.994
1139.732,3256.044
1140.214,3292.146
1140.696,3315.355
1141.178,3333.98
1141.66,3348.057
1142.142,3361.886
1142.625,3376.186
1143.107,3402.006
1143.589,3449.844
1144.071,3504.521
1144.553,3537.102
1145.035,3555.987
1145.517,3585.284
1145.999,3623.207
1146.482,3666.629
1146.964,3712.325
1147.446,3749.373
1147.928,3774.551
1148.41,3804.698
1148.892,3855.517
1149.374,3910.782
1149.856,3961.6
1150.339,4004.063
1150.821,4025.167
1151.303,4040.576
1151.785,4076.262
1152.267,4129.796
1152.749,4175.919
1153.231,4203.116
1153.713,4244.001
1154.195,4323.782
1154.677,4394.12
1155.16,4434.483
1155.642,4467.673
1156.124,4505.489
1156.606,4546.647
1157.088,4588.094
1157.57,4630.501
1158.052,4681.824
1158.534,4742.377
1159.017,4811.535
1159.499,4890.743
1159.981,4968.014
1160.463,5040.087
1160.945,5108.716
1161.427,5177.079
1161.909,5236.364
1162.391,5262.379
1162.874,5271.469
1163.356,5318.585
1163.838,5396.72
1164.32,5490.199
1164.802,5590.944
1165.284,5679.047
1165.766,5749.742
1166.248,5819.908
1166.73,5903.402
1167.213,5983.513
1167.695,6031.388
1168.177,6085.394
1168.659,6192.564
1169.141,6316.628
1169.623,6406.751
1170.105,6472.854
1170.587,6559.029
1171.069,6676.136
1171.552,6787.856
1172.034,6892.622
1172.516,6984.865
1172.998,7049.281
1173.48,7122.476
1173.962,7221.319
1174.444,7333.532
1174.926,7447.652
1175.409,7563.778
1175.891,7680.051
1176.373,7796.004
1176.855,7920.494
1177.337,8054.245
1177.819,8178.854
1178.301,8291.716
1178.783,8421.309
1179.266,8581.824
1179.748,8737.61
1180.23,8842.798
1180.712,8932.713
1181.194,9066.613
1181.676,9222.835
1182.158,9363.218
1182.64,9493.822
1183.122,9626.607
1183.604,9768.594
1184.087,9939.444
1184.569,10153.05
1185.051,10339.83
1185.533,10431.41
1186.015,10539.2
1186.497,10721.63
1186.979,10925.12
1187.461,11124.35
1187.944,11313.9
1188.426,11491.15
1188.908,11656.22
1189.39,11796.5
1189.872,11883.1
1190.354,12060.0
1190.836,12355.88
1191.318,12613.03
1191.801,12790.97
1192.283,12964.09
1192.765,13174.16
1193.247,13395.42
1193.729,13594.9
1194.211,13784.89
1194.693,13998.31
1195.175,14228.12
1195.657,14458.76
1196.14,14689.02
1196.622,14915.19
1197.104,15140.86
1197.586,15388.05
1198.068,15669.92
1198.55,15937.24
1199.032,16144.45
1199.514,16347.45
1199.996,16575.18
1200.479,16815.63
1200.961,17067.76
1201.443,17321.11
1201.925,17554.39
1202.407,17772.5
1202.889,18023.34
1203.371,18317.66
1203.853,18607.37
1204.336,18889.64
1204.818,19181.32
1205.3,19496.12
1205.782,19771.12
1206.264,19964.38
1206.746,20149.28
1207.228,20415.82
1207.71,20735.15
1208.193,21049.66
1208.675,21352.07
1209.157,21607.06
1209.639,21830.93
1210.121,22064.31
1210.603,22314.86
1211.085,22577.39
1211.567,22851.75
1212.049,23097.71
1212.531,23273.34
1213.014,23439.58
1213.496,23626.71
1213.978,23818.12
1214.46,23995.57
1214.942,24174.62
1215.424,24393.94
1215.906,24629.55
1216.388,24789.77
1216.871,24857.94
1217.353,24954.83
1217.835,25091.6
1218.317,25213.71
1218.799,25316.28
1219.281,25380.62
1219.763,25396.75
1220.245,25409.9
1220.728,25467.02
1221.21,25523.32
1221.692,25481.68
1222.174,25392.65
1222.656,25361.52
1223.138,25364.92
1223.62,25368.19
1224.102,25352.06
1224.584,25274.86
1225.067,25132.54
1225.549,25005.14
1226.031,24939.86
1226.513,24870.33
1226.995,24781.5
1227.477,24674.84
1227.959,24544.18
1228.441,24401.21
1228.923,24250.58
1229.406,24094.98
1229.888,23934.42
1230.37,23771.52
1230.852,23659.66
1231.334,23603.31
1231.816,23472.11
1232.298,23262.64
1232.78,23072.48
1233.263,22927.24
1233.745,22811.82
1234.227,22718.3
1234.709,22618.32
1235.191,22468.53
1235.673,22312.79
1236.155,22194.9
1236.637,22100.48
1237.12,22008.99
1237.602,21933.59
1238.084,21905.62
1238.566,21916.46
1239.048,21922.2
1239.53,21918.11
1240.012,21897.65
1240.494,21831.77
1240.976,21808.46
1241.458,21844.41
1241.941,21908.32
1242.423,21989.11
1242.905,22087.0
1243.387,22201.96
1243.869,22334.63
