Raman Shift,Intensity
214.3785040343428,-157.444
224.78145843945092,-96.067
235.01908334044856,45.365
245.41130867789616,-5.337
255.63837774522108,48.034
265.8602158678186,-13.343
276.23642015571386,50.702
286.44772684514464,72.051
296.8132434111685,122.753
307.0140349346475,-29.354
317.209615658554,2.669
327.399989574551,45.365
337.7442627077253,104.073
347.9241537664129,-48.034
358.09885002992814,120.084
368.2683554736213,-290.871
378.5914504125685,34.691
388.7505051753542,0.0
398.90438108190574,-29.354
409.0530820913264,-149.438
419.196612158652,-37.36
429.3349752349313,69.382
439.626465572117,40.028
449.75442592354375,130.759
459.8772311743669,157.444
469.994885259468,85.393
480.1073921097559,205.478
490.2147556521086,253.511
500.31697980943136,389.607
510.41406850063504,330.899
520.5060256406359,493.68
530.5928551403995,434.972
540.6745609068894,261.517
550.7511468431039,656.461
560.8226168481124,229.495
570.888974816975,298.877
580.9502246408374,226.826
590.8492821665859,453.652
600.9004070215597,376.264
610.9464353206786,453.652
620.9873709393651,629.776
631.0232177491416,1302.248
641.0539796175653,1854.636
650.9230482019848,2262.923
660.9437310766662,1827.951
670.9593405290361,781.883
680.9698804110958,651.124
690.8190579752118,635.113
700.8195493193562,424.298
710.8149825658329,365.59
720.805361551138,312.219
730.6347081696804,354.916
740.6150689503047,378.933
750.4345613154874,245.506
760.404918953056,298.877
770.3702413346182,461.658
780.174941402227,499.017
790.1302832356378,512.36
799.925166080895,384.27
809.8705423523497,603.09
819.6556227125038,458.989
829.5910483782136,520.366
839.3663409610526,298.877
849.2918309472952,581.742
859.0573504311833,531.04
868.972919634427,378.933
878.7286806683987,216.152
888.6343439553166,336.236
898.3803611591502,266.854
908.12155022542,317.556
918.0124213310264,453.652
927.743888384779,381.601
937.4705381077074,373.596
947.3466501411676,362.922
957.0635996041163,416.292
966.7757425107702,296.208
976.6371284824854,499.017
986.3395928168538,699.158
996.0372613373548,1088.765
1005.7301375988682,1894.664
1015.5719657306544,1627.81
1025.255192198514,1251.546
1034.9336371072422,595.085
1044.6073039976543,664.467
1054.2761964070742,667.135
1063.9403178693246,373.596
1073.5996719147442,571.068
1083.4074711432768,448.315
1093.057225399156,453.652
1102.70222286418,218.82
1112.3424670547538,496.349
1121.9779614837898,322.893
1131.6087096607444,656.461
1141.2347150916105,466.995
1150.855981278939,298.877
1160.4725117218331,301.545
1170.0843099159465,381.601
1179.6913793534914,282.865
1189.293723523253,229.495
1198.739039559725,493.68
1208.3320185130287,381.601
1217.9202825891407,720.506
1227.5038352631818,298.877
1237.0826800068826,437.641
1246.6568202885535,394.944
1256.226259573108,274.86
1265.639216696829,290.871
1275.1993388504195,-74.719
1284.7547703264208,37.36
1294.3055145761757,314.888
1303.7000868433097,677.809
1313.241541245312,349.579
1322.778318700337,154.775
1332.310422646282,282.865
1341.686663866676,168.118
1351.2095051416618,282.865
1360.727683146746,232.163
1370.0902294598782,328.231
1379.5991650801443,256.18
1388.9526223370776,256.18
1398.4523290278594,176.124
1407.7967104575073,88.062
1417.287201648047,160.112
1426.7730533080105,805.899
1436.1038095471376,282.865
1445.5804658554116,328.231
1454.9021792800197,426.967
1464.369653600741,226.826
1473.6823373500883,-106.742
1482.9905472474493,304.214
1492.444310209452,277.528
1501.7435100404182,272.191
1511.1881242589734,282.865
1520.4783270994303,104.073
1529.764072276041,165.45
1539.1950247490097,152.107
1548.4717924494323,114.747
1557.7441121511074,288.202
1567.1614324998736,221.489
1576.4247941832873,16.011
1585.6837175051332,301.545
1594.9382056544855,317.556
1604.3374199708342,381.601
1613.5829759239496,194.803
1622.8241063047317,272.191
1632.0608142900164,149.438
1641.2931030535765,365.59
1650.6697762525291,296.208
1659.8931649322622,285.534
1669.1121439444323,280.197
1678.3267164506542,312.219
1687.53688560953,229.495
1696.7426545766284,565.731
1705.9440265045123,240.169
1715.1410045427183,160.112
1724.3335918377925,293.54
1733.5217915332687,208.146
1742.705606769683,336.236
1751.8850406845886,98.736
1761.0600964125188,168.118
1770.230777085024,245.506
1779.397085830693,178.792
1788.55902577511,264.186
1797.7166000408906,162.781
1806.8698117476447,-312.219
1816.0186640120735,344.242
1825.163159947857,173.455
1834.1559155330324,98.736
1843.29177827917,282.865
1852.4232939699289,253.511
1861.550465707216,301.545
1870.673296589972,82.725
1879.644751645923,504.354
1888.758979994156,104.073
1897.8688767172423,0.0
1906.974444902422,200.141
1915.9289277003045,13.343
1925.025917750907,635.113
1934.118588458099,197.472
1943.060390766601,-141.433
1952.144501554074,245.506
1961.2243021666216,104.073
1970.153450902042,69.382
1979.224709758193,16.011
1988.1454604369865,330.899
1997.208189584475,98.736
2006.120554048888,50.702
2015.1747655127983,189.466
2024.0787555828572,133.427
2033.12446136566,200.141
2042.0200888391555,125.421
2051.057300920809,357.585
2059.9445775734057,72.051
2068.9733079113576,149.438
2077.852245496608,173.455
2086.8725060258803,245.506
2095.743116275291,178.792
2104.6096010526526,213.483
2113.6172135316083,181.461
2122.4753884816528,-18.68
2131.329446630596,181.461
2140.324437642892,205.478
2149.170203423979,-69.382
2158.011861050589,112.079
2166.994257105456,162.781
2175.8276397748195,328.231
2184.656922912145,234.832
2193.48210937062,98.736
2202.303202000803,170.787
2211.2647105948345,184.129
2220.077557114586,85.393
2228.886318388424,256.18
2237.6909972563008,42.697
2246.4915965555265,77.388
2255.2881191208,200.141
2264.0805677841927,189.466
2272.8689453751285,258.848
2281.6532547204406,64.045
2290.5774032157133,173.455
2299.353517963282,197.472
2308.125572976198,264.186
2316.893571070781,176.124
2325.6575150607823,114.747
2334.273835606975,154.775
2343.029746164546,85.393
2351.781610997117,352.247
2360.5294329081007,234.832
2369.273214698267,178.792
2378.0129591658333,205.478
2386.7486691064114,216.152
2395.48034731306,192.135
2404.2079965762314,10.674
2412.788641914361,405.618
2421.5083075861257,213.483
2430.2239526247795,34.691
2438.9355798105607,45.365
2447.64319192111,21.348
2456.204142101211,162.781
2464.9037980916983,117.416
2473.5994472792227,205.478
2482.148638712344,61.376
2490.836348166158,293.54
2499.5200590665554,-80.056
2508.0575159626023,181.461
2516.7333034706826,178.792
2525.405100652257,80.056
2533.930847154741,130.759
2542.5947372405863,178.792
2551.112711590584,53.371
2559.768705390503,136.096
2568.2789182109263,184.129
2576.927026515033,122.753
2585.5711635713087,-64.045
2594.069721988235,304.214
2602.5644435408976,208.146
2611.196813145194,168.118
2619.683804921093,40.028
2628.3083212822166,146.77
2636.7875938271245,114.747
2645.404267656864,80.056
2653.875831497382,101.405
2662.343576738021,200.141
2670.948539131641,104.073
2679.408591378582,2.669
2687.8648328054915,162.781
2696.4581076233444,170.787
2704.906671724595,149.438
2713.351432764532,56.039
2721.792393310454,114.747
2730.370143142005,8.006
2738.8034471581705,149.438
2747.232958411034,93.399
2755.658679458633,333.568
2764.220946338093,306.882
2772.639031576786,218.82
2781.053334313052,96.067
2789.463857095703,93.399
2797.8706024712737,122.753
2806.2735729839987,64.045
2814.672771175843,50.702
2823.0681995864725,242.837
2831.459860753297,194.803
2839.847757211428,168.118
2848.231891493713,-56.039
2856.612266130724,-37.36
2864.988883650767,197.472
2873.3617465798743,2.669
2881.7308574418275,106.742
2890.096218758139,178.792
2898.457833048058,192.135
2906.815702828586,272.191
2915.169830614461,85.393
2923.5202189181878,210.815
2931.8668702499926,34.691
2940.209787117892,130.759
2948.41001618022,165.45
2956.7455337723804,248.174
2965.077324369493,253.511
2973.405390470638,202.809
2981.7297345726547,240.169
2989.9117125592966,170.787
2998.2286820744484,448.315
3006.5419370261297,370.927
3014.8514799023105,192.135
3023.0189130185245,413.624
3031.3211009634906,261.517
3039.619584242202,226.826
3047.776149306213,280.197
3056.067292329164,336.236
3064.2166442633534,408.287
3072.500456765243,338.905
3080.780576892153,424.298
3088.919096831967,173.455
3097.1919010483834,434.972
3105.3232317767324,461.658
3113.588729774354,501.686
3121.712880813,493.68
3129.9710822664056,464.326
3138.0880631202745,480.337
3146.338977686973,445.646
3154.448797844241,728.512
3162.692435164703,819.242
3170.7951040967964,667.135
3178.894230970407,667.135
3187.127000956163,928.652
3195.218990740796,771.208
3203.3074454664093,797.894
3211.5293695924192,592.416
3219.610701328027,536.377
3227.688504985643,496.349
3235.899604670318,621.77
3243.9702993997853,624.439
3252.03747301393,539.045
3260.1011278165533,688.484
3268.297848330192,747.191
3276.354412870096,645.787
3284.407465536773,448.315
3292.4570086259846,504.354
3300.5030444314834,720.506
3308.545575245,592.416
3316.720827896272,560.394
3324.756296283769,651.124
3332.788266581294,691.152
3340.816741072602,699.158
3348.8417220394404,509.691
3356.8632117615925,800.562
3364.8812125168406,883.287
3372.895726580995,845.928
3380.906756227865,885.956
3388.91430372934,645.787
3396.918371355256,608.427
3404.9189613735507,771.208
3412.9160760501472,488.343
3420.909717649003,688.484
3428.8998884321263,525.703
3436.886590659553,520.366
3444.734546370892,357.585
3452.714376952972,608.427
3460.690745709508,770.52
3468.663654892749,781.298
3476.633106752961,688.153
3484.5991035384795,538.474
3492.4267178764712,379.657
3500.385869715596,259.085
3508.341573175334,224.157
3516.293830496281,314.888
3524.1079469444667,483.006
3532.0533770164475,437.641
3539.9953676218797,157.444
3547.7993978646555,269.523
3555.734574435446,240.169
3563.666318194715,357.585
3571.460281747888,130.759
3579.385224652753,253.511
3587.30674138396,216.152
3595.090657713052,200.141
3603.00538673612,274.86
3610.782634691175,114.747
3618.6905847266535,282.865
3626.461172873067,272.191
3634.362352626544,149.438
3642.1262895150494,229.495
3650.020707677235,418.961
3657.778001843908,213.483
3665.665667090652,282.865
3673.416327056992,125.421
3681.163701429177,50.702
3689.041282322214,192.135
3696.782035212709,277.528
3704.6528847781447,320.225
3712.3870246721344,104.073
3720.117889469839,133.427
3727.845481251112,112.079
3735.702951367959,381.601
3743.4239470074463,112.079
3751.141675895298,197.472
3758.989119491133,141.433
3766.700264858686,88.062
3774.408149723422,120.084
3782.1127761528696,58.708
3789.814146212797,98.736
3797.644959575024,13.343
3805.339767031168,2.669
3813.03132434014,54.826
3820.7196335607214,140.715
3828.404696749953,240.786
3836.086515963114,335.484
3843.76509325378,405.261
3851.4404306737633,430.562
3859.112530273167,391.833
3866.7813941003615,269.523
3874.4470242019815,120.084
3882.109422622947,173.455
3889.7685914064414,213.483
3897.4245325939337,120.084
3905.0772482251705,149.438
3912.7267403381848,176.124
3920.373010969284,282.865
3928.016062153074,192.135
3935.655895922435,53.371
3943.292514308545,181.461
3950.925919340858,221.489
3958.424585178429,165.45
3966.051624900327,296.208
3973.675457311714,146.77
3981.296084435249,112.079
3988.913508291902,93.399
3996.396478310664,-37.36
4004.007556831755,146.77
4011.615438103967,2.669
4019.220124141517,96.067
4026.690583777876,101.405
4034.288940385857,98.736
4041.8841077570687,232.163
4049.3452186808136,242.837
4056.934068499933,181.461
4064.519735065173,112.079
4071.971514814119,128.09
4079.550875675057,136.096
4086.996462302253,170.787
4094.5695253181984,136.096
4102.008926541021,194.803
4109.575699558212,138.764
4117.008923081237,-301.545
4124.569413932906,82.725
4131.996467447912,184.129
4139.550683954272,168.118
4146.971575140262,210.815
4154.519525108568,-42.697
4161.93426163181,93.399
4169.475952856366,442.978
4228.011654085007,80.056
4235.396210255021,-56.039
4242.907210725418,82.725
4250.415076793586,154.775
4257.7904449892885,258.848
4265.292102093408,98.736
4272.790630641473,-69.382
4280.156827999919,128.09
4287.649159161061,66.714
4295.138367597785,82.725
4302.4954112134365,240.169
4309.978433811593,-72.051
4317.329402006981,224.157
4324.8062464273535,192.135
4332.151146724958,149.438
4339.621820615692,157.444
4346.960660525576,114.747
4354.425171522191,48.034
4361.757958542046,194.803
4369.216314267462,125.421
4376.543055882612,344.242
4383.9952639471885,96.067
4391.315967630617,405.618
4398.762035632179,128.09
4406.07670884455,144.101
4413.516644368407,141.433
4420.825294558097,-10.674
4428.130962180556,253.511
4435.561739780205,176.124
4442.861395497304,-104.073
4450.1580741507205,160.112
4457.579710724684,74.719
4464.870388562711,160.112
4472.158094827057,-61.376
4479.570607232323,181.461
4486.852323743988,205.478
4494.131074158497,-18.68
4501.534479210626,242.837
4508.807250907994,264.186
4516.077061971264,210.815
4523.3439142079005,130.759
4530.735219799091,232.163
4537.996107969229,258.848
4545.254042757973,-464.326
4552.509025966887,114.747
4559.888261734326,16.011
4567.13729547953,61.376
4574.383383072374,13.343
4581.626526308552,109.41
4588.866726982291,69.382
4596.103986886381,157.444
4603.338307812148,181.461
4610.69653172473,120.084
4617.92492857972,114.747
4625.150391852971,120.084
4632.372923329975,133.427
4639.592524794789,210.815
4646.809198030001,197.472
4654.022944816745,176.124
4661.233766934747,141.433
4668.441666162253,-10.674
4675.646644276094,-2.669
4682.8487030516335,-37.36
4690.047844262837,261.517
4697.244069682201,53.371
4704.437381080781,170.787
4711.627780228235,112.079
4718.815268892759,109.41
4725.999848841122,269.523
4733.181521838655,264.186
4740.3602896492885,80.056
4747.536154035501,157.444
4754.583300303697,189.466
4761.753413983191,0.0
4768.9206294863325,-93.399
4776.084948569973,160.112
4783.246372989488,384.71
4790.404904498872,489.421
4797.435032206777,501.008
4804.5878338284165,446.228
4811.73774776268,351.849
4818.884775757928,244.633
4826.028919561082,151.34
4833.044920461813,98.736
4840.183351639585,114.747
4847.3189038270575,186.798
4854.451578765569,122.753
4861.456318765864,-66.714
4868.58329482688,189.466
4875.707398824052,120.084
4882.703723295803,144.101
4889.822138682386,184.129
4896.937687177771,-69.382
4903.925611277555,229.495
4911.035481404608,-264.186
4918.142489800703,125.421
4925.122028648751,29.354
4932.223368894192,176.124
4939.197342363797,237.5
4946.293021236786,82.725
4953.385846941688,216.152
4960.35146024984,90.73
4967.43863475923,200.141
4974.398699333346,58.708
4981.480229398396,77.388
4988.43475186592,192.135
4995.510644227063,178.792
5002.459631204903,130.759
5009.529892591847,152.107
5016.473350686378,26.685
5023.537987818112,178.792
5030.475923625207,669.804
5037.534943210041,-26.685
5044.467363315067,258.848
5051.397052412052,88.062
5058.447683028528,61.376
5065.371866252855,112.079
5072.416896017057,136.096
5079.335579928018,72.051
5086.251540943114,48.034
5093.288206657562,106.742
5100.198678149784,-58.708
5107.106431592307,90.73
5114.134748143202,130.759
5121.037021830118,218.82
5127.93658230202,-144.101
5134.833431158368,-192.135
5141.85065500065,56.039
5148.742037069234,37.36
5155.630712341699,-85.393
5162.516682412504,-48.034
5169.522839786696,157.444
5176.403355996677,141.433
5183.281171809234,154.775
5190.156288813778,26.685
5197.028708598496,216.152
5204.021081907653,64.045
5210.888063918697,75.811
5217.752353495271,75.811
5224.613952220541,75.811
5231.472861676462,75.811
5238.329083443728,75.811
5245.182619101804,75.811
5252.033470228904,75.811
5258.881638402017,75.811
5265.727125196914,75.811
5272.569932188097,75.811
5279.532181775125,75.811
5286.369586094326,75.811
5293.204315354014,75.811
5300.036371123795,75.811
5306.865754971979,75.811
5313.692468465706,75.811
5320.516513170878,75.811
5327.216103720151,75.811
5334.034863128356,75.811
5340.850958410447,75.811
5347.664391127459,75.811
5354.475162839211,74.719
5361.283275104273,61.376
5368.088729480027,144.101
5374.891527522632,96.067
5381.6916707870405,170.787
5388.489160826968,-80.056
5395.162686039381,64.045
5401.954921596684,130.759
5408.744508555763,170.787
5415.531448465517,186.798
5422.31574287366,120.084
5428.976315601984,-66.714
5435.7553708175255,69.382
5442.531785139763,58.708
5449.305560111599,88.062
5456.076697274744,117.416
5462.724355191152,181.461
5469.490268392445,-24.017
5476.253548375513,248.174
5482.893493883399,80.056
5489.651558992991,-77.388
5496.406995464167,-56.039
5503.039241977291,0.0
5509.789472642318,45.365
5516.5370792381145,194.803
5523.161640139158,157.444
5529.904049975114,130.759
5536.643840300443,-114.747
5543.260728941095,61.376
5549.995331531944,496.349
5556.607128017575,549.719
5563.336548861262,128.09
5569.943259067753,120.084
5576.667504142417,64.045
5583.269133936614,149.438
5589.988209211173,208.146
5596.58476445092,0.0
5603.298675885118,168.118
5609.890162419251,210.815
5616.598915963696,133.427
5623.185339632037,34.691
5629.888941228186,-58.708
5636.470307861637,253.511
5643.16876344182,181.461
5649.745078862296,154.775
5656.438394349752,178.792
5663.009664370256,88.062
5669.578436568787,202.809
5676.264076103718,101.405
5682.827811578958,96.067
5689.3890535265455,40.028
5696.067030305661,45.365
5702.623244186747,-74.719
5709.176968824671,458.989
5715.847296014435,101.405
5722.39600122282,173.455
5728.942221462719,133.427
5735.4859581482815,152.107
5742.146121627004,40.028
5748.684850350968,16.011
5755.221099782248,170.787
5761.754871330697,128.09
5768.404894310675,72.051
5774.933669330552,-221.489
5781.459970716278,200.141
5787.983799873429,-5.337
5794.505158206499,192.135
5801.142549523138,93.399
5807.658925557145,125.421
5814.172834999641,106.742
5820.684279250832,53.371
5827.193259709879,32.022
5833.699777774898,50.702
5840.203834842934,125.421
5846.7054323099655,93.399
5853.204571570954,66.714
5859.701254019747,176.124
5866.195481049195,-101.405
5872.687254051074,162.781
5879.176574416102,104.073
5885.663443533944,-178.792
5892.14786279323,208.146
5898.629833581537,197.472
5905.109357285379,154.775
5911.586435290243,-16.011
5918.061068980562,42.697
5924.533259739736,72.051
5931.003008950094,157.444
5937.470317992949,-82.725
5943.935188248557,-10.674
5950.397621096134,144.101
5956.857617913869,120.084
5963.315180078898,72.051
5969.7703089673305,186.798
5976.105705888956,69.382
5982.556016527509,66.714
5989.003897986593,-74.719
5995.449351638199,162.781
6001.8923788532775,154.775
6008.215900781644,325.562
6014.654123287393,82.725
6021.089923438405,-210.815
6027.523302601519,109.41
6033.954262142564,-357.585
6040.265942433929,-10.674
6046.692110755517,192.135
6053.115863521547,24.017
6059.420472023492,66.714
6065.839441620141,8.006
6072.255999718647,184.129
6078.553548309683,-10.674
6084.965331270854,109.41
6091.374706782226,0.0
6097.665207314269,189.466
6104.06981570238,152.107
6110.472020679961,130.759
6116.755484978421,240.169
6123.152930828903,192.135
6129.431725134898,192.135
6135.824417162912,186.798
6142.098546680769,-101.405
6148.486490183052,264.186
6154.872039648391,72.051
6161.139160374798,72.051
6167.519969269015,-77.388
6173.782438208022,200.141
6180.158511808193,189.466
6186.416334137088,104.073
6192.787677712448,40.028
6199.040858600842,178.792
6205.291741972564,66.714
6211.656022022646,248.174
6217.902271670246,125.421
6224.261834810408,146.77
6230.503455884398,101.405
6236.742785809074,208.146
6243.095304999864,-18.68
6249.330014038809,98.736
6255.677829386121,-8.006
6261.907922670827,-18.68
6268.1357311500615,221.489
6274.476522051649,77.388
6280.699722436162,152.107
6286.920641805642,80.056
6293.139281413962,-5.337
6299.470738832184,8.006
6305.684780516531,13.343
6311.896546218988,138.764
6318.106037189755,104.073
6324.428181717434,69.382
6330.633084905065,-258.848
6336.835717129172,26.685
6343.036079636258,144.101
6349.234173671932,-53.371
6355.544716640681,24.017
6361.738235515753,-50.702
6367.929489673777,98.736
6374.118480356665,240.169
6380.305208805476,160.112
6386.489676260331,181.461
6392.671883960451,56.039
6398.851833144166,85.393
6405.143905470883,101.405
6411.319299566196,37.36
6417.492438877496,149.438
6423.663324639478,-5.337
6429.831958085924,-34.691
6435.998340449718,173.455
6442.162472962846,-173.455
6448.324356856407,93.399
6454.483993360576,200.141
6460.641383704664,152.107
6466.79652911704,-2.669
6472.949430825232,104.073
6479.100090055821,98.736
6485.248508034543,-144.101
6491.280888225534,77.388
6497.424868822251,58.708
6503.5666118162335,96.067
6509.706118429633,192.135
6515.843389883739,48.034
6521.978427398899,-88.062
6528.111232194642,157.444
6534.241805489546,309.551
6540.256680928833,-74.719
6546.382836142315,2.669
6552.506763482961,108.5
6558.628464165849,104.036
6564.747939405184,24.473
6570.751928194237,-94.984
6576.866997341494,-219.141
6582.979844660076,-312.79
6589.090471360658,-340.735
6595.0857801617385,-267.775
6601.192010321647,-58.708
6607.296023467985,213.483
6613.39782080795,176.124
6619.384468430493,-37.36
6625.481878753591,168.118
6631.577076864334,128.09
6637.5572509579,-72.051
6643.64806916556,0.0
6649.623946782151,29.354
6655.71038980603,93.399
6661.794626582923,16.011
6667.764048126817,93.399
6673.843916808139,149.438
6679.809053455574,181.461
6685.884558743659,-45.365
6691.957863728712,114.747
6697.916561697035,205.478
6703.985510351609,42.697
6709.939934962422,40.028
6716.004531971987,32.022
6721.954687820689,152.107
6728.014937863976,40.028
6733.960829539363,24.017
6739.904610751524,216.152
6745.95836937274,186.798
6751.897893261092,144.101
6757.947316561804,104.073
6763.8825876987685,80.056
6769.927680334353,-491.012
6775.858703285812,85.393
6781.787623684751,16.011
6787.826249230238,112.079
6793.750928258974,157.444
6799.673508107371,472.332
6805.705676935038,168.118
6811.624022213946,320.225
6817.540271677499,192.135
6823.5659941374615,-112.079
6829.478015817709,50.702
6835.387945040406,58.708
6841.407231460638,-29.354
6847.312939671727,-130.759
6853.216558775894,114.747
6859.118089881435,18.68
6865.017534095896,50.702
6871.026143398485,45.365
6876.921377827312,61.376
6882.814528703813,112.079
6888.705597132364,109.41
6894.594584216582,192.135
6900.592544785228,37.36
6906.477333270021,-101.405
6912.360043737404,58.708
6918.240677287846,77.388
6924.119235021055,80.056
6929.995718035963,194.803
6935.870127430717,58.708
6941.742464302697,-109.41
6947.6127297485,160.112
6953.480924863958,85.393
6959.347050744116,202.809
6965.21110848328,21.348
6971.073099174937,-61.376
6976.93302391185,-2.669
6982.79088378598,120.084
6988.64667988853,69.382
6994.500413309928,45.365
7000.35208513985,389.607
7006.201696467178,181.461
7012.049248380063,48.034
7017.894741965851,114.747
7023.738178311156,48.034
7029.579558501813,-24.017
7035.418883622879,16.011
7041.2561547586665,258.848
7047.091372992727,69.382
7052.924539407839,82.725
7058.645653010426,72.051
7064.474757695687,106.742
7070.301813785409,176.124
7076.126822359336,88.062
7081.949784496486,56.039
7087.660891581778,146.77
7093.479802640664,202.809
7099.296670474898,-2.669
7105.111496160462,200.141
7110.814624476749,72.051
7116.625407570507,229.495
7122.434151718757,74.719
7128.2408579944895,-96.067
7133.936024250346,69.382
7139.73869639702,189.466
7145.53933386541,-10.674
7151.22854892195,96.067
7157.025158582874,189.466
7162.819736753059,253.511
7168.503009933542,29.354
7174.293566604632,-18.68
7180.082094965896,-10.599
7185.759435574095,-2.228
7191.54394873148,6.682
7197.2173519438,16.38
7202.997854073568,27.115
7208.667323984642,39.134
7214.443819257263,52.691
7220.109359956041,68.026
7225.881852536215,85.393
7231.54346810597,96.067
7237.311962152613,48.034
7242.969656670975,-64.045
7248.734156337254,88.062
7254.387933876205,104.073
7260.148443309525,210.815
7265.798307935409,170.787
7271.554831277448,154.775
7277.20078705097,269.523
7282.953328437674,146.77
7288.59537941395,456.321
7294.235498085545,144.101
7299.982093204053,32.022
7305.618313131272,133.427
7311.252603748333,-10.674
7316.993261813666,229.495
7322.623659726734,106.742
7328.252131317968,-16.011
7333.9868615261075,-122.753
7339.611446441268,72.051
7345.234108016753,112.079
7350.962919544712,-253.511
7356.581700459581,96.067
7362.198561010817,-53.371
7367.813502182726,32.022
7373.426524958988,82.725
7379.145517410223,-10.674
7384.7546694986595,-240.169
7390.361906157261,34.691
7395.967228366993,122.753
7401.570637108154,168.118
7407.279835705631,64.045
7412.879383697611,72.051
7418.477021176703,144.101
7424.072749120482,77.388
7429.666568505905,26.685
7435.258480309247,-34.691
7440.848485506111,8.006
7446.436585071431,176.124
7452.022779979503,93.399
7457.607071203925,69.382
7463.296794702215,168.118
7468.877244915177,101.405
7474.455794380043,53.371
7480.032444067743,160.112
7485.607194948596,170.787
7491.18004799222,285.534
7496.751004167574,237.5
7502.2129850032,-88.062
7507.7801867781745,194.803
7513.345494569261,104.073
7518.908909342786,117.416
7524.470432064445,125.421
7530.03006369928,226.826
7535.587805211653,-125.421
7541.1436575652915,-69.382
7546.697621723266,13.343
7552.249698647978,77.388
7557.693172648,128.09
7563.241514237732,114.747
7568.787971459049,109.41
7574.332545271769,85.393
7579.87523663506,45.365
7585.416046507413,53.371
7590.848475703144,-40.028
7596.385561603231,178.792
7601.920768865631,-2.669
7607.454098446255,61.376
7612.879194899509,69.382
7618.4088080453,117.416
7623.936546354853,90.73
7629.462410781522,170.787
7634.880189328982,50.702
7640.402344837916,34.691
7645.9226293018255,130.759
7651.334937948188,312.219
7656.851519109852,50.702
7662.260197498763,226.826
7667.773079083498,2.669
7673.284094334183,58.708
7678.687316594296,-80.056
7684.194637864675,66.714
7689.7000956236625,21.348
7695.097870006797,-133.427
7700.599639370841,221.489
7705.993798107356,120.084
7711.491882781789,-40.028
7716.882429503323,-5.337
7722.376833188511,21.348
7727.763771521855,8.006
7733.254497913214,-80.056
7738.637831480286,229.495
7744.124884268305,101.405
7749.504616686187,50.702
7754.987999556393,53.371
7760.364134437317,21.348
7765.738489349154,152.107
7771.216392021717,120.084
7776.587154788423,162.781
7782.061396717661,26.685
7787.428570939446,-21.348
7792.793969640064,176.124
7798.262745065967,-117.416
7803.624560595526,16.011
7808.984603262106,37.36
7814.447920368751,389.607
7819.804385227417,248.174
7825.159079875983,61.376
7830.616946831127,101.405
7835.968069024231,13.343
7841.317423654822,85.393
7846.665011598543,128.09
7852.115636126822,8.006
7857.459658723532,296.208
7862.801917273948,93.399
7868.142412651388,0.0
7873.481145728587,24.017
7878.922746278997,-40.028
7884.257922859626,264.186
7889.59133977185,32.022
7894.922997886111,10.674
7900.252898072242,29.354
7905.581041199541,-58.708
7910.907428136696,85.393
7916.336446752692,-53.371
7921.65928952102,-174.138
7926.980378718883,-194.339
7932.29971521271,-144.0
7937.617299868325,-53.15
7942.933133550996,48.178
7948.247217125423,129.958
7953.559551455743,162.157
7958.870137405502,114.747
7964.178975837705,18.68
7969.486067614758,56.039
7974.791413598527,98.736
7980.0950146503055,85.393
7985.396871630804,34.691
7990.696985400187,173.455
7995.995356818043,85.393
8001.291986743403,-2.669
8006.586876034729,136.096
8011.880025549901,-61.376
8017.067699705829,168.118
8022.357406311574,141.433
8027.645375694708,42.697
8032.931608710882,146.77
8038.216106215201,-344.242
8043.498869062179,98.736
8048.779898105804,88.062
8053.955695240969,184.129
8059.233293192043,130.759
8064.509159881611,106.742
8069.783296161415,157.444
8074.952338977277,114.747
8080.223050878609,-37.36
8085.492034905405,-168.118
8090.759291907168,-16.011
8095.921593616502,96.067
8101.185432936367,24.017
8106.447547759821,138.764
8111.604810570996,-98.736
8116.863512715307,154.775
8122.120492886879,-2.669
8127.272724173963,101.405
8132.526296659391,-138.764
8137.778149690843,58.708
8142.925356813517,133.427
8148.173807142077,93.399
8153.4205405305,128.09
8158.562730834117,261.517
8163.806066493191,-74.719
8168.944927307508,120.084
8174.184868536668,10.674
8179.32040309432,34.691
8184.55695318873,88.062
8189.689164718173,144.498
8194.922326968728,197.216
8200.051218694258,239.44
8205.280996387602,264.394
8210.406571529322,265.303
8215.632967947844,235.397
8220.7552297217,167.901
8225.978248143558,56.039
8231.097199761349,-82.725
8236.316843460441,-130.759
8241.43248812982,66.714
8246.546496881761,77.388
8251.76110130029,184.129
8256.871807891675,298.877
8261.98088093357,152.107
8267.190453365733,-77.388
8272.296229025691,77.388
8277.400373499535,-16.011
8282.604921225458,-109.41
8287.705773086778,77.388
8292.804996120794,109.41
8298.004526406577,208.146
8303.100461588281,0.0
8308.194770296956,21.348
8313.28745331115,-42.697
8318.48031600209,-112.079
8323.569717486189,-66.714
8328.657495624051,8.006
8333.743651192239,32.022
8338.828184966831,50.702
8344.012739449463,21.348
8349.093999566121,66.714
8354.17364022991,-21.348
8359.251662214898,-26.685
8364.328066294685,90.73
8369.402853242376,-66.714
8374.476023830553,200.141
8379.547578831349,48.034
8384.718901354245,-16.011
8389.787195221597,-32.022
8394.853875830348,162.781
8399.91894395064,40.028
8404.98240035212,64.045
8410.044245803958,72.051
8415.104481074803,125.421
8420.163106932847,-64.045
8425.220124145773,74.719
8430.275533480788,176.124
8435.32933570461,90.73
8440.381531583458,-72.051
8445.432121883085,-24.017
8450.48110736873,77.388
8455.528488805172,69.382
8460.473367100913,24.017
8465.51757477424,72.051
8470.560180674485,24.017
8475.601185564497,29.354
8480.64059020661,0.0
8485.67839536271,-64.045
8490.714601794163,-106.742
8495.749210261878,-165.45
8500.681576948675,-96.067
8505.713023691114,-101.405
8510.742874734438,-69.382
8515.771130837642,-18.68
8520.797792759218,-186.798
8525.722375497866,-176.124
8530.745883175656,90.73
8535.7677989293,-133.427
8540.788123515384,160.112
8545.706498587671,-26.685
8550.723674892208,42.697
8555.739262280982,64.045
8560.652997083213,-90.73
8565.665440644778,66.714
8570.676297538128,141.433
8575.585398634048,37.36
8580.593116146138,-45.365
8585.599249233324,-10.674
8590.503723174297,48.034
8595.506721317797,-10.674
8600.508137275468,-157.444
8605.40799060051,109.41
8610.406276043708,-50.702
8615.303062904772,133.427
8620.298220771765,-96.067
8625.191944046568,-16.011
8630.18397727198,-82.725
8635.074639834631,5.337
8640.063551349394,88.062
8644.951156070434,98.736
8649.936948801806,50.702
8654.821498548154,98.736
8659.804175419777,-90.73
8664.685673054784,26.685
8669.665236986599,200.141
8674.543685370048,-66.714
8679.520139278378,-240.169
8684.395541266465,253.511
8689.2694364983,-10.674
8694.241246509358,-10.674
8699.112099609058,240.169
8703.981448060618,-18.68
8708.948620671701,-24.017
8713.81493124642,-114.747
8718.779005433622,0.0
8723.642280973501,-56.039
8728.504055374753,42.697
8733.364329332315,-120.084
8738.32224658698,-109.41
8743.179491154478,-5.337
8748.035237374625,26.685
8752.889485940628,136.096
8757.8412577103,2.669
8762.692482517024,-37.36
8767.542211760752,8.006
8772.39044613298,-200.141
8777.336083836857,-13.343
8782.18130006664,-42.697
8787.02502351089,74.719
8791.867254859393,8.006
8796.707994801498,21.348
8801.547244026118,53.371
8806.385003221756,-40.028
8811.319956958603,-109.41
8816.154707786565,184.129
8820.987970662514,48.034
8825.819746273257,120.084
8830.650035305174,-50.702
8835.478838444196,56.039
8840.306156375878,-42.697
8845.131989785303,-29.354
8849.956339357173,66.714
8854.779205775758,10.674
8859.60058972489,-170.787
8864.420491888006,37.36
8869.238912948098,58.708
8874.055853587757,-18.68
8878.871314489159,-2.669
8883.685296334032,133.427
8888.497799803714,-53.371
8893.308825579123,-85.393
8898.118374340735,96.067
8902.926446768637,-21.348
8907.634964476681,13.343
8912.440116370435,149.438
8917.243793954342,-88.062
8922.045997906822,-42.697
8926.846728905857,-90.73
8931.645987629043,130.759
8936.443774753548,-16.011
8941.142221650607,-26.685
8945.937097605834,61.376
8950.73050397759,-10.674
8955.522441441404,21.348
8960.215160665939,48.034
8965.004192282166,61.376
8969.791757000756,-16.011
8974.577855495572,173.455
8979.26485751475,-45.365
8984.048055470721,112.079
8988.829789208343,-106.742
8993.51251749025,-56.039
8998.291354655303,-74.719
9003.068729603765,2.669
9007.747189991118,-69.382
9012.521672326067,50.702
9017.294694442531,0.0
9021.968892767374,-24.017
9026.739026222178,10.674
9031.41039612206,157.444
9036.17764353675,-26.685
9040.943434050514,-48.034
9045.610551571128,77.388
9050.373459984672,-98.736
9055.037755503963,93.399
9059.797784430888,-50.702
9064.45926050758,237.5
9069.216412558366,120.084
9073.87507174812,-40.028
9078.629349530078,-128.09
9083.285194385431,-120.084
9088.036600502714,66.714
9092.689633573158,16.011
9097.438170626783,-208.146
9102.088394458704,40.028
9106.73722909284,-144.101
9111.481482183284,40.028
9116.12751137963,106.742
9120.868901881862,10.674
9125.512128179163,-26.685
9130.153968412898,-90.73
9134.891084617178,-197.472
9139.53012574118,18.68
9144.167782675046,157.444
9148.9006303586,-50.702
9153.535491965213,-53.371
9158.168971251744,10.674
9162.801068836525,-266.854
9167.528243916331,-18.68
9172.157551197888,-77.388
9176.785478643267,192.135
9181.412026869286,-80.056
9186.13353953768,29.354
9190.757302472506,-144.101
9195.37968804908,48.034
9200.000696882766,-24.017
9204.620329588544,-176.124
9209.334785850184,-48.034
9213.951639506451,165.45
9218.567118890363,288.202
9223.181224615444,98.736
9227.79395729483,-26.685
9232.40531754132,-53.371
9237.015305967328,117.416
9241.623923184923,26.685
9246.23116980579,-66.714
9250.932987640888,194.803
9255.537466379788,-141.433
9260.140576367572,-2.669
9264.742318214474,21.348
9269.342692530376,-74.719
9273.941699924766,-392.276
9278.539341006806,-64.045
9283.135616385269,37.36
9287.730526668583,-146.77
9292.324072464791,1851.967
9296.91625438162,-45.365
9301.411444872112,-61.376
9306.00092923447,26.685
9310.589051525738,5.337
9315.175812352172,-45.365
9319.761212319692,-112.079
9324.345252033823,-58.708
9328.927932099774,317.556
9333.509253122353,-82.725
9338.08921570604,48.034
9342.572446701386,-85.393
9347.149722488744,141.433
9351.7256416359,-133.427
9356.300204745894,98.736
9360.873412421412,-45.365
9365.350032145325,-90.73
9369.920558965528,5.337
9374.489732144635,-16.011
9379.05755228394,-104.073
9383.528899030936,18.68
9388.09404305015,-26.685
9392.657835818722,-32.022
9397.125240831178,-53.371
9401.6863610176,-37.36
9406.246131739394,-34.691
9410.80455359534,157.444
9415.266701898625,80.056
9419.822455888205,-149.438
9424.281993052333,160.112
9428.835081516963,439.527
9433.38682407955,539.892
9437.84243511156,508.386
9442.391515668474,392.185
9446.84452129656,238.468
9451.390942182352,94.418
9455.93602012123,7.208
9460.385108237591,24.017
9464.927530014324,80.056
9469.374018445214,-80.056
9473.913786387537,205.478
9478.35767741084,53.371
9482.894793843763,-32.022
9487.33608973474,-82.725
9491.87055698055,-122.753
9496.30926001177,-61.376
9500.74668109923,5.337
9505.277192831463,-48.034
9509.71202445114,88.062
9514.23989277796,-10.674
9518.672137195834,-10.674
9523.103102466685,69.382
9527.62702390948,-64.045
9532.05540536064,-80.056
9536.57668916292,-64.045
9541.002489053764,2.669
9545.42701258622,-221.489
9549.850260312329,85.393
9554.36630345335,152.107
9558.78697410632,16.011
9563.206370618926,-8.006
9567.718482324255,0.0
9572.13530512818,74.719
9576.550855454823,82.725
9580.965133854,88.062
9585.47202083257,-2.669
9589.883729992052,53.371
9594.294168883298,-53.371
9598.703338054846,-56.039
9603.111238054931,32.022
9607.611613766734,34.691
9612.016950092931,-88.062
9616.421018902103,-37.36
9620.823820741218,-5.337
9625.225356156909,181.461
9629.625625695517,-32.022
9634.02462990307,53.371
9638.422369325252,53.371
9642.81884450748,165.45
9647.21405599481,274.86
9651.701478874824,42.697
9656.094137748323,18.68
9660.485534571855,144.101
9664.875669889248,82.725
9669.264544244,162.781
9673.65215817932,141.433
9678.03851223808,-141.433
9682.423606962846,176.124
9686.807442895892,-130.759
9691.19002057915,85.393
9695.478134071804,-109.41
9699.858223622705,-53.371
9704.23705653629,-85.393
9708.614633353289,-66.714
9712.990954614088,-77.388
9717.36602085878,-154.775
9721.739832627154,-77.388
9726.112390458671,-162.781
9730.483694892511,77.388
9734.760779687776,-56.039
9739.129605581998,96.067
9743.497179682729,-240.169
9747.863502527893,32.022
9752.228574655115,202.809
9756.499562339395,82.725
9760.862161224974,-18.68
9765.223510992222,5.337
9769.583612177565,90.73
9773.849736751828,-88.062
9778.207368918504,16.011
9782.563754099236,16.011
9786.918892829211,80.056
9791.18016259473,58.708
9795.532836519418,45.365
9799.884265585692,-10.674
9804.14190615754,-40.028
9808.490873566669,5.337
9812.83859770701,80.056
9817.09261371952,-114.747
9821.437879345483,-8.006
9825.689490172908,-64.045
9830.032299369228,85.393
9834.373867936378,-34.691
9838.621861899856,-306.882
9842.960977171238,32.022
9847.206571054325,-336.236
9851.543235108787,-64.045
9855.786430944943,-90.73
9860.12064585897,-104.073
9864.361445679362,0.0
9868.693213527116,200.141
9872.931619360628,45.365
9877.26094221391,-5.337
9881.49695608711,197.472
9885.823836015392,24.017
9890.057459952584,66.714
9894.289902518456,0.0
9898.613135046206,21.348
9902.843190697367,-125.421
9907.163985452502,0.0
9911.391656207565,64.045
9915.61814808206,-26.685
9919.935303126713,-24.017
9924.15941311792,-2.669
9928.38234571751,-48.034
9932.695865648708,74.719
9936.91641937277,37.36
9941.135797191648,128.09
9945.445686598703,64.045
9949.662688544726,-160.112
9953.878516069532,16.011
9958.09316966365,-21.348
9962.398234183594,-69.382
9966.61051589339,-8.006
9970.821625153134,-32.022
9975.031562452265,-88.062
9979.240328279942,-120.084
9983.53937957713,520.366
9987.745778488254,165.45
9991.95100740443,24.017
9996.155066813732,-26.685
10000.357957203963,69.382
10004.55967906266,-21.348
10008.760232877092,-16.011
10013.050897176752,13.343
10017.249090997648,-16.011
10021.446118245014,-146.77
10025.641979405023,-144.101
10029.83667496358,-5.337
10034.03020540632,-61.376
10038.222571218605,-120.084
10042.413772885537,56.039
10046.603810891938,-58.708
10050.79268572236,-53.371
10054.980397861098,48.034
10059.16694779218,392.276
10063.352335999334,-24.017
10067.536562966066,194.803
10071.719629175575,-37.36
10075.90153511081,42.697
10080.082281254454,82.725
10084.26186808891,-69.382
10088.440296096323,-176.124
10092.52676786215,-74.719
10096.702904826674,-64.045
10100.877884398516,-48.034
10105.051707058765,112.079
10109.224373288234,168.118
10113.395883567471,24.017
10117.475590772649,-101.405
10121.64481569536,-34.691
10125.812886097472,-29.354
10129.979802458443,-80.056
10134.145565257517,18.68
10138.219652237512,-114.747
10142.383134400929,178.792
10146.545464428116,24.017
10150.706642797257,-18.68
10154.776246850048,-82.725
10158.935148346747,-10.674
10163.092899607942,-2.669
10167.159152430871,149.438
10171.314629631466,-45.365
10175.468958016776,-90.73
10179.531863747628,53.371
10183.683920879565,69.382
10187.834830614069,-154.775
10191.894393383842,-53.371
10196.043034667582,-74.719
10200.190529969435,-61.376
10204.246753902304,101.405
10208.391983551395,122.753
10212.44599199288,66.714
10216.588957845182,10.674
10220.640752609928,-2.669
10224.781456519388,88.062
10228.831039420063,-344.242
10232.969483238625,176.124
10237.016856085897,-96.067
10241.15304166346,-10.674
10245.19820626604,53.371
10249.332135450502,56.039
10253.375093615126,117.416
10257.506768252357,-56.039
10261.547521783785,-48.034
10265.58718577827,-117.416
10269.715494418666,-61.376
10273.752956473523,74.719
10277.87901516247,117.416
10281.91427707755,-98.736
10285.948451675904,-18.68
10290.0711512271,42.697
10294.10312837192,64.045
10298.13401952729,88.062
10302.253364041218,64.045
10306.282060424935,-26.685
10310.309672144327,72.051
10314.425665714796,-37.36
10318.451085340042,80.056
10322.475421623927,-8.006
10326.498675003731,-50.702
10330.610215200984,-85.393
10334.631280043344,-56.039
10338.651263301725,-18.68
10342.670165412448,8.006
10346.687986811625,-37.36
10350.704727935088,64.045
10354.80961387438,-120.084
10358.824171771252,-69.382
10362.837650708272,-13.343
10366.850051120337,162.781
10370.86137344214,42.697
10374.871618108127,-189.466
10378.880785552512,210.815
10382.888876209276,-66.714
10386.984923052532,-5.337
10390.990837530662,-18.68
10394.995676531347,40.028
10398.999440487634,-34.691
10403.00212983234,-26.685
10407.003744998048,45.365
10411.004286417105,-16.011
10415.003754521616,-74.719
10419.002149743475,-16.011
10422.999472514348,-213.483
10426.995723265634,-93.399
10430.990902428544,48.034
10434.985010434026,-69.382
10438.889325180557,384.27
10442.881315942828,8.006
10446.872236829608,-53.371
10450.86208827093,96.067
10454.85087069661,-21.348
10458.838584536235,173.455
10462.82523021915,234.832
10466.810808174472,-5.337
10470.706785742112,-114.747
10474.690253232264,-56.039
10478.672654271297,-77.388
10482.653989287404,-96.067
10486.634258708573,-106.742
10490.525047770485,-37.36
10494.50321094102,-18.68
10498.480309789697,-48.034
10502.45634474356,-181.461
10506.342995080442,24.017
10510.316927143493,74.719
10514.2897965821,-77.388
10518.261603822417,-184.129
10522.144122034457,-16.011
10526.113829736623,5.337
10530.082476508169,29.354
10533.961905709137,-45.365
10537.92845544769,-282.865
10541.89394552126,-122.753
10545.770289396216,29.354
10549.733684937964,77.388
10553.607981637546,128.09
10557.569284306495,26.685
10561.52952941227,40.028
10565.400746905443,-146.77
10569.35890163298,56.039
10573.22807600992,-125.421
10577.184142013864,-64.045
10581.05127489159,50.702
10585.005253824836,90.73
10588.87034681866,16.011
10592.822240332363,-21.348
10596.685295055897,29.354
10600.635104799476,125.421
10604.496122864624,-66.714
10608.443850485746,-152.107
10612.302833502728,29.354
10616.160811022752,-21.348
10620.10543022464,66.714
10623.9613750996,117.416
10627.903916281392,26.685
10631.757830117263,-165.45
10635.61074043666,-194.803
10639.550179321655,66.714
10643.401060998756,58.708
10647.250940343372,-189.466
10651.187280591832,-101.405
10655.035133687184,24.017
10658.881985632182,-13.343
10662.815230898605,26.685
10666.660058983602,56.039
10670.50388709854,-2.669
10674.346715633475,-109.41
10678.275847672114,10.674
10682.116655520924,-64.045
10685.956464967534,13.343
10689.795276401208,173.455
10693.633090210977,74.719
10697.557095575656,-42.697
10701.39289265285,-69.382
10705.227693280882,-122.753
10709.061497847986,245.506
10712.894306742182,-16.011
10716.726120351308,117.416
10720.55693906298,21.348
10724.386763264632,-114.747
10728.302600658342,-93.399
10732.130414421008,-96.067
10735.957234843503,-13.343
10739.783062312445,149.438
10743.60789721425,10.674
10747.431739935131,50.702
10751.254590861114,-42.697
10755.076450378,224.157
10758.897318871408,317.556
10762.717196726757,-18.68
10766.536084329256,85.393
10770.353982063916,-5.337
10774.170890315563,133.427
10777.98680946881,48.034
10781.801739908076,202.809
10785.615682017564,-50.702
10789.341989100834,-34.691
10793.153978142976,-186.798
10796.964979998098,90.73
10800.774995049622,176.124
10804.58402368077,-93.399
10808.392066274577,-58.708
10812.199123213884,-69.382
10816.005194881312,192.135
10819.723813349112,16.011
10823.52793799081,-93.399
10827.331078498672,-154.775
10831.133235254529,-69.382
10834.848029253728,16.011
10838.64824198676,-93.399
10842.447472103491,-40.028
10846.24571998498,-48.034
10849.956695412544,24.017
10853.753002267928,37.36
10857.548328021428,8.006
10861.342673053316,37.36
10865.049835794096,-165.45
10868.842242790466,138.764
10872.63367019626,-64.045
10876.337982712816,-24.017
10880.12747431772,13.343
10883.82989575329,-40.028
10887.617453039476,128.09
10891.404032613404,-26.685
10895.103609289945,-10.674
10898.88825677408,18.68
10902.585945994537,16.011
10906.368662867266,13.343
10910.150403901262,-18.68
10913.845253813895,-109.41
10917.62506645972,69.382
10921.318032531915,-13.343
10925.095918264182,-26.685
10928.787001936307,24.017
10932.562962228116,5.337
10936.252164939066,69.382
10939.940438510435,80.056
10943.713524449233,130.759
10947.399919206764,-165.45
10951.171083372872,-10.674
10954.855600751816,-189.466
10958.62484461311,32.022
10962.307486047235,74.719
10965.989200819247,-58.708
10969.755577991731,-48.034
10973.435418958636,-42.697
10977.114334320191,50.702
10980.877848072992,-42.697
10984.554891765896,-93.399
10988.231010908596,-104.073
10991.991664505884,173.455
10995.665914113146,21.348
10999.33924022374,112.079
11003.011643185791,-138.764
11006.768495629847,24.017
11010.439031890255,-128.09
11014.108646053544,-37.36
11017.777338467138,-40.028
11021.530395518184,-50.702
11025.197224058184,184.129
11028.863131897786,45.365
11032.528119383707,8.006
11036.192186862492,181.461
11039.855334680517,242.837
11043.602720353196,61.376
11047.264008520897,88.062
11050.924378073953,234.832
11054.58382935806,-149.438
11058.242362718707,-2.669
11061.899978501227,-280.197
11065.556677050785,85.393
11069.21245871235,-18.68
11072.867323830738,34.691
11076.521272750586,21.348
11080.174305816368,24.017
11083.826423372368,261.517
11087.477625762698,5.337
11091.127913331318,258.848
11094.777286422,133.427
11098.425745378345,-290.871
11102.073290543767,32.022
11105.719922261547,-61.376
11109.36564087477,53.371
11113.010446726335,-192.135
11116.654340159006,106.742
11120.29732151534,114.747
11123.93939113774,-184.129
11127.580549368427,-5.337
11131.22079654947,-2.669
11134.77550763161,-34.691
11138.413954906267,-80.056
11142.051492148485,21.348
11145.688119699626,18.68
11149.323837900913,26.685
11152.958647093375,-42.697
11156.508048620988,240.169
11160.141061938251,125.421
11163.773167260852,10.674
11167.40436492916,48.034
11170.950240228543,-117.416
11174.579644697213,40.028
11178.208142523734,128.09
11181.751381744987,146.77
11185.378088371155,152.107
11189.003889365817,42.697
11192.628785068173,-37.36
11196.16850723805,-202.809
11199.79161440632,32.022
11203.413817290922,290.871
11206.950910239968,-261.517
11210.571326582844,-381.601
11214.10667518314,-5.337
11217.725306305692,-74.719
11221.343034819707,58.708
11224.875759069631,-37.36
11228.49170435076,-128.09
11232.022687482247,21.348
11235.636850848638,202.809
11239.166094148528,-77.388
11242.778476917028,-26.685
11246.305981670925,133.427
11249.91658515709,-24.017
11253.442352649325,64.045
11257.05117816741,16.011
11260.575209681025,-26.685
11264.182258544,-16.011
11267.704555360804,-112.079
11271.309828880325,328.231
11274.83039228086,48.034
11278.350099642112,-66.714
11281.952723030843,-128.09
11285.470698886753,13.343
11288.987819646914,64.045
11292.587795825824,-205.478
11296.103186988752,109.41
11299.70139304264,69.382
11303.215055883851,34.691
11306.727865201254,8.006
11310.23982130582,8.006
11313.834511810855,10.674
11317.34474212601,56.039
11320.8541201677,-141.433
11324.446172200132,72.051
11327.953826352135,93.399
11331.460629168672,8.006
11334.96658095964,-96.067
11338.471682034791,18.68
11342.059356881087,-80.056
11345.562737216636,173.455
11349.06526777208,-74.719
11352.566948856567,-56.039
11356.067780779093,53.371
11359.56776384851,-112.079
11363.1502007606,16.011
11366.648466857394,37.36
11370.145885034064,42.697
11373.642455598843,82.725
11377.138178859836,-88.062
11380.633055125,26.685
11384.1270847021,-104.073
11387.620267898808,-32.022
11391.112605022612,-21.348
11394.60409638087,104.073
11398.094742280777,-34.691
11401.584543029392,-200.141
11405.073498933603,2.669
11408.561610300185,-66.714
11412.048877435727,-157.444
11415.5353006467,-40.028
11419.020880239405,-138.764
11422.505616520008,117.416
11425.989509794525,-26.685
11429.472560368817,98.736
11432.954768548592,-37.36
11436.43613463944,-48.034
11439.916658946764,-37.36
11443.313501961433,37.36
11446.79236364179,-90.73
11450.270384446749,162.781
11453.74756468115,34.691
11457.22390464968,37.36
11460.699404656869,-90.73
11464.091344754375,64.045
11467.565185732994,29.354
11471.038187655771,-32.022
11474.51035082668,-32.022
11477.981675549512,141.433
11481.369541233144,16.011
11484.839209915755,-82.725
11488.30804105362,82.725
11491.693473394258,-10.674
11495.16065027576,8.006
11498.626990514544,-61.376
11502.092494413417,32.022
11505.474679896604,-45.365
11508.938531918346,34.691
11512.401548500471,-2.669
11515.78130675673,-184.129
11519.242673239612,-24.017
11522.620821260369,-24.017
11526.080538823127,114.747
11529.5394224415,64.045
11532.915147579475,50.702
11536.372384051368,-213.483
11539.74650183491,8.006
11543.202092336618,88.062
11546.574603913472,-61.376
11550.028549620163,69.382
11553.399456136987,170.787
11556.85175822272,-37.36
11560.221060825072,-24.017
11563.67172046279,-5.337
11567.039420295116,42.697
11570.488438656655,-16.011
11573.854536862347,501.686
11577.301915118398,130.759
11580.666412839755,-40.028
11584.030120381583,-117.416
11587.475050538147,58.708
11590.837159300165,66.714
11594.280452266124,253.511
11597.64096338792,-2.669
11601.000685734118,-10.674
11604.441534950183,-32.022
11607.79966135666,-21.348
11611.156999826935,-21.348
11614.59540789372,8.006
11617.951152122365,-45.365
11621.306109253032,5.337
11624.66027956261,8.006
11628.09544335218,202.809
11631.44802167594,64.045
11634.799814015252,34.691
11638.15082064648,104.073
11641.58274474832,37.36
11644.932161645294,-138.764
11648.280793669244,-192.135
11651.62864109602,-82.725
11654.975704201344,18.68
11658.403590030808,0.0
11661.749066206958,-21.348
11665.093758894744,96.067
11668.43766836938,8.006
11671.780794905935,80.056
11675.12313877933,72.051
11678.4647002644,-10.674
11681.805479635816,8.006
11685.145477168146,-2.669
11688.484693135812,45.365
11691.904543291126,88.062
11695.24217790648,2.669
11698.579031786354,-53.371
11701.915105204676,-336.236
11705.25039843522,189.466
11708.584911751648,-29.354
11711.918645427471,93.399
11715.251599736104,101.405
11718.502511651865,-80.056
11721.83392703817,-138.764
11725.164563870054,-90.73
11728.4944224204,-32.022
11731.823502961994,77.388
11735.15180576744,-32.022
11738.479331109273,-5.337
11741.806079259855,-26.685
11745.132050491462,10.674
11748.457245076206,45.365
11751.70058915004,21.348
11755.024250183047,16.011
11758.34713537819,72.051
11761.669245007088,5.337
11764.990579341233,-264.186
11768.230158619372,16.011
11771.549962071174,66.714
11774.86899103535,-96.067
11778.187245782876,2.669
11781.423821624776,34.691
11784.740547618409,13.343
11788.05650020102,-189.466
11791.371679643096,69.382
11794.605256223578,0.0
11797.91890903626,-88.062
11801.231789512534,72.051
11804.46312397414,-34.691
11807.774479408556,-5.337
11811.085063309589,40.028
11814.314157983485,-125.421
11817.623218427994,16.011
11820.850827315822,-48.034
11824.158365355152,37.36
11827.4651331948,26.685
11830.690506166697,-69.382
11833.995753182851,-29.354
11837.219642936305,-66.714
11840.52337017791,-149.438
11843.745777735792,-250.843
11847.047986250807,2.669
11850.26891263506,2.669
11853.569603470474,85.393
11856.789049702087,37.36
11860.088223903953,-285.534
11863.30619100298,-512.36
11866.603849616356,21.348
11869.820338601929,-48.034
11873.11648267094,-149.438
11876.331494561222,-2.669
11879.545777396996,88.062
11882.839660941268,-101.405
11886.052468201013,26.685
11889.26454715598,-5.337
11892.55617250015,74.719
11895.766777396242,-58.708
11899.056892350098,-21.348
11902.26602420178,-40.028
11905.474428998024,45.365
11908.682106985869,-173.455
11911.969222890988,-64.045
11915.17542984806,-8.006
11918.380910743392,112.079
11921.66577540321,-170.787
11924.869786778698,-114.747
11928.07307283808,-34.691
11931.27563382762,66.714
11934.477469993468,104.073
11937.758600089848,21.348
11940.95896924119,-149.438
11944.158614312782,32.022
11947.35753555032,-37.36
11950.55573319941,2.669
11953.753207505528,-2.669
11957.029868231695,445.646
11960.225878519712,194.803
11963.42116620667,245.506
11966.615731537608,101.405
11969.809574757444,-88.062
11973.002696111003,-10.674
11976.195095842992,82.725
11979.386774197992,-8.006
11982.577731420495,74.719
11985.767967754866,-21.348
11988.957483445382,176.124
11992.146278736183,-50.702
11995.334353871312,224.157
11998.521709094712,29.354
12001.708344650193,-13.343
12004.894260781464,58.708
12008.079457732136,-8.006
12011.2639357457,157.444
12014.44769506553,-149.438
12017.630735934905,-104.073
12020.81305859698,-93.399
12023.994663294816,-5.337
12027.175550271351,344.242
12030.27622427429,-69.382
12033.455694464548,-37.36
12036.634447655608,-61.376
12039.812484089987,-117.416
12042.989804010074,210.815
12046.166407658158,26.685
12049.26290681064,-29.354
12052.4380965329,-21.348
12055.612570703324,-42.697
12058.786329563762,-93.399
12061.880055974125,-53.371
12065.052402807443,106.742
12068.224035049663,-16.011
12071.394952942192,144.101
12074.485910333004,98.736
12077.655418093736,82.725
12080.824212222367,69.382
12083.913099633974,-29.354
12087.080485047096,133.427
12090.247157544738,53.371
12093.333977055809,120.084
