Raman Shift,Intensity 
400,5.995959228
401,5.990055715
402,5.999648995
403,6.005047309
404,5.985147206
405,6.017482717
406,5.991372526
407,5.974003693
408,6.012890693
409,6.009685144
410,6.002328054
411,5.999517358
412,5.979473817
413,6.000689647
414,6.003933322
415,5.988066103
416,6.014418538
417,6.011001542
418,6.003098464
419,5.996810037
420,5.983457859
421,5.990599684
422,6.009227521
423,5.986715754
424,5.97778247
425,6.023582246
426,5.98951427
427,5.980254568
428,6.016940401
429,6.018399429
430,5.993020439
431,5.97968222
432,6.008706289
433,5.999506152
434,6.008111243
435,6.000038526
436,6.013348215
437,5.984077176
438,6.000938023
439,6.001461454
440,5.998093669
441,6.012869864
442,6.009339086
443,6.006121209
444,6.014884656
445,5.999088734
446,6.021681423
447,6.004874798
448,5.971347351
449,6.015442095
450,5.998172749
451,5.997053215
452,5.996524703
453,6.011993387
454,5.989775424
455,6.010707036
456,6.029037465
457,5.999227592
458,6.018339033
459,6.015967526
460,6.019115236
461,5.979614871
462,5.979255144
463,6.000125881
464,6.017460875
465,6.009118376
466,6.003961751
467,6.003692853
468,6.010642029
469,5.964979416
470,5.981688227
471,6.0194267
472,6.007771601
473,5.965549713
474,5.989675357
475,6.012954634
476,5.991519737
477,5.995769042
478,5.998073565
479,6.020699048
480,6.008353637
481,6.009046734
482,5.972016297
483,5.995356464
484,6.007452694
485,6.004692392
486,6.012443484
487,5.970809529
488,5.989632601
489,5.984281754
490,6.031931316
491,5.97707281
492,5.998571949
493,6.001001915
494,5.991905382
495,6.022606676
496,5.996689699
497,5.997860953
498,5.991285676
499,5.995639648
500,6.002651094
501,6.005145875
502,6.013069427
503,5.993072296
504,5.988407261
505,6.017288044
506,6.016089256
507,5.996024366
508,5.996294154
509,5.999400064
510,5.96754429
511,6.010635968
512,6.002362575
513,6.016827662
514,5.99773424
515,5.997292835
516,5.995852075
517,5.99671374
518,5.975199613
519,5.997744874
520,6.021275327
521,5.989161849
522,5.995059464
523,5.98150485
524,6.005045524
525,5.986847893
526,5.991973635
527,6.00417403
528,6.003915284
529,5.992999702
530,5.998078258
531,5.98894014
532,5.995366283
533,5.983847363
534,6.009273231
535,6.005794962
536,5.988027195
537,5.996229968
538,6.023042002
539,5.99677835
540,6.025355585
541,6.00058518
542,6.016975478
543,6.002031528
544,5.970374698
545,5.983158229
546,6.001435469
547,5.954201141
548,6.012669996
549,5.989488985
550,5.991272621
551,6.006585301
552,6.01805098
553,6.017924852
554,5.99623202
555,5.981304002
556,6.011735272
557,6.006230202
558,6.003750661
559,5.99837443
560,6.013037948
561,6.015321874
562,5.970838192
563,6.019917692
564,6.000487111
565,6.002097337
566,5.984404211
567,5.99396109
568,5.979722741
569,6.017055907
570,6.001514853
571,5.995815496
572,5.997746752
573,5.995063183
574,6.015080364
575,5.982562725
576,5.978024791
577,6.008417289
578,6.023638772
579,6.002653463
580,6.001076355
581,5.995230788
582,5.987036564
583,6.015682788
584,5.981846636
585,5.99834894
586,6.017344947
587,5.974064164
588,6.004163547
589,5.999488776
590,6.018183088
591,6.004398562
592,5.982417223
593,5.976704949
594,5.992177492
595,6.002942681
596,6.004868542
597,6.00159241
598,6.008549242
599,6.004176008
600,6.010738973
601,5.98757677
602,6.012045608
603,5.990321419
604,6.008393652
605,6.011062404
606,5.986353538
607,5.995016186
608,5.989804844
609,6.003771816
610,5.988321825
611,6.015732398
612,6.003404803
613,5.986660369
614,6.004295603
615,6.014227281
616,6.00999704
617,6.007467051
618,6.010350547
619,6.003277747
620,5.997357196
621,5.993160054
622,6.00254092
623,6.02684199
624,6.003913391
625,6.017927234
626,5.984016057
627,5.9768954
628,6.008296924
629,5.964902113
630,6.010954215
631,6.000499399
632,5.964638572
633,5.967945273
634,6.011747522
635,6.008739146
636,6.017144282
637,5.983510235
638,6.021802597
639,5.99829265
640,6.011910574
641,6.010919817
642,5.973855043
643,5.978805534
644,6.026326203
645,6.012680096
646,6.01924921
647,6.007413296
648,5.955100123
649,5.98144679
650,6.008207174
651,5.973178699
652,5.999078172
653,6.012347756
654,6.007057615
655,5.976488617
656,5.98970598
657,6.01103583
658,5.979678534
659,5.991384927
660,6.000205534
661,6.036715034
662,5.987525383
663,6.017389533
664,6.013355025
665,6.004391493
666,6.02343881
667,6.002454916
668,5.976877106
669,5.986246067
670,6.036549805
671,6.037755984
672,6.020453773
673,6.013908659
674,6.014249613
675,5.969673262
676,5.994678161
677,6.003035385
678,5.971638836
679,6.020445379
680,6.000599769
681,5.989542606
682,6.00322448
683,6.030577272
684,6.026731009
685,6.005612816
686,6.000358813
687,6.016764707
688,5.991453528
689,5.996143937
690,5.990491389
691,6.026173945
692,5.950542815
693,5.988154079
694,5.979480962
695,5.987218813
696,5.999604102
697,6.017931901
698,6.013883424
699,6.007700487
700,6.003148207
701,5.980449241
702,5.980872355
703,5.996547083
704,6.006399231
705,6.008747978
706,5.987099572
707,5.984196723
708,6.017790159
709,6.005149106
710,6.030274385
711,6.031542222
712,5.978925329
713,5.98889994
714,5.980495555
715,5.998066839
716,6.004716144
717,6.018851845
718,5.998300049
719,6.011300789
720,6.026917287
721,6.005949135
722,5.999032893
723,6.00230994
724,5.994572705
725,6.013269687
726,5.994861789
727,5.969864754
728,6.002684874
729,5.978782401
730,5.997497367
731,5.994339465
732,6.008717365
733,6.043659119
734,6.007182445
735,6.007176055
736,5.998577959
737,5.986951301
738,5.984221589
739,5.99481807
740,6.003909121
741,5.991602452
742,5.99581746
743,5.97020274
744,5.986442466
745,6.004437099
746,5.98598241
747,6.017478451
748,5.990689299
749,5.997170441
750,6.002767242
751,5.980309881
752,6.011675474
753,5.983054619
754,6.021799136
755,6.00906774
756,5.9760551
757,6.002938912
758,5.985833449
759,6.002220571
760,5.988577572
761,5.978702821
762,6.007502759
763,5.994172265
764,5.997051053
765,5.996596088
766,6.017382074
767,5.993939117
768,6.015244958
769,6.020244717
770,5.984860214
771,6.020542971
772,6.002917266
773,6.028679713
774,5.96192998
775,5.953262779
776,6.008516089
777,6.009546346
778,6.008245231
779,5.983537399
780,6.03016601
781,6.015339072
782,6.003979777
783,5.998991686
784,6.005213882
785,5.99471708
786,6.011805034
787,6.000213732
788,5.990538321
789,5.962354786
790,6.015619363
791,6.004408611
792,5.988998203
793,5.948549684
794,5.999125221
795,6.000052975
796,6.026310027
797,5.998611112
798,5.9909781
799,6.024520643
800,5.997660839
801,5.989308122
802,6.01136398
803,5.998495462
804,5.991041527
805,5.990142573
806,6.019777315
807,6.003282781
808,5.994231926
809,6.015234924
810,5.985198874
811,5.996019689
812,5.99707331
813,5.978042264
814,5.991545726
815,5.9873682
816,6.002637939
817,5.99539759
818,5.978006285
819,5.972849147
820,5.998944722
821,6.011531956
822,6.026713254
823,6.025879605
824,5.991378752
825,5.998641522
826,6.000786548
827,5.993737861
828,5.981578144
829,5.990568959
830,6.008374609
831,6.007369289
832,6.009076938
833,6.012412794
834,5.97861802
835,5.983931382
836,6.004787041
837,6.003786306
838,6.019373559
839,6.031726246
840,5.986486249
841,6.007956469
842,5.98583671
843,5.993696253
844,5.987359431
845,5.993933307
846,5.983076825
847,6.007731105
848,6.021995536
849,6.000480274
850,6.027613293
851,5.967556965
852,6.000732823
853,6.011201289
854,5.997813037
855,6.022443378
856,6.00370529
857,5.986723489
858,5.99604553
859,6.013050507
860,5.995590773
861,6.0289588
862,5.978439255
863,6.024348902
864,6.009478756
865,5.987568737
866,5.991615837
867,5.980488148
868,6.028923858
869,6.030924815
870,6.02259686
871,6.005968989
872,5.98753008
873,5.972044127
874,5.982461216
875,5.992856096
876,6.004567556
877,5.990734858
878,5.974994316
879,5.988513497
880,6.006283517
881,6.011022416
882,6.010225423
883,6.008669435
884,6.023093022
885,6.011617988
886,6.016992055
887,5.98644551
888,6.01665753
889,6.019790567
890,6.005350053
891,6.011946953
892,5.997695491
893,6.012642101
894,6.008522356
895,6.006453035
896,6.010727674
897,6.012203774
898,5.99962369
899,6.020209664
900,5.986843466
901,6.019985085
902,6.020235148
903,6.006986592
904,6.03991971
905,6.00363388
906,5.994649645
907,6.014180755
908,5.993479137
909,6.001978495
910,6.029449984
911,6.002296622
912,5.981717264
913,6.009263691
914,5.991209043
915,6.005410198
916,6.005283488
917,6.032965273
918,5.993401907
919,5.967557607
920,5.990487226
921,5.986832142
922,6.008831645
923,6.023152755
924,5.995385199
925,5.999188313
926,5.971723827
927,5.994150189
928,5.986452814
929,5.994635556
930,6.036673266
931,5.996976758
932,5.988720042
933,5.981758241
934,6.017694862
935,5.993241123
936,6.00005919
937,6.005087606
938,5.971833922
939,6.009842548
940,5.987410506
941,6.007094892
942,6.020753355
943,6.004645121
944,5.998205856
945,5.987707601
946,6.003719779
947,6.012724317
948,5.99351667
949,6.010067139
950,6.013870236
951,6.001646705
952,5.991021251
953,6.018426666
954,5.980756802
955,6.031077333
956,6.035449207
957,5.9996166
958,5.981800613
959,5.998968313
960,5.99866137
961,5.984885673
962,5.997497129
963,5.983014985
964,5.992694229
965,5.989418185
966,6.004718048
967,6.015468769
968,6.002129523
969,5.997801832
970,6.009408811
971,5.981381185
972,5.991180427
973,5.979074159
974,6.026174064
975,6.001327814
976,5.99700005
977,5.988981858
978,5.999664736
979,5.996978096
980,5.99672492
981,6.02117232
982,5.990300503
983,6.007951183
984,6.005471309
985,5.987008102
986,5.98620072
987,6.014717961
988,6.006624047
989,5.998556457
990,5.997144726
991,6.035699936
992,6.015917423
993,5.981492481
994,5.997345524
995,5.990215495
996,5.97114486
997,6.016275269
998,6.001149472
999,6.021902832
1000,6.036851744
1001,6.025773235
1002,6.012526972
1003,6.03058055
1004,6.014060197
1005,6.002827186
1006,6.040510695
1007,6.011869525
1008,6.02710343
1009,6.03597427
1010,6.03613608
1011,6.042384297
1012,6.078526126
1013,6.106012506
1014,6.09598356
1015,6.10488947
1016,6.108858563
1017,6.110225222
1018,6.139235451
1019,6.139940125
1020,6.176965882
1021,6.197087901
1022,6.254203995
1023,6.235133422
1024,6.293160117
1025,6.309672608
1026,6.317593962
1027,6.361433099
1028,6.385788885
1029,6.413211847
1030,6.460436234
1031,6.497825922
1032,6.510662442
1033,6.546949199
1034,6.55572711
1035,6.641557183
1036,6.636753745
1037,6.652439417
1038,6.683115673
1039,6.721387426
1040,6.775116973
1041,6.744986967
1042,6.770911575
1043,6.785828316
1044,6.792512954
1045,6.802461087
1046,6.78052743
1047,6.813874327
1048,6.77892378
1049,6.781926094
1050,6.766475503
1051,6.739150608
1052,6.736263509
1053,6.709786537
1054,6.690837297
1055,6.671652308
1056,6.627476977
1057,6.59677324
1058,6.577381761
1059,6.548392215
1060,6.538975115
1061,6.470913413
1062,6.476607772
1063,6.431438355
1064,6.407788538
1065,6.377868794
1066,6.341361412
1067,6.304102291
1068,6.265272638
1069,6.247349569
1070,6.24385055
1071,6.225994552
1072,6.182180862
1073,6.123245045
1074,6.135324129
1075,6.130278093
1076,6.103763056
1077,6.102336329
1078,6.062341209
1079,6.058907883
1080,6.050733261
1081,6.056246303
1082,6.055885015
1083,6.040687771
1084,6.065384966
1085,6.032534196
1086,6.019428578
1087,6.005586672
1088,6.021169832
1089,6.032133812
1090,6.008719956
1091,6.005047633
1092,6.025176428
1093,5.991154704
1094,6.000851265
1095,5.998231922
1096,6.009069914
1097,5.992981998
1098,5.997677252
1099,6.015953938
1100,6.011223113
1101,5.981736137
1102,6.00971497
1103,6.013516411
1104,6.010115377
1105,5.976505824
1106,6.00948487
1107,6.004088621
1108,5.985533463
1109,6.018247847
1110,5.973404949
1111,6.005469394
1112,5.998196865
1113,5.987612592
1114,5.999234796
1115,6.021358919
1116,5.988192301
1117,6.012464268
1118,6.024545585
1119,6.011777359
1120,6.026408459
1121,5.991555036
1122,6.009337138
1123,5.973924261
1124,5.992383175
1125,6.004748506
1126,5.970452952
1127,5.97873574
1128,5.99105505
1129,5.99961452
1130,6.013754144
1131,5.997049152
1132,6.003024548
1133,5.977092899
1134,6.014712423
1135,6.004678053
1136,5.991738161
1137,5.998512685
1138,6.018497568
1139,5.989893102
1140,5.996284401
1141,6.004138544
1142,5.999228738
1143,5.993015017
1144,6.014940399
1145,6.001253486
1146,5.987714641
1147,5.988262163
1148,5.968371286
1149,6.007523695
1150,6.032293301
1151,6.016212784
1152,5.9832923
1153,5.992164639
1154,6.000818902
1155,5.989946001
1156,5.996464973
1157,6.005193287
1158,5.998740819
1159,5.990548195
1160,6.016125887
1161,5.979581309
1162,6.018826593
1163,5.992552278
1164,6.00524651
1165,6.003313748
1166,5.997554912
1167,6.003589357
1168,5.977695401
1169,6.004281019
1170,6.012255617
1171,6.026481034
1172,5.992065004
1173,5.999630537
1174,5.994287511
1175,5.990323374
1176,5.977901811
1177,5.988684175
1178,5.99898431
1179,6.00729899
1180,6.000383939
1181,6.023227422
1182,6.007107641
1183,5.994088456
1184,5.990573291
1185,5.99088136
1186,5.978606484
1187,5.981497943
1188,5.998943221
1189,5.987302014
1190,6.00634667
1191,6.008242688
1192,5.990231488
1193,5.996155277
1194,6.013676859
1195,5.995881138
1196,6.000925119
1197,5.993965064
1198,6.005587158
1199,6.001661816
1200,6.026284974
1201,5.981725659
1202,5.988330685
1203,6.002728407
1204,5.993630716
1205,6.014791874
1206,6.003949804
1207,5.963635448
1208,6.026739961
1209,5.973162672
1210,6.023374502
1211,5.993543899
1212,5.9958402
1213,6.007063714
1214,6.01993355
1215,5.997936523
1216,5.998659651
1217,6.013916182
1218,5.978084153
1219,6.037428158
1220,6.017412965
1221,6.031678754
1222,6.012560646
1223,6.034674318
1224,6.014847673
1225,6.044921344
1226,6.03049148
1227,6.030724517
1228,6.082003612
1229,6.036492022
1230,6.073169127
1231,6.125274124
1232,6.117516189
1233,6.140626896
1234,6.16991031
1235,6.209984284
1236,6.197690038
1237,6.257812227
1238,6.239770843
1239,6.292788426
1240,6.315213099
1241,6.367045442
1242,6.368849283
1243,6.382864256
1244,6.43699235
1245,6.493519524
1246,6.519382461
1247,6.56905184
1248,6.61539321
1249,6.660895557
1250,6.709246571
1251,6.745088391
1252,6.759573374
1253,6.779473348
1254,6.844197698
1255,6.866901443
1256,6.908546351
1257,6.896926139
1258,6.934667023
1259,6.972937898
1260,6.987333677
1261,7.014402984
1262,7.012589409
1263,7.010247761
1264,7.024874032
1265,6.986683078
1266,6.98074024
1267,6.99359351
1268,6.946766285
1269,6.923124813
1270,6.91074218
1271,6.845616276
1272,6.83449747
1273,6.816387944
1274,6.76536496
1275,6.734555597
1276,6.687232712
1277,6.641707686
1278,6.595875781
1279,6.535693997
1280,6.502607856
1281,6.483092951
1282,6.45201477
1283,6.390157703
1284,6.377936942
1285,6.35425102
1286,6.309342097
1287,6.275742009
1288,6.256133075
1289,6.222224201
1290,6.208618974
1291,6.163683708
1292,6.145655857
1293,6.14420717
1294,6.075467733
1295,6.117802214
1296,6.071157828
1297,6.063890515
1298,6.076814762
1299,6.028724501
1300,6.053707801
1301,6.032050433
1302,6.065264088
1303,6.03501598
1304,6.048747447
1305,6.008379016
1306,5.992142439
1307,6.014078909
1308,5.996654123
1309,6.003823841
1310,6.007328328
1311,6.012248316
1312,6.023394301
1313,5.989609787
1314,5.985887659
1315,5.997636998
1316,5.981317477
1317,5.997364089
1318,6.003344645
1319,5.995325752
1320,5.986035148
1321,5.98385775
1322,6.019602581
1323,5.992883425
1324,6.025060273
1325,5.986648145
1326,5.99870281
1327,6.021254345
1328,6.013639886
1329,5.989999475
1330,6.016667255
1331,6.020556874
1332,5.999364948
1333,5.980964215
1334,6.016231949
1335,6.015756914
1336,6.002393476
1337,5.998822448
1338,6.004981521
1339,6.000843922
1340,5.995812193
1341,6.002060132
1342,5.969673793
1343,5.993907159
1344,6.019218817
1345,5.997353035
1346,5.993156432
1347,5.990898576
1348,5.998175019
1349,5.989139738
1350,5.982493408
1351,5.992077319
1352,5.996549135
1353,6.002927824
1354,6.009555159
1355,6.014304362
1356,6.003907403
1357,5.997909087
1358,5.988790671
1359,5.994764456
1360,6.004740675
1361,6.025908479
1362,6.007655928
1363,5.998978035
1364,5.997482248
1365,5.999571682
1366,6.014590441
1367,5.984254629
1368,5.998054098
1369,6.009944796
1370,6.0022234
1371,5.982424399
1372,5.983116418
1373,5.99729074
1374,5.979431969
1375,6.002924207
1376,6.015819088
1377,5.988615989
1378,6.016519247
1379,5.997429742
1380,5.980166803
1381,6.000194727
1382,6.016061434
1383,6.01081744
1384,6.014334021
1385,6.012349605
1386,6.013790361
1387,5.977154262
1388,6.001551267
1389,6.014069926
1390,5.972759873
1391,6.011990413
1392,6.003809901
1393,5.991355786
1394,6.016445671
1395,6.025219747
1396,6.001181399
1397,5.989085062
1398,6.025274079
1399,6.035747175
1400,6.02289628
1401,6.006054348
1402,6.005816638
1403,6.032876782
1404,6.042329511
1405,6.009650053
1406,6.008421379
1407,6.05127978
1408,6.047013009
1409,6.055345707
1410,6.047211913
1411,6.050200218
1412,6.040410547
1413,6.074142459
1414,6.082281931
1415,6.088336408
1416,6.090012203
1417,6.133839106
1418,6.137876647
1419,6.109135046
1420,6.163353689
1421,6.154699688
1422,6.151547169
1423,6.205936178
1424,6.20207846
1425,6.226548837
1426,6.243277892
1427,6.252267899
1428,6.273093973
1429,6.298373343
1430,6.337514548
1431,6.309452199
1432,6.340357005
1433,6.379918712
1434,6.354603538
1435,6.381222108
1436,6.391781732
1437,6.392418389
1438,6.393873321
1439,6.405174282
1440,6.393110872
1441,6.393815045
1442,6.403642728
1443,6.385281022
1444,6.4116166
1445,6.371572833
1446,6.373513559
1447,6.374805839
1448,6.365749087
1449,6.342881662
1450,6.335186408
1451,6.30066006
1452,6.288727626
1453,6.276847417
1454,6.287587261
1455,6.276260469
1456,6.234929217
1457,6.236867303
1458,6.221809518
1459,6.196607004
1460,6.211041135
1461,6.169966279
1462,6.152677796
1463,6.15651962
1464,6.144778974
1465,6.137780366
1466,6.09714579
1467,6.062664808
1468,6.09311921
1469,6.064154874
1470,6.058816831
1471,6.074143806
1472,6.019631705
1473,6.036121226
1474,6.036422959
1475,6.025606914
1476,6.02578806
1477,6.010203723
1478,6.019767017
1479,6.008763243
1480,6.017770725
1481,6.02815593
1482,5.991906272
1483,6.02495853
1484,6.013666325
1485,6.001374858
1486,5.98841928
1487,6.018890575
1488,6.009579156
1489,6.00663474
1490,5.999433921
1491,6.023862362
1492,6.00290908
1493,5.996611627
1494,5.991510408
1495,6.005083284
1496,5.988483355
1497,5.99985901
1498,5.990812309
1499,5.974198015
1500,5.999110446
1501,6.016580221
1502,5.993510484
1503,5.996413486
1504,5.983176708
1505,5.972366169
1506,6.014726493
1507,6.000527934
1508,5.994991941
1509,6.027117797
1510,5.991233783
1511,5.988434832
1512,5.996038158
1513,5.992773301
1514,5.994523998
1515,5.99623589
1516,5.995677814
1517,5.997620445
1518,5.988021999
1519,5.999486811
1520,6.014208833
1521,5.988258142
1522,6.016635903
1523,6.00932049
1524,5.987494879
1525,5.990994932
1526,6.00399882
1527,6.009271018
1528,6.00959388
1529,5.998779946
1530,6.033392711
1531,6.038229072
1532,5.99498861
1533,5.993734964
1534,6.023096764
1535,6.036138418
1536,5.996367531
1537,6.01134531
1538,6.004915502
1539,5.991604313
1540,5.986127114
1541,5.986157543
1542,6.007353778
1543,5.990037642
1544,5.986995971
1545,5.976107053
1546,5.984387483
1547,5.992603313
1548,6.002497327
1549,6.004873754
1550,5.975220261
1551,6.035948514
1552,5.990728971
1553,5.974639301
1554,5.977618557
1555,6.004516525
1556,6.00975408
1557,5.991550034
1558,6.03367476
1559,5.995803807
1560,6.02662487
1561,5.9963005
1562,6.028988176
1563,5.995928625
1564,6.018215613
1565,6.023254616
1566,5.972568372
1567,6.010083225
1568,5.983418738
1569,6.001740071
1570,6.002920087
1571,6.009621526
1572,5.993820942
1573,6.017372019
1574,5.975160408
1575,5.987898018
1576,6.012366798
1577,6.004413185
1578,6.009218182
1579,6.006392294
1580,5.994161658
1581,5.993730182
1582,5.992814856
1583,6.020261094
1584,5.996087365
1585,6.004703128
1586,6.002743017
1587,5.989838735
1588,6.025156783
1589,6.024539569
1590,6.019120925
1591,6.005960711
1592,6.038880017
1593,6.055266231
1594,6.009983168
1595,6.023081542
1596,6.01756177
1597,6.032908129
1598,6.029264877
1599,6.033780336
1600,6.032778147
1601,6.012247713
1602,6.037018049
1603,6.037543226
1604,6.044060347
1605,6.03256795
1606,6.044063379
1607,6.037686724
1608,6.10009831
1609,6.09313617
1610,6.098952036
1611,6.115609403
1612,6.127233678
1613,6.10418837
1614,6.112337657
1615,6.107900589
1616,6.13830713
1617,6.152208219
1618,6.172694912
1619,6.154636227
1620,6.143010208
1621,6.192889447
1622,6.170798231
1623,6.194948779
1624,6.156570159
1625,6.188990635
1626,6.185850282
1627,6.185823001
1628,6.191856489
1629,6.203461736
1630,6.198882435
1631,6.203443266
1632,6.210714192
1633,6.184245661
1634,6.196476575
1635,6.190930594
1636,6.193650338
1637,6.21416135
1638,6.15422479
1639,6.166174084
1640,6.15346466
1641,6.157844152
1642,6.136260129
1643,6.113161385
1644,6.110472689
1645,6.107136885
1646,6.097627276
1647,6.089358082
1648,6.113020971
1649,6.093109349
1650,6.076458545
1651,6.029990927
1652,6.07580611
1653,6.035052958
1654,6.038811418
1655,6.062095881
1656,6.042280217
1657,6.032245429
1658,6.039884056
1659,6.027286299
1660,6.018913261
1661,6.004163939
1662,6.019102411
1663,5.988335456
1664,6.009580614
1665,5.977826062
1666,5.987916751
1667,5.997088054
1668,5.970483527
1669,5.9890521
1670,6.004301089
1671,6.004448499
1672,6.000758397
1673,5.982059527
1674,6.020674617
1675,6.011857857
1676,6.006991713
1677,5.983840328
1678,6.032422372
1679,5.991023023
1680,5.993909251
1681,6.031220344
1682,6.004395912
1683,6.010966109
1684,6.011397975
1685,5.999798237
1686,5.990872333
1687,6.008487583
1688,6.000844933
1689,5.966499646
1690,5.958083611
1691,5.995425573
1692,6.007611724
1693,6.007261508
1694,5.992714404
1695,5.970290488
1696,6.013437453
1697,5.997293931
1698,6.001179409
1699,5.993136829
1700,5.979804902
1701,5.993440466
1702,5.975015798
1703,5.994317462
1704,5.997769585
1705,6.003029995
1706,5.964495222
1707,6.038477629
1708,5.986849632
1709,6.02945315
1710,5.997386107
1711,6.015811741
1712,5.998277428
1713,6.010239041
1714,5.978131548
1715,6.005473349
1716,5.999801554
1717,6.006329172
1718,6.014711441
1719,6.003727057
1720,5.991031461
1721,6.006608678
1722,6.012432357
1723,6.003509347
1724,6.015338583
1725,5.991969731
1726,6.026638093
1727,5.991288074
1728,5.977340067
1729,6.012372986
1730,6.025141611
1731,6.016647019
1732,6.00364538
1733,6.009453431
1734,6.009775728
1735,5.998612044
1736,5.985541118
1737,6.010451052
1738,5.976180836
1739,5.991848841
1740,6.024327111
1741,6.003501002
1742,6.010932922
1743,5.977348912
1744,6.019916969
1745,5.994866791
1746,6.00298686
1747,5.993813556
1748,6.011554924
1749,6.017020241
1750,6.016531046
1751,6.009035396
1752,6.008150208
1753,6.013703917
1754,5.996723405
1755,6.000910726
1756,6.003046557
1757,5.998789648
1758,5.992923429
1759,5.990477103
1760,5.993966324
1761,6.036683933
1762,5.999020864
1763,5.994833418
1764,5.989981508
1765,6.003041164
1766,6.011635954
1767,5.990669855
1768,6.018390542
1769,5.972847942
1770,5.99049011
1771,5.99987272
1772,6.012763926
1773,5.998696923
1774,5.987173472
1775,5.979779969
1776,5.994117535
1777,5.970979126
1778,5.988197023
1779,5.991246017
1780,6.004803917
1781,5.992763219
1782,6.019640196
1783,5.991556238
1784,5.982641141
1785,6.024239907
1786,5.999014844
1787,6.007720531
1788,6.015482945
1789,5.978939563
1790,5.970599134
1791,5.9921124
1792,6.033934093
1793,5.999301787
1794,5.996344631
1795,5.994370478
1796,5.982004989
1797,5.985603603
1798,6.017488864
1799,5.999149196
1800,5.986358789
1801,5.995057683
1802,6.007773874
1803,6.00749885
1804,5.98801613
1805,6.0114449
1806,5.99770317
1807,6.009571837
1808,6.019713422
1809,6.003384423
1810,6.00702824
1811,5.985174715
1812,5.993631005
1813,6.021942745
1814,6.005479322
1815,6.015143029
1816,5.976657619
1817,5.989549714
1818,6.024448833
1819,5.976367783
1820,6.0072115
1821,6.011386567
1822,6.025540883
1823,5.984711868
1824,5.979898355
1825,5.979927702
1826,5.997113385
1827,5.993724985
1828,6.033815542
1829,5.972528188
1830,6.014238195
1831,5.99325602
1832,5.986539835
1833,6.018744393
1834,5.989989879
1835,6.005288157
1836,6.037434934
1837,6.017221903
1838,5.992973582
1839,5.973281392
1840,5.992039812
1841,6.017255959
1842,5.991717307
1843,6.011724965
1844,6.024167378
1845,6.012760749
1846,5.982025039
1847,6.016897414
1848,5.989197213
1849,6.023148612
1850,6.000947615
1851,6.000788446
1852,6.002568129
1853,6.043394029
1854,6.018725927
1855,6.019784079
1856,5.993347709
1857,5.989644711
1858,5.99640078
1859,5.963786429
1860,6.006108543
1861,5.990376985
1862,5.976361251
1863,5.979897292
1864,5.994575348
1865,5.992841106
1866,6.011078678
1867,6.026029429
1868,5.972082555
1869,6.011567143
1870,5.967785796
1871,6.024440189
1872,5.99778145
1873,5.993870209
1874,6.010747603
1875,5.978658527
1876,6.000485323
1877,6.019705805
1878,6.023659849
1879,6.010649991
1880,6.003504693
1881,6.009101494
1882,6.023339611
1883,6.015724877
1884,5.995306296
1885,6.012432894
1886,6.019044885
1887,5.98377804
1888,6.009787774
1889,5.991776284
1890,5.979219442
1891,6.007575685
1892,5.973376647
1893,6.00468373
1894,6.008058115
1895,6.019258562
1896,5.998027161
1897,5.998952742
1898,6.009710342
1899,5.993903374
1900,6.027597287
1901,5.997122517
1902,5.985012438
1903,6.033924202
1904,6.02695899
1905,6.032747397
1906,6.003286708
1907,6.022539323
1908,6.015918981
1909,5.996920552
1910,6.02368031
1911,5.983681218
1912,5.99861069
1913,5.995125057
1914,5.98929369
1915,6.000170834
1916,6.002726417
1917,5.985469405
1918,5.992447903
1919,5.980935807
1920,6.004730709
1921,6.003142891
1922,6.009080732
1923,5.999015179
1924,6.0177748
1925,5.995815154
1926,6.009753672
1927,6.001056234
1928,5.966011137
1929,6.005175644
1930,5.999542034
1931,5.991717535
1932,6.019902354
1933,6.010516018
1934,5.996581525
1935,6.00611589
1936,5.993828333
1937,6.001861973
1938,5.996548823
1939,6.010652173
1940,5.989131776
1941,5.982956437
1942,5.988389914
1943,5.996525486
1944,6.004718681
1945,6.023011699
1946,5.995358159
1947,6.000560162
1948,6.011285688
1949,6.000442762
1950,6.00513637
1951,5.999515607
1952,5.996210507
1953,5.98759999
1954,6.002080628
1955,5.987129717
1956,5.971240013
1957,5.988923462
1958,5.973735432
1959,5.987975969
1960,6.013652221
1961,5.987933485
1962,6.008543331
1963,5.995169329
1964,5.969414477
1965,5.97679206
1966,5.964582915
1967,6.001856426
1968,6.006415853
1969,6.003302507
1970,5.977632004
1971,6.002240814
1972,5.992593052
1973,6.009798328
1974,5.978318146
1975,5.979180151
1976,5.993042562
1977,5.976351105
1978,6.002165888
1979,6.04346464
1980,5.997169391
1981,6.01353913
1982,5.994296703
1983,6.00598503
1984,6.017478914
1985,5.998092717
1986,5.991620011
1987,5.992156744
1988,5.954610257
1989,6.01657028
1990,6.004472129
1991,5.978527138
1992,6.01314371
1993,5.986652999
1994,6.010741131
1995,6.009720079
1996,5.983308973
1997,6.023617171
1998,6.010593725
1999,6.007087832
2000,6.012279294
2001,6.010684944
2002,6.007149701
2003,5.982674385
2004,6.022680854
2005,6.003689735
2006,6.03578726
2007,5.975707966
2008,6.008386618
2009,5.995953715
2010,5.991702567
2011,5.999204026
2012,6.015723413
2013,5.997913029
2014,6.006009238
2015,5.992046803
2016,6.010777162
2017,5.97567417
2018,5.994006223
2019,5.995162936
2020,6.019848451
2021,6.01853726
2022,6.0079364
2023,6.007266115
2024,6.017238884
2025,6.028131874
2026,5.983538975
2027,5.977305597
2028,6.009463193
2029,5.993266252
2030,5.971158874
2031,6.01430826
2032,6.00816726
2033,5.996086021
2034,6.025377836
2035,6.005338435
2036,6.021184995
2037,6.033464642
2038,6.018182437
2039,5.990183764
2040,5.986382764
2041,5.995466042
2042,6.009328174
2043,5.980627815
2044,5.984000322
2045,6.019981606
2046,6.005673084
2047,6.016572707
2048,6.009111282
2049,5.97597134
2050,6.016080194
2051,6.013326266
2052,6.016367604
2053,5.990568848
2054,5.998164918
2055,5.978840198
2056,5.997479271
2057,5.971784411
2058,6.008850118
2059,6.002494919
2060,5.973432275
2061,6.028775346
2062,5.996062883
2063,6.004038026
2064,6.011250229
2065,6.005168385
2066,5.993389247
2067,6.000608211
2068,6.032787797
2069,5.998840514
2070,5.988229761
2071,6.009525697
2072,6.00282796
2073,6.044993248
2074,5.991517326
2075,6.005602984
2076,5.984869132
2077,6.001216371
2078,6.027574894
2079,6.003624432
2080,5.983361364
2081,6.000724474
2082,6.000392199
2083,6.017250874
2084,5.999650717
2085,5.980810765
2086,5.999139962
2087,6.008879675
2088,6.014783458
2089,6.00535209
2090,5.994164532
2091,6.015056056
2092,5.978933001
2093,6.012513286
2094,6.022776492
2095,5.99739942
2096,5.980175854
2097,5.998790217
2098,5.980208461
2099,6.013675603
2100,6.043767576
2101,5.981001612
2102,6.009648204
2103,6.006163397
2104,5.981598715
2105,5.986201036
2106,6.000783357
2107,6.007659135
2108,5.993217715
2109,6.001142012
2110,6.01332625
2111,5.997658017
2112,6.038686054
2113,6.001927572
2114,5.974310557
2115,6.013834538
2116,5.989875057
2117,6.014710737
2118,6.000007354
2119,5.985718941
2120,5.996038186
2121,5.998385807
2122,5.983382989
2123,5.987434997
2124,5.995087367
2125,5.999792898
2126,5.998949109
2127,6.002377913
2128,6.004698503
2129,5.978542061
2130,6.01317585
2131,6.004186215
2132,5.999216517
2133,5.990318542
2134,5.972174678
2135,5.986910057
2136,5.994965531
2137,5.985619596
2138,6.004891351
2139,5.992498822
2140,5.975196469
2141,6.023043089
2142,5.990393845
2143,6.017332231
2144,6.019218347
2145,6.018868731
2146,5.989149379
2147,5.997424757
2148,5.992958621
2149,5.977434191
2150,6.020162804
2151,5.964622578
2152,5.993451281
2153,6.01429406
2154,5.996937824
2155,6.017375528
2156,6.015099702
2157,5.979048911
2158,6.023794444
2159,6.025774967
2160,6.022963223
2161,6.025714928
2162,6.005847864
2163,6.001993115
2164,6.014888708
2165,6.00545156
2166,6.028033814
2167,5.977504495
2168,5.983972784
2169,6.000431631
2170,5.987557989
2171,6.023980658
2172,6.017111612
2173,6.007950731
2174,5.990066652
2175,5.988010163
2176,5.992879432
2177,6.023634163
2178,5.994532905
2179,5.999409076
2180,5.998522887
2181,5.999521122
2182,5.980861811
2183,5.993657409
2184,5.992828928
2185,6.003839587
2186,5.980361626
2187,6.000819702
2188,5.973941994
2189,6.009519642
2190,6.019703595
2191,5.988663104
2192,6.008799399
2193,6.008475877
2194,5.979459215
2195,6.003694392
2196,5.977511495
2197,6.002004486
2198,6.016114128
2199,6.009585887
2200,5.994189349
2201,5.984476342
2202,6.007605991
2203,6.001723373
2204,6.004643262
2205,6.011605737
2206,6.006820104
2207,5.9985931
2208,6.01229057
2209,5.997718643
2210,5.990555467
2211,5.990864204
2212,5.996224906
2213,6.001944078
2214,6.016634011
2215,6.014252857
2216,5.980964689
2217,6.003033239
2218,5.995720209
2219,5.969857208
2220,5.997733508
2221,6.001843473
2222,6.021458298
2223,6.001292548
2224,6.018568398
2225,5.99050482
2226,6.020760671
2227,5.99787408
2228,6.003389836
2229,5.995402058
2230,5.998797069
2231,5.984280822
2232,6.025178785
2233,6.006169404
2234,5.997209108
2235,5.966307574
2236,5.985748824
2237,6.000753833
2238,6.003249762
2239,5.965183789
2240,6.026778678
2241,5.985867229
2242,5.992507799
2243,5.983364456
2244,5.98387264
2245,5.999360265
2246,5.995400713
2247,6.010953685
2248,6.021402732
2249,6.000106094
2250,5.985300747
2251,5.996980197
2252,5.994518148
2253,6.001898021
2254,5.978623664
2255,6.012440861
2256,5.994202183
2257,6.010819455
2258,5.999404394
2259,5.992796619
2260,6.015763852
2261,5.997620085
2262,5.986436313
2263,5.997539645
2264,6.009366381
2265,5.992684054
2266,5.996121632
2267,6.019457539
2268,5.990751421
2269,5.993194963
2270,6.021133986
2271,5.992891711
2272,6.001989654
2273,5.995895318
2274,5.998062184
2275,6.007866491
2276,6.021421635
2277,6.007084881
2278,6.019302475
2279,6.023899968
2280,5.989218957
2281,6.003402578
2282,5.987470474
2283,5.996011946
2284,5.972989472
2285,6.006878169
2286,6.012844209
2287,6.007779936
2288,5.993642982
2289,6.001727041
2290,5.998414269
2291,6.012504286
2292,6.010411727
2293,6.02570754
2294,5.995772702
2295,5.996679021
2296,6.00933474
2297,6.003430906
2298,6.008207712
2299,5.98375611
2300,6.004595272
2301,6.005434458
2302,6.002780865
2303,6.002089395
2304,6.015998899
2305,5.999944086
2306,6.015865434
2307,5.991413391
2308,6.007064894
2309,5.991453711
2310,5.987757506
2311,5.986429506
2312,6.039801703
2313,6.006967816
2314,6.002503316
2315,5.980719706
2316,5.983890073
2317,6.001231145
2318,6.010195353
2319,5.996109194
2320,6.020632171
2321,6.011238609
2322,6.013254465
2323,6.010226193
2324,6.01023656
2325,6.016254488
2326,5.990519487
2327,6.005237789
2328,5.994776052
2329,5.983455872
2330,6.012228559
2331,6.014711745
2332,6.016135867
2333,6.015929421
2334,6.024028151
2335,5.982683764
2336,5.995003977
2337,5.999543868
2338,6.026893955
2339,6.003063406
2340,6.016600028
2341,5.994193793
2342,6.031636553
2343,5.995358668
2344,5.984843475
2345,6.005383695
2346,6.011662037
2347,6.007300841
2348,6.027143483
2349,5.979663988
2350,5.982544851
2351,5.997351669
2352,6.024978376
2353,5.981543204
2354,6.012572301
2355,5.97922777
2356,5.986862158
2357,6.010179387
2358,5.998138865
2359,6.005177066
2360,5.959902645
2361,6.024316945
2362,6.000240004
2363,5.978128993
2364,5.999844237
2365,6.012037358
2366,6.007836316
2367,5.974025812
2368,5.981194181
2369,5.992241209
2370,6.023268714
2371,5.98466607
2372,6.00560396
2373,6.025700335
2374,5.996023877
2375,6.003083106
2376,6.001856233
2377,5.983545141
2378,5.988293522
2379,5.98705385
2380,5.992104392
2381,6.011406098
2382,6.000681046
2383,5.978211913
2384,5.991666087
2385,5.981668628
2386,5.989729919
2387,6.021038663
2388,5.990669711
2389,6.013107858
2390,5.997466528
2391,6.000066928
2392,5.994774958
2393,6.014834771
2394,6.013725691
2395,6.011852371
2396,5.984091173
2397,5.999758165
2398,6.004986316
2399,5.999313997
2400,6.023154984
2401,5.994580855
2402,5.981074696
2403,6.018775341
2404,5.984519796
2405,5.987568669
2406,5.990108501
2407,5.993287649
2408,6.005193297
2409,5.992424842
2410,6.019765655
2411,5.995443393
2412,6.006125226
2413,5.996659858
2414,5.97764869
2415,5.987059919
2416,6.012908313
2417,5.976215618
2418,6.018470287
2419,6.015228761
2420,5.996077427
2421,5.986541501
2422,6.009511095
2423,5.982249495
2424,5.975009202
2425,6.020250564
2426,5.987048064
2427,5.999808203
2428,5.991452111
2429,6.01525265
2430,5.984492198
2431,6.022869295
2432,6.012901119
2433,5.966384657
2434,5.995879037
2435,6.020077713
2436,5.989182034
2437,6.005301536
2438,5.992799267
2439,5.978896281
2440,5.949383001
2441,6.00008273
2442,5.978365937
2443,6.007835085
2444,6.000937674
2445,5.986624906
2446,5.972104664
2447,5.988105095
2448,5.987878794
2449,5.999614436
2450,5.986169609
2451,5.99460674
2452,6.031820588
2453,5.994375563
2454,5.981248794
2455,6.008877381
2456,6.003181909
2457,6.013117853
2458,6.007081158
2459,5.999604961
2460,5.997486967
2461,6.003750604
2462,6.009915164
2463,6.041204288
2464,5.979764633
2465,5.993431019
2466,5.986882602
2467,5.971532197
2468,6.010258214
2469,6.02323555
2470,5.974797335
2471,5.950811395
2472,5.99316825
2473,6.023032396
2474,5.990913258
2475,5.996867263
2476,5.995255581
2477,6.022273586
2478,5.987791315
2479,6.005717179
2480,6.002712499
2481,5.997799249
2482,6.008314014
2483,6.004291021
2484,5.995234306
2485,5.992542737
2486,6.022098439
2487,6.002359039
2488,6.001487759
2489,5.994109736
2490,5.991872993
2491,5.986347945
2492,6.001880964
2493,5.991298448
2494,5.995820335
2495,6.010106169
2496,6.011508634
2497,5.992025813
2498,5.984392179
2499,6.013873797
2500,5.994952428
2501,6.015789596
2502,5.990226661
2503,6.001985228
2504,6.008821635
2505,5.99266482
2506,6.018357419
2507,6.012411948
2508,5.988013983
2509,6.02321665
2510,5.993970306
2511,5.980722602
2512,5.999900249
2513,5.998581958
2514,5.998295851
2515,5.97214224
2516,6.005294834
2517,5.997263079
2518,6.008285377
2519,6.011954207
2520,5.970042879
2521,5.990207406
2522,5.975881865
2523,6.014358738
2524,5.988483134
2525,6.003368981
2526,5.991993213
2527,6.005286868
2528,6.000393837
2529,6.002975032
2530,6.003469924
2531,5.994102275
2532,6.008316801
2533,6.002893355
2534,5.990855115
2535,6.006766656
2536,6.013538338
2537,5.99113524
2538,6.006947726
2539,5.987340957
2540,6.006027898
2541,6.000447666
2542,5.997255344
2543,6.004160336
2544,5.999411305
2545,5.998228083
2546,6.010418934
2547,6.03061095
2548,6.001058601
2549,5.977630331
2550,6.008828627
2551,6.000911298
2552,5.962390139
2553,5.992475363
2554,6.013428545
2555,6.006366904
2556,5.993714292
2557,5.986207508
2558,6.012293929
2559,6.019016571
2560,6.026747082
2561,5.982305396
2562,5.975818339
2563,5.972451544
2564,6.011189338
2565,5.995647662
2566,5.98961344
2567,5.99611317
2568,5.997394931
2569,5.995798427
2570,5.994535808
2571,6.01445495
2572,5.989656565
2573,5.994372406
2574,6.005389878
2575,5.995018603
2576,6.010602038
2577,6.003234419
2578,5.990626085
2579,5.99399596
2580,5.966601678
2581,6.008590261
2582,5.982326322
2583,6.00945425
2584,6.012429975
2585,5.990823442
2586,6.026025798
2587,5.979994654
2588,5.997659243
2589,5.992208102
2590,6.002533798
2591,5.991533922
2592,5.976801582
2593,5.992671961
2594,5.992819581
2595,6.013188961
2596,5.975872058
2597,5.980955911
2598,6.031128888
2599,5.993098127
2600,6.015209058
2601,6.006590934
2602,6.007824501
2603,6.0402612
2604,5.979244867
2605,5.997093002
2606,5.992054817
2607,5.991073717
2608,6.004132256
2609,5.990116265
2610,5.975140566
2611,6.024359663
2612,6.016663408
2613,5.999123443
2614,6.002921679
2615,6.029907538
2616,5.979398532
2617,6.037949964
2618,6.005081798
2619,5.99935925
2620,6.002854304
2621,6.003884518
2622,6.012739409
2623,6.021797257
2624,5.994980842
2625,5.989904118
2626,5.976902305
2627,5.999754829
2628,6.008550752
2629,6.005321702
2630,6.016112693
2631,5.956765145
2632,5.988588903
2633,5.982840785
2634,6.021834245
2635,5.997630946
2636,6.004451748
2637,5.999796271
2638,5.999400541
2639,6.037686839
2640,5.998063824
2641,5.991111888
2642,5.985111359
2643,6.002498238
2644,5.990370778
2645,6.016764412
2646,6.004723948
2647,5.995675372
2648,6.002207153
2649,5.991506487
2650,5.997476322
2651,6.008140489
2652,5.982039475
2653,5.986464195
2654,6.019670919
2655,5.999584607
2656,6.028042578
2657,6.016575324
2658,6.042160942
2659,5.989282294
2660,5.993221698
2661,6.021673147
2662,5.984662093
2663,5.976306484
2664,5.985137081
2665,5.978160497
2666,6.024157198
2667,5.992738468
2668,6.018629241
2669,5.995285214
2670,6.014044388
2671,6.00551172
2672,6.0191838
2673,5.996138742
2674,6.009591181
2675,5.999611167
2676,5.99998968
2677,5.997524057
2678,5.993902778
2679,5.986862753
2680,5.997570062
2681,6.024110636
2682,5.986046001
2683,6.029557377
2684,5.995451714
2685,6.004057718
2686,6.005645447
2687,6.010752762
2688,6.017969594
2689,6.030007598
2690,6.017895635
2691,6.008748457
2692,6.001214177
2693,5.971977583
2694,6.001322787
2695,5.988401448
2696,6.000077599
2697,6.009940948
2698,6.008990098
2699,5.988695204
2700,6.009326158
2701,6.004511695
2702,5.987310603
2703,5.988634734
2704,6.017913603
2705,5.989568828
2706,6.006991643
2707,5.989346512
2708,6.015927917
2709,6.008977153
2710,6.021798593
2711,5.990186957
2712,5.991881913
2713,6.006284266
2714,5.991529042
2715,6.012117536
2716,5.98862564
2717,5.987012474
2718,5.998460565
2719,6.018040741
2720,5.993249951
2721,5.981693441
2722,5.984701935
2723,6.025312966
2724,5.998659742
2725,6.039847983
2726,6.026124079
2727,5.965181385
2728,6.013109811
2729,6.021399274
2730,5.996044078
2731,5.985095238
2732,6.026684859
2733,6.000716097
2734,5.999651814
2735,6.012823966
2736,6.011833059
2737,6.006437573
2738,5.989377426
2739,6.024887676
2740,5.975359706
2741,6.009769473
2742,6.009552478
2743,6.001850213
2744,5.989130118
2745,5.999117283
2746,5.985694965
2747,6.01401199
2748,6.006469946
2749,6.005138068
2750,6.009976512
2751,5.99712942
2752,5.998987841
2753,6.001856043
2754,6.003760914
2755,5.982304241
2756,5.998516753
2757,6.00041407
2758,5.98500963
2759,5.988716593
2760,6.012730425
2761,5.991222705
2762,5.981297655
2763,6.019088959
2764,6.004499677
2765,5.995415245
2766,6.003110243
2767,5.999458496
2768,5.997927874
2769,5.993238466
2770,6.009748193
2771,5.995736259
2772,5.987419963
2773,5.985181929
2774,5.979393893
2775,5.986985461
2776,5.966954619
2777,6.001909385
2778,6.007970681
2779,6.007112261
2780,6.012061967
2781,5.981044135
2782,6.024832889
2783,5.965033015
2784,6.006056719
2785,5.998099157
2786,6.023089345
2787,6.002828774
2788,6.011299759
2789,6.019844034
2790,6.009131602
2791,6.018679639
2792,6.001186276
2793,6.01950604
2794,6.012854922
2795,5.979913927
2796,6.019859108
2797,6.014958221
2798,5.994930555
2799,6.012969923
2800,5.999069223
2801,5.991348055
2802,6.021704504
2803,6.000782904
2804,6.005305453
2805,5.991322243
2806,5.987165868
2807,6.01829668
2808,6.006799192
2809,5.988528081
2810,5.993048735
2811,6.030363589
2812,5.985120344
2813,5.987009926
2814,5.977285616
2815,5.998220656
2816,5.994685228
2817,6.007178006
2818,5.977534675
2819,5.972842057
2820,6.003237771
2821,6.008820082
2822,5.98189705
2823,6.015220211
2824,5.997089656
2825,5.995455311
2826,6.021426593
2827,6.00173354
2828,6.020754458
2829,6.024050685
2830,5.993830135
2831,5.992586808
2832,6.00060344
2833,5.99696815
2834,5.996739396
2835,6.001567515
2836,6.010507449
2837,5.998528464
2838,5.996283195
2839,6.004597702
2840,5.993042082
2841,5.981971193
2842,5.986849132
2843,6.00110319
2844,5.998490116
2845,6.005073152
2846,6.027266694
2847,6.007112273
2848,5.997294156
2849,6.002774814
2850,6.00372522
2851,5.992218669
2852,5.970841439
2853,5.996999918
2854,5.993347988
2855,6.041611262
2856,6.013711977
2857,6.003708054
2858,6.020384375
2859,6.001626804
2860,5.984808165
2861,6.008667769
2862,5.978684887
2863,5.972273954
2864,6.017027755
2865,6.004962104
2866,5.991558159
2867,6.023266428
2868,6.001601542
2869,5.998494119
2870,6.027488494
2871,5.974055681
2872,5.994033593
2873,6.025249547
2874,5.989976512
2875,6.000941282
2876,5.98461569
2877,6.024827128
2878,5.990508808
2879,5.999890241
2880,6.018276253
2881,5.993274528
2882,5.993907228
2883,6.033004533
2884,5.984537141
2885,6.008403077
2886,5.9798022
2887,6.012018553
2888,5.964384253
2889,5.994274566
2890,5.997429033
2891,5.974030837
2892,6.001401157
2893,5.981243897
2894,6.006989661
2895,5.977832534
2896,6.005454691
2897,6.015216208
2898,6.003004431
2899,6.025947952
2900,6.002461196
2901,6.012131862
2902,6.004143673
2903,6.002426085
2904,6.016207202
2905,5.993962266
2906,5.976188885
2907,5.966594173
2908,6.003069746
2909,5.994874628
2910,5.987060794
2911,5.986486799
2912,5.9904084
2913,5.999919221
2914,5.982453269
2915,6.013273367
2916,5.998422311
2917,6.000915455
2918,6.022494492
2919,5.999052398
2920,5.990587592
2921,6.011701969
2922,6.016362878
2923,6.007490823
2924,6.000968892
2925,6.015109775
2926,6.013885202
2927,6.011519336
2928,6.018248328
2929,6.020972133
2930,5.990877667
2931,5.992970622
2932,5.987688215
2933,6.017212868
2934,6.002942335
2935,5.981001701
2936,5.977546065
2937,6.010519276
2938,5.994920624
2939,6.002787605
2940,5.997108806
2941,5.975048436
2942,6.006488397
2943,6.006209179
2944,6.005994782
2945,6.019023515
2946,5.984331983
2947,6.013652438
2948,5.99527645
2949,5.981938603
2950,6.004378557
2951,5.985282255
2952,6.024626693
2953,5.991879963
2954,5.996362332
2955,5.967734388
2956,5.993761806
2957,6.018004067
2958,5.984621522
2959,5.992799167
2960,6.014444646
2961,6.023214811
2962,6.001725113
2963,5.987994644
2964,5.981281534
2965,6.014140205
2966,6.012685303
2967,5.980646428
2968,6.010890824
2969,6.012693921
2970,5.996808469
2971,5.995583861
2972,6.009822469
2973,5.996282929
2974,5.996467329
2975,5.98694926
2976,6.013767707
2977,6.001859736
2978,5.976893371
2979,6.007919255
2980,6.014672504
2981,6.002406531
2982,5.981808439
2983,5.979588691
2984,5.959843373
2985,5.991783475
2986,6.014610462
2987,6.001941628
2988,5.960805834
2989,5.992587101
2990,5.982331706
2991,5.98844596
2992,6.013460474
2993,6.012847498
2994,6.022989778
2995,6.02079741
2996,5.989060193
2997,5.993513552
2998,6.003649116
2999,6.010676428
3000,5.988994231
3001,5.997772893
3002,5.992385599
3003,5.9848867
3004,5.986115656
3005,5.984513815
3006,5.992417767
3007,5.97909263
3008,5.971156448
3009,6.012638145
3010,6.003303442
3011,6.016394554
3012,5.987944588
3013,5.982222142
3014,6.024206953
3015,6.004178546
3016,5.992732479
3017,5.990233759
3018,6.025736404
3019,6.008093823
3020,6.014675757
3021,6.005750827
3022,6.015478026
3023,5.998521554
3024,5.955184411
3025,6.026136815
3026,6.008911201
3027,6.016958872
3028,5.989321739
3029,5.987579363
3030,6.01894269
3031,5.982200748
3032,6.001164282
3033,5.996101396
3034,6.02776412
3035,5.99327823
3036,5.98029226
3037,6.006623006
3038,5.962445214
3039,5.991316746
3040,5.998554876
3041,6.007424601
3042,6.007200731
3043,6.005678956
3044,5.995070968
3045,5.972087028
3046,6.009185799
3047,6.026044454
3048,5.993966162
3049,6.024242954
3050,5.997962082
3051,5.958861384
3052,5.977429147
3053,6.004990985
3054,6.002568625
3055,6.008569679
3056,5.996860212
3057,6.001338898
3058,5.985062669
3059,6.001281372
3060,6.017043667
3061,5.960956035
3062,6.018515973
3063,5.973410834
3064,6.02700406
3065,5.996838524
3066,5.971392797
3067,5.975908523
3068,5.992015297
3069,6.008310737
3070,5.988947641
3071,6.012334178
3072,6.023521486
3073,5.984610432
3074,5.988837132
3075,5.978678003
3076,5.998274243
3077,5.97198607
3078,6.002380614
3079,5.997179627
3080,6.004514786
3081,6.009997
3082,6.025297311
3083,5.980857847
3084,6.011426969
3085,6.010059735
3086,6.01510828
3087,6.001370044
3088,5.997535195
3089,6.009206645
3090,5.989720719
3091,6.001600139
3092,6.003691523
3093,6.022167753
3094,6.014970592
3095,5.993266349
3096,6.02957802
3097,5.996296139
3098,5.994367579
3099,6.00806714
3100,5.997398649
3101,5.961994862
3102,5.990153559
3103,5.98649726
3104,6.000278268
3105,5.975209781
3106,6.009616256
3107,6.003409449
3108,5.987575285
3109,5.9810461
3110,6.021277201
3111,6.002921996
3112,6.007898753
3113,5.980366158
3114,5.966252999
3115,6.001872834
3116,6.012071299
3117,5.995762708
3118,5.987912837
3119,5.991079916
3120,6.020563393
3121,6.011570218
3122,6.00723863
3123,6.005424331
3124,5.993184156
3125,5.979234338
3126,6.02790544
3127,5.994284487
3128,5.995623712
3129,6.031746513
3130,5.999743978
3131,6.008665794
3132,6.00582565
3133,6.00166599
3134,5.99094957
3135,5.995721457
3136,6.008915182
3137,6.0136769
3138,6.001905275
3139,5.999801709
3140,5.990333589
3141,6.01072048
3142,5.988968436
3143,6.018964582
3144,5.988965765
3145,6.006410418
3146,6.017974909
3147,5.992615993
3148,5.990733661
3149,6.017357353
3150,5.965294562
3151,6.005504578
3152,6.001511796
3153,6.019495533
3154,5.994904852
3155,5.988254157
3156,5.97593002
3157,5.995720499
3158,5.996005275
3159,5.979814254
3160,5.973924933
3161,6.002573051
3162,6.006199325
3163,6.008707966
3164,6.014300546
3165,6.011498979
3166,6.025869639
3167,6.01141141
3168,6.012684448
3169,6.005795106
3170,6.016198394
3171,5.996995745
3172,6.00531018
3173,6.008533985
3174,6.008876906
3175,6.01909218
3176,6.019393619
3177,6.028870053
3178,6.000176152
3179,5.965554099
3180,6.016615558
3181,5.978480447
3182,5.999143953
3183,5.986108283
3184,5.992600601
3185,5.990816336
3186,5.992107666
3187,6.008698038
3188,5.983057928
3189,6.004912945
3190,6.006600539
3191,5.991103606
3192,6.005850175
3193,5.983300705
3194,5.990254494
3195,6.006293521
3196,6.010125408
3197,6.016779144
3198,6.000584786
3199,5.98130944
3200,6.023294133
3201,6.022714406
3202,6.001454459
3203,5.978148057
3204,6.010514883
3205,6.003805309
3206,5.992135287
3207,6.000902957
3208,5.985052849
3209,5.974316019
3210,5.975789192
3211,6.03533137
3212,5.996874852
3213,5.973483647
3214,5.979133338
3215,5.989935462
3216,5.973691726
3217,5.986646183
3218,6.014098786
3219,6.00349466
3220,5.99126452
3221,5.983753561
3222,5.995538115
3223,5.9956658
3224,5.987716706
3225,6.010582715
3226,6.01249143
3227,6.021784867
3228,5.993386692
3229,6.011568288
3230,6.005113969
3231,5.965652061
3232,6.017211842
3233,6.010983157
3234,6.030047397
3235,6.00978426
3236,6.027014418
3237,5.99849755
3238,6.003273579
3239,5.997387426
3240,6.022780568
3241,5.999053735
3242,5.9657301
3243,6.021050116
3244,5.964957769
3245,6.004425679
3246,6.01319124
3247,6.012920304
3248,6.017196838
3249,5.977973489
3250,6.009894346
3251,6.025230995
3252,5.985988681
3253,6.01875557
3254,6.016040254
3255,6.016203194
3256,6.03496057
3257,6.003662985
3258,5.98396489
3259,6.004916615
3260,5.993386957
3261,5.988315523
3262,5.972781176
3263,5.994720386
3264,5.987963481
3265,5.997861205
3266,6.005729885
3267,5.987605874
3268,5.992851683
3269,5.994785354
3270,5.994965215
3271,6.000219179
3272,5.990648115
3273,5.99342294
3274,6.014193589
3275,6.003931214
3276,5.994346643
3277,6.001139929
3278,6.001414481
3279,5.996078191
3280,5.99676028
3281,6.008492932
3282,6.026636762
3283,5.975420713
3284,6.004052004
3285,6.021530722
3286,6.020015709
3287,5.99774025
3288,6.008488103
3289,6.030572115
3290,6.010282389
3291,6.012630096
3292,5.972753181
3293,6.002349309
3294,6.001106908
3295,5.985242572
3296,6.00514383
3297,5.99419083
3298,5.976124878
3299,5.982766209
3300,5.994779648
3301,5.995880819
3302,6.000381224
3303,6.005657569
3304,6.003688809
3305,6.025861546
3306,5.993582968
3307,6.009719829
3308,5.97795988
3309,5.987090901
3310,5.960473822
3311,5.977011363
3312,5.996156057
3313,5.978444895
3314,6.002831105
3315,5.989827133
3316,5.990499051
3317,6.016301658
3318,5.997582437
3319,6.001724019
3320,6.007696946
3321,5.99295219
3322,6.011576951
3323,5.99548463
3324,5.983475579
3325,6.002966888
3326,5.990226406
3327,5.974111419
3328,6.037390816
3329,6.010502072
3330,5.996525411
3331,6.002438726
3332,5.984641422
3333,6.027396188
3334,6.008164981
3335,6.002728263
3336,6.014035149
3337,5.976970543
3338,6.012388358
3339,5.998538614
3340,5.993884133
3341,5.98945901
3342,5.979643341
3343,6.031071499
3344,5.999193246
3345,5.983880011
3346,5.997689974
3347,6.000239728
3348,5.994271935
3349,5.989686086
3350,6.013055619
3351,5.988071696
3352,6.025755503
3353,6.028721356
3354,6.013923252
3355,5.971815086
3356,5.989167386
3357,5.987336642
3358,5.997469328
3359,6.015903889
3360,6.027445726
3361,5.999076056
3362,6.036784031
3363,5.978765565
3364,5.979562742
3365,6.009541373
3366,6.002537312
3367,5.99693844
3368,5.966602791
3369,6.01092566
3370,6.017003196
3371,5.996812229
3372,5.984373129
3373,5.997343281
3374,6.021920813
3375,6.000791244
3376,6.010715488
3377,6.011731293
3378,5.99756866
3379,6.005715747
3380,6.034856459
3381,5.995503926
3382,5.997933829
3383,5.99868563
3384,6.005703644
3385,6.008369587
3386,5.990018448
3387,5.98840529
3388,6.016300486
3389,5.99006393
3390,6.008965223
3391,5.999714613
3392,5.997976969
3393,6.0054063
3394,5.995113159
3395,5.96944876
3396,6.021731052
3397,6.018947061
3398,5.990914949
3399,5.995285868
3400,6.011395286
3401,5.979308272
3402,6.008652433
3403,5.996642457
3404,6.011436201
3405,6.00228724
3406,5.956639473
3407,6.002082276
3408,6.011820774
3409,5.994901321
3410,6.006039981
3411,5.991392491
3412,6.022478644
3413,6.006046725
3414,5.994126259
3415,5.990705462
3416,6.020238719
3417,5.985673541
3418,6.023105927
3419,5.997982319
3420,5.998447021
3421,5.991294823
3422,6.017810303
3423,6.005957762
3424,6.011208191
3425,6.016772096
3426,6.009474341
3427,6.011243128
3428,6.003126983
3429,6.00391423
3430,5.973064405
3431,6.012369176
3432,6.011473579
3433,6.008787112
3434,5.988135585
3435,5.989792637
3436,5.999087226
3437,5.961862532
3438,6.00145787
3439,5.999455364
3440,5.980307112
3441,5.992501424
3442,5.996692153
3443,6.012221723
3444,6.002050744
3445,6.007300655
3446,6.010568355
3447,5.990510565
3448,5.992948248
3449,5.979578451
3450,6.000588981
3451,5.989855793
3452,5.99404167
3453,5.985665596
3454,6.002916392
3455,5.989700476
3456,5.984743293
3457,5.974777975
3458,6.013694317
3459,5.998187768
3460,5.997475452
3461,6.00294241
3462,6.001049294
3463,5.975358334
3464,5.996497208
3465,6.002322742
3466,6.018699269
3467,5.98919476
3468,6.011847114
3469,5.987647853
3470,6.033542508
3471,5.972317983
3472,5.996898829
3473,6.021340246
3474,6.029256949
3475,6.030244093
3476,6.00872847
3477,5.968687734
3478,6.001580632
3479,6.002025139
3480,6.003969203
3481,5.992316813
3482,6.018799909
3483,6.020937049
3484,5.980257453
3485,6.008038372
3486,6.005607151
3487,6.013128598
3488,5.998338743
3489,5.999814732
3490,6.015202474
3491,5.997437976
3492,5.997434657
3493,5.990132277
3494,6.013182569
3495,6.015513144
3496,5.973164985
3497,5.986592542
3498,5.992661527
3499,5.984057405
3500,6.008042593
3501,6.015948983
3502,6.007304803
3503,6.004642926
3504,5.997293557
3505,6.001713376
3506,5.992602448
3507,6.013386219
3508,6.016345543
3509,6.023958025
3510,6.010110871
3511,5.993399126
3512,5.991598378
3513,5.976889902
3514,6.02167006
3515,6.002479461
3516,6.004823476
3517,6.015977267
3518,5.991434139
3519,5.988827261
3520,6.012893969
3521,5.999301772
3522,5.991507147
3523,6.021635757
3524,5.991418273
3525,5.989879136
3526,6.022313566
3527,6.033140593
3528,5.996595157
3529,5.986645872
3530,6.007704943
3531,6.013136434
3532,5.969675244
3533,6.020992111
3534,5.998430342
3535,6.016472696
3536,5.997630562
3537,5.98438547
3538,5.996676382
3539,5.988134142
3540,5.9964316
3541,6.026358116
3542,6.021271258
3543,6.020365846
3544,5.991625807
3545,6.014189902
3546,5.979228275
3547,5.980149964
3548,6.018842245
3549,6.00379132
3550,5.992235533
3551,6.011763164
3552,5.995629255
3553,5.988106538
3554,6.002413126
3555,5.994541008
3556,5.972866225
3557,6.011245865
3558,5.999615582
3559,6.009554316
3560,6.004854594
3561,6.01134593
3562,5.995667699
3563,5.978864897
3564,5.998724071
3565,5.974804574
3566,6.006662764
3567,6.017264439
3568,5.996218661
3569,5.976284609
3570,5.974402527
3571,5.993815326
3572,6.006505323
3573,6.008035038
3574,5.996967557
3575,5.993917798
3576,5.988961835
3577,5.992945712
3578,5.993509206
3579,5.9957255
3580,6.004416928
3581,5.984869492
3582,6.02194181
3583,6.0128059
3584,5.998271308
3585,5.985337371
3586,5.974406255
3587,5.988730444
3588,5.987933694
3589,5.981055254
3590,6.007607614
3591,6.006939941
3592,6.022502603
3593,5.98293536
3594,6.00792836
3595,5.990440921
3596,5.99372377
3597,5.998190237
3598,5.974461301
3599,5.997557053
3600,6.013023189
3601,5.991343699
3602,5.982363791
3603,6.002292507
3604,5.990641011
3605,6.03841369
3606,5.981244053
3607,5.989865952
3608,6.024895403
3609,6.016642659
3610,6.0121897
3611,6.003122637
3612,6.022751713
3613,5.998649398
3614,5.982950589
3615,6.002919534
3616,5.991016143
3617,6.022521306
3618,6.005069365
3619,5.988397383
3620,5.95617177
3621,6.002679516
3622,5.964182732
3623,5.984928401
3624,6.001457843
3625,6.015668823
3626,5.974184146
3627,5.981771412
3628,5.987104212
3629,5.997576147
3630,5.994150985
3631,6.008848611
3632,6.01435711
3633,5.996511247
3634,6.02701348
3635,5.971383618
3636,5.994893152
3637,5.990913937
3638,6.011722943
3639,5.963782403
3640,6.019234817
3641,6.020332811
3642,6.016321165
3643,5.995992859
3644,5.958232361
3645,5.981442837
3646,5.988928586
3647,6.026700717
3648,5.991310529
3649,5.988142819
3650,5.999614896
3651,5.994823526
3652,5.967854016
3653,5.999244858
3654,6.004927415
3655,6.008682827
3656,6.005058743
3657,5.988278144
3658,6.006987886
3659,5.989007896
3660,5.98801138
3661,6.002543061
3662,5.993288644
3663,5.978973833
3664,6.000943601
3665,6.003379175
3666,6.010659681
3667,6.011692008
3668,5.961993218
3669,6.032470479
3670,5.992231597
3671,6.001133085
3672,5.988181836
3673,6.014701169
3674,5.995019412
3675,6.011302208
3676,6.025215968
3677,6.014987706
3678,5.999185259
3679,5.984577316
3680,5.983637008
3681,6.007392735
3682,6.000272196
3683,6.004324972
3684,5.973397997
3685,6.010435239
3686,6.001602387
3687,5.991036567
3688,5.978252857
3689,5.984455295
3690,5.992934493
3691,6.000306218
3692,6.057171441
3693,5.999121407
3694,5.997684755
3695,5.98750942
3696,5.9880216
3697,6.000831076
3698,6.006809328
3699,6.022413153
3700,6.005075442
3701,6.001806419
3702,5.998397452
3703,6.028384331
3704,5.987780515
3705,5.980887493
3706,5.988486588
3707,6.013697611
3708,5.991274352
3709,5.982979432
3710,6.001641102
3711,5.987421598
3712,6.004595309
3713,5.998622714
3714,6.00835328
3715,6.001738247
3716,6.018355594
3717,5.993057113
3718,5.998540481
3719,6.008376025
3720,6.000422308
3721,6.000450444
3722,5.98522448
3723,5.984889354
3724,6.003418407
3725,5.993630463
3726,6.008038609
3727,6.035376826
3728,6.01660157
3729,6.012567132
3730,6.02621398
3731,6.015514328
3732,6.010647494
3733,5.995671162
3734,5.989518182
3735,5.986294668
3736,6.015445889
3737,6.015147582
3738,6.011630813
3739,5.972620612
3740,5.985236215
3741,6.002991897
3742,6.022237197
3743,5.99906499
3744,5.974774274
3745,6.006612277
3746,6.020695545
3747,5.983482022
3748,5.979861988
3749,6.00657677
3750,5.988137547
3751,6.022282318
3752,6.005224023
3753,5.990195327
3754,5.996571458
3755,6.015082085
3756,5.993326601
3757,5.986451709
3758,5.996862107
3759,6.007375978
3760,5.978816291
3761,5.994371063
3762,5.999595914
3763,5.977308676
3764,5.998374352
3765,6.00992108
3766,6.002356096
3767,5.978519158
3768,6.001203738
3769,6.011836097
3770,5.992660112
3771,6.009852065
3772,6.000290455
3773,6.006520091
3774,5.979481003
3775,5.997352923
3776,6.002697663
3777,6.030484373
3778,5.995504565
3779,5.967801194
3780,6.021162186
3781,5.987042656
3782,6.031192849
3783,6.008325869
3784,6.003505611
3785,5.993549421
3786,6.012963886
3787,6.032006878
3788,6.023228299
3789,5.987643942
3790,6.006240612
3791,5.99238968
3792,6.012327994
3793,6.001594724
3794,5.98938281
3795,5.99263329
3796,5.987873105
3797,5.983732827
3798,6.003683266
3799,6.004010124
3800,5.980998294
3801,5.992370661
3802,6.004701118
3803,5.992968946
3804,5.987520583
3805,5.995144041
3806,5.975348956
3807,5.984951666
3808,6.024260697
3809,6.03443442
3810,6.023514313
3811,5.981461343
3812,5.993055291
3813,6.004441725
3814,6.013217269
3815,6.02202909
3816,6.019571752
3817,6.004423122
3818,5.997829062
3819,5.9940033
3820,5.967255689
3821,6.023821152
3822,5.996081009
3823,5.998814186
3824,5.973146493
3825,5.996430041
3826,6.011251212
3827,6.02088975
3828,5.969230955
3829,5.997502838
3830,5.985820155
3831,6.005804939
3832,5.992164085
3833,5.989669372
3834,6.015832623
3835,5.997164359
3836,5.993299845
3837,6.005882113
3838,5.984388003
3839,6.012464022
3840,6.002234559
3841,5.996235404
3842,5.987853251
3843,5.982425578
3844,5.98337866
3845,6.01276451
3846,6.001666142
3847,6.033670181
3848,6.008083841
3849,5.980390761
3850,5.993288702
3851,6.019937376
3852,5.987059085
3853,6.021500836
3854,6.001434848
3855,6.025817696
3856,5.994492164
3857,5.985846682
3858,5.997568623
3859,6.002026413
3860,5.978959969
3861,5.985586173
3862,5.992302793
3863,6.006190125
3864,6.003051342
3865,5.998749614
3866,6.000661679
3867,5.991611535
3868,6.000155001
3869,6.017699236
3870,5.990134174
3871,5.963443445
3872,6.000700878
3873,6.029160479
3874,6.002877068
3875,5.974312062
3876,6.014330562
3877,6.010937905
3878,5.981948305
3879,6.014238343
3880,6.006476745
3881,6.022581787
3882,5.994181351
3883,6.019619066
3884,5.986193031
3885,5.993293064
3886,6.00382413
3887,6.018938065
3888,6.010098938
3889,5.989393308
3890,5.986208924
3891,6.012271829
3892,5.962890256
3893,5.990068825
3894,6.008964828
3895,6.016564677
3896,6.017487081
3897,6.033329393
3898,6.00762133
3899,6.007271457
3900,6.001404645
3901,5.993303019
3902,6.007737474
3903,6.001698298
3904,6.013723645
3905,5.990748861
3906,5.99747938
3907,5.996569036
3908,6.000315358
3909,5.977643658
3910,6.000961327
3911,6.01160972
3912,5.98566758
3913,5.985451539
3914,6.000866309
3915,5.996741539
3916,6.022542091
3917,5.980955518
3918,6.01283661
3919,6.029111342
3920,6.00408275
3921,5.994172539
3922,6.001818375
3923,6.002291159
3924,5.996002935
3925,6.013782618
3926,5.993362242
3927,5.999756527
3928,5.98732425
3929,6.002730437
3930,5.993893331
3931,5.980519896
3932,5.983670906
3933,6.020633377
3934,6.024926945
3935,6.012487882
3936,5.96850877
3937,6.010910608
3938,5.984501428
3939,5.989236538
3940,5.974502901
3941,6.005431872
3942,5.999013146
3943,5.999615411
3944,6.010463964
3945,6.008027379
3946,5.995576472
3947,6.024753888
3948,5.993498357
3949,5.993079114
3950,5.991631711
3951,5.998087575
3952,5.986874656
3953,6.027381462
3954,5.999341087
3955,5.974645827
3956,6.011245762
3957,5.992740519
3958,6.019863635
3959,5.986412742
3960,5.995872081
3961,5.978974704
3962,5.986709241
3963,5.994335416
3964,6.000197596
3965,6.030798895
3966,6.020589357
3967,5.989885387
3968,5.997454519
3969,5.983649215
3970,5.99856673
3971,5.994009253
3972,5.991777248
3973,5.990137765
3974,6.005556368
3975,6.003172199
3976,5.999378719
3977,6.003724195
3978,5.98991333
3979,6.000701411
3980,6.010702589
3981,6.002077141
3982,6.02667953
3983,6.009439453
3984,5.98648241
3985,6.00741654
3986,5.978914369
3987,5.973764986
3988,6.010845159
3989,5.988790706
3990,6.013803572
3991,5.991489543
3992,6.020881133
3993,6.000367757
3994,6.011960684
3995,6.006719077
3996,6.002322242
3997,5.977247345
3998,5.996175925
3999,6.020032224
4000,6.023955959
