Raman Shift,Intensity
214.3785040343428,-39.951
224.78145843945092,-167.794
235.01908334044856,-348.905
245.41130867789616,631.226
255.63837774522108,-290.311
265.8602158678186,-271.667
276.23642015571386,-290.311
286.44772684514464,117.19
296.8132434111685,-42.614
307.0140349346475,274.33
317.209615658554,-23.971
327.399989574551,138.497
337.7442627077253,173.121
347.9241537664129,-479.412
358.09885002992814,599.265
368.2683554736213,82.565
378.5914504125685,-370.212
388.7505051753542,575.294
398.90438108190574,-269.003
409.0530820913264,-162.467
419.196612158652,186.438
429.3349752349313,-162.467
439.626465572117,234.379
449.75442592354375,250.36
459.8772311743669,-607.255
469.994885259468,-1302.333
480.1073921097559,-1666.997
490.2147556521086,-1750.439
500.31697980943136,-1601.841
510.41406850063504,-1270.39
520.5060256406359,-805.276
530.5928551403995,-255.686
540.6745609068894,189.101
550.7511468431039,37.288
560.8226168481124,-311.618
570.888974816975,-186.438
580.9502246408374,-31.961
590.8492821665859,447.451
600.9004070215597,250.36
610.9464353206786,447.451
620.9873709393651,-380.866
631.0232177491416,-194.428
641.0539796175653,23.971
650.9230482019848,7.99
660.9437310766662,-226.389
670.9593405290361,332.925
680.9698804110958,790.644
690.8190579752118,1010.523
700.8195493193562,1046.082
710.8149825658329,950.842
720.805361551138,778.318
730.6347081696804,582.027
740.6150689503047,415.49
750.4345613154874,162.467
760.404918953056,-471.422
770.3702413346182,53.268
780.174941402227,63.922
790.1302832356378,213.072
799.925166080895,229.052
809.8705423523497,117.19
819.6556227125038,-138.497
829.5910483782136,50.605
839.3663409610526,215.735
849.2918309472952,-85.229
859.0573504311833,-213.072
868.972919634427,55.931
878.7286806683987,-15.98
888.6343439553166,178.448
898.3803611591502,-418.154
908.12155022542,-218.399
918.0124213310264,-258.35
927.743888384779,101.209
937.4705381077074,66.585
947.3466501411676,-154.477
957.0635996041163,29.297
966.7757425107702,-71.912
976.6371284824854,-138.497
986.3395928168538,447.451
996.0372613373548,239.706
1005.7301375988682,298.301
1015.5719657306544,143.824
1025.255192198514,111.863
1034.9336371072422,-396.846
1044.6073039976543,117.19
1054.2761964070742,-127.843
1063.9403178693246,199.755
1073.5996719147442,-178.448
1083.4074711432768,-98.546
1093.057225399156,474.085
1102.70222286418,242.369
1112.3424670547538,-351.569
1121.9779614837898,-55.931
1131.6087096607444,231.716
1141.2347150916105,-207.745
1150.855981278939,-338.252
1160.4725117218331,-127.843
1170.0843099159465,-90.556
1179.6913793534914,-210.409
1189.293723523253,0.0
1198.739039559725,873.595
1208.3320185130287,77.239
1217.9202825891407,287.647
1227.5038352631818,5.327
1237.0826800068826,-631.226
1246.6568202885535,655.196
1256.226259573108,-215.735
1265.639216696829,154.477
1275.1993388504195,261.013
1284.7547703264208,-327.598
1294.3055145761757,261.013
1303.7000868433097,10.654
1313.241541245312,207.745
1322.778318700337,55.931
1332.310422646282,2.663
1341.686663866676,327.598
1351.2095051416618,-135.833
1360.727683146746,332.925
1370.0902294598782,-708.464
1379.5991650801443,-34.624
1388.9526223370776,322.271
1398.4523290278594,261.013
1407.7967104575073,-82.565
1417.287201648047,186.438
1426.7730533080105,2.663
1436.1038095471376,117.19
1445.5804658554116,308.954
1454.9021792800197,-98.546
1464.369653600741,50.605
1473.6823373500883,-223.726
1482.9905472474493,359.559
1492.444310209452,103.873
1501.7435100404182,-311.618
1511.1881242589734,170.458
1520.4783270994303,-242.369
1529.764072276041,21.307
1539.1950247490097,439.461
1548.4717924494323,-5.327
1557.7441121511074,-258.35
1567.1614324998736,-210.409
1576.4247941832873,109.199
1585.6837175051332,-202.418
1594.9382056544855,-146.487
1604.3374199708342,135.833
1613.5829759239496,-295.637
1622.8241063047317,31.961
1632.0608142900164,215.735
1641.2931030535765,-721.781
1650.6697762525291,34.624
1659.8931649322622,53.268
1669.1121439444323,82.565
1678.3267164506542,-53.268
1687.53688560953,-130.507
1696.7426545766284,-103.873
1705.9440265045123,-223.726
1715.1410045427183,276.994
1724.3335918377925,-103.873
1733.5217915332687,527.353
1742.705606769683,218.399
1751.8850406845886,-476.748
1761.0600964125188,538.007
1770.230777085024,23.971
1779.397085830693,415.49
1788.55902577511,335.588
1797.7166000408906,122.516
1806.8698117476447,514.036
1816.0186640120735,-42.614
1825.163159947857,231.716
1834.1559155330324,354.232
1843.29177827917,149.15
1852.4232939699289,466.095
1861.550465707216,-93.219
1870.673296589972,-484.739
1879.644751645923,111.863
1888.758979994156,396.846
1897.8688767172423,-50.605
1906.974444902422,223.726
1915.9289277003045,127.843
1925.025917750907,-163.485
1934.118588458099,-507.482
1943.060390766601,-854.357
1952.144501554074,-1154.32
1961.2243021666216,-1357.58
1970.153450902042,-1414.342
1979.224709758193,-1274.82
1988.1454604369865,-889.216
1997.208189584475,-207.745
2006.120554048888,418.154
2015.1747655127983,34.624
2024.0787555828572,303.628
2033.12446136566,-82.565
2042.0200888391555,127.843
2051.057300920809,-308.954
2059.9445775734057,-61.258
2068.9733079113576,5.327
2077.852245496608,-346.242
2086.8725060258803,255.686
2095.743116275291,-207.745
2104.6096010526526,-95.882
2113.6172135316083,90.556
2122.4753884816528,159.804
2131.329446630596,-53.268
2140.324437642892,170.458
2149.170203423979,85.229
2158.011861050589,226.389
2166.994257105456,-487.402
2175.8276397748195,330.261
2184.656922912145,133.17
2193.48210937062,-250.36
2202.303202000803,103.873
2211.2647105948345,-458.105
2220.077557114586,-388.856
2228.886318388424,159.804
2237.6909972563008,151.814
2246.4915965555265,-588.611
2255.2881191208,-103.873
2264.0805677841927,-157.141
2272.8689453751285,21.307
2281.6532547204406,109.199
2290.5774032157133,-133.17
2299.353517963282,-151.814
2308.125572976198,-194.428
2316.893571070781,151.814
2325.6575150607823,372.876
2334.273835606975,-410.163
2343.029746164546,210.409
2351.781610997117,205.082
2360.5294329081007,-23.971
2369.273214698267,-170.458
2378.0129591658333,-245.033
2386.7486691064114,261.013
2395.48034731306,42.614
2404.2079965762314,93.219
2412.788641914361,-95.882
2421.5083075861257,106.536
2430.2239526247795,55.931
2438.9355798105607,135.833
2447.64319192111,37.288
2456.204142101211,-58.595
2464.9037980916983,199.755
2473.5994472792227,391.52
2482.148638712344,2.663
2490.836348166158,223.726
2499.5200590665554,332.925
2508.0575159626023,-391.52
2516.7333034706826,135.833
2525.405100652257,-87.892
2533.930847154741,53.268
2542.5947372405863,95.882
2551.112711590584,-450.114
2559.768705390503,58.595
2568.2789182109263,-37.288
2576.927026515033,-133.17
2585.5711635713087,34.624
2594.069721988235,-61.258
2602.5644435408976,-26.634
2611.196813145194,-676.503
2619.683804921093,82.565
2628.3083212822166,0.0
2636.7875938271245,111.863
2645.404267656864,-303.628
2653.875831497382,119.853
2662.343576738021,269.003
2670.948539131641,612.582
2679.408591378582,55.931
2687.8648328054915,138.497
2696.4581076233444,-484.739
2704.906671724595,-673.84
2713.351432764532,79.902
2721.792393310454,-149.15
2730.370143142005,170.458
2738.8034471581705,-47.941
2747.232958411034,-431.471
2755.658679458633,98.546
2764.220946338093,117.19
2772.639031576786,-769.722
2781.053334313052,-61.258
2789.463857095703,-743.088
2797.8706024712737,-367.549
2806.2735729839987,673.84
2814.672771175843,-79.902
2823.0681995864725,109.199
2831.459860753297,-237.043
2839.847757211428,-63.922
2848.231891493713,-354.232
2856.612266130724,-42.614
2864.988883650767,356.895
2873.3617465798743,-45.278
2881.7308574418275,95.882
2890.096218758139,202.418
2898.457833048058,388.856
2906.815702828586,-138.497
2915.169830614461,279.657
2923.5202189181878,138.497
2931.8668702499926,15.98
2940.209787117892,-170.458
2948.41001618022,-287.647
2956.7455337723804,-447.451
2965.077324369493,-210.409
2973.405390470638,237.043
2981.7297345726547,-146.487
2989.9117125592966,-234.379
2998.2286820744484,-125.18
3006.5419370261297,354.232
3014.8514799023105,-135.833
3023.0189130185245,359.559
3031.3211009634906,165.131
3039.619584242202,-23.971
3047.776149306213,167.794
3056.067292329164,117.19
3064.2166442633534,-42.614
3072.500456765243,-201.076
3080.780576892153,-335.576
3088.919096831967,-445.425
3097.1919010483834,-529.944
3105.3232317767324,-588.451
3113.588729774354,-620.26
3121.712880813,-624.686
3129.9710822664056,-601.047
3138.0880631202745,-548.66
3146.338977686973,-266.34
3154.448797844241,343.578
3162.692435164703,-625.899
3170.7951040967964,-319.608
3178.894230970407,-279.657
3187.127000956163,-245.033
3195.218990740796,284.984
3203.3074454664093,45.278
3211.5293695924192,141.16
3219.610701328027,47.941
3227.688504985643,-298.301
3235.899604670318,-71.912
3243.9702993997853,167.794
3252.03747301393,-50.605
3260.1011278165533,21.307
3268.297848330192,601.928
3276.354412870096,-127.843
3284.407465536773,159.804
3292.4570086259846,-10.654
3300.5030444314834,98.546
3308.545575245,-66.585
3316.720827896272,122.516
3324.756296283769,69.248
3332.788266581294,21.307
3340.816741072602,410.163
3348.8417220394404,119.853
3356.8632117615925,-279.657
3364.8812125168406,-255.686
3372.895726580995,31.961
3380.906756227865,255.686
3388.91430372934,18.644
3396.918371355256,-63.922
3404.9189613735507,-604.592
3412.9160760501472,-183.775
3420.909717649003,-253.023
3428.8998884321263,-327.598
3436.886590659553,-609.918
3444.734546370892,-362.222
3452.714376952972,223.726
3460.690745709508,159.804
3468.663654892749,-471.422
3476.633106752961,135.833
3484.5991035384795,-159.804
3492.4267178764712,50.605
3500.385869715596,34.624
3508.341573175334,-45.278
3516.293830496281,7.99
3524.1079469444667,292.974
3532.0533770164475,-58.595
3539.9953676218797,202.418
3547.7993978646555,482.075
3555.734574435446,98.546
3563.666318194715,250.36
3571.460281747888,-303.628
3579.385224652753,197.092
3587.30674138396,-388.856
3595.090657713052,-170.458
3603.00538673612,-223.726
3610.782634691175,356.895
3618.6905847266535,-170.458
3626.461172873067,356.895
3634.362352626544,-42.614
3642.1262895150494,-476.748
3650.020707677235,-311.618
3657.778001843908,354.232
3665.665667090652,343.578
3673.416327056992,-31.961
3681.163701429177,-66.585
3689.041282322214,-444.788
3696.782035212709,439.461
3704.6528847781447,-332.925
3712.3870246721344,53.268
3720.117889469839,-444.788
3727.845481251112,202.418
3735.702951367959,231.716
3743.4239470074463,133.17
3751.141675895298,-13.317
3758.989119491133,-47.941
3766.700264858686,-85.229
3774.408149723422,-508.709
3782.1127761528696,-207.745
3789.814146212797,-647.206
3797.644959575024,-23.971
3805.339767031168,-551.324
3813.03132434014,545.997
3820.7196335607214,-1310.392
3828.404696749953,-13.317
3836.086515963114,-420.817
3843.76509325378,-143.824
3851.4404306737633,271.667
3859.112530273167,-109.199
3866.7813941003615,-391.52
3874.4470242019815,-95.882
3882.109422622947,66.585
3889.7685914064414,98.546
3897.4245325939337,-255.686
3905.0772482251705,130.507
3912.7267403381848,916.209
3920.373010969284,498.056
3928.016062153074,-655.196
3935.655895922435,-298.301
3943.292514308545,617.909
3950.925919340858,-330.261
3958.424585178429,-45.278
3966.051624900327,-183.775
3973.675457311714,396.846
3981.296084435249,167.794
3988.913508291902,-332.925
3996.396478310664,-625.899
4004.007556831755,535.343
4011.615438103967,-186.438
4019.220124141517,522.026
4026.690583777876,61.258
4034.288940385857,-378.203
4041.8841077570687,-95.882
4049.3452186808136,-141.16
4056.934068499933,13.317
4064.519735065173,452.778
4071.971514814119,591.275
4079.550875675057,178.448
4086.996462302253,394.183
4094.5695253181984,-186.438
4102.008926541021,-205.082
4109.575699558212,-239.706
4117.008923081237,-154.477
4124.569413932906,-298.301
4131.996467447912,149.15
4139.550683954272,1193.93
4146.971575140262,1193.93
4154.519525108568,1193.93
4161.93426163181,1193.93
4169.475952856366,1193.93
4228.011654085007,1193.93
4235.396210255021,1193.93
4242.907210725418,1193.93
4250.415076793586,1193.93
4257.7904449892885,1193.93
4265.292102093408,1193.93
4272.790630641473,1193.93
4280.156827999919,1193.93
4287.649159161061,1193.93
4295.138367597785,1193.93
4302.4954112134365,1193.93
4309.978433811593,1193.93
4317.329402006981,1193.93
4324.8062464273535,1193.93
4332.151146724958,1131.772
4339.621820615692,1006.751
4346.960660525576,838.701
4354.425171522191,647.451
4361.757958542046,452.833
4369.216314267462,274.678
4376.543055882612,132.815
4383.9952639471885,47.073
4391.315967630617,37.288
4398.762035632179,90.556
4406.07670884455,18.644
4413.516644368407,-324.935
4420.825294558097,-122.516
4428.130962180556,-229.052
4435.561739780205,284.984
4442.861395497304,-125.18
4450.1580741507205,-114.526
4457.579710724684,-1004.101
4464.870388562711,-5.327
4472.158094827057,420.817
4479.570607232323,282.32
4486.852323743988,237.674
4494.131074158497,392.526
4501.534479210626,661.735
4508.807250907994,960.155
4516.077061971264,1202.644
4523.3439142079005,1304.059
4530.735219799091,1179.255
4537.996107969229,743.088
4545.254042757973,151.814
4552.509025966887,111.863
4559.888261734326,-90.556
4567.13729547953,95.882
4574.383383072374,-189.101
4581.626526308552,2503.595
4588.866726982291,-101.209
4596.103986886381,-3384.685
4603.338307812148,-5589.99
4610.69653172473,-6857.243
4617.92492857972,-7326.567
4625.150391852971,-7138.083
4632.372923329975,-6431.907
4639.592524794789,-5348.166
4646.809198030001,-4026.98
4654.022944816745,-2608.467
4661.233766934747,-1232.751
4668.441666162253,-39.951
4675.646644276094,308.954
4682.8487030516335,-985.458
4690.047844262837,-93.219
4697.244069682201,-79.902
4704.437381080781,71.912
4711.627780228235,133.17
4718.815268892759,210.409
4725.999848841122,-673.84
4733.181521838655,42.614
4740.3602896492885,-396.846
4747.536154035501,0.0
4754.583300303697,106.536
4761.753413983191,343.578
4768.9206294863325,130.507
4776.084948569973,210.409
4783.246372989488,125.18
4790.404904498872,508.709
4797.435032206777,-23.971
4804.5878338284165,580.621
4811.73774776268,-316.945
4818.884775757928,-141.16
4826.028919561082,-146.487
4833.044920461813,23.971
4840.183351639585,149.15
4847.3189038270575,340.915
4854.451578765569,-181.111
4861.456318765864,-274.33
4868.58329482688,468.758
4875.707398824052,69.248
4882.703723295803,-15.98
4889.822138682386,111.863
4896.937687177771,151.814
4903.925611277555,-50.605
4911.035481404608,447.451
4918.142489800703,231.716
4925.122028648751,-114.526
4932.223368894192,151.814
4939.197342363797,98.546
4946.293021236786,335.588
4953.385846941688,396.846
4960.35146024984,-175.784
4967.43863475923,74.575
4974.398699333346,-53.268
4981.480229398396,117.19
4988.43475186592,-431.471
4995.510644227063,37.288
5002.459631204903,-316.945
5009.529892591847,-135.833
5016.473350686378,234.379
5023.537987818112,103.873
5030.475923625207,-170.458
5037.534943210041,-10.654
5044.467363315067,-452.778
5051.397052412052,-63.922
5058.447683028528,247.696
5065.371866252855,-71.912
5072.416896017057,-404.837
5079.335579928018,39.951
5086.251540943114,-103.873
5093.288206657562,-292.974
5100.198678149784,-143.824
5107.106431592307,391.52
5114.134748143202,774.818
5121.037021830118,941.952
5127.93658230202,947.328
5134.833431158368,845.358
5141.85065500065,690.452
5148.742037069234,537.016
5155.630712341699,439.461
5162.516682412504,367.549
5169.522839786696,130.507
5176.403355996677,165.131
5183.281171809234,-55.931
5190.156288813778,-130.507
5197.028708598496,287.647
5204.021081907653,50.605
5210.888063918697,-58.595
5217.752353495271,298.301
5224.613952220541,428.807
5231.472861676462,-2.663
5238.329083443728,-727.108
5245.182619101804,215.735
5252.033470228904,15.98
5258.881638402017,274.33
5265.727125196914,511.373
5272.569932188097,-327.598
5279.532181775125,29.297
5286.369586094326,197.092
5293.204315354014,447.451
5300.036371123795,0.0
5306.865754971979,85.229
5313.692468465706,18.644
5320.516513170878,394.183
5327.216103720151,143.824
5334.034863128356,-29.297
5340.850958410447,-332.925
5347.664391127459,588.611
5354.475162839211,559.314
5361.283275104273,-1099.984
5368.088729480027,1310.392
5374.891527522632,-431.471
5381.6916707870405,21.307
5388.489160826968,282.32
5395.162686039381,-111.863
5401.954921596684,-103.873
5408.744508555763,-375.539
5415.531448465517,-330.261
5422.31574287366,410.163
5428.976315601984,-580.621
5435.7553708175255,-149.15
5442.531785139763,591.275
5449.305560111599,551.324
5456.076697274744,-15.98
5462.724355191152,167.794
5469.490268392445,245.033
5476.253548375513,495.392
5482.893493883399,-90.556
5489.651558992991,-133.17
5496.406995464167,7.99
5503.039241977291,-162.467
5509.789472642318,215.735
5516.5370792381145,471.422
5523.161640139158,-109.199
5529.904049975114,165.131
5536.643840300443,-234.379
5543.260728941095,221.062
5549.995331531944,479.412
5556.607128017575,-649.869
5563.336548861262,-141.16
5569.943259067753,860.278
5576.667504142417,-276.994
5583.269133936614,-484.739
5589.988209211173,-269.003
5596.58476445092,37.288
5603.298675885118,-332.925
5609.890162419251,439.461
5616.598915963696,-111.863
5623.185339632037,133.17
5629.888941228186,658.158
5636.470307861637,1169.227
5643.16876344182,1607.617
5649.745078862296,1914.558
5656.438394349752,2031.284
5663.009664370256,1899.033
5669.578436568787,1459.04
5676.264076103718,652.533
5682.827811578958,-237.043
5689.3890535265455,-111.863
5696.067030305661,250.36
5702.623244186747,-205.082
5709.176968824671,-213.072
5715.847296014435,-114.526
5722.39600122282,-178.448
5728.942221462719,311.618
5735.4859581482815,175.784
5742.146121627004,-26.634
5748.684850350968,-39.951
5755.221099782248,-234.379
5761.754871330697,799.02
5768.404894310675,-732.435
5774.933669330552,-175.784
5781.459970716278,181.111
5787.983799873429,-167.794
5794.505158206499,-311.618
5801.142549523138,468.758
5807.658925557145,103.873
5814.172834999641,290.311
5820.684279250832,0.0
5827.193259709879,-45.278
5833.699777774898,-159.804
5840.203834842934,122.516
5846.7054323099655,255.686
5853.204571570954,428.807
5859.701254019747,-10.654
5866.195481049195,503.382
5872.687254051074,487.402
5879.176574416102,-226.389
5885.663443533944,42.614
5892.14786279323,58.595
5898.629833581537,375.539
5905.109357285379,61.258
5911.586435290243,-420.817
5918.061068980562,210.409
5924.533259739736,183.775
5931.003008950094,324.935
5937.470317992949,-271.667
5943.935188248557,-127.843
5950.397621096134,175.784
5956.857617913869,-130.507
5963.315180078898,-231.716
5969.7703089673305,21.307
5976.105705888956,-39.951
5982.556016527509,620.572
5989.003897986593,-47.941
5995.449351638199,-26.634
6001.8923788532775,143.824
6008.215900781644,119.853
6014.654123287393,239.706
6021.089923438405,-119.853
6027.523302601519,-380.866
6033.954262142564,303.628
6040.265942433929,63.922
6046.692110755517,-423.48
6053.115863521547,-7.99
6059.420472023492,673.84
6065.839441620141,-295.637
6072.255999718647,215.735
6078.553548309683,266.34
6084.965331270854,66.585
6091.374706782226,-420.817
6097.665207314269,420.817
6104.06981570238,-423.48
6110.472020679961,197.092
6116.755484978421,29.297
6123.152930828903,545.997
6129.431725134898,-50.605
6135.824417162912,146.487
6142.098546680769,-95.882
6148.486490183052,407.5
6154.872039648391,253.023
6161.139160374798,284.984
6167.519969269015,194.428
6173.782438208022,213.072
6180.158511808193,261.013
6186.416334137088,474.085
6192.787677712448,540.67
6199.040858600842,-183.775
6205.291741972564,207.745
6211.656022022646,511.373
6217.902271670246,362.222
6224.261834810408,181.111
6230.503455884398,825.654
6236.742785809074,724.445
6243.095304999864,149.15
6249.330014038809,263.677
6255.677829386121,-95.882
6261.907922670827,7.99
6268.1357311500615,-31.961
6274.476522051649,119.853
6280.699722436162,295.637
6286.920641805642,324.935
6293.139281413962,242.369
6299.470738832184,335.588
6305.684780516531,154.477
6311.896546218988,372.876
6318.106037189755,-93.219
6324.428181717434,149.15
6330.633084905065,151.814
6336.835717129172,753.742
6343.036079636258,215.735
6349.234173671932,1115.964
6355.544716640681,516.699
6361.738235515753,522.026
6367.929489673777,-13.317
6374.118480356665,165.131
6380.305208805476,-322.271
6386.489676260331,-31.961
6392.671883960451,47.941
6398.851833144166,63.922
6405.143905470883,588.611
6411.319299566196,727.108
6417.492438877496,724.445
6423.663324639478,181.111
6429.831958085924,-149.15
6435.998340449718,10.654
6442.162472962846,-55.931
6448.324356856407,-711.128
6454.483993360576,-34.624
6460.641383704664,154.477
6466.79652911704,218.399
6472.949430825232,434.134
6479.100090055821,298.301
6485.248508034543,237.043
6491.280888225534,34.624
6497.424868822251,396.846
6503.5666118162335,162.467
6509.706118429633,282.32
6515.843389883739,-612.582
6521.978427398899,229.052
6528.111232194642,173.121
6534.241805489546,122.516
6540.256680928833,42.614
6546.382836142315,-386.193
6552.506763482961,31.961
6558.628464165849,13.317
6564.747939405184,402.173
6570.751928194237,367.549
6576.866997341494,-63.922
6582.979844660076,1187.876
6589.090471360658,279.657
6595.0857801617385,551.324
6601.192010321647,90.556
6607.296023467985,-199.755
6613.39782080795,279.657
6619.384468430493,189.101
6625.481878753591,399.51
6631.577076864334,284.984
6637.5572509579,-82.565
6643.64806916556,45.278
6649.623946782151,71.912
6655.71038980603,-53.268
6661.794626582923,-109.199
6667.764048126817,404.837
6673.843916808139,5.327
6679.809053455574,524.69
6685.884558743659,569.967
6691.957863728712,346.242
6697.916561697035,-460.768
6703.985510351609,418.154
6709.939934962422,194.428
6716.004531971987,69.248
6721.954687820689,266.34
6728.014937863976,26.634
6733.960829539363,-74.575
6739.904610751524,0.0
6745.95836937274,234.379
6751.897893261092,274.33
6757.947316561804,71.912
6763.8825876987685,143.824
6769.927680334353,-181.111
6775.858703285812,852.288
6781.787623684751,189.101
6787.826249230238,-314.281
6793.750928258974,106.536
6799.673508107371,388.856
6805.705676935038,514.036
6811.624022213946,388.856
6817.540271677499,231.716
6823.5659941374615,807.01
6829.478015817709,165.131
6835.387945040406,250.36
6841.407231460638,-423.48
6847.312939671727,-229.052
6853.216558775894,711.128
6859.118089881435,-71.912
6865.017534095896,410.163
6871.026143398485,122.516
6876.921377827312,0.0
6882.814528703813,807.01
6888.705597132364,-69.248
6894.594584216582,167.794
6900.592544785228,311.618
6906.477333270021,322.271
6912.360043737404,327.598
6918.240677287846,263.677
6924.119235021055,85.229
6929.995718035963,519.363
6935.870127430717,359.559
6941.742464302697,364.595
6947.6127297485,579.916
6953.480924863958,872.636
6959.347050744116,1109.87
6965.21110848328,1158.736
6971.073099174937,886.342
6976.93302391185,606.437
6982.79088378598,606.437
6988.64667988853,606.437
6994.500413309928,606.437
7000.35208513985,606.437
7006.201696467178,606.437
7012.049248380063,606.437
7017.894741965851,606.437
7023.738178311156,606.437
7029.579558501813,402.173
7035.418883622879,50.605
7041.2561547586665,263.677
7047.091372992727,434.134
7052.924539407839,306.291
7058.645653010426,343.578
7064.474757695687,633.889
7070.301813785409,138.497
7076.126822359336,237.043
7081.949784496486,332.925
7087.660891581778,492.729
7093.479802640664,117.19
7099.296670474898,71.912
7105.111496160462,112.27
7110.814624476749,132.296
7116.625407570507,137.008
7122.434151718757,131.425
7128.2408579944895,120.567
7133.936024250346,109.452
7139.73869639702,103.103
7145.53933386541,106.536
7151.22854892195,167.794
7157.025158582874,266.34
7162.819736753059,-538.007
7168.503009933542,-37.288
7174.293566604632,263.677
7180.082094965896,-117.19
7185.759435574095,269.003
7191.54394873148,588.611
7197.2173519438,63.922
7202.997854073568,681.83
7208.667323984642,253.023
7214.443819257263,700.474
7220.109359956041,386.193
7225.881852536215,295.637
7231.54346810597,538.007
7237.311962152613,934.853
7242.969656670975,-386.193
7248.734156337254,-583.284
7254.387933876205,527.353
7260.148443309525,327.598
7265.798307935409,63.922
7271.554831277448,-234.379
7277.20078705097,-279.657
7282.953328437674,588.611
7288.59537941395,282.32
7294.235498085545,420.817
7299.982093204053,-5.327
7305.618313131272,245.033
7311.252603748333,468.758
7316.993261813666,1054.706
7322.623659726734,615.245
7328.252131317968,420.817
7333.9868615261075,380.866
7339.611446441268,463.431
7345.234108016753,-10.654
7350.962919544712,109.199
7356.581700459581,197.092
7362.198561010817,-77.239
7367.813502182726,474.085
7373.426524958988,226.389
7379.145517410223,255.686
7384.7546694986595,548.66
7390.361906157261,-516.699
7395.967228366993,490.065
7401.570637108154,684.494
7407.279835705631,205.082
7412.879383697611,-221.062
7418.477021176703,319.608
7424.072749120482,-402.173
7429.666568505905,106.536
7435.258480309247,348.905
7440.848485506111,74.575
7446.436585071431,-380.866
7452.022779979503,308.954
7457.607071203925,327.598
7463.296794702215,396.846
7468.877244915177,221.062
7474.455794380043,247.696
7480.032444067743,663.186
7485.607194948596,503.382
7491.18004799222,173.121
7496.751004167574,830.981
7502.2129850032,18.644
7507.7801867781745,-370.212
7513.345494569261,-407.5
7518.908909342786,149.15
7524.470432064445,540.67
7530.03006369928,-143.824
7535.587805211653,61.258
7541.1436575652915,223.726
7546.697621723266,450.114
7552.249698647978,1030.735
7557.693172648,159.804
7563.241514237732,210.409
7568.787971459049,724.445
7574.332545271769,229.052
7579.87523663506,-194.428
7585.416046507413,245.033
7590.848475703144,316.945
7596.385561603231,146.487
7601.920768865631,804.347
7607.454098446255,351.569
7612.879194899509,412.827
7618.4088080453,380.866
7623.936546354853,42.614
7629.462410781522,42.614
7634.880189328982,466.095
7640.402344837916,-511.373
7645.9226293018255,535.343
7651.334937948188,175.784
7656.851519109852,-226.389
7662.260197498763,-5.327
7667.773079083498,245.033
7673.284094334183,524.69
7678.687316594296,167.794
7684.194637864675,119.853
7689.7000956236625,-564.641
7695.097870006797,-18.644
7700.599639370841,415.49
7705.993798107356,657.86
7711.491882781789,141.16
7716.882429503323,66.585
7722.376833188511,-207.745
7727.763771521855,447.451
7733.254497913214,-183.775
7738.637831480286,175.784
7744.124884268305,74.575
7749.504616686187,-63.922
7754.987999556393,239.706
7760.364134437317,684.494
7765.738489349154,242.369
7771.216392021717,66.585
7776.587154788423,482.075
7782.061396717661,380.866
7787.428570939446,85.229
7792.793969640064,-183.775
7798.262745065967,460.768
7803.624560595526,-151.814
7808.984603262106,117.19
7814.447920368751,157.141
7819.804385227417,514.036
7825.159079875983,61.258
7830.616946831127,284.984
7835.968069024231,300.964
7841.317423654822,679.167
7846.665011598543,396.846
7852.115636126822,506.046
7857.459658723532,245.033
7862.801917273948,218.399
7868.142412651388,506.046
7873.481145728587,205.082
7878.922746278997,-162.467
7884.257922859626,426.144
7889.59133977185,356.895
7894.922997886111,287.647
7900.252898072242,466.095
7905.581041199541,932.19
7910.907428136696,93.219
7916.336446752692,290.311
7921.65928952102,276.994
7926.980378718883,519.363
7932.29971521271,748.415
7937.617299868325,308.954
7942.933133550996,-7.99
7948.247217125423,527.353
7953.559551455743,527.353
7958.870137405502,239.706
7964.178975837705,181.111
7969.486067614758,396.846
7974.791413598527,314.281
7980.0950146503055,617.909
7985.396871630804,1113.301
7990.696985400187,569.967
7995.995356818043,300.964
8001.291986743403,604.592
8006.586876034729,396.846
8011.880025549901,394.183
8017.067699705829,724.445
8022.357406311574,772.386
8027.645375694708,-55.931
8032.931608710882,977.468
8038.216106215201,-205.082
8043.498869062179,191.765
8048.779898105804,767.059
8053.955695240969,471.422
8059.233293192043,527.353
8064.509159881611,167.794
8069.783296161415,-85.229
8074.952338977277,335.588
8080.223050878609,466.095
8085.492034905405,484.739
8090.759291907168,-181.111
8095.921593616502,655.196
8101.185432936367,282.32
8106.447547759821,490.065
8111.604810570996,173.121
8116.863512715307,0.0
8122.120492886879,322.271
8127.272724173963,242.369
8132.526296659391,772.386
8137.778149690843,-391.52
8142.925356813517,796.356
8148.173807142077,66.585
8153.4205405305,10.654
8158.562730834117,815.0
8163.806066493191,284.984
8168.944927307508,308.954
8174.184868536668,-23.971
8179.32040309432,418.154
8184.55695318873,577.958
8189.689164718173,458.105
8194.922326968728,676.503
8200.051218694258,300.964
8205.280996387602,300.964
8210.406571529322,615.245
8215.632967947844,-2426.357
8220.7552297217,-218.399
8225.978248143558,506.046
8231.097199761349,340.915
8236.316843460441,1187.876
8241.43248812982,26.634
8246.546496881761,-290.311
8251.76110130029,378.203
8256.871807891675,253.023
8261.98088093357,356.895
8267.190453365733,-93.219
8272.296229025691,372.876
8277.400373499535,90.556
8282.604921225458,10.654
8287.705773086778,117.19
8292.804996120794,292.974
8298.004526406577,223.726
8303.100461588281,316.945
8308.194770296956,-2.663
8313.28745331115,346.242
8318.48031600209,506.046
8323.569717486189,308.954
8328.657495624051,647.206
8333.743651192239,535.343
8338.828184966831,245.033
8344.012739449463,-61.258
8349.093999566121,615.245
8354.17364022991,346.242
8359.251662214898,207.745
8364.328066294685,-2.663
8369.402853242376,295.637
8374.476023830553,181.111
8379.547578831349,378.203
8384.718901354245,223.726
8389.787195221597,966.814
8394.853875830348,719.118
8399.91894395064,530.016
8404.98240035212,197.092
8410.044245803958,183.775
8415.104481074803,335.588
8420.163106932847,247.696
8425.220124145773,300.964
8430.275533480788,332.925
8435.32933570461,673.84
8440.381531583458,282.32
8445.432121883085,601.928
8450.48110736873,591.275
8455.528488805172,470.818
8460.473367100913,357.015
8465.51757477424,254.466
8470.560180674485,167.776
8475.601185564497,101.539
8480.64059020661,60.36
8485.67839536271,48.839
8490.714601794163,71.576
8495.749210261878,133.17
8500.681576948675,255.686
8505.713023691114,375.539
8510.742874734438,191.765
8515.771130837642,716.454
8520.797792759218,77.239
8525.722375497866,418.154
8530.745883175656,103.873
8535.7677989293,330.261
8540.788123515384,628.562
8545.706498587671,202.418
8550.723674892208,114.526
8555.739262280982,1329.036
8560.652997083213,-351.569
8565.665440644778,372.876
8570.676297538128,495.392
8575.585398634048,676.503
8580.593116146138,788.366
8585.599249233324,695.147
8590.503723174297,-886.912
8595.506721317797,-1233.154
8600.508137275468,292.974
8605.40799060051,612.582
8610.406276043708,199.755
8615.303062904772,569.967
8620.298220771765,221.062
8625.191944046568,988.121
8630.18397727198,39.951
8635.074639834631,681.83
8640.063551349394,415.49
8644.951156070434,1118.628
8649.936948801806,990.784
8654.821498548154,615.245
8659.804175419777,431.471
8664.685673054784,575.294
8669.665236986599,21.307
8674.543685370048,45.278
8679.520139278378,404.837
8684.395541266465,444.788
8689.2694364983,972.141
8694.241246509358,450.114
8699.112099609058,631.226
8703.981448060618,735.098
8708.948620671701,231.716
8713.81493124642,1166.569
8718.779005433622,426.144
8723.642280973501,561.977
8728.504055374753,657.86
8733.364329332315,727.108
8738.32224658698,484.739
8743.179491154478,348.905
8748.035237374625,284.984
8752.889485940628,279.657
8757.8412577103,141.16
8762.692482517024,-884.249
8767.542211760752,-380.866
8772.39044613298,490.065
8777.336083836857,625.899
8782.18130006664,751.079
8787.02502351089,495.392
8791.867254859393,764.396
8796.707994801498,540.67
8801.547244026118,1568.742
8806.385003221756,316.945
8811.319956958603,42.614
8816.154707786565,375.539
8820.987970662514,-18.644
8825.819746273257,697.811
8830.650035305174,671.177
8835.478838444196,609.918
8840.306156375878,545.997
8845.131989785303,444.788
8849.956339357173,383.529
8854.779205775758,1107.974
8859.60058972489,370.212
8864.420491888006,69.248
8869.238912948098,862.941
8874.055853587757,833.644
8878.871314489159,2594.151
8883.685296334032,348.905
8888.497799803714,234.379
8893.308825579123,354.232
8898.118374340735,306.291
8902.926446768637,175.784
8907.634964476681,756.405
8912.440116370435,5.327
8917.243793954342,559.314
8922.045997906822,447.451
8926.846728905857,748.415
8931.645987629043,514.036
8936.443774753548,324.935
8941.142221650607,-106.536
8945.937097605834,681.83
8950.73050397759,580.621
8955.522441441404,540.67
8960.215160665939,711.128
8965.004192282166,841.97
8969.791757000756,878.041
8974.577855495572,842.753
8979.26485751475,759.522
8984.048055470721,651.763
8988.829789208343,542.897
8993.51251749025,456.334
8998.291354655303,415.49
9003.068729603765,367.549
9007.747189991118,82.565
9012.521672326067,-234.379
9017.294694442531,359.559
9021.968892767374,852.288
9026.739026222178,551.324
9031.41039612206,-2016.193
9036.17764353675,292.974
9040.943434050514,191.765
9045.610551571128,836.307
9050.373459984672,418.154
9055.037755503963,175.784
9059.797784430888,479.412
9064.45926050758,157.141
9069.216412558366,261.013
9073.87507174812,495.392
9078.629349530078,498.056
9083.285194385431,269.003
9088.036600502714,370.212
9092.689633573158,0.0
9097.438170626783,303.628
9102.088394458704,878.922
9106.73722909284,471.422
9111.481482183284,284.984
9116.12751137963,63.922
9120.868901881862,332.925
9125.512128179163,298.301
9130.153968412898,689.82
9134.891084617178,599.265
9139.53012574118,426.144
9144.167782675046,-524.69
9148.9006303586,612.582
9153.535491965213,388.856
9158.168971251744,569.967
9162.801068836525,625.899
9167.528243916331,213.072
9172.157551197888,601.928
9176.785478643267,889.575
9181.412026869286,61.258
9186.13353953768,633.889
9190.757302472506,508.709
9195.37968804908,612.582
9200.000696882766,-109.199
9204.620329588544,828.317
9209.334785850184,841.634
9213.951639506451,39.951
9218.567118890363,-114.526
9223.181224615444,308.954
9227.79395729483,151.814
9232.40531754132,503.382
9237.015305967328,-170.458
9241.623923184923,442.124
9246.23116980579,516.699
9250.932987640888,822.99
9255.537466379788,311.618
9260.140576367572,284.984
9264.742318214474,29.297
9269.342692530376,737.762
9273.941699924766,130.507
9278.539341006806,-29.297
9283.135616385269,303.628
9287.730526668583,506.046
9292.324072464791,628.562
9296.91625438162,540.67
9301.411444872112,178.448
9306.00092923447,548.66
9310.589051525738,5.327
9315.175812352172,282.32
9319.761212319692,380.866
9324.345252033823,247.696
9328.927932099774,-53.268
9333.509253122353,540.67
9338.08921570604,-39.951
9342.572446701386,468.758
9347.149722488744,628.562
9351.7256416359,759.069
9356.300204745894,665.85
9360.873412421412,154.477
9365.350032145325,916.209
9369.920558965528,540.67
9374.489732144635,404.837
9379.05755228394,295.637
9383.528899030936,476.748
9388.09404305015,90.556
9392.657835818722,479.412
9397.125240831178,458.105
9401.6863610176,460.768
9406.246131739394,356.895
9410.80455359534,189.101
9415.266701898625,-530.016
9419.822455888205,711.128
9424.281993052333,276.994
9428.835081516963,841.634
9433.38682407955,399.51
9437.84243511156,679.167
9442.391515668474,324.935
9446.84452129656,777.713
9451.390942182352,599.265
9455.93602012123,271.667
9460.385108237591,372.876
9464.927530014324,580.621
9469.374018445214,-82.565
9473.913786387537,74.575
9478.35767741084,567.304
9482.894793843763,687.157
9487.33608973474,500.719
9491.87055698055,295.305
9496.30926001177,295.305
9500.74668109923,295.305
9505.277192831463,174.053
9509.71202445114,174.053
9514.23989277796,174.053
9518.672137195834,174.053
9523.103102466685,-215.735
9527.62702390948,431.471
9532.05540536064,63.922
9536.57668916292,253.023
9541.002489053764,511.373
9545.42701258622,1150.588
9549.850260312329,300.964
9554.36630345335,191.765
9558.78697410632,114.526
9563.206370618926,237.043
9567.718482324255,135.833
9572.13530512818,695.147
9576.550855454823,807.01
9580.965133854,631.226
9585.47202083257,290.311
9589.883729992052,146.487
9594.294168883298,982.794
9598.703338054846,580.621
9603.111238054931,825.654
9607.611613766734,362.222
9612.016950092931,585.948
9616.421018902103,640.329
9620.823820741218,452.247
9625.225356156909,144.436
9629.625625695517,-160.379
9634.02462990307,-339.466
9638.422369325252,-270.099
9642.81884450748,170.458
9647.21405599481,753.742
9651.701478874824,490.065
9656.094137748323,612.582
9660.485534571855,213.072
9664.875669889248,234.379
9669.264544244,71.912
9673.65215817932,79.902
9678.03851223808,1110.637
9682.423606962846,284.984
9686.807442895892,-106.536
9691.19002057915,1235.817
9695.478134071804,1969.648
9699.858223622705,1682.056
9704.23705653629,717.495
9708.614633353289,-579.596
9712.990954614088,-1864.765
9717.36602085878,-2793.573
9721.739832627154,-3021.565
9726.112390458671,-2204.304
9730.483694892511,2.663
9734.760779687776,1791.127
9739.129605581998,2785.94
9743.497179682729,3137.612
9747.863502527893,2996.651
9752.228574655115,2513.57
9756.499562339395,1838.877
9760.862161224974,1123.083
9765.223510992222,516.699
9769.583612177565,178.448
9773.849736751828,245.033
9778.207368918504,641.879
9782.563754099236,569.967
9786.918892829211,532.68
9791.18016259473,727.108
9795.532836519418,404.837
9799.884265585692,516.699
9804.14190615754,338.252
9808.490873566669,367.549
9812.83859770701,703.137
9817.09261371952,969.477
9821.437879345483,479.412
9825.689490172908,300.964
9830.032299369228,868.268
9834.373867936378,625.899
9838.621861899856,135.833
9842.960977171238,90.556
9847.206571054325,186.438
9851.543235108787,495.392
9855.786430944943,39.951
9860.12064585897,591.275
9864.361445679362,474.085
9868.693213527116,189.101
9872.931619360628,58.595
9877.26094221391,796.356
9881.49695608711,498.056
9885.823836015392,-319.608
9890.057459952584,-814.576
9894.289902518456,-904.943
9898.613135046206,-692.418
9902.843190697367,-278.712
9907.163985452502,234.459
9911.391656207565,745.39
9915.61814808206,1152.362
9919.935303126713,1353.669
9924.15941311792,1247.597
9928.38234571751,732.435
9932.695865648708,58.595
9936.91641937277,237.043
9941.135797191648,335.588
9945.445686598703,-39.951
9949.662688544726,673.84
9953.878516069532,540.67
9958.09316966365,261.013
9962.398234183594,487.402
9966.61051589339,815.0
9970.821625153134,455.441
9975.031562452265,756.405
9979.240328279942,657.86
9983.53937957713,292.974
9987.745778488254,447.451
9991.95100740443,514.036
9996.155066813732,631.226
10000.357957203963,356.895
10004.55967906266,490.065
10008.760232877092,-18.644
10013.050897176752,407.5
10017.249090997648,522.026
10021.446118245014,681.83
10025.641979405023,-31.961
10029.83667496358,817.664
10034.03020540632,474.085
10038.222571218605,647.206
10042.413772885537,567.304
10046.603810891938,18.644
10050.79268572236,21.307
10054.980397861098,551.324
10059.16694779218,577.958
10063.352335999334,-378.203
10067.536562966066,721.781
10071.719629175575,1424.919
10075.90153511081,732.435
10080.082281254454,-74.575
10084.26186808891,356.895
10088.440296096323,1222.5
10092.52676786215,154.477
10096.702904826674,-58.595
10100.877884398516,202.418
10105.051707058765,428.807
10109.224373288234,543.333
10113.395883567471,292.974
10117.475590772649,601.928
10121.64481569536,218.399
10125.812886097472,434.134
10129.979802458443,306.291
10134.145565257517,873.595
10138.219652237512,191.765
10142.383134400929,210.409
10146.545464428116,287.647
10150.706642797257,1073.35
10154.776246850048,487.402
10158.935148346747,751.079
10163.092899607942,828.317
10167.159152430871,362.222
10171.314629631466,276.994
10175.468958016776,93.219
10179.531863747628,519.363
10183.683920879565,245.033
10187.834830614069,143.824
10191.894393383842,633.889
10196.043034667582,775.049
10200.190529969435,668.513
10204.246753902304,620.572
10208.391983551395,141.16
10212.44599199288,524.69
10216.588957845182,516.699
10220.640752609928,647.206
10224.781456519388,367.549
10228.831039420063,697.811
10232.969483238625,530.016
10237.016856085897,588.611
10241.15304166346,1001.438
10245.19820626604,724.445
10249.332135450502,596.601
10253.375093615126,266.34
10257.506768252357,572.631
10261.547521783785,484.739
10265.58718577827,290.311
10269.715494418666,5.327
10273.752956473523,543.333
10277.87901516247,338.252
10281.91427707755,815.0
10285.948451675904,247.696
10290.0711512271,247.696
10294.10312837192,657.86
10298.13401952729,372.876
10302.253364041218,183.775
10306.282060424935,165.131
10310.309672144327,221.062
10314.425665714796,45.278
10318.451085340042,934.853
10322.475421623927,1747.36
10326.498675003731,2172.087
10330.610215200984,2282.752
10334.631280043344,2153.065
10338.651263301725,1856.743
10342.670165412448,1467.504
10346.687986811625,1059.058
10350.704727935088,705.121
10354.80961387438,479.412
10358.824171771252,455.441
10362.837650708272,628.562
10366.850051120337,692.484
10370.86137344214,295.637
10374.871618108127,524.69
10378.880785552512,753.742
10382.888876209276,540.67
10386.984923052532,346.242
10390.990837530662,508.709
10394.995676531347,18.644
10398.999440487634,825.654
10403.00212983234,633.889
10407.003744998048,364.886
10411.004286417105,641.879
10415.003754521616,492.729
10419.002149743475,700.474
10422.999472514348,468.758
10426.995723265634,593.938
10430.990902428544,31.961
10434.985010434026,439.461
10438.889325180557,538.007
10442.881315942828,218.399
10446.872236829608,234.379
10450.86208827093,471.422
10454.85087069661,34.624
10458.838584536235,964.151
10462.82523021915,431.471
10466.810808174472,703.137
10470.706785742112,1046.716
10474.690253232264,-5.327
10478.672654271297,71.912
10482.653989287404,700.474
10486.634258708573,279.657
10490.525047770485,276.994
10494.50321094102,868.268
10498.480309789697,482.075
10502.45634474356,735.098
10506.342995080442,359.559
10510.316927143493,143.824
10514.2897965821,-250.36
10518.261603822417,103.873
10522.144122034457,415.49
10526.113829736623,159.804
10530.082476508169,-514.036
10533.961905709137,242.369
10537.92845544769,442.124
10541.89394552126,639.216
10545.770289396216,434.134
10549.733684937964,519.363
10553.607981637546,343.578
10557.569284306495,655.196
10561.52952941227,55.931
10565.400746905443,181.111
10569.35890163298,631.226
10573.22807600992,122.516
10577.184142013864,239.706
10581.05127489159,980.131
10585.005253824836,972.141
10588.87034681866,383.529
10592.822240332363,359.559
10596.685295055897,466.095
10600.635104799476,282.32
10604.496122864624,255.686
10608.443850485746,-154.477
10612.302833502728,593.938
10616.160811022752,53.268
10620.10543022464,-154.477
10623.9613750996,213.072
10627.903916281392,292.974
10631.757830117263,311.618
10635.61074043666,346.242
10639.550179321655,247.696
10643.401060998756,77.239
10647.250940343372,237.043
10651.187280591832,45.278
10655.035133687184,641.879
10658.881985632182,-95.882
10662.815230898605,-340.915
10666.660058983602,61.258
10670.50388709854,-332.925
10674.346715633475,545.997
10678.275847672114,412.827
10682.116655520924,-250.36
10685.956464967534,290.311
10689.795276401208,577.958
10693.633090210977,-426.144
10697.557095575656,69.248
10701.39289265285,-237.043
10705.227693280882,484.739
10709.061497847986,-178.448
10712.894306742182,279.657
10716.726120351308,314.281
10720.55693906298,45.278
10724.386763264632,-34.624
10728.302600658342,572.631
10732.130414421008,66.585
10735.957234843503,210.409
10739.783062312445,-39.951
10743.60789721425,226.389
10747.431739935131,572.631
10751.254590861114,-90.556
10755.076450378,245.033
10758.897318871408,63.922
10762.717196726757,306.291
10766.536084329256,245.033
10770.353982063916,327.598
10774.170890315563,21.307
10777.98680946881,-431.471
10781.801739908076,191.765
10785.615682017564,284.984
10789.341989100834,332.925
10793.153978142976,394.183
10796.964979998098,-290.311
10800.774995049622,5.327
10804.58402368077,500.719
10808.392066274577,271.667
10812.199123213884,439.461
10816.005194881312,519.363
10819.723813349112,-231.716
10823.52793799081,274.33
10827.331078498672,-391.52
10831.133235254529,221.062
10834.848029253728,106.536
10838.64824198676,660.523
10842.447472103491,55.931
10846.24571998498,506.046
10849.956695412544,-90.556
10853.753002267928,194.428
10857.548328021428,-442.124
10861.342673053316,434.134
10865.049835794096,748.415
10868.842242790466,-338.252
10872.63367019626,316.945
10876.337982712816,756.405
10880.12747431772,311.618
10883.82989575329,455.441
10887.617453039476,34.624
10891.404032613404,663.186
10895.103609289945,-7.99
10898.88825677408,380.866
10902.585945994537,407.5
10906.368662867266,197.092
10910.150403901262,-897.566
10913.845253813895,519.363
10917.62506645972,189.101
10921.318032531915,170.458
10925.095918264182,-79.902
10928.787001936307,279.657
10932.562962228116,354.232
10936.252164939066,231.716
10939.940438510435,-15.98
10943.713524449233,865.605
10947.399919206764,7.99
10951.171083372872,596.601
10954.855600751816,23.971
10958.62484461311,359.559
10962.307486047235,330.261
10965.989200819247,-45.278
10969.755577991731,31.961
10973.435418958636,-125.18
10977.114334320191,-357.559
10980.877848072992,-567.812
10984.554891765896,-731.478
10988.231010908596,-824.091
10991.991664505884,-821.179
10995.665914113146,-698.285
10999.33924022374,-430.938
11003.011643185791,5.327
11006.768495629847,423.48
11010.439031890255,332.925
11014.108646053544,1201.193
11017.777338467138,402.173
11021.530395518184,538.007
11025.197224058184,572.631
11028.863131897786,271.667
11032.528119383707,226.389
11036.192186862492,538.007
11039.855334680517,370.212
11043.602720353196,213.072
11047.264008520897,551.324
11050.924378073953,799.02
11054.58382935806,-37.288
11058.242362718707,-210.409
11061.899978501227,186.438
11065.556677050785,-351.569
11069.21245871235,383.529
11072.867323830738,18.644
11076.521272750586,-199.755
11080.174305816368,647.206
11083.826423372368,332.925
11087.477625762698,74.575
11091.127913331318,319.608
11094.777286422,210.409
11098.425745378345,-226.389
11102.073290543767,50.605
11105.719922261547,258.35
11109.36564087477,111.863
11113.010446726335,98.546
11116.654340159006,-63.922
11120.29732151534,-306.291
11123.93939113774,-215.735
11127.580549368427,50.605
11131.22079654947,-74.575
11134.77550763161,290.311
11138.413954906267,-127.843
11142.051492148485,231.716
11145.688119699626,303.628
11149.323837900913,261.013
11152.958647093375,-23.971
11156.508048620988,-292.974
11160.141061938251,242.369
11163.773167260852,-362.222
11167.40436492916,221.062
11170.950240228543,207.745
11174.579644697213,721.781
11178.208142523734,-370.212
11181.751381744987,-215.735
11185.378088371155,50.605
11189.003889365817,58.595
11192.628785068173,210.409
11196.16850723805,-21.307
11199.79161440632,266.34
11203.413817290922,239.706
11206.950910239968,-276.994
11210.571326582844,-130.507
11214.10667518314,178.448
11217.725306305692,460.768
11221.343034819707,-79.902
11224.875759069631,-87.892
11228.49170435076,-516.699
11232.022687482247,239.706
11235.636850848638,-106.536
11239.166094148528,-143.824
11242.778476917028,210.409
11246.305981670925,-119.853
11249.91658515709,15.98
11253.442352649325,143.824
11257.05117816741,-708.464
11260.575209681025,39.951
11264.182258544,87.892
11267.704555360804,846.961
11271.309828880325,484.739
11274.83039228086,-87.892
11278.350099642112,47.941
11281.952723030843,-130.507
11285.470698886753,439.461
11288.987819646914,-226.389
11292.587795825824,101.209
11296.103186988752,-53.268
11299.70139304264,-13.317
11303.215055883851,247.696
11306.727865201254,-420.817
11310.23982130582,26.634
11313.834511810855,207.745
11317.34474212601,151.814
11320.8541201677,101.209
11324.446172200132,-191.765
11327.953826352135,-101.209
11331.460629168672,-39.951
11334.96658095964,13.317
11338.471682034791,183.775
11342.059356881087,159.804
11345.562737216636,93.219
11349.06526777208,245.033
11352.566948856567,-223.726
11356.067780779093,122.516
11359.56776384851,194.428
11363.1502007606,117.19
11366.648466857394,482.075
11370.145885034064,-348.905
11373.642455598843,-39.951
11377.138178859836,490.065
11380.633055125,258.35
11384.1270847021,-223.726
11387.620267898808,-263.677
11391.112605022612,-186.438
11394.60409638087,-237.043
11398.094742280777,263.677
11401.584543029392,-165.131
11405.073498933603,183.775
11408.561610300185,15.98
11412.048877435727,-173.121
11415.5353006467,-178.448
11419.020880239405,434.134
11422.505616520008,-266.34
11425.989509794525,-231.716
11429.472560368817,-221.062
11432.954768548592,-2.663
11436.43613463944,138.497
11439.916658946764,226.435
11443.313501961433,282.93
11446.79236364179,308.578
11450.270384446749,303.963
11453.74756468115,269.677
11457.22390464968,206.307
11460.699404656869,114.443
11464.091344754375,-5.327
11467.565185732994,-138.497
11471.038187655771,-189.101
11474.51035082668,55.931
11477.981675549512,-370.212
11481.369541233144,63.922
11484.839209915755,503.382
11488.30804105362,282.32
11491.693473394258,266.34
11495.16065027576,596.601
11498.626990514544,255.686
11502.092494413417,-149.15
11505.474679896604,319.608
11508.938531918346,-370.212
11512.401548500471,-524.69
11515.78130675673,63.922
11519.242673239612,154.477
11522.620821260369,-271.667
11526.080538823127,471.422
11529.5394224415,-162.467
11532.915147579475,-639.216
11536.372384051368,199.755
11539.74650183491,-197.092
11543.202092336618,210.409
11546.574603913472,13.317
11550.028549620163,-213.072
11553.399456136987,-15.98
11556.85175822272,239.706
11560.221060825072,-138.497
11563.67172046279,18.644
11567.039420295116,452.778
11570.488438656655,-450.114
11573.854536862347,-130.507
11577.301915118398,-122.516
11580.666412839755,335.588
11584.030120381583,-117.19
11587.475050538147,-5.327
11590.837159300165,50.605
11594.280452266124,303.628
11597.64096338792,-399.51
11601.000685734118,159.804
11604.441534950183,-394.183
11607.79966135666,-34.624
11611.156999826935,170.458
11614.59540789372,-93.219
11617.951152122365,316.945
11621.306109253032,159.804
11624.66027956261,-63.572
11628.09544335218,-174.836
11631.44802167594,-197.848
11634.799814015252,-156.469
11638.15082064648,-74.557
11641.58274474832,24.031
11644.932161645294,115.432
11648.280793669244,175.784
11651.62864109602,226.183
11654.975704201344,270.127
11658.403590030808,303.427
11661.749066206958,321.898
11665.093758894744,321.355
11668.43766836938,297.608
11671.780794905935,246.471
11675.12313877933,163.756
11678.4647002644,45.278
11681.805479635816,-71.912
11685.145477168146,-101.209
11688.484693135812,-213.072
11691.904543291126,-39.951
11695.24217790648,157.141
11698.579031786354,-63.922
11701.915105204676,82.565
11705.25039843522,175.784
11708.584911751648,601.928
11711.918645427471,-191.765
11715.251599736104,-261.013
11718.502511651865,-18.644
11721.83392703817,-386.193
11725.164563870054,420.817
11728.4944224204,282.32
11731.823502961994,202.418
11735.15180576744,-226.389
11738.479331109273,-245.033
11741.806079259855,354.232
11745.132050491462,681.83
11748.457245076206,335.588
11751.70058915004,-61.258
11755.024250183047,-263.677
11758.34713537819,-133.17
11761.669245007088,76.706
11764.990579341233,76.706
11768.230158619372,76.706
11771.549962071174,76.706
11774.86899103535,76.706
11778.187245782876,76.706
11781.423821624776,76.706
11784.740547618409,76.706
11788.05650020102,76.706
11791.371679643096,76.706
11794.605256223578,76.706
11797.91890903626,76.706
11801.231789512534,76.706
11804.46312397414,76.706
11807.774479408556,76.706
11811.085063309589,76.706
11814.314157983485,76.706
11817.623218427994,76.706
11820.850827315822,76.706
11824.158365355152,295.637
11827.4651331948,-138.497
11830.690506166697,-71.912
11833.995753182851,444.788
11837.219642936305,-47.941
11840.52337017791,26.634
11843.745777735792,197.092
11847.047986250807,-26.634
11850.26891263506,263.677
11853.569603470474,-335.588
11856.789049702087,98.546
11860.088223903953,322.271
11863.30619100298,-143.824
11866.603849616356,-111.863
11869.820338601929,-106.536
11873.11648267094,15.98
11876.331494561222,226.389
11879.545777396996,85.229
11882.839660941268,-87.892
11886.052468201013,-154.477
11889.26454715598,431.471
11892.55617250015,383.529
11895.766777396242,351.569
11899.056892350098,-5.327
11902.26602420178,-423.48
11905.474428998024,-42.614
11908.682106985869,18.644
11911.969222890988,154.477
11915.17542984806,221.062
11918.380910743392,74.575
11921.66577540321,242.369
11924.869786778698,-372.876
11928.07307283808,-58.595
11931.27563382762,-13.317
11934.477469993468,178.448
11937.758600089848,-39.951
11940.95896924119,-679.167
11944.158614312782,508.709
11947.35753555032,1432.909
11950.55573319941,-90.556
11953.753207505528,-633.889
11957.029868231695,-181.111
11960.225878519712,-71.912
11963.42116620667,-189.101
11966.615731537608,378.203
11969.809574757444,173.121
11973.002696111003,-101.209
11976.195095842992,-245.033
11979.386774197992,-439.461
11982.577731420495,226.389
11985.767967754866,47.941
11988.957483445382,98.546
11992.146278736183,338.252
11995.334353871312,476.748
11998.521709094712,-700.474
12001.708344650193,-5.327
12004.894260781464,18.644
12008.079457732136,223.726
12011.2639357457,82.565
12014.44769506553,-127.843
12017.630735934905,215.735
12020.81305859698,335.588
12023.994663294816,-269.003
12027.175550271351,39.951
12030.27622427429,348.905
12033.455694464548,55.931
12036.634447655608,679.167
12039.812484089987,7.99
12042.989804010074,-66.585
12046.166407658158,133.17
12049.26290681064,-170.458
12052.4380965329,-300.964
12055.612570703324,-242.369
12058.786329563762,-199.755
12061.880055974125,303.628
12065.052402807443,61.258
12068.224035049663,-191.765
12071.394952942192,436.797
12074.485910333004,-47.941
12077.655418093736,175.784
12080.824212222367,-308.954
12083.913099633974,122.516
12087.080485047096,-154.477
12090.247157544738,319.608
12093.333977055809,-10.654
