Wavenumber (cm⁻¹),Intensity
200.0,649.7459931549472
201.00097751710655,649.5111855702908
202.0019550342131,639.3052487605848
203.00293255131965,630.4229588214683
204.0039100684262,633.1826476936313
205.00488758553274,601.5021436991517
206.0058651026393,542.6678341158957
207.00684261974584,491.38806345302345
208.0078201368524,490.7867951634294
209.00879765395894,493.614590240097
210.00977517106548,486.1002611311139
211.01075268817203,477.33256557913074
212.01173020527858,480.78979276619094
213.01270772238513,470.67404392806986
214.01368523949168,468.1075307267223
215.01466275659823,479.2945095806409
216.01564027370478,499.63533308776766
217.01661779081132,520.1767242450599
218.01759530791787,525.4622596809779
219.01857282502445,544.6890424670462
220.019550342131,582.1811094048263
221.02052785923755,616.6896677389553
222.0215053763441,665.5986857433764
223.02248289345064,711.2406162592057
224.0234604105572,752.4016237338402
225.02443792766374,797.8005323651843
226.0254154447703,870.2504532405575
227.02639296187684,972.5868161473386
228.02737047898339,1086.2720561162962
229.02834799608993,1204.7768757369151
230.02932551319648,1344.069585308538
231.03030303030303,1546.647010427861
232.03128054740958,1762.185781593766
233.03225806451613,2006.6464493111464
234.03323558162268,2301.1152257859717
235.03421309872923,2526.2918005976585
236.03519061583577,2644.1778362418577
237.03616813294232,2602.3054043498187
238.03714565004887,2376.8100534581454
239.03812316715542,2014.1059390441785
240.03910068426197,1738.8548975360977
241.04007820136852,1503.0753608331477
242.04105571847506,1309.97261089588
243.0420332355816,1178.3323298233167
244.0430107526882,1027.6251096943658
245.04398826979474,892.7648311550544
246.0449657869013,783.6918680958145
247.04594330400784,695.6018231320028
248.04692082111438,617.4462621591385
249.04789833822093,583.3664001628175
250.04887585532748,553.9592754581967
251.04985337243403,529.856392654996
252.05083088954058,522.6673567212157
253.05180840664713,501.3989767542132
254.05278592375367,485.9621379373961
255.05376344086022,473.117951172848
256.05474095796677,461.33350889710874
257.0557184750733,457.25496232848576
258.05669599217987,444.5334062181724
259.0576735092864,440.4078055830197
260.05865102639297,446.04011653494234
261.0596285434995,450.0373693223825
262.06060606060606,416.0141212096072
263.0615835777126,415.00181215947305
264.06256109481916,429.04997997701525
265.0635386119257,434.44616900567195
266.06451612903226,426.9332423730854
267.0654936461388,445.22729126409445
268.06647116324535,445.2078051063053
269.0674486803519,434.3776524518526
270.06842619745845,435.3249955175306
271.069403714565,436.6402638159502
272.07038123167155,451.3155623910786
273.0713587487781,457.5618882112491
274.07233626588464,453.2942971053247
275.0733137829912,454.75058444160175
276.07429130009774,457.2536297310986
277.0752688172043,458.2083552234512
278.07624633431084,457.414827044863
279.0772238514174,458.8900315291946
280.07820136852393,469.51224360123683
281.0791788856305,468.859342633554
282.08015640273703,476.20030477904646
283.0811339198436,488.75243204234545
284.08211143695013,491.53975388303
285.0830889540567,495.9761922948293
286.0840664711632,510.40689913185247
287.0850439882698,528.669933965293
288.0860215053764,547.1660199302792
289.0869990224829,567.6286584952445
290.0879765395895,576.2232061072729
291.088954056696,603.0099820852625
292.0899315738026,641.3488133002359
293.0909090909091,669.3086809490596
294.09188660801567,687.3724646646536
295.0928641251222,723.8351285869236
296.09384164222877,771.4416310363208
297.0948191593353,810.4722268878035
298.09579667644186,833.4121646960033
299.0967741935484,876.0645587664193
300.09775171065496,863.7508760135221
301.0987292277615,838.0895037063125
302.09970674486806,830.3757159842595
303.1006842619746,811.6585007020643
304.10166177908116,800.4930716414195
305.1026392961877,806.3548841527266
306.10361681329425,820.749601972756
307.1045943304008,828.9275648092423
308.10557184750735,821.6714314397356
309.1065493646139,796.380298887645
310.10752688172045,774.0509866620722
311.108504398827,773.654495762187
312.10948191593354,797.449324451838
313.1104594330401,807.7618809057108
314.11143695014664,824.1588006558547
315.1124144672532,846.3074123518468
316.11339198435974,877.212951830812
317.1143695014663,930.2807269986938
318.11534701857283,1001.0307812907444
319.1163245356794,1078.1342841871965
320.11730205278593,1123.8117004563978
321.1182795698925,1125.4121403892555
322.119257086999,1136.7725840122325
323.1202346041056,1158.9760930441785
324.1212121212121,1200.4124776215087
325.1221896383187,1258.9226400514788
326.1231671554252,1330.080500493626
327.12414467253177,1442.8291926170969
328.1251221896383,1594.5640520869986
329.12609970674487,1769.8837643490365
330.1270772238514,1968.536845161976
331.12805474095796,2212.8862312512215
332.1290322580645,2524.4876991589117
333.13000977517106,2905.301601769949
334.1309872922776,3327.787417460018
335.13196480938416,3778.249355513289
336.1329423264907,4272.8326471475475
337.13391984359725,4869.897062624958
338.1348973607038,5489.13576337333
339.13587487781035,6032.007488318357
340.1368523949169,6415.827449969312
341.13782991202345,6525.858307326757
342.13880742913,6272.191907784509
343.13978494623655,5710.563673382357
344.1407624633431,4993.463068338431
345.14173998044964,4304.282430381066
346.1427174975562,3630.3873383512905
347.14369501466274,3086.25647698538
348.1446725317693,2678.023796774389
349.14565004887584,2351.4541493677098
350.1466275659824,2066.509677149339
351.14760508308893,1871.7746255639127
352.1485826001955,1684.2359705033625
353.14956011730203,1545.5881193349492
354.1505376344086,1481.7998917549353
355.1515151515151,1436.0680424217303
356.1524926686217,1367.8956892985912
357.1534701857282,1337.6634539270297
358.1544477028348,1309.3883342151482
359.1554252199413,1249.0284460738426
360.15640273704787,1206.6267908561501
361.1573802541544,1166.939154992526
362.15835777126097,1088.2752869538936
363.1593352883675,1010.8831116618139
364.16031280547406,972.1654318219639
365.1612903225806,905.951301324852
366.16226783968716,896.2000679077743
367.1632453567937,901.4873471926081
368.16422287390026,908.4416562139238
369.1652003910068,926.2638524205253
370.16617790811335,934.9992039404755
371.1671554252199,975.2895685671356
372.16813294232645,997.4573840986302
373.169110459433,1015.0735970916512
374.17008797653955,1089.0343639690943
375.1710654936461,1135.8441365926546
376.1720430107527,1190.958046436627
377.17302052785925,1247.615481741965
378.1739980449658,1288.1232087481494
379.17497556207235,1301.6223951397471
380.1759530791789,1267.5933286483064
381.17693059628544,1251.2356832854712
382.177908113392,1227.5300515144017
383.17888563049854,1173.4554325297265
384.1798631476051,1118.7569134949063
385.18084066471164,1119.578871389893
386.1818181818182,1124.9160179329072
387.18279569892474,1130.8188869149978
388.1837732160313,1170.762015468737
389.18475073313783,1263.771015821543
390.1857282502444,1315.2552676772755
391.18670576735093,1407.1544235043705
392.1876832844575,1523.0120678865565
393.188660801564,1636.7879789277267
394.1896383186706,1776.0500022707372
395.1906158357771,1917.6252805451797
396.1915933528837,2025.6979296469497
397.1925708699902,2120.012399534622
398.19354838709677,2211.38242540239
399.1945259042033,2246.4170655915805
400.19550342130987,2214.341987478415
401.1964809384164,2184.8970138672826
402.19745845552296,2134.6097983749833
403.1984359726295,2037.4628285458134
404.19941348973606,1949.1628465987399
405.2003910068426,1876.777114092326
406.20136852394916,1849.4720803733585
407.2023460410557,1833.4772171468787
408.20332355816225,1787.9693601052584
409.20430107526886,1727.8953428927637
410.2052785923754,1708.661241153531
411.20625610948196,1704.6539294401346
412.2072336265885,1711.7862532481013
413.20821114369505,1729.0637752033049
414.2091886608016,1725.553627025215
415.21016617790815,1729.152140670004
416.2111436950147,1721.5429900484255
417.21212121212125,1673.14153177701
418.2130987292278,1595.8063706446057
419.21407624633434,1573.659237339571
420.2150537634409,1523.3737005551413
421.21603128054744,1416.7981597103185
422.217008797654,1299.1298699099282
423.21798631476054,1203.0948950565098
424.2189638318671,1077.5580637812645
425.21994134897363,969.8644955787238
426.2209188660802,888.4226948772081
427.22189638318673,825.8091895720268
428.2228739002933,782.8119485766986
429.2238514173998,779.5121946067655
430.2248289345064,737.876627547028
431.2258064516129,718.2402627429724
432.2267839687195,728.06658149869
433.227761485826,747.7986969646686
434.22873900293257,773.7380834538045
435.2297165200391,801.5080457021996
436.23069403714567,836.2788683815091
437.2316715542522,881.2182104296272
438.23264907135876,929.7372031578607
439.2336265884653,973.2495905278986
440.23460410557186,1046.0252930355412
441.2355816226784,1090.3865081069441
442.23655913978496,1085.8011271966504
443.2375366568915,1035.0297889761364
444.23851417399806,940.2466554255232
445.2394916911046,867.6420496454983
446.24046920821115,772.3413722900339
447.2414467253177,686.6403204159774
448.24242424242425,641.5536982771077
449.2434017595308,628.2981119005859
450.24437927663735,603.1556959099969
451.2453567937439,573.781506370914
452.24633431085044,554.1962970492003
453.247311827957,549.6091638658835
454.24828934506354,554.063402199018
455.2492668621701,559.240442586959
456.25024437927664,565.9434646398289
457.2512218963832,554.1265937525892
458.25219941348973,529.2011102666668
459.2531769305963,523.5084988832867
460.25415444770283,550.6034779072618
461.2551319648094,549.3471703541626
462.2561094819159,535.244286741575
463.2570869990225,539.5410859356763
464.258064516129,563.567006337194
465.2590420332356,549.2360937613687
466.2600195503421,527.6941280897375
467.26099706744867,518.3455015973007
468.2619745845552,525.4143759533221
469.26295210166177,534.8731146935968
470.2639296187683,505.19919858798403
471.26490713587486,512.7065568642645
472.2658846529814,500.6414245835627
473.26686217008796,486.31577916574645
474.2678396871945,491.2478223521728
475.26881720430106,475.33047999001
476.2697947214076,480.5861762058223
477.27077223851416,481.46198463732827
478.2717497556207,471.5487025734122
479.27272727272725,464.38965896362504
480.2737047898338,468.22403595685455
481.27468230694035,460.5737089272737
482.2756598240469,460.6784198224895
483.27663734115345,449.10094186569313
484.27761485826,433.13791389023186
485.27859237536654,444.9489835205932
486.2795698924731,470.50186605866327
487.28054740957964,452.3378676296061
488.2815249266862,434.5921456900134
489.2825024437928,435.4640786777586
490.28347996089934,440.5546659538356
491.2844574780059,441.8608241223484
492.28543499511244,441.02391921178986
493.286412512219,434.5413749714659
494.28739002932554,431.1270312616906
495.2883675464321,429.32204994122907
496.28934506353863,407.81793266113493
497.2903225806452,417.69754121886155
498.29130009775173,428.8321190953772
499.2922776148583,437.30063514241925
500.2932551319648,443.454675129641
501.2942326490714,439.5226405153878
502.2952101661779,438.10908423664955
503.2961876832845,445.16708855903505
504.297165200391,443.84307943923926
505.29814271749757,444.4080954298795
506.2991202346041,469.76529799788426
507.30009775171067,490.0713201303655
508.3010752688172,505.55413201049186
509.30205278592376,538.1383476122002
510.3030303030303,572.1963309202797
511.30400782013686,592.9561256702568
512.3049853372434,633.1499720202597
513.3059628543499,665.7972548303339
514.3069403714564,720.0652312746637
515.307917888563,776.1877762833774
516.3088954056695,829.5137258603216
517.3098729227761,903.6372031322077
518.3108504398826,939.6854756475356
519.3118279569892,951.9500455625364
520.3128054740957,937.2930716991078
521.3137829912023,919.1794242196747
522.3147605083088,926.9913159092981
523.3157380254154,935.443338623643
524.3167155425219,930.9938241797715
525.3176930596285,912.8380530648044
526.318670576735,885.3146593328378
527.3196480938416,850.6154468084735
528.3206256109481,807.1727656686329
529.3216031280547,773.6948600317567
530.3225806451612,726.6296594924127
531.3235581622678,701.6609347332651
532.3245356793743,705.6260509984176
533.3255131964809,712.2901256558994
534.3264907135874,753.937996989685
535.327468230694,805.5478347029477
536.3284457478005,849.7136556748573
537.3294232649071,881.817787106038
538.3304007820136,897.8695597583527
539.3313782991202,883.8076417772077
540.3323558162267,892.1326829865186
541.3333333333333,869.3566316670165
542.3343108504398,845.2897684103821
543.3352883675464,838.2847816507012
544.3362658846529,818.1459761796469
545.3372434017595,821.1668240579904
546.338220918866,848.538422431449
547.3391984359725,843.5244866780125
548.3401759530791,811.4270780473537
549.3411534701856,783.9780324137896
550.3421309872922,749.3828437003099
551.3431085043987,722.627935717638
552.3440860215054,704.756916621845
553.345063538612,667.6541504867596
554.3460410557185,608.282679555414
555.347018572825,567.153224309098
556.3479960899316,549.4037769242693
557.3489736070381,519.5519961592138
558.3499511241447,498.76220598414017
559.3509286412512,488.2803135132568
560.3519061583578,473.80422028314445
561.3528836754643,460.8816604949092
562.3538611925709,475.71630930180163
563.3548387096774,485.4805770988485
564.355816226784,472.2060848137519
565.3567937438905,455.45688815683565
566.3577712609971,469.76750372758227
567.3587487781036,471.58387711214965
568.3597262952102,468.44149541515884
569.3607038123167,479.7947526587311
570.3616813294233,495.5203857651938
571.3626588465298,494.9028119050672
572.3636363636364,481.7882742980518
573.3646138807429,486.47637449021045
574.3655913978495,506.5091327378215
575.366568914956,516.9793985250868
576.3675464320626,512.6719652764677
577.3685239491691,504.46007129376295
578.3695014662757,495.6919147103145
579.3704789833822,491.7201243130669
580.3714565004888,472.28826235912413
581.3724340175953,456.5330877697649
582.3734115347019,447.08113855492945
583.3743890518084,417.91194599010163
584.375366568915,433.5107430181318
585.3763440860215,439.5797657336964
586.377321603128,441.048614058971
587.3782991202346,443.60919745168474
588.3792766373411,441.5252120319358
589.3802541544477,434.41624665139057
590.3812316715542,438.8270729834837
591.3822091886608,459.7346782135347
592.3831867057673,453.16058162736147
593.3841642228739,427.26762168901803
594.3851417399804,431.4324129766662
595.386119257087,419.60689520959835
596.3870967741935,417.64327787167696
597.3880742913001,422.78522125733707
598.3890518084066,411.2678691919302
599.3900293255132,393.6145516767734
600.3910068426197,406.3373479958465
601.3919843597263,404.69783813752275
602.3929618768328,400.5514073745058
603.3939393939394,400.48912281307156
604.3949169110459,397.22501304188654
605.3958944281525,391.5253105458098
606.396871945259,403.9626283511186
607.3978494623656,398.35663444049015
608.3988269794721,375.3061402894595
609.3998044965787,373.85188268622727
610.4007820136852,397.84824233273423
611.4017595307918,411.6670728908411
612.4027370478983,385.4463009099369
613.4037145650049,400.51925392273824
614.4046920821114,392.1768743841253
615.405669599218,393.1759232033073
616.4066471163245,406.4566243590736
617.4076246334312,395.4913285030493
618.4086021505377,409.700773674092
619.4095796676443,405.88770192405144
620.4105571847508,405.6588606241274
621.4115347018574,419.71455096659986
622.4125122189639,431.6482077957241
623.4134897360705,425.28720702863336
624.414467253177,421.10529901895484
625.4154447702836,434.47624969017045
626.4164222873901,435.46097507240063
627.4173998044967,439.3686536707792
628.4183773216032,452.2665341705988
629.4193548387098,440.595636299523
630.4203323558163,446.73039012695637
631.4213098729228,457.6249028210327
632.4222873900294,468.67032947667343
633.423264907136,475.40678910633125
634.4242424242425,481.0339946817279
635.425219941349,497.4020590413648
636.4261974584556,504.4727999545412
637.4271749755621,524.8103405960779
638.4281524926687,526.4104082985539
639.4291300097752,531.6158543590767
640.4301075268818,565.5361920756648
641.4310850439883,582.6328145522315
642.4320625610949,613.3480256699336
643.4330400782014,642.5849561369173
644.434017595308,678.4834935713769
645.4349951124145,719.3999020407849
646.4359726295211,763.7107406096258
647.4369501466276,831.7764589485406
648.4379276637342,884.233301865233
649.4389051808407,990.6486770893014
650.4398826979473,1089.319553069937
651.4408602150538,1199.414889185534
652.4418377321604,1355.656729386121
653.4428152492669,1451.683761925732
654.4437927663735,1636.3818089204508
655.44477028348,1818.3114246191597
656.4457478005866,2006.200875371139
657.4467253176931,2236.0477168077696
658.4477028347997,2510.7259060671236
659.4486803519062,2755.485882522775
660.4496578690128,2997.5188752079193
661.4506353861193,3155.0301055434666
662.4516129032259,3204.786822209286
663.4525904203324,3124.7690140089817
664.453567937439,2919.996852736974
665.4545454545455,2677.88038733948
666.455522971652,2452.5329016466126
667.4565004887586,2222.8451219978238
668.4574780058651,2044.8960798893645
669.4584555229717,1932.7875949038107
670.4594330400782,1859.786782905635
671.4604105571848,1812.3184281269453
672.4613880742913,1885.6660541347028
673.4623655913979,1959.572139247426
674.4633431085044,2051.7350469810463
675.464320625611,2180.921697986964
676.4652981427175,2335.105710485235
677.4662756598241,2529.3502393633544
678.4672531769306,2744.063948293986
679.4682306940372,2987.6254975631214
680.4692082111437,3211.5635366842807
681.4701857282503,3405.069555644769
682.4711632453568,3578.7438434001756
683.4721407624634,3701.9266330637556
684.4731182795699,3681.1604952124767
685.4740957966765,3517.603454862371
686.475073313783,3244.6482178000106
687.4760508308896,2870.492085402055
688.4770283479961,2470.4778324173467
689.4780058651027,2172.2631776011835
690.4789833822092,1849.779323186485
691.4799608993158,1591.7348552528422
692.4809384164223,1388.5313240615048
693.4819159335289,1221.6077561975721
694.4828934506354,1086.287658900255
695.483870967742,975.4049889294846
696.4848484848485,890.6106681972203
697.485826001955,820.6756772487072
698.4868035190616,775.6928508271185
699.4877810361681,722.4925330350709
700.4887585532747,669.259514128174
701.4897360703812,644.4129982995336
702.4907135874878,594.0892343032061
703.4916911045943,596.5224166808905
704.4926686217009,568.4838852262906
705.4936461388074,553.408732302855
706.494623655914,556.9880231603223
707.4956011730205,537.2196735569742
708.4965786901271,499.6868263853784
709.4975562072336,508.3460283257581
710.4985337243402,519.1015845940992
711.4995112414467,495.3291714710779
712.5004887585533,464.40878360803924
713.5014662756598,457.4708136340826
714.5024437927664,453.87580990670284
715.5034213098729,440.162713090923
716.5043988269795,445.29193196864145
717.505376344086,439.28037413957327
718.5063538611926,430.53933129534903
719.5073313782991,431.82885933115205
720.5083088954057,433.12664905562764
721.5092864125122,432.46836934986084
722.5102639296188,429.61255849025616
723.5112414467253,431.4622609808093
724.5122189638319,434.1359810220559
725.5131964809384,430.0090099963442
726.514173998045,421.17709339342775
727.5151515151515,424.4621405322673
728.516129032258,429.4413429023559
729.5171065493646,427.75710742108197
730.5180840664711,425.2973532726547
731.5190615835777,428.02881695131447
732.5200391006842,433.499172645617
733.5210166177908,434.6734227386578
734.5219941348973,440.95776220737594
735.5229716520039,438.90241608647244
736.5239491691104,446.5023676490701
737.524926686217,458.625243514414
738.5259042033235,474.12812017063226
739.5268817204301,489.8247739013681
740.5278592375366,471.82218280579696
741.5288367546432,475.24571260506355
742.5298142717497,497.51120854310534
743.5307917888563,514.1608334448928
744.5317693059628,522.4546368682304
745.5327468230694,534.3254172320385
746.5337243401759,554.8523504771088
747.5347018572825,577.5203087157173
