Raman shift,Intensity
751.53666,440.48031
753.60413,441.18838
755.67159,441.18838
757.73905,441.18838
759.80651,441.18838
761.87398,441.18838
763.94144,440.48031
766.0089,439.77224
768.07636,439.06416
770.14383,439.06416
772.21129,439.06416
774.27875,439.06416
776.34621,439.06416
778.41368,439.06416
780.48114,439.06416
782.5486,439.06416
784.61606,438.35609
786.68353,438.35609
788.75099,438.35609
790.81845,438.35609
792.88591,439.06416
794.95338,438.35609
797.02084,438.35609
799.0883,438.35609
801.15576,439.06416
803.22323,439.77224
805.29069,440.48031
807.35815,441.18838
809.42561,441.89646
811.49308,441.89646
813.56054,441.89646
815.628,441.89646
817.69546,441.89646
819.76293,441.89646
821.83039,441.89646
823.89785,442.60453
825.96531,443.31261
828.03278,444.02068
830.10024,443.31261
832.1677,443.31261
834.23516,442.60453
836.30262,442.60453
838.37009,443.31261
840.43755,444.02068
842.50501,443.31261
844.57247,442.60453
846.63994,442.60453
848.7074,442.60453
850.77486,442.60453
852.84232,442.60453
854.90979,442.60453
856.97725,442.60453
859.04471,442.60453
861.11217,442.60453
863.17964,442.60453
865.2471,442.60453
867.31456,443.31261
869.38202,443.31261
871.44949,442.60453
873.51695,442.60453
875.58441,442.60453
877.65187,442.60453
879.71934,442.60453
881.7868,442.60453
883.85426,442.60453
885.92172,442.60453
887.98919,442.60453
890.05665,442.60453
892.12411,443.31261
894.19157,443.31261
896.25904,443.31261
898.3265,444.02068
900.39396,444.02068
902.46142,444.02068
904.52889,444.02068
906.59635,444.72875
908.66381,444.72875
910.73127,444.02068
912.79874,443.31261
914.8662,443.31261
916.93366,443.31261
919.00112,443.31261
921.06859,443.31261
923.13605,443.31261
925.20351,443.31261
927.27097,442.60453
929.33844,441.89646
931.4059,441.89646
933.47336,441.89646
935.54082,441.89646
937.60829,441.89646
939.67575,441.89646
941.74321,441.89646
943.81067,442.60453
945.87814,443.31261
947.9456,444.02068
950.01306,444.72875
952.08052,445.43683
954.14799,445.43683
956.21545,445.43683
958.28291,445.43683
960.35037,445.43683
962.41784,444.72875
964.4853,444.02068
966.55276,443.31261
968.62022,442.60453
970.68769,442.60453
972.75515,442.60453
974.82261,442.60453
976.89007,442.60453
978.95754,442.60453
981.025,443.31261
983.09246,444.02068
985.15992,443.31261
987.22739,443.31261
989.29485,443.31261
991.36231,443.31261
993.42977,443.31261
995.49724,444.02068
997.5647,444.72875
999.63216,445.43683
1001.69962,446.1449
1003.76709,446.1449
1005.83455,445.43683
1007.90201,444.72875
1009.96947,444.02068
1012.03694,443.31261
1014.1044,442.60453
1016.17186,441.89646
1018.23932,441.18838
1020.30679,441.18838
1022.37425,441.18838
1024.44171,440.48031
1026.50917,440.48031
1028.57663,441.18838
1030.6441,440.48031
1032.71156,441.18838
1034.77902,441.89646
1036.84648,442.60453
1038.91395,441.89646
1040.98141,441.18838
1040.98141,441.89646
1043.04887,441.89646
1045.11633,442.60453
1045.11633,441.89646
1047.1838,444.72875
1047.1838,444.02068
1047.1838,443.31261
1047.1838,442.60453
1047.1838,445.43683
1049.25126,445.43683
1049.25126,446.1449
1051.31872,446.1449
1053.38618,446.85297
1053.38618,447.56105
1053.38618,446.1449
1055.45365,448.26912
1055.45365,447.56105
1055.45365,449.68527
1055.45365,450.39334
1055.45365,448.97719
1057.52111,451.10141
1057.52111,451.80949
1057.52111,452.51756
1059.58857,453.22563
1059.58857,453.93371
1059.58857,452.51756
1061.65603,469.51133
1061.65603,454.64178
1061.65603,472.34362
1061.65603,471.63555
1061.65603,475.17591
1061.65603,475.88399
1061.65603,476.59206
1061.65603,468.80325
1061.65603,473.05169
1061.65603,470.92747
1063.7235,477.30013
1063.7235,479.42435
1063.7235,468.09518
1063.7235,480.8405
1063.7235,478.71628
1063.7235,473.75977
1063.7235,474.46784
1063.7235,482.25665
1063.7235,470.2194
1063.7235,481.54857
1063.7235,455.34985
1063.7235,478.00821
1065.79096,480.13243
1065.79096,456.05793
1065.79096,467.3871
1065.79096,466.67903
1065.79096,465.97096
1065.79096,484.38087
1065.79096,485.08894
1065.79096,483.6728
1065.79096,486.50509
1065.79096,487.21316
1065.79096,482.96472
1067.85842,489.33738
1067.85842,490.04546
1067.85842,488.62931
1067.85842,492.16968
1067.85842,457.47408
1067.85842,456.766
1067.85842,487.92124
1067.85842,463.84674
1067.85842,465.26288
1067.85842,492.87775
1067.85842,485.79702
1067.85842,463.13866
1067.85842,493.58582
1069.92588,500.66656
1069.92588,462.43059
1069.92588,499.25041
1069.92588,459.5983
1069.92588,490.75353
1069.92588,458.89022
1069.92588,458.18215
1069.92588,464.55481
1069.92588,499.95849
1069.92588,494.2939
1069.92588,495.00197
1069.92588,495.71004
1069.92588,496.41812
1069.92588,497.12619
1069.92588,491.4616
1069.92588,501.37463
1071.99335,498.54234
1071.99335,461.01444
1071.99335,461.72252
1071.99335,460.30637
1071.99335,502.08271
1071.99335,497.83427
1071.99335,503.49885
1071.99335,504.20693
1071.99335,504.915
1071.99335,507.74729
1071.99335,507.03922
1071.99335,502.79078
1071.99335,508.45537
1074.06081,505.62307
1074.06081,509.16344
1074.06081,509.87152
1074.06081,510.57959
1074.06081,506.33115
1074.06081,511.99574
1074.06081,512.70381
1074.06081,513.41188
1074.06081,514.11996
1074.06081,511.28766
1076.12827,515.5361
1076.12827,516.24418
1076.12827,514.82803
1076.12827,517.66032
1076.12827,520.49262
1076.12827,519.07647
1076.12827,519.78454
1076.12827,516.95225
1078.19573,521.20069
1078.19573,521.90876
1078.19573,518.3684
1078.19573,523.32491
1078.19573,524.03299
1078.19573,524.74106
1078.19573,522.61684
1078.19573,526.15721
1078.19573,525.44913
1080.2632,527.57335
1080.2632,526.86528
1080.2632,529.69757
1080.2632,528.28143
1080.2632,530.40565
1082.33066,531.11372
1082.33066,528.9895
1084.39812,532.52987
1084.39812,533.23794
1084.39812,533.94601
1084.39812,534.65409
1084.39812,535.36216
1084.39812,536.07024
1084.39812,536.77831
1084.39812,537.48638
1084.39812,538.19446
1084.39812,531.82179
1086.46558,543.15097
1086.46558,538.90253
1086.46558,539.6106
1086.46558,540.31868
1088.53305,541.02675
1088.53305,542.4429
1088.53305,543.15097
1090.60051,541.73482
1103.00528,543.85904
1105.07275,544.56712
1105.07275,543.85904
1105.07275,543.15097
1107.14021,542.4429
1107.14021,544.56712
1109.20767,540.31868
1109.20767,541.73482
1111.27513,541.02675
1111.27513,539.6106
1113.3426,537.48638
1113.3426,538.90253
1113.3426,538.19446
1113.3426,536.07024
1113.3426,536.77831
1113.3426,528.28143
1113.3426,528.9895
1113.3426,527.57335
1115.41006,531.11372
1115.41006,535.36216
1115.41006,532.52987
1115.41006,530.40565
1115.41006,534.65409
1115.41006,526.86528
1115.41006,529.69757
1115.41006,533.23794
1115.41006,533.94601
1117.47752,524.03299
1117.47752,531.82179
1117.47752,526.15721
1117.47752,524.74106
1119.54498,525.44913
1119.54498,523.32491
1119.54498,522.61684
1119.54498,518.3684
1119.54498,521.90876
1119.54498,521.20069
1121.61245,520.49262
1121.61245,519.78454
1121.61245,515.5361
1121.61245,519.07647
1121.61245,517.66032
1121.61245,516.95225
1121.61245,516.24418
1123.67991,512.70381
1123.67991,514.82803
1123.67991,514.11996
1123.67991,513.41188
1125.74737,502.08271
1125.74737,511.99574
1125.74737,511.28766
1125.74737,510.57959
1125.74737,509.87152
1125.74737,509.16344
1125.74737,508.45537
1125.74737,507.74729
1125.74737,501.37463
1127.81483,507.03922
1127.81483,505.62307
1127.81483,506.33115
1127.81483,500.66656
1127.81483,503.49885
1127.81483,502.79078
1127.81483,504.20693
1127.81483,504.915
1127.81483,499.25041
1127.81483,499.95849
1127.81483,495.71004
1127.81483,498.54234
1129.8823,497.83427
1129.8823,497.12619
1129.8823,496.41812
1129.8823,493.58582
1129.8823,495.00197
1129.8823,494.2939
1129.8823,492.87775
1131.94976,490.04546
1131.94976,492.16968
1131.94976,491.4616
1131.94976,490.75353
1134.01722,486.50509
1134.01722,489.33738
1134.01722,488.62931
1134.01722,487.92124
1134.01722,487.21316
1134.01722,479.42435
1134.01722,485.79702
1134.01722,485.08894
1134.01722,478.71628
1136.08468,483.6728
1136.08468,482.96472
1136.08468,484.38087
1136.08468,480.13243
1136.08468,480.8405
1136.08468,475.88399
1136.08468,481.54857
1136.08468,482.25665
1136.08468,478.00821
1136.08468,477.30013
1136.08468,476.59206
1138.15215,472.34362
1138.15215,475.17591
1138.15215,474.46784
1138.15215,473.75977
1138.15215,473.05169
1138.15215,470.92747
1138.15215,471.63555
1140.21961,464.55481
1140.21961,470.2194
1140.21961,469.51133
1140.21961,466.67903
1140.21961,468.09518
1140.21961,467.3871
1140.21961,465.26288
1140.21961,465.97096
1142.28707,468.80325
1142.28707,454.64178
1142.28707,463.84674
1142.28707,453.93371
1142.28707,455.34985
1144.35453,463.13866
1144.35453,456.05793
1144.35453,453.22563
1146.422,460.30637
1146.422,458.89022
1146.422,458.18215
1146.422,457.47408
1146.422,456.766
1146.422,462.43059
1146.422,461.72252
1146.422,461.01444
1146.422,453.22563
1148.48946,451.10141
1148.48946,459.5983
1148.48946,452.51756
1148.48946,451.80949
1148.48946,450.39334
1150.55692,448.97719
1150.55692,450.39334
1150.55692,449.68527
1152.62438,448.26912
1152.62438,448.97719
1154.69185,440.48031
1154.69185,448.26912
1154.69185,447.56105
1154.69185,446.85297
1154.69185,446.1449
1154.69185,445.43683
1154.69185,444.72875
1154.69185,444.02068
1154.69185,443.31261
1154.69185,442.60453
1154.69185,441.89646
1154.69185,441.18838
1156.75931,440.48031
1158.82677,441.18838
1160.89423,441.89646
1162.9617,442.60453
1165.02916,442.60453
1167.09662,443.31261
1169.16408,444.02068
1171.23155,444.02068
1173.29901,444.72875
1175.36647,445.43683
1177.43393,446.1449
1179.5014,446.85297
1181.56886,447.56105
1183.63632,447.56105
1185.70378,447.56105
1187.77125,447.56105
1189.83871,447.56105
1191.90617,447.56105
1193.97363,447.56105
1196.0411,447.56105
1198.10856,447.56105
1200.17602,446.85297
1202.24348,446.1449
1204.31095,445.43683
1206.37841,444.72875
1208.44587,444.02068
1210.51333,444.72875
1212.5808,445.43683
1214.64826,446.1449
1216.71572,446.85297
1218.78318,446.85297
1220.85064,446.1449
1222.91811,445.43683
1224.98557,444.72875
1227.05303,444.02068
1229.12049,443.31261
1231.18796,442.60453
1233.25542,443.31261
1235.32288,444.02068
1237.39034,444.72875
1239.45781,445.43683
1241.52527,446.1449
1243.59273,446.85297
1245.66019,446.85297
1247.72766,446.85297
1249.79512,446.85297
1251.86258,446.85297
1253.93004,446.1449
1255.99751,446.85297
1258.06497,446.85297
1260.13243,447.56105
1262.19989,447.56105
1264.26736,447.56105
1266.33482,446.85297
1268.40228,446.85297
1270.46974,446.85297
1272.53721,446.1449
1274.60467,446.1449
1276.67213,446.1449
1278.73959,446.1449
1280.80706,446.1449
1282.87452,446.1449
1284.94198,446.1449
1287.00944,446.1449
1289.07691,446.1449
1291.14437,446.85297
1293.21183,446.85297
1295.27929,447.56105
1297.34676,448.26912
1299.41422,448.97719
1301.48168,448.97719
1303.54914,448.97719
1305.61661,448.26912
1307.68407,448.26912
1309.75153,448.26912
1311.81899,447.56105
1313.88646,446.85297
1315.95392,446.85297
1318.02138,446.85297
1320.08884,446.85297
1322.15631,447.56105
1324.22377,448.26912
1326.29123,447.56105
1328.35869,447.56105
1330.42616,447.56105
1332.49362,447.56105
1334.56108,447.56105
1336.62854,447.56105
1338.69601,447.56105
1340.76347,448.26912
1342.83093,448.97719
1344.89839,449.68527
1346.96586,450.39334
1349.03332,451.10141
1351.10078,451.10141
1353.16824,451.80949
1355.23571,452.51756
1357.30317,452.51756
1359.37063,452.51756
1361.43809,452.51756
1363.50556,452.51756
1365.57302,452.51756
1367.64048,451.80949
1369.70794,451.80949
1371.77541,451.10141
1373.84287,450.39334
1375.91033,449.68527
1377.97779,448.97719
1380.04526,448.26912
1382.11272,448.26912
1384.18018,448.26912
1386.24764,448.26912
1388.31511,448.26912
1390.38257,448.97719
1392.45003,448.26912
1394.51749,448.26912
1396.58496,448.26912
1398.65242,448.26912
1400.71988,448.26912
1402.78734,448.97719
1404.85481,448.97719
1406.92227,448.97719
1408.98973,449.68527
1411.05719,449.68527
1413.12465,450.39334
1415.19212,450.39334
1417.25958,451.10141
1419.32704,451.80949
1419.32704,451.10141
1421.3945,451.80949
1423.46197,457.47408
1423.46197,451.80949
1423.46197,452.51756
1423.46197,453.22563
1423.46197,453.93371
1423.46197,454.64178
1423.46197,455.34985
1423.46197,456.05793
1423.46197,456.766
1425.52943,457.47408
1425.52943,458.18215
1427.59689,458.89022
1427.59689,458.18215
1429.66435,458.89022
1431.73182,459.5983
1431.73182,458.89022
1433.79928,460.30637
1433.79928,459.5983
1435.86674,461.01444
1437.9342,461.01444
1440.00167,461.72252
1440.00167,461.01444
1442.06913,461.72252
1444.13659,461.01444
1446.20405,460.30637
1448.27152,461.01444
1450.33898,461.72252
1452.40644,461.01444
1454.4739,458.89022
1454.4739,461.01444
1454.4739,460.30637
1454.4739,459.5983
1454.4739,457.47408
1454.4739,458.18215
1454.4739,455.34985
1454.4739,456.766
1454.4739,456.05793
1456.54137,455.34985
1458.60883,455.34985
1460.67629,455.34985
1462.74375,455.34985
1464.81122,455.34985
1466.87868,451.80949
1466.87868,455.34985
1466.87868,454.64178
1466.87868,453.93371
1466.87868,453.22563
1466.87868,452.51756
1468.94614,451.10141
1471.0136,449.68527
1471.0136,451.10141
1471.0136,450.39334
1473.08107,449.68527
1475.14853,449.68527
1477.21599,449.68527
1479.28345,449.68527
1481.35092,448.97719
1483.41838,448.26912
1485.48584,447.56105
1487.5533,447.56105
1489.62077,446.85297
1491.68823,446.85297
1493.75569,446.85297
1495.82315,446.85297
1497.89062,446.85297
1499.95808,446.85297
1502.02554,446.85297
1504.093,446.1449
1506.16047,446.1449
1508.22793,446.1449
1510.29539,446.1449
1512.36285,446.1449
1514.43032,446.1449
1516.49778,445.43683
1518.56524,445.43683
1520.6327,445.43683
1522.70017,444.72875
1524.76763,444.72875
1526.83509,444.72875
1528.90255,444.72875
1530.97002,444.72875
1533.03748,445.43683
1535.10494,445.43683
1537.1724,446.1449
1539.23987,449.68527
1539.23987,446.85297
1539.23987,447.56105
1539.23987,448.26912
1539.23987,448.97719
1539.23987,451.80949
1539.23987,450.39334
1539.23987,451.10141
1541.30733,451.80949
1543.37479,451.80949
1545.44225,452.51756
1545.44225,451.80949
1547.50972,453.22563
1547.50972,452.51756
1549.57718,453.22563
1551.64464,453.93371
1553.7121,453.93371
1555.77957,453.93371
1557.84703,453.93371
1559.91449,455.34985
1559.91449,453.93371
1559.91449,454.64178
1561.98195,455.34985
1561.98195,456.05793
1564.04942,456.05793
1566.11688,456.05793
1568.18434,456.766
1570.2518,457.47408
1570.2518,456.766
1572.31927,457.47408
1574.38673,458.18215
1576.45419,458.18215
1578.52165,458.89022
1578.52165,458.18215
1580.58912,458.89022
1582.65658,459.5983
1584.72404,459.5983
1586.7915,459.5983
1588.85897,459.5983
1590.92643,459.5983
1592.99389,459.5983
1595.06135,459.5983
1597.12882,459.5983
1599.19628,461.72252
1599.19628,460.30637
1599.19628,461.01444
1599.19628,462.43059
1601.26374,462.43059
1603.3312,463.13866
1605.39867,463.13866
1607.46613,462.43059
1609.53359,461.72252
1611.60105,461.01444
1613.66851,460.30637
1615.73598,461.01444
1617.80344,461.72252
1619.8709,462.43059
1621.93836,463.13866
1624.00583,463.13866
1626.07329,461.72252
1626.07329,462.43059
1626.07329,458.89022
1626.07329,461.01444
1626.07329,460.30637
1626.07329,459.5983
1626.07329,457.47408
1626.07329,458.18215
1628.14075,457.47408
1630.20821,457.47408
1632.27568,456.766
1632.27568,457.47408
1634.34314,456.766
1634.34314,456.05793
1636.4106,455.34985
1638.47806,455.34985
1640.54553,455.34985
1642.61299,454.64178
1642.61299,455.34985
1644.68045,454.64178
1644.68045,453.93371
1646.74791,453.22563
1648.81538,453.22563
1650.88284,453.22563
1652.9503,452.51756
1655.01776,451.80949
1655.01776,452.51756
1657.08523,451.80949
1659.15269,451.10141
1661.22015,451.10141
1663.28761,451.10141
1665.35508,451.10141
1667.42254,451.10141
1669.49,448.97719
1669.49,450.39334
1669.49,449.68527
1671.55746,448.97719
1673.62493,448.97719
1675.69239,448.97719
1677.75985,448.97719
1679.82731,448.26912
1679.82731,447.56105
1681.89478,446.85297
1683.96224,446.85297
1686.0297,446.85297
1688.09716,446.85297
1690.16463,446.85297
1692.23209,446.85297
1694.29955,446.85297
1696.36701,446.85297
1698.43448,446.85297
1700.50194,446.85297
1702.5694,446.1449
1704.63686,445.43683
1706.70433,442.60453
1706.70433,445.43683
1706.70433,444.72875
1706.70433,444.02068
1706.70433,443.31261
1708.77179,443.31261
1710.83925,444.02068
1712.90671,444.72875
1714.97418,445.43683
1717.04164,446.1449
1719.1091,446.1449
1721.17656,446.1449
1723.24403,446.1449
1725.31149,445.43683
1727.37895,445.43683
1729.44641,444.72875
1731.51388,444.72875
1733.58134,444.72875
1735.6488,444.02068
1737.71626,444.02068
1739.78373,443.31261
1741.85119,447.56105
1741.85119,442.60453
1741.85119,443.31261
1741.85119,444.02068
1741.85119,444.72875
1741.85119,445.43683
1741.85119,446.1449
1741.85119,446.85297
1743.91865,447.56105
1745.98611,448.26912
1745.98611,447.56105
1748.05358,448.26912
1750.12104,448.97719
1750.12104,448.26912
1752.1885,448.97719
1754.25596,449.68527
1756.32343,449.68527
1758.39089,449.68527
1760.45835,449.68527
1762.52581,448.97719
1764.59328,448.26912
1766.66074,447.56105
1768.7282,446.85297
1770.79566,446.85297
1772.86313,444.02068
1772.86313,447.56105
1772.86313,446.85297
1772.86313,446.1449
1772.86313,445.43683
1772.86313,444.72875
1774.93059,443.31261
1774.93059,444.02068
1776.99805,442.60453
1776.99805,443.31261
1779.06551,442.60453
1781.13298,442.60453
1781.13298,441.89646
1783.20044,441.18838
1783.20044,441.89646
1785.2679,440.48031
1785.2679,441.18838
1787.33536,440.48031
1789.40283,440.48031
1791.47029,439.77224
1791.47029,440.48031
1793.53775,439.77224
1795.60521,439.77224
1797.67268,439.06416
1799.74014,438.35609
1801.8076,438.35609
1803.87506,438.35609
1805.94252,438.35609
1808.00999,439.06416
1810.07745,439.77224
1812.14491,440.48031
1814.21237,440.48031
1816.27984,439.77224
1818.3473,439.77224
1820.41476,439.06416
1822.48222,438.35609
1824.54969,437.64802
1826.61715,436.93994
1828.68461,437.64802
1830.75207,438.35609
1832.81954,439.06416
1834.887,439.06416
1836.95446,439.06416
1839.02192,438.35609
1841.08939,439.06416
1843.15685,439.77224
1845.22431,439.77224
1847.29177,439.77224
1849.35924,439.77224
1851.4267,439.06416
1853.49416,438.35609
1855.56162,437.64802
1857.62909,438.35609
1859.69655,439.06416
1861.76401,439.77224
1863.83147,439.77224
1865.89894,439.77224
1867.9664,439.77224
1870.03386,439.77224
1872.10132,439.06416
1874.16879,438.35609
1876.23625,439.06416
1878.30371,439.77224
1880.37117,440.48031
1882.43864,440.48031
1884.5061,440.48031
1886.57356,439.77224
1888.64102,439.06416
1890.70849,438.35609
1892.77595,437.64802
1894.84341,436.93994
1896.91087,437.64802
1898.97834,438.35609
1901.0458,439.06416
1903.11326,439.77224
1905.18072,440.48031
1907.24819,441.18838
1909.31565,441.18838
1911.38311,441.18838
1913.45057,441.18838
1915.51804,440.48031
1917.5855,439.77224
1919.65296,439.06416
1921.72042,438.35609
1923.78789,437.64802
1925.85535,436.93994
1927.92281,436.23187
1929.99027,436.23187
1932.05774,436.23187
1934.1252,436.93994
1936.19266,437.64802
1938.26012,438.35609
1940.32759,439.06416
1942.39505,439.77224
1944.46251,440.48031
1946.52997,441.18838
1948.59744,441.18838
1950.6649,441.18838
1952.73236,441.18838
1954.79982,441.18838
1956.86729,440.48031
1958.93475,439.77224
1961.00221,439.06416
1963.06967,438.35609
1965.13714,437.64802
1967.2046,436.93994
1969.27206,436.23187
1971.33952,435.5238
1973.40699,435.5238
1975.47445,435.5238
1977.54191,435.5238
1979.60937,435.5238
1981.67684,436.23187
1983.7443,436.23187
1985.81176,436.23187
1987.87922,436.23187
1989.94669,436.93994
1992.01415,437.64802
1994.08161,438.35609
1996.14907,439.06416
1998.21653,439.06416
2000.284,439.06416
2002.35146,439.06416
2004.41892,439.06416
2006.48638,438.35609
2008.55385,437.64802
2010.62131,438.35609
2012.68877,439.06416
2014.75623,439.06416
2016.8237,439.06416
2018.89116,439.06416
2020.95862,439.06416
2023.02608,439.06416
2025.09355,439.06416
2027.16101,439.06416
2029.22847,438.35609
2031.29593,437.64802
2033.3634,438.35609
2035.43086,439.06416
2037.49832,439.06416
2039.56578,439.06416
2041.63325,438.35609
2043.70071,437.64802
2045.76817,437.64802
2047.83563,437.64802
2049.9031,437.64802
2051.97056,437.64802
2054.03802,437.64802
2056.10548,436.93994
2058.17295,436.23187
2060.24041,436.23187
2062.30787,436.23187
2064.37533,436.23187
2066.4428,436.23187
2068.51026,436.23187
2070.57772,436.23187
2072.64518,436.23187
2074.71265,436.23187
2076.78011,436.23187
2078.84757,436.23187
2080.91503,436.93994
2082.9825,437.64802
2085.04996,438.35609
2087.11742,439.06416
2089.18488,439.06416
2091.25235,439.06416
2093.31981,439.06416
2095.38727,438.35609
2097.45473,437.64802
2099.5222,438.35609
2101.58966,439.06416
2103.65712,439.77224
2105.72458,440.48031
2107.79205,441.18838
2109.85951,441.18838
2111.92697,441.18838
2113.99443,441.18838
2116.0619,440.48031
2118.12936,440.48031
2120.19682,441.18838
2122.26428,441.89646
2124.33175,441.18838
2126.39921,440.48031
2128.46667,441.18838
2130.53413,440.48031
2132.6016,439.77224
2134.66906,439.06416
2136.73652,438.35609
2138.80398,437.64802
2140.87145,436.93994
2142.93891,436.23187
2145.00637,436.23187
2147.07383,436.23187
2149.1413,436.23187
2151.20876,436.23187
2153.27622,436.23187
2155.34368,436.93994
2157.41115,436.93994
2159.47861,436.93994
2161.54607,436.93994
2163.61353,436.93994
2165.681,436.93994
2167.74846,436.93994
2169.81592,437.64802
2171.88338,437.64802
2173.95085,437.64802
2176.01831,437.64802
2178.08577,437.64802
2180.15323,437.64802
2182.2207,437.64802
2184.28816,438.35609
2186.35562,439.06416
2188.42308,439.77224
2190.49054,440.48031
2192.55801,441.18838
2194.62547,441.89646
2196.69293,442.60453
2198.76039,443.31261
2200.82786,443.31261
2202.89532,443.31261
2204.96278,443.31261
2207.03024,443.31261
2209.09771,443.31261
2211.16517,443.31261
2213.23263,443.31261
2215.30009,443.31261
2217.36756,443.31261
2219.43502,443.31261
2221.50248,442.60453
2223.56994,442.60453
2225.63741,442.60453
2227.70487,442.60453
2229.77233,442.60453
2231.83979,442.60453
2233.90726,442.60453
2235.97472,442.60453
2238.04218,441.89646
2240.10964,442.60453
2242.17711,442.60453
2244.24457,442.60453
2246.31203,442.60453
2248.37949,441.89646
2250.44696,442.60453
2252.51442,442.60453
2254.58188,442.60453
2256.64934,442.60453
2258.71681,442.60453
2260.78427,442.60453
2262.85173,441.89646
2264.91919,441.18838
2266.98666,440.48031
2269.05412,441.18838
2271.12158,441.89646
2273.18904,442.60453
2275.25651,442.60453
2277.32397,442.60453
2279.39143,442.60453
2281.45889,442.60453
2283.52636,442.60453
2285.59382,442.60453
2287.66128,442.60453
2289.72874,442.60453
2291.79621,442.60453
2293.86367,442.60453
2295.93113,442.60453
2297.99859,442.60453
2300.06606,442.60453
2302.13352,442.60453
2304.20098,442.60453
2306.26844,441.89646
2308.33591,441.89646
2310.40337,441.89646
2312.47083,441.18838
2314.53829,441.18838
2316.60576,441.18838
2318.67322,440.48031
2320.74068,439.77224
2322.80814,440.48031
2324.87561,441.18838
2326.94307,441.18838
2329.01053,441.18838
2331.07799,441.18838
2333.14546,441.18838
2335.21292,440.48031
2337.28038,441.18838
2339.34784,441.89646
2341.41531,442.60453
2343.48277,443.31261
2345.55023,443.31261
2347.61769,443.31261
2349.68516,443.31261
2351.75262,443.31261
2353.82008,443.31261
2355.88754,443.31261
2357.95501,443.31261
2360.02247,443.31261
2362.08993,443.31261
2364.15739,443.31261
2366.22486,443.31261
2368.29232,443.31261
2370.35978,442.60453
2372.42724,442.60453
2374.49471,442.60453
2376.56217,442.60453
2378.62963,442.60453
2380.69709,442.60453
2382.76455,442.60453
2384.83202,441.89646
2386.89948,441.18838
2388.96694,441.89646
2391.0344,442.60453
2393.10187,442.60453
2395.16933,442.60453
2397.23679,442.60453
2399.30425,442.60453
2401.37172,442.60453
2403.43918,442.60453
2405.50664,442.60453
2407.5741,442.60453
2409.64157,442.60453
2411.70903,442.60453
2413.77649,442.60453
2415.84395,442.60453
2417.91142,442.60453
2419.97888,441.89646
2422.04634,441.89646
2424.1138,441.89646
2426.18127,441.89646
2428.24873,441.18838
2430.31619,440.48031
2432.38365,440.48031
2434.45112,440.48031
2436.51858,440.48031
2438.58604,440.48031
2440.6535,439.77224
2442.72097,439.06416
2444.78843,438.35609
2446.85589,437.64802
2448.92335,438.35609
2450.99082,439.06416
2453.05828,439.77224
2455.12574,440.48031
2457.1932,439.77224
2459.26067,439.77224
2461.32813,439.77224
2463.39559,439.77224
2465.46305,439.77224
2467.53052,439.77224
2469.59798,439.77224
2471.66544,439.77224
2473.7329,439.06416
2475.80037,438.35609
2477.86783,437.64802
2479.93529,436.93994
2482.00275,436.23187
2484.07022,435.5238
2486.13768,435.5238
2488.20514,435.5238
2490.2726,436.23187
2492.34007,436.23187
2494.40753,436.23187
2496.47499,436.23187
2498.54245,436.23187
2500.60992,436.93994
2502.67738,436.23187
2504.74484,436.23187
2506.8123,436.23187
2508.87977,436.23187
2510.94723,436.93994
2513.01469,437.64802
2515.08215,438.35609
2517.14962,439.06416
2519.21708,439.06416
2521.28454,439.06416
2523.352,439.06416
2525.41947,438.35609
2527.48693,437.64802
2529.55439,437.64802
2531.62185,437.64802
2533.68932,437.64802
2535.75678,436.93994
2537.82424,436.23187
2539.8917,435.5238
2541.95917,435.5238
2544.02663,435.5238
2546.09409,435.5238
2548.16155,436.23187
2550.22902,436.93994
2552.29648,437.64802
2554.36394,437.64802
2556.4314,437.64802
2558.49887,437.64802
2560.56633,436.93994
2562.63379,437.64802
2564.70125,437.64802
2566.76872,437.64802
2568.83618,437.64802
2570.90364,437.64802
2572.9711,438.35609
2575.03857,439.06416
2577.10603,439.77224
2579.17349,439.77224
2581.24095,440.48031
2583.30841,441.18838
2585.37588,441.89646
2587.44334,441.89646
2589.5108,441.89646
2591.57826,441.18838
2593.64573,440.48031
2595.71319,439.77224
2597.78065,439.77224
2599.84811,439.77224
2601.91558,439.06416
2603.98304,439.77224
2606.0505,440.48031
2608.11796,441.18838
2610.18543,441.18838
2612.25289,441.18838
2612.25289,441.18838
2616.38781,441.18838
2618.45528,441.89646
2620.52274,442.60453
2622.5902,442.60453
2624.65766,442.60453
2626.72513,442.60453
2628.79259,442.60453
2630.86005,442.60453
2632.92751,442.60453
2634.99498,441.89646
2637.06244,441.89646
2639.1299,442.60453
2641.19736,442.60453
2643.26483,442.60453
2645.33229,442.60453
2647.39975,442.60453
2649.46721,442.60453
2651.53468,442.60453
2653.60214,442.60453
2655.6696,441.89646
2657.73706,441.89646
2659.80453,441.89646
2661.87199,441.89646
2663.93945,441.89646
2666.00691,441.18838
2668.07438,440.48031
2670.14184,439.77224
2672.2093,439.06416
2674.27676,439.06416
2676.34423,439.06416
2678.41169,439.06416
2680.47915,439.77224
2682.54661,439.77224
2684.61408,439.06416
2686.68154,438.35609
2688.749,437.64802
2690.81646,438.35609
2692.88393,439.06416
2694.95139,439.06416
2697.01885,439.06416
2699.08631,439.06416
2701.15378,438.35609
2703.22124,437.64802
2705.2887,436.93994
2707.35616,437.64802
2709.42363,438.35609
2711.49109,439.06416
2713.55855,439.06416
2715.62601,439.06416
2717.69348,438.35609
2719.76094,439.06416
2721.8284,439.77224
2723.89586,439.77224
2725.96333,439.77224
2728.03079,439.77224
2730.09825,440.48031
2732.16571,439.77224
2734.23318,439.06416
2736.30064,438.35609
2738.3681,437.64802
2740.43556,437.64802
2742.50303,438.35609
2744.57049,437.64802
2746.63795,437.64802
2748.70541,437.64802
2750.77288,437.64802
2752.84034,437.64802
2754.9078,437.64802
2756.97526,437.64802
2759.04273,437.64802
2761.11019,437.64802
2763.17765,437.64802
2765.24511,437.64802
2767.31258,437.64802
2769.38004,437.64802
2771.4475,437.64802
2773.51496,437.64802
2775.58242,437.64802
2777.64989,437.64802
2779.71735,437.64802
2781.78481,437.64802
2783.85227,437.64802
2785.91974,437.64802
2787.9872,437.64802
2790.05466,437.64802
2792.12212,438.35609
2794.18959,439.06416
2796.25705,439.77224
2798.32451,440.48031
2800.39197,441.18838
2802.45944,441.18838
2804.5269,440.48031
2806.59436,440.48031
2808.66182,441.18838
2810.72929,441.18838
2812.79675,440.48031
2814.86421,439.77224
2816.93167,439.06416
2818.99914,438.35609
2821.0666,437.64802
2823.13406,437.64802
2825.20152,437.64802
2827.26899,438.35609
2829.33645,438.35609
2831.40391,438.35609
2833.47137,438.35609
2835.53884,438.35609
2837.6063,438.35609
2839.67376,438.35609
2841.74122,438.35609
2843.80869,438.35609
2845.87615,438.35609
2847.94361,438.35609
2850.01107,438.35609
2852.07854,438.35609
2854.146,438.35609
2856.21346,438.35609
2858.28092,438.35609
2860.34839,438.35609
2862.41585,438.35609
2864.48331,438.35609
2866.55077,438.35609
2868.61824,438.35609
2870.6857,438.35609
2872.75316,438.35609
2874.82062,439.06416
2876.88809,439.77224
2878.95555,440.48031
2881.02301,441.18838
2883.09047,441.89646
2885.15794,442.60453
2887.2254,443.31261
2889.29286,443.31261
2891.36032,443.31261
2893.42779,443.31261
2895.49525,442.60453
2897.56271,442.60453
2899.63017,442.60453
2901.69764,442.60453
2903.7651,442.60453
2905.83256,441.89646
2907.90002,441.89646
2909.96749,441.89646
2912.03495,441.89646
2914.10241,441.89646
2916.16987,441.89646
2918.23734,442.60453
2920.3048,441.89646
2922.37226,441.18838
2924.43972,440.48031
2926.50719,439.77224
2928.57465,439.77224
2930.64211,439.77224
2932.70957,439.77224
2934.77704,439.77224
2936.8445,439.77224
2938.91196,440.48031
2940.97942,441.18838
2943.04689,440.48031
2945.11435,439.77224
2947.18181,439.06416
2949.24927,438.35609
2951.31674,438.35609
2953.3842,438.35609
2955.45166,438.35609
2957.51912,438.35609
2959.58659,438.35609
2961.65405,439.06416
2963.72151,439.06416
2965.78897,439.06416
2967.85643,438.35609
2969.9239,438.35609
2971.99136,438.35609
2974.05882,438.35609
2976.12628,438.35609
2978.19375,439.06416
2980.26121,438.35609
2982.32867,438.35609
2984.39613,438.35609
2986.4636,438.35609
2988.53106,438.35609
2990.59852,438.35609
2992.66598,438.35609
2994.73345,438.35609
2996.80091,439.06416
2998.86837,439.06416
3000.93583,439.77224
3003.0033,440.48031
3005.07076,441.18838
3007.13822,441.89646
3009.20568,441.18838
3011.27315,440.48031
3013.34061,439.77224
3015.40807,439.06416
3017.47553,438.35609
3019.543,438.35609
3021.61046,438.35609
3023.67792,438.35609
3025.74538,438.35609
3027.81285,438.35609
3029.88031,438.35609
3031.94777,439.06416
3034.01523,439.06416
3036.0827,439.77224
3038.15016,440.48031
3040.21762,441.18838
3042.28508,441.89646
3044.35255,442.60453
3046.42001,443.31261
3048.48747,443.31261
3050.55493,443.31261
3052.6224,443.31261
3054.68986,443.31261
3056.75732,443.31261
3058.82478,443.31261
3060.89225,442.60453
3062.95971,442.60453
3065.02717,442.60453
3067.09463,442.60453
3069.1621,442.60453
3071.22956,441.89646
3073.29702,441.89646
3075.36448,441.89646
3077.43195,441.89646
3079.49941,441.89646
3081.56687,441.89646
3083.63433,441.89646
3085.7018,441.18838
3087.76926,440.48031
3089.83672,439.77224
3091.90418,439.06416
3093.97165,438.35609
3096.03911,438.35609
3098.10657,438.35609
3100.17403,438.35609
3102.2415,438.35609
3104.30896,438.35609
3106.37642,438.35609
3108.44388,438.35609
3110.51135,438.35609
3112.57881,438.35609
3114.64627,438.35609
3116.71373,438.35609
3118.7812,438.35609
3120.84866,438.35609
3122.91612,438.35609
3124.98358,438.35609
3127.05105,438.35609
3129.11851,438.35609
3131.18597,438.35609
3133.25343,438.35609
3135.3209,438.35609
3137.38836,438.35609
3139.45582,438.35609
3141.52328,438.35609
3143.59075,438.35609
3145.65821,438.35609
3147.72567,438.35609
3149.79313,438.35609
3151.8606,438.35609
3153.92806,438.35609
3155.99552,438.35609
3158.06298,438.35609
3160.13044,438.35609
3162.19791,438.35609
3164.26537,438.35609
3166.33283,438.35609
3168.40029,438.35609
3170.46776,439.06416
3172.53522,439.06416
3174.60268,439.77224
3176.67014,439.77224
3178.73761,439.77224
3180.80507,439.06416
3182.87253,438.35609
3184.93999,438.35609
3187.00746,438.35609
3189.07492,438.35609
3191.14238,439.06416
3193.20984,438.35609
3195.27731,438.35609
3197.34477,438.35609
3199.41223,438.35609
3201.47969,438.35609
3203.54716,438.35609
3205.61462,438.35609
3207.68208,438.35609
3209.74954,438.35609
3211.81701,438.35609
3213.88447,438.35609
3215.95193,438.35609
3218.01939,438.35609
3220.08686,438.35609
3222.15432,438.35609
3224.22178,438.35609
3226.28924,438.35609
3228.35671,438.35609
3230.42417,438.35609
3232.49163,438.35609
3234.55909,438.35609
3236.62656,438.35609
3238.69402,438.35609
3240.76148,438.35609
3242.82894,438.35609
3244.89641,438.35609
3246.96387,438.35609
3249.03133,438.35609
3251.09879,438.35609
3253.16626,438.35609
3255.23372,438.35609
3257.30118,438.35609
3259.36864,438.35609
3261.43611,438.35609
3263.50357,438.35609
3265.57103,438.35609
3267.63849,438.35609
3269.70596,438.35609
3271.77342,438.35609
3273.84088,438.35609
3275.90834,438.35609
3277.97581,438.35609
3280.04327,438.35609
3282.11073,438.35609
3284.17819,438.35609
3286.24566,438.35609
3288.31312,438.35609
3290.38058,438.35609
3292.44804,438.35609
3294.51551,438.35609
3296.58297,438.35609
3298.65043,438.35609
3300.71789,438.35609
3302.78536,438.35609
3304.85282,438.35609
3306.92028,438.35609
3308.98774,438.35609
3311.05521,438.35609
3313.12267,438.35609
3315.19013,438.35609
3317.25759,438.35609
3319.32506,439.06416
3321.39252,439.06416
3323.45998,438.35609
3325.52744,438.35609
3327.59491,438.35609
3329.66237,438.35609
3331.72983,438.35609
3333.79729,438.35609
3335.86476,438.35609
3337.93222,438.35609
3339.99968,439.06416
3342.06714,439.06416
3344.13461,439.77224
3346.20207,440.48031
3348.26953,441.18838
3350.33699,441.89646
3352.40445,441.18838
3354.47192,440.48031
3356.53938,439.77224
3358.60684,439.06416
3360.6743,438.35609
3362.74177,438.35609
3364.80923,438.35609
3366.87669,438.35609
3368.94415,438.35609
3371.01162,438.35609
3373.07908,438.35609
3375.14654,438.35609
3377.214,438.35609
3379.28147,438.35609
3381.34893,438.35609
3383.41639,438.35609
3385.48385,438.35609
3387.55132,438.35609
3389.61878,438.35609
3391.68624,438.35609
3393.7537,438.35609
3395.82117,438.35609
3397.88863,438.35609
3399.95609,438.35609
3402.02355,438.35609
3404.09102,438.35609
3406.15848,438.35609
3408.22594,439.06416
3410.2934,439.06416
3412.36087,439.77224
3414.42833,440.48031
3416.49579,441.18838
3418.56325,441.89646
3420.63072,442.60453
3422.69818,441.89646
3424.76564,441.18838
3426.8331,440.48031
3428.90057,439.77224
3430.96803,439.06416
3433.03549,438.35609
3435.10295,438.35609
3437.17042,438.35609
3439.23788,438.35609
3441.30534,438.35609
3443.3728,438.35609
3445.44027,438.35609
3447.50773,438.35609
3449.57519,438.35609
3451.64265,438.35609
3453.71012,438.35609
3455.77758,438.35609
3457.84504,438.35609
3459.9125,438.35609
3461.97997,438.35609
3464.04743,438.35609
3466.11489,438.35609
3468.18235,439.06416
3470.24982,439.06416
3472.31728,439.77224
3474.38474,440.48031
3476.4522,439.77224
3478.51967,439.06416
3480.58713,438.35609
3482.65459,438.35609
3484.72205,438.35609
3486.78952,438.35609
3488.85698,438.35609
3490.92444,438.35609
3492.9919,438.35609
3495.05937,439.06416
3497.12683,439.06416
3499.19429,439.77224
3501.26175,440.48031
3503.32922,441.18838
3505.39668,441.89646
3507.46414,442.60453
3509.5316,441.89646
3511.59907,441.18838
3513.66653,440.48031
3515.73399,439.77224
3517.80145,439.06416
3519.86892,438.35609
3521.93638,438.35609
3524.00384,438.35609
3526.0713,438.35609
3528.13877,438.35609
3530.20623,438.35609
3532.27369,438.35609
3534.34115,438.35609
3536.40862,438.35609
3538.47608,438.35609
3540.54354,438.35609
3542.611,438.35609
3544.67846,438.35609
3546.74593,438.35609
3548.81339,438.35609
3550.88085,438.35609
3552.94831,438.35609
3555.01578,438.35609
3557.08324,438.35609
3559.1507,438.35609
3561.21816,438.35609
3563.28563,438.35609
3565.35309,438.35609
3567.42055,439.06416
3569.48801,439.06416
3571.55548,439.77224
3573.62294,440.48031
3575.6904,441.18838
3577.75786,441.89646
3579.82533,442.60453
3581.89279,441.89646
3583.96025,441.18838
3586.02771,440.48031
3588.09518,439.77224
3590.16264,439.06416
3592.2301,438.35609
3594.29756,438.35609
3596.36503,438.35609
3598.43249,438.35609
3600.49995,438.35609
3602.56741,438.35609
3604.63488,438.35609
3606.70234,439.06416
3608.7698,439.06416
3610.83726,439.77224
3612.90473,440.48031
3614.97219,439.77224
3617.03965,439.06416
3619.10711,438.35609
3621.17458,438.35609
3623.24204,438.35609
3625.3095,438.35609
3627.37696,438.35609
3629.44443,438.35609
3631.51189,438.35609
3633.57935,439.06416
3635.64681,439.06416
3637.71428,439.06416
3639.78174,439.06416
3641.8492,439.06416
3643.91666,439.06416
3645.98413,439.06416
3648.05159,439.06416
3650.11905,439.77224
3652.18651,439.06416
3654.25398,438.35609
3656.32144,438.35609
3658.3889,438.35609
3660.45636,438.35609
3662.52383,438.35609
3664.59129,439.06416
3666.65875,439.06416
3668.72621,439.77224
3670.79368,440.48031
3672.86114,441.18838
3674.9286,441.89646
3676.99606,441.18838
3679.06353,440.48031
3681.13099,439.77224
3683.19845,439.06416
3685.26591,438.35609
3687.33338,438.35609
3689.40084,438.35609
3691.4683,438.35609
3693.53576,438.35609
3695.60323,438.35609
3697.67069,438.35609
3699.73815,438.35609
3701.80561,438.35609
3703.87308,438.35609
3705.94054,438.35609
3708.008,438.35609
3710.07546,438.35609
3712.14293,438.35609
3714.21039,438.35609
3716.27785,438.35609
3718.34531,439.06416
3720.41278,439.06416
3722.48024,439.06416
3724.5477,439.77224
3726.61516,439.77224
3728.68263,439.77224
3730.75009,439.06416
3732.81755,439.77224
3734.88501,440.48031
3736.95248,440.48031
3739.01994,439.77224
3741.0874,440.48031
3743.15486,441.18838
3745.22232,441.89646
3747.28979,441.89646
3749.35725,441.89646
3751.42471,441.89646
3753.49217,441.89646
3755.55964,441.89646
3757.6271,441.18838
3759.69456,440.48031
3761.76202,439.77224
3763.82949,439.06416
3765.89695,438.35609
3767.96441,438.35609
3770.03187,438.35609
3772.09934,438.35609
3774.1668,438.35609
3776.23426,438.35609
3778.30172,438.35609
3780.36919,438.35609
3782.43665,438.35609
3784.50411,438.35609
3786.57157,438.35609
3788.63904,438.35609
3790.7065,438.35609
3792.77396,439.06416
3794.84142,439.77224
3796.90889,439.06416
3798.97635,439.06416
3801.04381,439.06416
3803.11127,439.06416
3805.17874,439.06416
3807.2462,439.77224
3809.31366,439.77224
3811.38112,439.77224
3813.44859,440.48031
3815.51605,441.18838
3817.58351,441.89646
3819.65097,442.60453
3821.71844,442.60453
3823.7859,442.60453
3825.85336,441.89646
3827.92082,441.89646
3829.98829,441.89646
3832.05575,441.18838
3834.12321,440.48031
3836.19067,440.48031
3838.25814,441.18838
3840.3256,441.89646
3842.39306,441.89646
3844.46052,441.89646
3846.52799,441.89646
3848.59545,441.89646
3850.66291,441.89646
3852.73037,441.89646
3854.79784,442.60453
3856.8653,443.31261
3858.93276,443.31261
3861.00022,443.31261
3863.06769,443.31261
3865.13515,443.31261
3867.20261,443.31261
3869.27007,443.31261
3871.33754,443.31261
3873.405,442.60453
3875.47246,442.60453
3877.53992,443.31261
3879.60739,443.31261
3881.67485,443.31261
3883.74231,443.31261
3885.80977,443.31261
3887.87724,443.31261
3889.9447,443.31261
3892.01216,443.31261
3894.07962,443.31261
3896.14709,442.60453
3898.21455,441.89646
3900.28201,441.18838
3902.34947,440.48031
3904.41694,439.77224
3906.4844,439.06416
3908.55186,438.35609
3910.61932,438.35609
3912.68679,438.35609
3914.75425,438.35609
3916.82171,438.35609
3918.88917,438.35609
3920.95664,438.35609
3923.0241,438.35609
3925.09156,438.35609
3927.15902,438.35609
3929.22649,438.35609
3931.29395,438.35609
3933.36141,438.35609
3935.42887,438.35609
3937.49633,438.35609
3939.5638,438.35609
3941.63126,438.35609
3943.69872,438.35609
3945.76618,438.35609
3947.83365,438.35609
3949.90111,438.35609
3951.96857,438.35609
3954.03603,438.35609
3956.1035,438.35609
3958.17096,438.35609
3960.23842,438.35609
3962.30588,438.35609
3964.37335,438.35609
3966.44081,438.35609
3968.50827,438.35609
3970.57573,438.35609
3972.6432,438.35609
3974.71066,438.35609
3976.77812,438.35609
3978.84558,438.35609
3980.91305,438.35609
3982.98051,438.35609
3985.04797,438.35609
3987.11543,439.06416
3989.1829,439.77224
3991.25036,440.48031
3993.31782,440.48031
3995.38528,440.48031
3997.45275,440.48031
