Wavenumber (cm⁻¹),Intensity
200.0,1714.8729116549148
201.00097751710655,1731.6014397713818
202.0019550342131,1762.286763011207
203.00293255131965,1803.1540362001626
204.0039100684262,1851.9820546750595
205.00488758553274,1914.4136269368114
206.0058651026393,1982.2506248122304
207.00684261974584,2040.2789865353654
208.0078201368524,2063.7211241237883
209.00879765395894,2017.7691933677636
210.00977517106548,1907.2972175637583
211.01075268817203,1754.4951628627457
212.01173020527858,1594.1389301843603
213.01270772238513,1458.0568107130714
214.01368523949168,1350.4529728604675
215.01466275659823,1268.2141045511428
216.01564027370478,1206.048917943107
217.01661779081132,1161.6263398361243
218.01759530791787,1130.8134962257548
219.01857282502445,1107.6876325577873
220.019550342131,1086.9789873989303
221.02052785923755,1067.6103003572337
222.0215053763441,1057.1318394345526
223.02248289345064,1048.6267897547446
224.0234604105572,1039.3364183781325
225.02443792766374,1031.3926250857937
226.0254154447703,1029.6155759019425
227.02639296187684,1026.913805517478
228.02737047898339,1022.5904035606684
229.02834799608993,1018.7763436048665
230.02932551319648,1018.1883622750174
231.03030303030303,1022.7141714091758
232.03128054740958,1025.7841793242053
233.03225806451613,1026.6392193829415
234.03323558162268,1027.212041403456
235.03421309872923,1029.3713083094226
236.03519061583577,1033.5547534777286
237.03616813294232,1037.3318847932928
238.03714565004887,1040.382637759568
239.03812316715542,1044.3369031144898
240.03910068426197,1055.052421488912
241.04007820136852,1063.4622399858229
242.04105571847506,1070.5045599688801
243.0420332355816,1079.022899015244
244.0430107526882,1092.4445373935273
245.04398826979474,1107.6666731394482
246.0449657869013,1122.2359448001912
247.04594330400784,1140.217571748154
248.04692082111438,1164.831171164645
249.04789833822093,1190.1303263572966
250.04887585532748,1217.2472774794135
251.04985337243403,1226.1499692012158
252.05083088954058,1220.072999256065
253.05180840664713,1212.253434972403
254.05278592375367,1185.2896184428946
255.05376344086022,1152.5362498650895
256.05474095796677,1126.3030133360828
257.0557184750733,1113.3224298185905
258.05669599217987,1115.6865827866982
259.0576735092864,1121.6419009587212
260.05865102639297,1127.5570130441051
261.0596285434995,1141.2432367724016
262.06060606060606,1166.0736854167062
263.0615835777126,1185.8533475398747
264.06256109481916,1213.349234716413
265.0635386119257,1248.2259217560518
266.06451612903226,1290.6250852118758
267.0654936461388,1343.672275604066
268.06647116324535,1405.0528625689226
269.0674486803519,1467.7189448922459
270.06842619745845,1531.1785099597844
271.069403714565,1594.0507479453581
272.07038123167155,1648.9762069367835
273.0713587487781,1704.7867887506648
274.07233626588464,1749.7598424052223
275.0733137829912,1789.82672505552
276.07429130009774,1841.3189718188764
277.0752688172043,1906.3928375498756
278.07624633431084,1982.2517470402258
279.0772238514174,2067.717099526894
280.07820136852393,2164.906754787977
281.0791788856305,2277.1306011486918
282.08015640273703,2400.6987859740384
283.0811339198436,2542.250975569979
284.08211143695013,2699.65835308903
285.0830889540567,2870.187829604231
286.0840664711632,3053.8962253512495
287.0850439882698,3252.7734545004455
288.0860215053764,3436.017993828525
289.0869990224829,3555.0911020756216
290.0879765395895,3554.57127778352
291.088954056696,3401.233237561999
292.0899315738026,3105.631454630003
293.0909090909091,2743.54467138088
294.09188660801567,2383.4152047307216
295.0928641251222,2069.619301926461
296.09384164222877,1830.6303954436808
297.0948191593353,1649.6609662723101
298.09579667644186,1514.5943235859384
299.0967741935484,1412.5098982275092
300.09775171065496,1333.984205010944
301.0987292277615,1271.2054269930964
302.09970674486806,1226.945492261676
303.1006842619746,1193.5125944567205
304.10166177908116,1165.9537430439848
305.1026392961877,1147.9381440399136
306.10361681329425,1141.155326374125
307.1045943304008,1136.7164232730158
308.10557184750735,1136.3858470766643
309.1065493646139,1143.1928480590477
310.10752688172045,1149.128105671586
311.108504398827,1146.9303466736742
312.10948191593354,1142.4257727875945
313.1104594330401,1137.5788739720563
314.11143695014664,1131.6796016894561
315.1124144672532,1129.57373591101
316.11339198435974,1131.667259121094
317.1143695014663,1138.97111673148
318.11534701857283,1149.428178551681
319.1163245356794,1159.7165288085769
320.11730205278593,1173.0732500174886
321.1182795698925,1189.7833500612244
322.119257086999,1210.4360437595535
323.1202346041056,1236.001514557828
324.1212121212121,1267.717031824154
325.1221896383187,1309.342623769663
326.1231671554252,1353.623133262893
327.12414467253177,1387.974247075812
328.1251221896383,1400.2680726097922
329.12609970674487,1377.8825341653487
330.1270772238514,1310.3318321484935
331.12805474095796,1232.8661027992757
332.1290322580645,1164.9719094084355
333.13000977517106,1113.513576206399
334.1309872922776,1080.3925882006934
335.13196480938416,1047.2798318956472
336.1329423264907,1026.4166175246396
337.13391984359725,1017.5150232487267
338.1348973607038,1010.5280568091335
339.13587487781035,997.7564343158587
340.1368523949169,986.7425319001416
341.13782991202345,983.4559195031999
342.13880742913,983.6982403177245
343.13978494623655,981.2414185846235
344.1407624633431,977.592071009288
345.14173998044964,976.5979779576483
346.1427174975562,977.927323992398
347.14369501466274,979.687136731589
348.1446725317693,979.8905830360128
349.14565004887584,977.296147565423
350.1466275659824,967.8308692680669
351.14760508308893,957.2475457364868
352.1485826001955,948.9528158503559
353.14956011730203,942.4983642575464
354.1505376344086,938.9446127555743
355.1515151515151,937.7523872275964
356.1524926686217,933.7122858145054
357.1534701857282,931.023024117401
358.1544477028348,933.6289565083965
359.1554252199413,927.1534434975648
360.15640273704787,922.56387648672
361.1573802541544,922.306282304568
362.15835777126097,921.7366298835556
363.1593352883675,918.1798127909593
364.16031280547406,920.4489093582916
365.1612903225806,916.8451263223401
366.16226783968716,912.9772848398287
367.1632453567937,912.9422200286787
368.16422287390026,914.9299802811015
369.1652003910068,911.5904753705829
370.16617790811335,913.2820618636937
371.1671554252199,913.2234192961391
372.16813294232645,910.25709418794
373.169110459433,909.105692532548
374.17008797653955,908.3228345179721
375.1710654936461,909.3176276793469
376.1720430107527,908.7284925032284
377.17302052785925,908.3221904123639
378.1739980449658,911.9597598170719
379.17497556207235,911.7593286484087
380.1759530791789,907.4699647282994
381.17693059628544,909.8370827986795
382.177908113392,916.6806962191926
383.17888563049854,918.7792512697686
384.1798631476051,917.8623464986294
385.18084066471164,917.1967155434141
386.1818181818182,920.5171847366237
387.18279569892474,924.5179485300645
388.1837732160313,927.5312044269704
389.18475073313783,934.7749432361574
390.1857282502444,939.1957204259712
391.18670576735093,944.9735454030439
392.1876832844575,951.7380736497311
393.188660801564,959.0129464998462
394.1896383186706,970.8066437402714
395.1906158357771,975.5435523316276
396.1915933528837,986.0227613613301
397.1925708699902,998.6092926063334
398.19354838709677,1006.3676914707829
399.1945259042033,1010.788109613306
400.19550342130987,1006.7912486263361
401.1964809384164,1001.7220763655586
402.19745845552296,1000.0509595205319
403.1984359726295,1003.2873632492903
404.19941348973606,1010.2901530097124
405.2003910068426,1019.5656781608565
406.20136852394916,1025.0582830955234
407.2023460410557,1028.0915438888148
408.20332355816225,1023.574329515319
409.20430107526886,1001.9031516550566
410.2052785923754,976.1426638751756
411.20625610948196,959.4172687855322
412.2072336265885,948.3032772464948
413.20821114369505,939.7121412816967
414.2091886608016,934.6228841278877
415.21016617790815,931.0058018014126
416.2111436950147,926.7071388627832
417.21212121212125,923.3362755853494
418.2130987292278,918.7169320709938
419.21407624633434,910.0514242661473
420.2150537634409,902.6248755235272
421.21603128054744,901.2281999584424
422.217008797654,903.2051604519816
423.21798631476054,901.2448731632319
424.2189638318671,896.8505280562207
425.21994134897363,900.0995329254163
426.2209188660802,901.744981601875
427.22189638318673,898.0985942710521
428.2228739002933,897.4259702705236
429.2238514173998,900.8268131479194
430.2248289345064,901.4218822927268
431.2258064516129,902.8222249038147
432.2267839687195,901.4245049343222
433.227761485826,903.182181280152
434.22873900293257,906.8901155060248
435.2297165200391,906.7256426162584
436.23069403714567,907.717627020268
437.2316715542522,912.3418930219148
438.23264907135876,917.3636053526258
439.2336265884653,923.7655249087824
440.23460410557186,931.5540828927815
441.2355816226784,933.3650847992136
442.23655913978496,934.8549306332288
443.2375366568915,942.402667939568
444.23851417399806,949.5026950395418
445.2394916911046,952.9578831717623
446.24046920821115,959.36924684953
447.2414467253177,965.7752993655565
448.24242424242425,972.1402236107184
449.2434017595308,983.6941307852197
450.24437927663735,998.7874859258825
451.2453567937439,1009.9050688672053
452.24633431085044,1026.2817031068507
453.247311827957,1045.4417756945977
454.24828934506354,1065.5943260657236
455.2492668621701,1083.5217993051153
456.25024437927664,1097.289201906655
457.2512218963832,1111.3991251556454
458.25219941348973,1128.8027884147803
459.2531769305963,1149.5399214227102
460.25415444770283,1179.245079965806
461.2551319648094,1214.6462670281983
462.2561094819159,1245.328620030727
463.2570869990225,1278.8363717217137
464.258064516129,1307.9389944195748
465.2590420332356,1339.5302658641745
466.2600195503421,1377.6449774477624
467.26099706744867,1422.6963847019472
468.2619745845552,1479.7768156270108
469.26295210166177,1547.922905799873
470.2639296187683,1616.3828004715426
471.26490713587486,1695.0072884346582
472.2658846529814,1795.3628329333808
473.26686217008796,1912.3146444514175
474.2678396871945,2036.7755732011456
475.26881720430106,2179.209798747857
476.2697947214076,2313.2718695838876
477.27077223851416,2412.5319180416477
478.2717497556207,2447.7866557850493
479.27272727272725,2378.0461153099136
480.2737047898338,2223.380489193683
481.27468230694035,2020.371039569785
482.2756598240469,1820.229991527171
483.27663734115345,1660.079731631915
484.27761485826,1551.8600950441814
485.27859237536654,1479.306684625733
486.2795698924731,1444.0500946620189
487.28054740957964,1442.7512675420935
488.2815249266862,1468.2769098001704
489.2825024437928,1513.100692910396
490.28347996089934,1570.5349290335978
491.2844574780059,1627.9441523466808
492.28543499511244,1686.194870882177
493.286412512219,1741.4951327969475
494.28739002932554,1799.6474899124753
495.2883675464321,1874.792988885991
496.28934506353863,1963.4076318769157
497.2903225806452,2070.7071577105576
498.29130009775173,2196.4564430601895
499.2922776148583,2341.3706803719865
500.2932551319648,2508.9640241885368
501.2942326490714,2705.83555478101
502.2952101661779,2928.42682488007
503.2961876832845,3176.2898801145493
504.297165200391,3430.929443173337
505.29814271749757,3651.1690318120845
506.2991202346041,3765.2155895304086
507.30009775171067,3701.5425286538652
508.3010752688172,3455.058625946037
509.30205278592376,3085.3026364822526
510.3030303030303,2675.6293715436914
511.30400782013686,2302.5281088555093
512.3049853372434,2011.4327840557182
513.3059628543499,1780.5951437323208
514.3069403714564,1603.295190101841
515.307917888563,1468.9181242529537
516.3088954056695,1368.5139243943966
517.3098729227761,1294.8906372876268
518.3108504398826,1232.0624029420433
519.3118279569892,1179.978241851846
520.3128054740957,1139.6920480427066
521.3137829912023,1106.4898843591807
522.3147605083088,1078.0847951354494
523.3157380254154,1056.422744280431
524.3167155425219,1037.6328445151692
525.3176930596285,1016.5843114652163
526.318670576735,1002.1707408142089
527.3196480938416,991.2786897185525
528.3206256109481,979.1184162004662
529.3216031280547,967.4492898676234
530.3225806451612,956.778887579776
531.3235581622678,951.9706916633265
532.3245356793743,943.9620092323164
533.3255131964809,933.529356933216
534.3264907135874,928.2012024925976
535.327468230694,927.6091396449797
536.3284457478005,920.6670805452411
537.3294232649071,912.7573108568478
538.3304007820136,907.614739982802
539.3313782991202,903.4802650153079
540.3323558162267,899.6402092330254
541.3333333333333,899.816477964461
542.3343108504398,900.4554169688414
543.3352883675464,893.3577247593674
544.3362658846529,888.0827234026234
545.3372434017595,886.9746603429767
546.338220918866,884.0048083200679
547.3391984359725,881.2498598239657
548.3401759530791,885.0320837195038
549.3411534701856,885.450050784802
550.3421309872922,878.6788480418345
551.3431085043987,871.6550964181636
552.3440860215054,870.7512178749779
553.345063538612,870.5368447695536
554.3460410557185,869.1947917496826
555.347018572825,867.5424560411916
556.3479960899316,866.6955698918244
557.3489736070381,866.6799874883893
558.3499511241447,867.2786281195641
559.3509286412512,869.8187708386496
560.3519061583578,868.0408313220934
561.3528836754643,870.4029725871844
562.3538611925709,873.5328996569162
563.3548387096774,874.4704615606454
564.355816226784,876.6391454430894
565.3567937438905,874.6815301024386
566.3577712609971,879.2495740375226
567.3587487781036,881.6811245701288
568.3597262952102,883.4088655851541
569.3607038123167,887.8887928909504
570.3616813294233,892.3030776919687
571.3626588465298,892.8126830591075
572.3636363636364,898.9421701815918
573.3646138807429,902.9279533649318
574.3655913978495,906.7486807682787
575.366568914956,913.0589663667205
576.3675464320626,918.2609534934832
577.3685239491691,921.0847073634756
578.3695014662757,914.8320060034267
579.3704789833822,909.4509567093136
580.3714565004888,904.1210204587177
581.3724340175953,894.4642067813647
582.3734115347019,880.9243232998148
583.3743890518084,865.4874225829773
584.375366568915,859.8900633542403
585.3763440860215,855.0316812102235
586.377321603128,847.4074354846209
587.3782991202346,841.7647005304378
588.3792766373411,841.5536355931599
589.3802541544477,838.8320058584724
590.3812316715542,837.6233443357728
591.3822091886608,836.9175558415924
592.3831867057673,834.395162350587
593.3841642228739,830.4463505233223
594.3851417399804,828.3812165644035
595.386119257087,830.5645347860848
596.3870967741935,828.0849158051802
597.3880742913001,827.8226131350642
598.3890518084066,828.2394998638654
599.3900293255132,828.1709541084612
600.3910068426197,827.7434955163981
601.3919843597263,825.4254068251822
602.3929618768328,825.2665309268285
603.3939393939394,824.7468016939778
604.3949169110459,824.7483131224678
605.3958944281525,827.5536554809997
606.396871945259,829.9366224206049
607.3978494623656,827.6430950772221
608.3988269794721,828.5592961853109
609.3998044965787,829.7448466941125
610.4007820136852,834.1844874526627
611.4017595307918,835.9920766983523
612.4027370478983,834.3355414745645
613.4037145650049,836.2211966998001
614.4046920821114,834.3185484378888
615.405669599218,836.8028725962273
616.4066471163245,841.1826192817023
617.4076246334312,846.2091561574763
618.4086021505377,848.5206003084622
619.4095796676443,847.47644412408
620.4105571847508,850.6944162737441
621.4115347018574,853.2260343552666
622.4125122189639,857.4410899847384
623.4134897360705,861.1374851678357
624.414467253177,864.9273527778558
625.4154447702836,871.3730729655799
626.4164222873901,879.529396015721
627.4173998044967,884.7470150800362
628.4183773216032,889.0097304584276
629.4193548387098,894.2287036051954
630.4203323558163,899.988763443131
631.4213098729228,903.3832550200807
632.4222873900294,902.7736703236268
633.423264907136,900.6510131725598
634.4242424242425,900.4858244341359
635.425219941349,897.1996510051027
636.4261974584556,892.940996063268
637.4271749755621,889.2543831714171
638.4281524926687,885.471106690122
639.4291300097752,883.9074123603905
640.4301075268818,884.8657459642292
641.4310850439883,890.605618725019
642.4320625610949,891.5529818397758
643.4330400782014,888.6665200384112
644.434017595308,890.1711666656935
645.4349951124145,895.3778707700083
646.4359726295211,894.4720293692693
647.4369501466276,886.3516607981575
648.4379276637342,874.4868110509107
649.4389051808407,866.2405350002624
650.4398826979473,860.5186005786038
651.4408602150538,850.8796991522299
652.4418377321604,841.9847839882856
653.4428152492669,835.871327987924
654.4437927663735,830.1283366517206
655.44477028348,826.8263953347837
656.4457478005866,823.1697164652235
657.4467253176931,818.5353717909974
658.4477028347997,816.8034064606965
659.4486803519062,815.1653425033844
660.4496578690128,812.5669242001484
661.4506353861193,810.3354192602704
662.4516129032259,810.1532486447063
663.4525904203324,809.5160848860565
664.453567937439,807.9528360782282
665.4545454545455,811.0861178141085
666.455522971652,804.9093003801792
667.4565004887586,804.4116532741147
668.4574780058651,806.7720405668384
669.4584555229717,805.0692370332993
670.4594330400782,802.2098280074365
671.4604105571848,803.3735130730596
672.4613880742913,802.7248342509746
673.4623655913979,801.9961954430995
674.4633431085044,801.0847791731678
675.464320625611,798.8331904554911
676.4652981427175,795.3503328475748
677.4662756598241,794.3418826067042
678.4672531769306,796.4964394843511
679.4682306940372,791.9192537437973
680.4692082111437,795.6080231789563
681.4701857282503,792.5219415174081
682.4711632453568,792.1818916103409
683.4721407624634,793.2871292399271
684.4731182795699,789.8348120318141
685.4740957966765,785.6851906155923
686.475073313783,785.0058933513021
687.4760508308896,785.7911487361927
688.4770283479961,783.6237215789789
689.4780058651027,785.1269557836837
690.4789833822092,785.4175033894962
691.4799608993158,782.101842931939
692.4809384164223,783.9582028047503
693.4819159335289,781.7992511300044
694.4828934506354,781.4393172492737
695.483870967742,780.8996280767609
696.4848484848485,780.3366955485156
697.485826001955,778.0844585637979
698.4868035190616,774.2425834702283
699.4877810361681,773.8582976350209
700.4887585532747,773.7079384523113
701.4897360703812,774.9488406367914
702.4907135874878,776.7758399162482
703.4916911045943,777.5573005894503
704.4926686217009,777.2242800250735
705.4936461388074,776.7432419862855
706.494623655914,776.4391841887978
707.4956011730205,776.1497238833525
708.4965786901271,775.2984018902854
709.4975562072336,775.9935908233022
710.4985337243402,778.4171507095363
711.4995112414467,780.448523368781
712.5004887585533,779.7972340187713
713.5014662756598,776.5169677454028
714.5024437927664,780.0076651189819
715.5034213098729,779.5470106366676
716.5043988269795,779.9803985845771
717.505376344086,778.5190222677221
718.5063538611926,776.5251849488117
719.5073313782991,779.442328930005
720.5083088954057,780.0308556588832
721.5092864125122,777.8755536345449
722.5102639296188,778.571391988861
723.5112414467253,778.32588317233
724.5122189638319,774.270989016751
725.5131964809384,771.2958039929171
726.514173998045,772.3923107466053
727.5151515151515,769.822930891994
728.516129032258,769.8055003010393
729.5171065493646,782.1510344745607
730.5180840664711,777.2377565325255
731.5190615835777,773.9794076202545
732.5200391006842,774.2013561242634
733.5210166177908,769.9530317107482
734.5219941348973,772.561691241998
735.5229716520039,774.3836854649026
736.5239491691104,772.6437357186697
737.524926686217,774.3048891208548
738.5259042033235,774.0496118685703
739.5268817204301,775.8327915595521
740.5278592375366,779.4914745477539
741.5288367546432,778.8233352198338
742.5298142717497,781.7062929185465
743.5307917888563,779.9610225237095
744.5317693059628,782.3446809537655
745.5327468230694,786.3457725688341
746.5337243401759,791.0306852054274
747.5347018572825,795.1414044007328
