Raman Shift,Intensity
150.449,13806.23
150.931,13880.68
151.413,13943.21
151.895,13979.2
152.377,14012.1
152.859,14057.96
153.342,14171.59
153.824,14246.19
154.306,14248.69
154.788,14168.36
155.27,14102.37
155.752,14064.56
156.234,14047.46
156.716,14041.97
157.198,14055.36
157.68,14073.14
158.163,14092.32
158.645,14115.52
159.127,14130.0
159.609,14118.98
160.091,14096.74
160.573,14089.82
161.055,14109.16
161.538,14143.32
162.02,14189.91
162.502,14266.85
162.984,14322.1
163.466,14314.09
163.948,14260.91
164.43,14223.11
164.912,14242.42
165.394,14282.49
165.876,14313.29
166.359,14318.49
166.841,14320.68
167.323,14336.54
167.805,14364.29
168.287,14386.71
168.769,14401.89
169.251,14404.22
169.733,14386.91
170.216,14318.12
170.698,14248.25
171.18,14216.49
171.662,14224.09
172.144,14256.99
172.626,14341.14
173.108,14441.92
173.59,14496.79
174.072,14429.85
174.555,14322.75
175.037,14271.69
175.519,14288.94
176.001,14327.24
176.483,14347.29
176.965,14352.13
177.447,14350.74
177.929,14345.09
178.412,14336.91
178.894,14327.73
179.376,14316.03
179.858,14307.72
180.34,14311.38
180.822,14325.93
181.304,14344.69
181.786,14364.22
182.268,14384.6
182.751,14407.46
183.233,14436.58
183.715,14463.29
184.197,14463.93
184.679,14439.49
185.161,14422.76
185.643,14448.92
186.125,14507.78
186.607,14560.46
187.09,14603.15
187.572,14629.34
188.054,14610.56
188.536,14542.84
189.018,14476.59
189.5,14468.3
189.982,14512.1
190.464,14559.56
190.947,14601.17
191.429,14634.81
191.911,14647.91
192.393,14638.84
192.875,14617.12
193.357,14582.62
193.839,14536.01
194.321,14513.87
194.803,14559.04
195.286,14659.83
195.768,14663.46
196.25,14545.38
196.732,14390.25
197.214,14325.91
197.696,14360.49
198.178,14417.19
198.661,14466.85
199.143,14509.58
199.625,14552.11
200.107,14600.89
200.589,14642.2
201.071,14638.06
201.553,14577.26
202.035,14524.51
202.517,14521.88
202.999,14575.8
203.482,14610.43
203.964,14615.7
204.446,14601.53
204.928,14591.66
205.41,14582.73
205.892,14586.95
206.374,14620.63
206.857,14693.01
207.339,14738.27
207.821,14741.74
208.303,14713.83
208.785,14701.16
209.267,14710.2
209.749,14720.33
210.231,14713.4
210.713,14683.06
211.195,14665.05
211.678,14672.16
212.16,14699.44
212.642,14699.49
213.124,14662.99
213.606,14617.26
214.088,14586.14
214.57,14572.19
215.052,14565.32
215.535,14564.32
216.017,14569.06
216.499,14577.9
216.981,14594.12
217.463,14609.05
217.945,14608.0
218.427,14574.05
218.909,14566.34
219.391,14609.16
219.874,14706.97
220.356,14766.22
220.838,14774.01
221.32,14755.59
221.802,14741.1
222.284,14733.93
222.766,14723.76
223.248,14705.1
223.731,14674.49
224.213,14661.5
224.695,14673.16
225.177,14697.5
225.659,14718.48
226.141,14738.02
226.623,14751.05
227.105,14754.69
227.587,14746.39
228.07,14739.89
228.552,14735.01
229.034,14731.64
229.516,14729.24
229.998,14725.01
230.48,14725.56
230.962,14733.14
231.444,14748.32
231.926,14767.86
232.409,14793.14
232.891,14821.79
233.373,14851.63
233.855,14892.87
234.337,14919.2
234.819,14917.54
235.301,14871.43
235.783,14838.78
236.266,14822.06
236.748,14818.3
237.23,14821.53
237.712,14838.09
238.194,14852.89
238.676,14854.05
239.158,14814.55
239.64,14827.62
240.122,14928.92
240.605,14911.383
241.087,14960.428
241.569,14993.309
242.051,15010.896
242.533,14967.388
243.015,15002.772
243.497,15006.54
243.98,15009.015
244.462,15055.503
244.944,15020.881
245.426,15066.672
245.908,15080.363
246.39,15108.748
246.872,15105.318
247.354,15111.714
247.836,15149.933
248.318,15170.531
248.801,15163.438
249.283,15192.758
249.765,15157.024
250.247,15178.373
250.729,15224.35
251.211,15218.857
251.693,15248.755
252.176,15265.178
252.658,15220.342
253.14,15282.034
253.622,15297.657
254.104,15265.977
254.586,15324.02
255.068,15298.862
255.55,15303.4
256.032,15330.289
256.514,15333.879
256.997,15374.201
257.479,15379.136
257.961,15380.912
258.443,15396.483
258.925,15372.955
259.407,15421.964
259.889,15421.425
260.371,15445.516
260.854,15475.188
261.336,15462.114
261.818,15474.79
262.3,15478.76
262.782,15487.04
263.264,15494.44
263.746,15501.51
264.228,15511.16
264.711,15523.17
265.193,15537.82
265.675,15557.29
266.157,15584.63
266.639,15605.0
267.121,15615.1
267.603,15616.86
268.085,15619.69
268.567,15626.16
269.05,15628.74
269.532,15617.88
270.014,15587.84
270.496,15573.82
270.978,15586.06
271.46,15617.17
271.942,15636.84
272.424,15643.58
272.906,15643.45
273.389,15639.34
273.871,15630.42
274.353,15622.36
274.835,15611.78
275.317,15604.14
275.799,15625.28
276.281,15682.57
276.763,15742.51
277.246,15779.84
277.728,15792.78
278.21,15797.79
278.692,15787.08
279.174,15774.84
279.656,15774.93
280.138,15765.1
280.62,15755.855
281.103,15803.262
281.585,15836.915
282.067,15857.556
282.549,15826.209
283.031,15861.994
283.513,15870.878
283.995,15878.657
284.477,15923.89
284.959,15900.104
285.441,15944.743
285.924,15962.069
286.406,15991.897
286.888,15994.655
287.37,16005.06
287.852,16042.14
288.334,16074.19
288.816,16067.77
289.298,16032.65
289.781,16032.39
290.263,16087.07
290.745,16163.24
291.227,16196.48
291.709,16188.2
292.191,16168.07
292.673,16152.16
293.155,16139.69
293.638,16126.92
294.12,16111.39
294.602,16099.61
295.084,16104.87
295.566,16125.64
296.048,16148.35
296.53,16166.69
297.012,16181.34
297.494,16193.19
297.977,16202.76
298.459,16210.56
298.941,16214.77
299.423,16217.18
299.905,16224.35
300.387,16240.61
300.869,16264.15
301.351,16287.38
301.833,16280.917
302.316,16336.719
302.798,16377.406
303.28,16403.791
303.762,16373.044
304.244,16416.074
304.726,16429.535
305.208,16441.785
305.69,16495.197
306.172,16472.756
306.655,16525.521
307.137,16548.264
307.619,16584.744
308.101,16585.33
308.583,16583.539
309.065,16592.67
309.547,16615.061
310.03,16634.82
310.512,16637.891
310.994,16632.1
311.476,16630.061
311.958,16637.84
312.44,16651.141
312.922,16672.74
313.404,16704.369
313.886,16723.08
314.369,16707.17
314.851,16673.801
315.333,16645.52
315.815,16624.49
316.297,16615.09
316.779,16617.881
317.261,16632.75
317.743,16664.83
318.225,16740.92
318.708,16825.789
319.19,16883.061
319.672,16891.551
320.154,16883.529
320.636,16861.439
321.118,16826.311
321.6,16801.4
322.082,16792.33
322.565,16795.461
323.047,16807.92
323.529,16843.0
324.011,16871.9
324.493,16884.6
324.975,16882.721
325.457,16887.4
325.939,16902.76
326.422,16923.641
326.904,16947.029
327.386,16983.369
327.868,17008.961
328.35,17013.25
328.832,17002.34
329.314,17008.76
329.796,17052.529
330.278,17095.711
330.76,17117.68
331.243,17088.471
331.725,17091.039
332.207,17148.91
332.689,17237.99
333.171,17283.711
333.653,17264.67
334.135,17234.98
334.617,17215.301
335.1,17201.93
335.582,17212.859
336.064,17262.24
336.546,17326.119
337.028,17349.859
337.51,17312.961
337.992,17290.84
338.474,17322.859
338.957,17418.529
339.439,17475.57
339.921,17479.99
340.403,17468.07
340.885,17436.061
341.367,17500.215
341.849,17541.025
342.331,17559.748
342.813,17490.223
343.296,17534.654
343.778,17533.414
344.26,17530.303
344.742,17590.77
345.224,17534.08
345.706,17593.537
346.188,17606.635
346.67,17640.949
347.152,17629.312
347.635,17631.871
348.117,17680.391
348.599,17703.461
349.081,17663.18
349.563,17690.51
350.045,17727.381
350.527,17771.881
351.009,17829.449
351.491,17896.43
351.974,17945.561
352.456,17945.9
352.938,17917.43
353.42,17892.92
353.902,17877.211
354.384,17870.359
354.866,17876.631
355.349,17893.26
355.831,17911.08
356.313,17926.42
356.795,17940.539
357.277,17956.48
357.759,17977.811
358.241,17958.461
358.723,17999.723
359.205,18026.273
359.688,18038.9
360.17,17995.906
360.652,18024.736
361.134,18024.781
361.616,18023.646
362.098,18062.586
362.58,18027.682
363.062,18065.984
363.544,18075.064
364.027,18097.52
364.509,18091.012
364.991,18093.449
365.473,18124.859
365.955,18140.229
366.437,18130.387
366.919,18153.691
367.401,18130.98
367.884,18162.461
368.366,18190.539
368.848,18210.82
369.33,18224.141
369.812,18233.98
370.294,18213.291
370.776,18264.455
371.258,18298.18
371.741,18315.398
372.223,18266.678
372.705,18303.104
373.187,18305.406
373.669,18306.311
374.151,18354.723
374.633,18315.594
375.115,18358.59
375.597,18404.93
376.079,18453.27
376.562,18510.869
377.044,18560.24
377.526,18565.92
378.008,18520.42
378.49,18479.01
378.972,18460.211
379.454,18463.029
379.936,18481.949
380.419,18521.48
380.901,18557.49
381.383,18557.631
381.865,18526.641
382.347,18500.57
382.829,18490.59
383.311,18491.811
383.793,18492.039
384.276,18491.77
384.758,18498.211
385.24,18520.01
385.722,18552.061
386.204,18584.4
386.686,18614.869
387.168,18643.131
387.65,18672.279
388.132,18699.609
388.615,18717.5
389.097,18718.439
389.579,18708.471
390.061,18688.23
390.543,18651.801
391.025,18629.58
391.507,18649.84
391.989,18695.881
392.471,18740.439
392.954,18786.689
393.436,18818.93
393.918,18826.09
394.4,18806.93
394.882,18783.6
395.364,18755.449
395.846,18731.26
396.328,18718.68
396.81,18735.09
397.293,18746.9
397.775,18738.029
398.257,18712.41
398.739,18709.76
399.221,18753.83
399.703,18805.08
400.185,18845.09
400.668,18879.221
401.15,18891.789
401.632,18872.311
402.114,18833.131
402.596,18802.529
403.078,18774.85
403.56,18766.57
404.042,18791.51
404.524,18858.25
405.007,18900.09
405.489,18913.16
405.971,18907.869
406.453,18892.17
406.935,18862.869
407.417,18795.129
407.899,18892.01
408.381,18948.928
408.863,18968.035
409.346,18836.078
409.828,18899.188
410.31,18884.125
410.792,18865.855
411.274,18956.422
411.756,18846.436
412.238,18935.275
412.72,18944.748
413.203,18990.545
413.685,18957.686
414.167,18949.119
414.649,18952.66
415.131,18999.301
415.613,19053.48
416.095,19097.801
416.577,19117.75
417.06,19117.99
417.542,19107.539
418.024,19074.619
418.506,19043.68
418.988,19035.16
419.47,19049.16
419.952,19058.801
420.434,19037.35
420.916,19001.932
421.398,19055.066
421.881,19086.707
422.363,19098.006
422.845,19028.043
423.327,19063.014
423.809,19055.932
424.291,19047.125
424.773,19096.863
425.255,19077.75
425.738,19068.449
426.22,19057.471
426.702,19034.51
427.184,19015.199
427.666,19029.27
428.148,19103.6
428.63,19156.439
429.112,19157.289
429.595,19105.57
430.077,19073.09
430.559,19062.971
431.041,19064.0
431.523,19067.24
432.005,19072.67
432.487,19078.439
432.969,19086.279
433.451,19092.211
433.934,19087.23
434.416,19071.439
434.898,19033.523
435.38,19092.533
435.862,19128.014
436.344,19141.23
436.826,19065.508
437.308,19104.633
437.79,19097.732
438.273,19088.945
438.755,19144.236
439.237,19081.447
439.719,19135.723
440.201,19134.711
440.683,19155.48
441.165,19180.811
441.647,19174.17
442.129,19151.859
442.612,19129.76
443.094,19114.631
443.576,19096.471
444.058,19056.58
444.54,19008.859
445.022,18993.609
445.504,19088.939
445.987,19161.561
446.469,19140.971
446.951,18958.439
447.433,18853.65
447.915,18885.07
448.397,18968.789
448.879,19003.711
449.361,18954.5
449.843,18918.01
450.326,18917.24
450.808,18948.24
451.29,18968.76
451.772,18981.369
452.254,18977.631
452.736,18943.359
453.218,18874.789
453.7,18822.711
454.182,18793.41
454.665,18780.85
455.147,18789.949
455.629,18817.811
456.111,18813.93
456.593,18721.83
457.075,18582.029
457.557,18504.34
458.039,18492.051
458.522,18503.35
459.004,18518.471
459.486,18527.699
459.968,18511.57
460.45,18446.369
460.932,18375.051
461.414,18333.211
461.896,18315.09
462.379,18297.869
462.861,18275.48
463.343,18246.75
463.825,18206.381
464.307,18145.17
464.789,18100.09
465.271,18104.23
465.753,18123.461
466.235,18112.391
466.717,18026.75
467.2,17949.67
467.682,17906.65
468.164,17896.381
468.646,17863.32
469.128,17789.539
469.61,17711.82
470.092,17654.199
470.574,17625.131
471.057,17590.711
471.539,17549.721
472.021,17501.359
472.503,17444.33
472.985,17379.289
473.467,17300.311
473.949,17188.35
474.431,17055.561
474.914,16986.4
475.396,16985.449
475.878,16998.6
476.36,16979.84
476.842,16934.279
477.324,16874.029
477.806,16795.75
478.288,16715.461
478.77,16645.5
479.253,16587.43
479.735,16545.529
480.217,16538.66
480.699,16539.119
481.181,16523.24
481.663,16487.02
482.145,16444.789
482.627,16407.279
483.109,16365.28
483.592,16308.99
484.074,16200.66
484.556,16113.99
485.038,16080.12
485.52,16089.63
486.002,16071.79
486.484,16008.41
486.966,15933.35
487.448,15862.2
487.931,15802.53
488.413,15724.93
488.895,15627.89
489.377,15514.36
489.859,15387.48
490.341,15243.98
490.823,15100.28
491.306,14959.13
491.788,14821.77
492.27,14700.67
492.752,14596.34
493.234,14494.32
493.716,14379.63
494.198,14257.76
494.68,14154.86
495.162,14076.1
495.645,14002.45
496.127,13911.97
496.609,13809.72
497.091,13705.23
497.573,13593.31
498.055,13488.7
498.537,13410.7
499.019,13357.02
499.501,13292.36
499.984,13180.18
500.466,13064.03
500.948,12979.29
501.43,12961.12
501.912,12928.25
502.394,12858.32
502.876,12766.79
503.358,12682.37
503.841,12607.77
504.323,12538.68
504.805,12473.3
505.287,12411.74
505.769,12354.46
506.251,12300.18
506.733,12253.01
507.215,12219.64
507.698,12202.25
508.18,12175.8
508.662,12138.0
509.144,12089.13
509.626,12022.95
510.108,11940.83
510.59,11868.18
511.072,11818.2
511.554,11784.81
512.036,11760.61
512.519,11745.4
513.001,11728.12
513.483,11697.11
513.965,11660.5
514.447,11626.87
514.929,11595.04
515.411,11565.463
515.893,11571.896
516.375,11569.588
516.858,11559.005
517.34,11515.383
517.822,11514.429
518.304,11496.375
518.786,11477.621
519.268,11482.673
519.75,11443.852
520.232,11448.527
520.715,11435.84
521.197,11431.099
521.679,11409.153
522.161,11392.521
522.643,11393.096
523.125,11384.146
523.607,11360.218
524.089,11337.94
524.571,11318.19
525.054,11299.06
525.536,11270.92
526.018,11233.46
526.5,11196.57
526.982,11165.03
527.464,11140.2
527.946,11128.24
528.429,11134.98
528.911,11140.83
529.393,11124.12
529.875,11093.2
530.357,11065.17
530.839,11045.5
531.321,11031.93
531.803,11027.15
532.286,11030.48
532.768,11026.62
533.25,11013.48
533.732,10990.74
534.214,10956.21
534.696,10886.05
535.178,10846.0
535.66,10854.79
536.142,10884.25
536.625,10887.38
537.107,10852.49
537.589,10823.77
538.071,10814.97
538.553,10822.04
539.035,10824.13
539.517,10821.15
539.999,10813.66
540.481,10796.03
540.964,10773.07
541.446,10766.66
541.928,10781.93
542.41,10798.15
542.892,10789.83
543.374,10766.09
543.856,10745.27
544.338,10739.56
544.82,10734.92
545.303,10716.28
545.785,10688.49
546.267,10672.45
546.749,10694.55
547.231,10716.78
547.713,10716.71
548.195,10683.8
548.677,10655.48
549.159,10639.92
549.642,10627.29
550.124,10606.15
550.606,10564.84
551.088,10542.56
551.57,10553.35
552.052,10583.32
552.534,10583.03
553.016,10545.29
553.499,10519.7
553.981,10545.24
554.463,10606.94
554.945,10632.39
555.427,10620.68
555.909,10585.58
556.391,10519.61
556.873,10442.24
557.356,10395.81
557.838,10402.74
558.32,10415.77
558.802,10390.76
559.284,10345.34
559.766,10315.1
560.248,10325.73
560.73,10343.98
561.213,10357.78
561.695,10366.68
562.177,10369.9
562.659,10364.83
563.141,10355.8
563.623,10344.42
564.105,10328.5
564.587,10313.79
565.069,10297.44
565.552,10285.0
566.034,10289.15
566.516,10312.72
566.998,10326.23
567.48,10318.89
567.962,10298.22
568.444,10282.82
568.926,10272.34
569.408,10264.21
569.891,10253.73
570.373,10245.57
570.855,10250.56
571.337,10270.82
571.819,10285.6
572.301,10286.05
572.783,10270.75
573.265,10236.61
573.747,10148.81
574.23,10086.48
574.712,10087.6
575.194,10129.77
575.676,10156.97
576.158,10163.77
576.64,10156.06
577.122,10131.08
577.604,10088.92
578.086,10054.87
578.569,10029.12
579.051,10011.66
579.533,10009.44
580.015,10022.43
580.497,10012.05
580.979,9970.111
581.461,9923.046
581.943,9904.025
582.426,9908.649
582.908,9923.956
583.39,9957.201
583.872,9986.248
584.354,9978.585
584.836,9944.365
585.318,9919.335
585.8,9938.624
586.282,9958.372
586.765,9945.758
587.247,9890.898
587.729,9853.827
588.211,9856.674
588.693,9875.059
589.175,9891.377
589.657,9909.911
590.14,9917.337
590.622,9908.448
591.104,9891.941
591.586,9887.461
592.068,9898.435
592.55,9897.451
593.032,9870.051
593.514,9827.28
593.996,9798.442
594.479,9783.372
594.961,9778.581
595.443,9792.411
595.925,9810.953
596.407,9810.367
596.889,9786.365
597.371,9764.025
597.853,9769.238
598.335,9780.242
598.818,9773.735
599.3,9717.523
599.782,9674.864
600.264,9665.238
600.746,9678.606
601.228,9682.854
601.71,9662.364
602.192,9693.72
602.674,9712.491
603.157,9719.354
603.639,9678.638
604.121,9699.359
604.603,9695.46
605.085,9690.55
605.567,9719.918
606.049,9686.123
606.531,9714.947
607.013,9714.197
607.496,9717.86
607.978,9706.984
608.46,9699.4
608.942,9704.206
609.424,9707.951
609.906,9694.063
610.388,9672.538
610.87,9666.208
611.353,9649.142
611.835,9619.918
612.317,9644.638
612.799,9656.263
613.281,9655.497
613.763,9605.231
614.245,9618.886
614.727,9606.923
615.209,9607.645
615.692,9606.836
616.174,9603.997
616.656,9599.553
617.138,9596.419
617.62,9593.185
618.102,9579.171
618.584,9545.657
619.067,9512.109
619.549,9506.906
620.031,9521.771
620.513,9535.706
620.995,9541.17
621.477,9540.456
621.959,9529.86
622.441,9510.978
622.923,9501.287
623.406,9510.374
623.888,9525.664
624.37,9541.646
624.852,9559.026
625.334,9573.932
625.816,9586.7
626.298,9596.443
626.78,9605.232
627.263,9614.497
627.745,9601.273
628.227,9552.187
628.709,9500.511
629.191,9478.249
629.673,9512.293
630.155,9532.669
630.637,9540.111
631.119,9495.886
631.602,9518.38
632.084,9514.136
632.566,9508.795
633.048,9540.679
633.53,9503.969
634.012,9535.262
634.494,9539.41
634.976,9537.266
635.458,9508.286
635.941,9477.175
636.423,9467.431
636.905,9488.742
637.387,9502.539
637.869,9505.824
638.351,9502.968
638.833,9499.002
639.315,9494.046
639.797,9490.67
640.28,9485.695
640.762,9487.646
641.244,9464.248
641.726,9499.114
642.208,9519.837
642.69,9527.177
643.172,9481.049
643.654,9503.963
644.137,9499.209
644.619,9493.319
645.101,9525.951
645.583,9487.6
646.065,9519.621
646.547,9523.551
647.029,9540.337
647.511,9529.283
647.994,9526.829
648.476,9552.223
648.958,9562.197
649.44,9547.938
649.922,9565.542
650.404,9526.219
650.886,9536.85
651.368,9569.033
651.851,9556.175
652.333,9574.287
652.815,9580.604
653.297,9533.315
653.779,9556.855
654.261,9561.83
654.743,9551.324
655.225,9540.486
655.707,9535.437
656.19,9536.329
656.672,9548.41
657.154,9578.652
657.636,9612.696
658.118,9646.771
658.6,9687.788
659.082,9689.278
659.564,9639.339
660.046,9576.014
660.529,9549.045
661.011,9552.791
661.493,9555.938
661.975,9548.709
662.457,9542.435
662.939,9556.417
663.421,9581.528
663.903,9597.036
664.385,9582.475
664.868,9567.482
665.35,9567.24
665.832,9580.303
666.314,9594.326
666.796,9617.838
667.278,9631.072
667.76,9622.132
668.242,9587.953
668.724,9574.544
669.207,9587.299
669.689,9603.94
670.171,9602.157
670.653,9585.618
671.135,9586.826
671.617,9611.233
672.099,9634.459
672.581,9627.158
673.064,9601.824
673.546,9579.179
674.028,9561.067
674.51,9554.819
674.992,9578.136
675.474,9614.137
675.956,9632.992
676.438,9608.62
676.92,9591.467
677.403,9599.757
677.885,9623.582
678.367,9616.344
678.849,9566.471
679.331,9522.444
679.813,9506.701
680.295,9514.068
680.778,9517.659
681.26,9517.171
681.742,9520.592
682.224,9534.116
682.706,9554.609
683.188,9579.14
683.67,9607.4
684.152,9635.464
684.634,9663.474
685.117,9689.139
685.599,9711.085
686.081,9736.927
686.563,9745.483
687.045,9724.485
687.527,9694.064
688.009,9667.593
688.491,9645.456
688.973,9686.131
689.456,9711.561
689.938,9722.56
690.42,9675.921
690.902,9703.712
691.384,9701.674
691.866,9698.413
692.348,9736.681
692.83,9726.107
693.312,9751.742
693.795,9763.641
694.277,9737.173
694.759,9704.343
695.241,9681.58
695.723,9670.829
696.205,9658.335
696.687,9628.33
697.169,9614.224
697.652,9642.708
698.134,9725.516
698.616,9771.172
699.098,9774.446
699.58,9761.254
700.062,9757.163
700.544,9759.065
701.026,9757.074
701.508,9750.47
701.991,9736.542
702.473,9698.935
702.955,9656.448
703.437,9636.185
703.919,9673.769
704.401,9703.822
704.883,9695.051
705.365,9667.805
705.847,9669.454
706.33,9720.533
706.812,9761.412
707.294,9777.411
707.776,9773.814
708.258,9771.426
708.74,9770.508
709.222,9762.145
709.705,9726.615
710.187,9686.17
710.669,9688.684
711.151,9729.778
711.633,9773.291
712.115,9804.318
712.597,9823.17
713.079,9828.439
713.561,9818.607
714.044,9805.29
714.526,9782.711
715.008,9763.491
715.49,9755.414
715.972,9761.906
716.454,9768.185
716.936,9774.125
717.418,9779.768
717.901,9781.897
718.383,9782.596
718.865,9795.229
719.347,9771.903
719.829,9815.716
720.311,9843.229
720.793,9855.325
721.275,9805.81
721.757,9835.849
722.24,9834.007
722.722,9830.856
723.204,9872.094
723.686,9831.54
724.168,9872.074
724.65,9874.31
725.132,9877.245
725.614,9878.299
726.096,9874.832
726.579,9865.957
727.061,9868.299
727.543,9904.342
728.025,9950.257
728.507,9950.847
728.989,9913.39
729.471,9883.732
729.953,9904.432
730.435,9931.048
730.918,9927.762
731.4,9889.455
731.882,9862.752
732.364,9865.398
732.846,9872.524
733.328,9871.496
733.81,9859.619
734.292,9853.472
734.775,9852.168
735.257,9859.04
735.739,9881.136
736.221,9914.442
736.703,9946.709
737.185,9978.025
737.667,9997.073
738.149,9983.362
738.631,9955.463
739.114,9936.431
739.596,9932.521
740.078,9938.268
740.56,9963.925
741.042,9994.376
741.524,10007.22
742.006,9990.492
742.489,9984.726
742.971,9996.522
743.453,10020.68
743.935,10050.82
744.417,10086.05
744.899,10115.39
745.381,10133.56
745.863,10145.42
746.345,10155.91
746.828,10164.73
747.31,10171.89
747.792,10183.17
748.274,10186.62
748.756,10168.89
749.238,10134.92
749.72,10118.82
750.202,10128.94
750.684,10147.2
751.167,10178.49
751.649,10215.86
752.131,10184.79
752.613,10081.82
753.095,9996.455
753.577,10006.82
754.059,10066.91
754.541,10090.41
755.023,10077.88
755.506,10079.7
755.988,10153.51
756.47,10230.35
756.952,10257.21
757.434,10212.66
757.916,10189.67
758.398,10199.04
758.88,10223.27
759.362,10257.7
759.845,10306.25
760.327,10322.25
760.809,10300.54
761.291,10267.58
761.773,10244.03
762.255,10230.76
762.737,10224.12
763.219,10219.23
763.702,10243.99
764.184,10321.19
764.666,10321.633
765.148,10377.535
765.63,10419.983
766.112,10449.683
766.594,10428.495
767.076,10473.021
767.558,10491.21
768.041,10522.44
768.523,10569.65
769.005,10622.42
769.487,10680.4
769.969,10707.86
770.451,10737.94
770.933,10879.31
771.416,10919.806
771.898,10995.678
772.38,11062.964
772.862,11122.119
773.344,11148.784
773.826,11217.402
774.308,11273.1
774.79,11285.12
775.272,11331.13
775.755,11370.99
776.237,11404.65
776.719,11435.62
777.201,11463.81
777.683,11491.97
778.165,11527.4
778.647,11568.06
779.129,11605.06
779.612,11622.09
780.094,11644.12
780.576,11686.34
781.058,11747.96
781.54,11758.588
782.022,11800.044
782.504,11834.024
782.986,11860.917
783.468,11859.515
783.951,11894.648
784.433,11915.142
784.915,11942.88
785.397,11959.15
785.879,12009.71
786.361,12016.23
786.843,11984.9
787.325,11959.68
787.807,11980.45
788.29,12006.45
788.772,12005.12
789.254,11973.27
789.736,11957.98
790.218,11970.3
790.7,11991.81
791.182,12020.58
791.664,12056.52
792.146,12058.68
792.629,12022.36
793.111,11986.43
793.593,11980.94
794.075,11994.64
794.557,12013.02
795.039,12034.4
795.521,12040.81
796.003,11999.27
796.485,11954.82
796.968,11942.93
797.45,11978.47
797.932,12001.78
798.414,12015.85
798.896,12013.05
799.378,11978.13
799.86,11910.12
800.343,11882.58
800.825,11901.25
801.307,11922.59
801.789,11903.67
802.271,11863.54
802.753,11823.97
803.235,11779.812
803.717,11815.466
804.199,11831.745
804.682,11829.692
805.164,11754.402
805.646,11773.682
806.128,11755.062
806.61,11734.891
807.092,11767.482
807.574,11738.02
808.056,11774.14
808.539,11764.6
809.021,11691.7
809.503,11621.42
809.985,11626.19
810.467,11665.08
810.949,11688.47
811.431,11682.93
811.913,11671.69
812.395,11647.37
812.878,11629.41
813.36,11621.71
813.842,11590.52
814.324,11525.066
814.806,11580.896
815.288,11607.288
815.77,11605.821
816.252,11493.058
816.734,11524.012
817.217,11497.366
817.699,11468.362
818.181,11519.543
818.663,11476.42
819.145,11447.27
819.627,11439.49
820.109,11395.962
820.591,11433.093
821.073,11450.645
821.556,11449.67
822.038,11374.68
822.52,11393.97
823.002,11390.89
823.484,11406.22
823.966,11364.33
824.448,11291.64
824.93,11238.34
825.413,11217.73
825.895,11209.63
826.377,11213.0
826.859,11218.71
827.341,11215.26
827.823,11186.8
828.305,11181.89
828.787,11211.64
829.269,11247.14
829.752,11255.14
830.234,11237.39
830.716,11205.51
831.198,11159.94
831.68,11108.03
832.162,11043.46
832.644,10982.48
833.127,10950.1
833.609,10971.99
834.091,10979.83
834.573,10940.18
835.055,10892.47
835.537,10873.2
836.019,10892.48
836.501,10890.42
836.983,10859.01
837.466,10819.76
837.948,10809.25
838.43,10809.66
838.912,10769.68
839.394,10667.42
839.876,10581.19
840.358,10573.94
840.84,10600.21
841.322,10615.55
841.805,10610.15
842.287,10601.24
842.769,10590.85
843.251,10574.09
843.733,10534.39
844.215,10476.23
844.697,10468.45
845.179,10525.21
845.661,10576.19
846.144,10538.26
846.626,10461.72
847.108,10406.33
847.59,10386.08
848.072,10376.52
848.554,10382.24
849.036,10387.86
849.518,10381.74
850.0,10360.4
850.483,10342.05
850.965,10326.79
851.447,10314.71
851.929,10307.36
852.411,10303.02
852.893,10296.43
853.375,10286.63
853.857,10281.87
854.34,10298.74
854.822,10314.55
855.304,10285.979
855.786,10326.301
856.268,10349.899
856.75,10357.674
857.232,10302.23
857.714,10328.42
858.196,10321.895
858.679,10314.027
859.161,10351.707
859.643,10335.82
860.125,10351.04
860.607,10347.71
861.089,10342.56
861.571,10337.07
862.054,10332.63
862.536,10317.08
863.018,10315.82
863.5,10349.1
863.982,10416.87
864.464,10443.41
864.946,10425.4
865.428,10397.45
865.91,10379.5
866.393,10368.67
866.875,10362.6
867.357,10360.61
867.839,10357.91
868.321,10352.18
868.803,10345.51
869.285,10340.0
869.767,10335.36
870.25,10325.11
870.732,10305.96
871.214,10292.54
871.696,10292.89
872.178,10303.37
872.66,10311.64
873.142,10319.51
873.624,10335.64
874.106,10381.61
874.589,10421.62
875.071,10425.59
875.553,10401.5
876.035,10389.79
876.517,10398.19
876.999,10409.68
877.481,10421.91
877.963,10432.84
878.445,10435.25
878.928,10429.94
879.41,10423.82
879.892,10415.06
880.374,10412.77
880.856,10433.88
881.338,10466.93
881.82,10488.48
882.302,10483.43
882.784,10477.26
883.267,10474.46
883.749,10472.63
884.231,10466.44
884.713,10455.68
885.195,10445.76
885.677,10434.86
886.159,10433.42
886.641,10465.68
887.123,10513.6
887.606,10545.83
888.088,10541.68
888.57,10541.01
889.052,10567.21
889.534,10594.66
890.016,10592.49
890.498,10548.86
890.981,10534.18
891.463,10557.1
891.945,10595.33
892.427,10635.07
892.909,10669.87
893.391,10680.66
893.873,10659.77
894.355,10648.08
894.837,10619.158
895.32,10657.845
895.802,10680.121
896.284,10686.867
896.766,10631.57
897.248,10656.389
897.73,10649.101
898.212,10640.496
898.694,10676.591
899.177,10630.318
899.659,10665.704
900.141,10668.493
900.623,10686.201
901.105,10671.604
901.587,10666.984
902.069,10694.681
902.551,10704.483
903.033,10686.168
903.516,10704.824
903.998,10657.423
904.48,10667.987
904.962,10703.562
905.444,10686.871
905.926,10706.117
906.408,10711.677
906.89,10655.033
907.372,10706.566
907.855,10711.317
908.337,10668.032
908.819,10715.859
909.301,10679.195
909.783,10672.69
910.265,10688.881
910.747,10681.412
911.229,10711.244
911.711,10705.142
912.194,10695.828
912.676,10700.526
913.158,10665.52
913.64,10704.174
914.122,10692.511
914.604,10705.859
915.086,10724.877
915.568,10700.486
916.05,10722.051
916.533,10672.351
917.015,10704.65
917.497,10720.58
917.979,10753.94
918.461,10781.13
918.943,10769.93
919.425,10748.0
919.907,10746.66
920.39,10775.83
920.872,10797.41
921.354,10801.59
921.836,10803.23
922.318,10807.59
922.8,10815.05
923.282,10842.56
923.764,10889.36
924.247,10924.9
924.729,10909.16
925.211,10884.47
925.693,10900.57
926.175,10875.595
926.657,10928.63
927.139,10962.727
927.621,10978.905
928.104,10923.499
928.586,10960.529
929.068,10960.516
929.55,10958.985
930.032,11009.025
930.514,10964.031
930.996,11013.255
931.478,11024.867
931.96,11053.693
932.443,11037.55
932.925,11020.58
933.407,11018.5
933.889,11038.92
934.371,11066.17
934.853,11078.27
935.335,11075.62
935.817,11083.03
936.299,11104.97
936.782,11128.68
937.264,11149.23
937.746,11160.5
938.228,11147.02
938.71,11122.037
939.192,11171.342
939.674,11202.614
940.156,11216.822
940.638,11162.862
941.121,11196.931
941.603,11195.719
942.085,11193.062
942.567,11239.518
943.049,11195.471
943.531,11241.15
944.013,11251.012
944.495,11252.57
944.978,11269.54
945.46,11328.42
945.942,11371.8
946.424,11384.71
946.906,11375.22
947.388,11360.56
947.87,11341.98
948.352,11334.35
948.834,11350.02
949.317,11364.07
949.799,11345.0
950.281,11312.33
950.763,11294.63
951.245,11307.8
951.727,11324.04
952.209,11345.6
952.692,11365.2
953.174,11370.65
953.656,11365.13
954.138,11369.45
954.62,11385.23
955.102,11414.26
955.584,11483.22
956.066,11547.51
956.548,11562.58
957.031,11517.13
957.513,11488.75
957.995,11486.09
958.477,11488.88
958.959,11491.08
959.441,11490.47
959.923,11468.12
960.405,11430.98
960.888,11415.86
961.37,11476.72
961.852,11531.37
962.334,11518.49
962.816,11462.79
963.298,11431.61
963.78,11430.25
964.262,11446.02
964.744,11481.04
965.227,11523.38
965.709,11566.05
966.191,11600.65
966.673,11599.93
967.155,11550.68
967.637,11498.7
968.119,11465.69
968.601,11443.68
969.083,11427.82
969.566,11419.59
970.048,11406.73
970.53,11388.22
971.012,11369.08
971.494,11352.67
971.976,11337.77
972.458,11321.27
972.94,11303.59
973.422,11287.3
973.905,11263.88
974.387,11253.34
974.869,11272.79
975.351,11308.06
975.833,11317.94
976.315,11301.24
976.797,11271.14
977.279,11223.61
977.761,11181.79
978.244,11145.899
978.726,11172.16
979.208,11183.336
979.69,11180.234
980.172,11120.102
980.654,11133.614
981.136,11117.61
981.619,11100.398
982.101,11124.276
982.583,11099.83
983.065,11117.8
983.547,11134.95
984.029,11113.57
984.511,11076.85
984.993,11041.91
985.475,11010.6
985.958,10981.72
986.44,10944.15
986.922,10930.83
987.404,10963.47
987.886,11016.57
988.368,11010.21
988.85,10959.99
989.332,10936.44
989.815,10982.4
990.297,11029.57
990.779,11032.63
991.261,11014.1
991.743,11004.72
992.225,11013.19
992.707,11009.56
993.189,10990.02
993.671,10969.43
994.154,10960.99
994.636,10962.46
995.118,10933.763
995.6,10970.807
996.082,10991.892
996.564,10997.877
997.046,10943.533
997.528,10967.092
998.01,10966.63
998.493,10920.21
998.975,10953.6
999.457,10997.94
999.939,11034.06
1000.421,11057.36
1000.903,11045.84
1001.385,11021.8
1001.867,11023.87
1002.349,11106.04
1002.832,11149.76
1003.314,11134.13
1003.796,11095.34
1004.278,11066.22
1004.76,11046.01
1005.242,11031.8
1005.724,11023.31
1006.206,11023.23
1006.689,11041.98
1007.171,11063.01
1007.653,11073.9
1008.135,11073.92
1008.617,11076.58
1009.099,11088.11
1009.581,11081.75
1010.063,11036.6
1010.545,10984.71
1011.028,11007.31
1011.51,11075.06
1011.992,11113.68
1012.474,11072.85
1012.956,11040.2
1013.438,11059.76
1013.92,11093.49
1014.402,11100.38
1014.885,11073.04
1015.367,11085.55
1015.849,11143.16
1016.331,11200.12
1016.813,11221.94
1017.295,11219.04
1017.777,11186.89
1018.259,11131.92
1018.741,11115.42
1019.224,11178.66
1019.706,11236.65
1020.188,11270.91
1020.67,11284.17
1021.152,11273.98
1021.634,11246.58
1022.116,11230.45
1022.598,11238.53
1023.081,11249.98
1023.563,11244.41
1024.045,11239.66
1024.527,11257.81
1025.009,11310.01
1025.491,11337.75
1025.973,11334.86
1026.455,11334.57
1026.938,11376.08
1027.42,11429.77
1027.902,11439.88
1028.384,11413.84
1028.866,11398.23
1029.348,11433.4
1029.83,11451.75
1030.312,11422.33
1030.794,11376.21
1031.276,11390.69
1031.759,11459.1
1032.241,11506.75
1032.723,11514.59
1033.205,11509.72
1033.687,11518.76
1034.169,11525.14
1034.651,11504.89
1035.133,11441.3
1035.616,11424.81
1036.098,11466.96
1036.58,11520.46
1037.062,11563.74
1037.544,11594.33
1038.026,11593.91
1038.508,11572.64
1038.99,11566.1
1039.473,11596.29
1039.955,11635.76
1040.437,11695.59
1040.919,11747.35
1041.401,11739.19
1041.883,11671.2
1042.365,11628.5
1042.847,11622.3
1043.329,11633.99
1043.812,11652.2
1044.294,11676.76
1044.776,11711.59
1045.258,11757.85
1045.74,11788.98
1046.222,11796.81
1046.704,11810.89
1047.186,11854.08
1047.668,11899.24
1048.151,11867.88
1048.633,11788.12
1049.115,11734.22
1049.597,11742.34
1050.079,11767.46
1050.561,11797.35
1051.043,11836.36
1051.525,11896.16
1052.008,11980.51
1052.49,12026.14
1052.972,12030.17
1053.454,12021.63
1053.936,11981.04
1054.418,11968.451
1054.9,12016.906
1055.382,12050.541
1055.865,12070.188
1056.347,12033.793
1056.829,12069.723
1057.311,12076.671
1057.793,12082.426
1058.275,12112.58
1058.757,12136.37
1059.239,12153.27
1059.721,12154.9
1060.203,12149.81
1060.686,12137.03
1061.168,12122.74
1061.65,12105.54
1062.132,12087.73
1062.614,12110.29
1063.096,12171.13
1063.578,12216.0
1064.06,12199.64
1064.543,12173.26
1065.025,12179.73
1065.507,12203.36
1065.989,12211.04
1066.471,12188.87
1066.953,12185.9
1067.435,12211.13
1067.917,12236.01
1068.4,12228.68
1068.882,12201.09
1069.364,12169.83
1069.846,12137.16
1070.328,12111.39
1070.81,12082.56
1071.292,12079.79
1071.774,12124.21
1072.256,12191.28
1072.739,12207.5
1073.221,12181.25
1073.703,12166.66
1074.185,12182.56
1074.667,12203.05
1075.149,12225.03
1075.631,12232.59
1076.113,12201.91
1076.596,12123.6
1077.078,12091.86
1077.56,12113.39
1078.042,12135.74
1078.524,12120.79
1079.006,12091.57
1079.488,12079.36
1079.97,12077.14
1080.453,12065.96
1080.935,12024.55
1081.417,11998.97
1081.899,11997.71
1082.381,12004.93
1082.863,12001.12
1083.345,11990.14
1083.827,11987.46
1084.309,11993.93
1084.792,11990.46
1085.274,11938.78
1085.756,11896.341
1086.238,11932.427
1086.72,11949.452
1087.202,11948.438
1087.684,11875.364
1088.166,11895.342
1088.648,11878.029
1089.131,11859.171
1089.613,11892.245
1090.095,11829.652
1090.577,11861.902
1091.059,11849.36
1091.541,11838.85
1092.023,11890.85
1092.505,11932.06
1092.988,11902.57
1093.47,11847.04
1093.952,11846.71
1094.434,11882.51
1094.916,11906.01
1095.398,11893.94
1095.88,11875.42
1096.362,11845.51
1096.844,11822.34
1097.327,11835.96
1097.809,11874.48
1098.291,11881.3
1098.773,11854.82
1099.255,11841.2
1099.737,11897.72
1100.219,11941.67
1100.701,11922.91
1101.183,11864.09
1101.666,11815.31
1102.148,11777.0
1102.63,11767.0
1103.112,11797.14
1103.594,11722.534
1104.076,11796.053
1104.558,11833.617
1105.04,11837.155
1105.523,11704.747
1106.005,11747.881
1106.487,11720.672
1106.969,11690.58
1107.451,11758.418
1107.933,11645.799
1108.415,11712.084
1108.897,11706.954
1109.38,11734.491
1109.862,11691.269
1110.344,11669.908
1110.826,11659.44
1111.308,11650.3
1111.79,11672.56
1112.272,11714.59
1112.754,11740.42
1113.236,11748.44
1113.719,11732.88
1114.201,11645.5
1114.683,11589.44
1115.165,11616.61
1115.647,11683.07
1116.129,11729.31
1116.611,11754.95
1117.093,11757.09
1117.575,11734.24
1118.058,11703.5
1118.54,11653.82
1119.022,11621.26
1119.504,11650.91
1119.986,11727.92
1120.468,11750.93
1120.95,11711.78
1121.432,11691.13
1121.915,11716.93
1122.397,11758.92
1122.879,11795.77
1123.361,11820.96
1123.843,11821.91
1124.325,11785.08
1124.807,11772.64
1125.289,11794.03
1125.771,11813.52
1126.254,11807.82
1126.736,11791.06
1127.218,11786.68
1127.7,11794.01
1128.182,11811.45
1128.664,11846.45
1129.146,11879.5
1129.628,11908.53
1130.11,11934.37
1130.593,11960.71
1131.075,11984.45
1131.557,11988.81
1132.039,11976.4
1132.521,11968.33
1133.003,11993.26
1133.485,12002.12
1133.967,11959.52
1134.45,11905.08
1134.932,11913.34
1135.414,11976.92
1135.896,12001.26
1136.378,11973.32
1136.86,11946.69
1137.342,11968.55
1137.824,11998.52
1138.307,12012.09
1138.789,12010.32
1139.271,11991.65
1139.753,11954.12
1140.235,11930.46
1140.717,11931.29
1141.199,11941.75
1141.681,11943.07
1142.163,11948.13
1142.646,11982.54
1143.128,12058.23
1143.61,12051.37
1144.092,11937.31
1144.574,11865.64
1145.056,11933.57
1145.538,12043.78
1146.02,12063.35
1146.502,12025.35
1146.985,11982.77
1147.467,11936.03
1147.949,11914.94
1148.431,11926.91
1148.913,11947.04
1149.395,11955.05
1149.877,11959.33
1150.359,11988.54
1150.842,12030.54
1151.324,12046.07
1151.806,11964.39
1152.288,11940.93
1152.77,12020.49
1153.252,12118.85
1153.734,12133.23
1154.216,12090.83
1154.698,12080.51
1155.181,12104.86
1155.663,12127.61
1156.145,12133.32
1156.627,12131.0
1157.109,12116.17
1157.591,12103.24
1158.073,12130.32
1158.555,12186.63
1159.037,12203.09
1159.52,12167.56
1160.002,12134.87
1160.484,12151.63
1160.966,12166.77
1161.448,12145.93
1161.93,12102.03
1162.412,12082.27
1162.894,12086.11
1163.377,12110.3
1163.859,12160.54
1164.341,12205.33
1164.823,12230.92
1165.305,12232.66
1165.787,12195.71
1166.269,12124.02
1166.751,12094.02
1167.234,12106.17
1167.716,12123.44
1168.198,12129.28
1168.68,12135.7
1169.162,12157.74
1169.644,12184.45
1170.126,12202.16
1170.608,12210.26
1171.09,12206.55
1171.573,12189.07
1172.055,12175.98
1172.537,12183.25
1173.019,12196.37
1173.501,12195.94
1173.983,12190.57
1174.465,12200.29
1174.947,12238.52
1175.43,12251.65
1175.912,12231.67
1176.394,12218.09
1176.876,12259.5
1177.358,12316.18
1177.84,12335.06
1178.322,12324.86
1178.804,12325.04
1179.286,12357.28
1179.769,12349.69
1180.251,12302.545
1180.733,12365.669
1181.215,12402.025
1181.697,12413.054
1182.179,12322.893
1182.661,12363.396
1183.143,12351.536
1183.625,12337.528
1184.108,12396.428
1184.59,12320.983
1185.072,12378.723
1185.554,12383.297
1186.036,12375.55
1186.518,12371.44
1187.0,12343.04
1187.482,12331.95
1187.965,12363.47
1188.447,12380.17
1188.929,12356.83
1189.411,12322.67
1189.893,12339.52
1190.375,12385.68
1190.857,12416.02
1191.339,12419.35
1191.822,12417.92
1192.304,12413.24
1192.786,12412.27
1193.268,12424.05
1193.75,12435.63
1194.232,12397.5
1194.714,12333.63
1195.196,12309.44
1195.678,12361.84
1196.161,12404.25
1196.643,12418.77
1197.125,12418.18
1197.607,12402.41
1198.089,12379.71
1198.571,12384.25
1199.053,12406.72
1199.535,12416.85
1200.017,12392.63
1200.5,12373.61
1200.982,12367.95
1201.464,12369.81
1201.946,12373.87
1202.428,12382.01
1202.91,12410.83
1203.392,12452.66
1203.874,12476.59
1204.357,12441.84
1204.839,12425.61
1205.321,12460.37
1205.803,12497.15
1206.285,12478.12
1206.767,12419.7
1207.249,12397.56
1207.731,12410.28
1208.214,12437.08
1208.696,12483.46
1209.178,12523.55
1209.66,12562.58
1210.142,12579.9
1210.624,12528.47
1211.106,12433.58
1211.588,12399.56
1212.07,12428.6
1212.552,12464.43
1213.035,12489.63
1213.517,12503.51
1213.999,12500.88
1214.481,12494.69
1214.963,12461.202
1215.445,12487.091
1215.927,12498.564
1216.409,12496.399
1216.892,12439.734
1217.374,12453.441
1217.856,12438.954
1218.338,12423.308
1218.82,12446.919
1219.302,12424.36
1219.784,12419.45
1220.266,12427.63
1220.749,12453.45
1221.231,12468.89
1221.713,12460.52
1222.195,12438.53
1222.677,12396.9
1223.159,12354.53
1223.641,12364.43
1224.123,12407.68
1224.605,12424.28
1225.088,12398.49
1225.57,12379.19
1226.052,12384.22
1226.534,12402.8
1227.016,12439.71
1227.498,12479.66
1227.98,12477.27
1228.462,12447.5
1228.944,12427.85
1229.427,12424.8
1229.909,12445.01
1230.391,12523.96
1230.873,12577.53
1231.355,12560.56
1231.837,12503.77
1232.319,12482.62
1232.801,12486.12
1233.284,12487.54
1233.766,12477.04
1234.248,12475.37
1234.73,12491.3
1235.212,12507.39
1235.694,12513.5
1236.176,12514.91
1236.658,12536.96
1237.141,12562.38
1237.623,12546.42
1238.105,12446.74
1238.587,12386.16
1239.069,12385.75
1239.551,12406.4
1240.033,12435.29
1240.515,12462.34
1240.997,12465.89
1241.479,12450.69
1241.962,12424.88
1242.444,12374.93
1242.926,12354.82
1243.408,12376.75
1243.89,12401.58
1244.372,12402.83
1244.854,12391.77
1245.336,12388.01
1245.819,12387.32
1246.301,12379.85
1246.783,12341.73
1247.265,12347.35
1247.747,12409.58
1248.229,12465.59
1248.711,12466.35
1249.193,12438.72
1249.676,12412.91
1250.158,12389.82
1250.64,12372.83
1251.122,12363.41
1251.604,12361.6
1252.086,12371.71
1252.568,12366.59
1253.05,12302.19
1253.532,12233.86
1254.015,12224.29
1254.497,12255.6
1254.979,12294.24
1255.461,12344.94
1255.943,12367.06
1256.425,12356.88
1256.907,12347.14
1257.389,12371.7
1257.871,12396.59
1258.354,12384.0
1258.836,12355.06
1259.318,12356.28
1259.8,12396.13
1260.282,12390.31
1260.764,12334.92
