Raman Shift,Intensity 
400,15.57695625
401,15.59897409
402,15.59135022
403,15.59319891
404,15.59904055
405,15.59479092
406,15.57742553
407,15.61154794
408,15.60964288
409,15.59914905
410,15.62642544
411,15.61811734
412,15.60945976
413,15.60685986
414,15.59085909
415,15.59894693
416,15.60098057
417,15.62511143
418,15.60577471
419,15.6000536
420,15.60245651
421,15.61162962
422,15.58250211
423,15.60665256
424,15.58966506
425,15.60683345
426,15.59057725
427,15.58334718
428,15.60884847
429,15.59726925
430,15.59983962
431,15.60455989
432,15.59900619
433,15.57205125
434,15.58323057
435,15.58078027
436,15.60331248
437,15.59418693
438,15.57703102
439,15.61482987
440,15.58448342
441,15.57626421
442,15.5857852
443,15.61296049
444,15.58553627
445,15.58034231
446,15.5942005
447,15.60749357
448,15.60269837
449,15.618845
450,15.57372231
451,15.57076687
452,15.61024217
453,15.58817956
454,15.60379056
455,15.59301055
456,15.60542454
457,15.58291499
458,15.59645167
459,15.58161565
460,15.62610154
461,15.59504338
462,15.60099823
463,15.57065588
464,15.57280451
465,15.62991355
466,15.60927869
467,15.59823621
468,15.61987411
469,15.60787036
470,15.63297195
471,15.59758992
472,15.59475231
473,15.6138947
474,15.59941142
475,15.58607503
476,15.59114721
477,15.59716503
478,15.58889407
479,15.59943853
480,15.60827304
481,15.60282854
482,15.61526931
483,15.61729658
484,15.5918781
485,15.61093108
486,15.58834838
487,15.60168781
488,15.58834174
489,15.59150518
490,15.59161996
491,15.62596849
492,15.60458781
493,15.6060711
494,15.5839815
495,15.59165263
496,15.63118872
497,15.60075941
498,15.59035052
499,15.60596812
500,15.59418815
501,15.60143797
502,15.60156516
503,15.60037035
504,15.63187686
505,15.60216113
506,15.5742089
507,15.5860901
508,15.59920149
509,15.59976324
510,15.59194479
511,15.61154702
512,15.60872299
513,15.63469707
514,15.58508413
515,15.58615208
516,15.58346251
517,15.60756864
518,15.6162813
519,15.60341489
520,15.5997297
521,15.62267571
522,15.62580086
523,15.60252988
524,15.61133324
525,15.58710735
526,15.61710834
527,15.58336483
528,15.58123496
529,15.59582809
530,15.59017573
531,15.61168439
532,15.58063534
533,15.62170698
534,15.59702675
535,15.58533882
536,15.61286639
537,15.60320606
538,15.59256955
539,15.60952232
540,15.5900157
541,15.58201304
542,15.61211368
543,15.5860666
544,15.61554949
545,15.60062563
546,15.598883
547,15.59134005
548,15.60434526
549,15.59997992
550,15.59316512
551,15.60646366
552,15.64611486
553,15.58171161
554,15.61968404
555,15.56628287
556,15.60260517
557,15.61774237
558,15.61194574
559,15.61086467
560,15.58673062
561,15.62009653
562,15.6140722
563,15.60451543
564,15.60904119
565,15.60990046
566,15.59162719
567,15.58096535
568,15.60432597
569,15.58839753
570,15.5871118
571,15.58638607
572,15.5907493
573,15.59299995
574,15.57808454
575,15.58615035
576,15.59183332
577,15.58979711
578,15.59818223
579,15.61396864
580,15.59408295
581,15.62279494
582,15.61291269
583,15.61563561
584,15.59922153
585,15.59811922
586,15.58781792
587,15.60092371
588,15.60048421
589,15.60900794
590,15.60396545
591,15.59626521
592,15.59701515
593,15.60372267
594,15.61784667
595,15.60876398
596,15.60044351
597,15.6173785
598,15.57974871
599,15.60030219
600,15.60158012
601,15.62282597
602,15.60697692
603,15.58557878
604,15.57364203
605,15.58931769
606,15.5762045
607,15.5848327
608,15.57532213
609,15.61036529
610,15.60820158
611,15.60839045
612,15.61167356
613,15.56753195
614,15.60425524
615,15.60978228
616,15.56632721
617,15.58838337
618,15.59410742
619,15.58748515
620,15.57246987
621,15.60275212
622,15.5855361
623,15.60365608
624,15.60268663
625,15.59459549
626,15.59626432
627,15.61438567
628,15.62723327
629,15.58276097
630,15.60863891
631,15.58866172
632,15.59509623
633,15.59574446
634,15.60401704
635,15.58109679
636,15.58352619
637,15.58513278
638,15.62988095
639,15.58908613
640,15.6291725
641,15.61660937
642,15.58361916
643,15.60009112
644,15.59360127
645,15.61448108
646,15.5822751
647,15.59618082
648,15.61413332
649,15.59395351
650,15.63394369
651,15.59490841
652,15.61118852
653,15.60684685
654,15.60214716
655,15.61794725
656,15.58634163
657,15.58127708
658,15.61391747
659,15.60241962
660,15.60403012
661,15.58476479
662,15.58339254
663,15.60088854
664,15.59015803
665,15.608334
666,15.60894943
667,15.60876974
668,15.6333397
669,15.59694488
670,15.59499621
671,15.59253606
672,15.61586499
673,15.60015155
674,15.58484999
675,15.6009266
676,15.58858217
677,15.59599597
678,15.60261221
679,15.5875336
680,15.60539341
681,15.59061797
682,15.61616637
683,15.60164432
684,15.60894275
685,15.58838784
686,15.61062729
687,15.6046921
688,15.5892199
689,15.60858588
690,15.59792959
691,15.59169338
692,15.59880078
693,15.57642079
694,15.5726703
695,15.59544314
696,15.61057556
697,15.61089879
698,15.60371555
699,15.60750105
700,15.5965826
701,15.60353796
702,15.61062219
703,15.60502719
704,15.5886435
705,15.59717845
706,15.59163029
707,15.61326919
708,15.62281593
709,15.57257287
710,15.616549
711,15.5846233
712,15.61209979
713,15.58423249
714,15.58168093
715,15.59854553
716,15.59037293
717,15.59704682
718,15.61225776
719,15.59757865
720,15.60945732
721,15.58406365
722,15.56486126
723,15.60008069
724,15.61503223
725,15.61614819
726,15.58980194
727,15.62421552
728,15.61922418
729,15.58919263
730,15.57808951
731,15.61304769
732,15.61018713
733,15.58217494
734,15.63712162
735,15.60755145
736,15.57667685
737,15.62339528
738,15.59313834
739,15.60458466
740,15.57692144
741,15.59700213
742,15.58490841
743,15.6206247
744,15.59325199
745,15.61216568
746,15.56009301
747,15.59445036
748,15.61325805
749,15.60304115
750,15.6034042
751,15.60642203
752,15.58852255
753,15.58835428
754,15.60132466
755,15.61353709
756,15.60153157
757,15.56794072
758,15.60183818
759,15.58452543
760,15.59084247
761,15.58753991
762,15.59018264
763,15.60906552
764,15.60880305
765,15.60426996
766,15.59948488
767,15.57970402
768,15.6273469
769,15.60660133
770,15.62252474
771,15.58481428
772,15.60135167
773,15.59879721
774,15.60294895
775,15.60504372
776,15.60967022
777,15.59993613
778,15.57831761
779,15.61213871
780,15.60951434
781,15.61706032
782,15.60354682
783,15.60084302
784,15.58599834
785,15.59626012
786,15.60514489
787,15.59404247
788,15.58808622
789,15.57127207
790,15.60923692
791,15.59493101
792,15.61787062
793,15.58319765
794,15.62976054
795,15.6142154
796,15.60093739
797,15.58333634
798,15.59166873
799,15.59375528
800,15.61075444
801,15.61652804
802,15.59888088
803,15.57197698
804,15.60306956
805,15.61283732
806,15.57349717
807,15.62464602
808,15.62512864
809,15.60920228
810,15.58418893
811,15.60902329
812,15.60784243
813,15.60132736
814,15.63187122
815,15.5850792
816,15.58332297
817,15.59701693
818,15.59342712
819,15.57399344
820,15.56853578
821,15.58670874
822,15.59797389
823,15.59565158
824,15.59806858
825,15.58744378
826,15.59884042
827,15.60372852
828,15.59834986
829,15.59486546
830,15.59841141
831,15.59393646
832,15.58599313
833,15.60856514
834,15.58134084
835,15.5649689
836,15.60527781
837,15.60368246
838,15.59933893
839,15.60565074
840,15.60285126
841,15.60961882
842,15.60085683
843,15.58947877
844,15.60275687
845,15.58621099
846,15.59110113
847,15.6024964
848,15.59587137
849,15.57339082
850,15.59614583
851,15.58433911
852,15.62121581
853,15.60901556
854,15.58519897
855,15.6109157
856,15.61142189
857,15.61416847
858,15.59959279
859,15.57363037
860,15.60033813
861,15.62768723
862,15.61159547
863,15.60517555
864,15.59359661
865,15.619163
866,15.63513154
867,15.58153785
868,15.59609612
869,15.60464578
870,15.56947185
871,15.5905657
872,15.60245463
873,15.58915809
874,15.61661505
875,15.60106184
876,15.58908128
877,15.5931758
878,15.59680972
879,15.61453905
880,15.59961647
881,15.60599821
882,15.61166036
883,15.60940658
884,15.6112872
885,15.60101123
886,15.60504228
887,15.59259827
888,15.57804465
889,15.57101932
890,15.58587148
891,15.5972973
892,15.60571144
893,15.56318216
894,15.62283282
895,15.60101503
896,15.58615331
897,15.61506809
898,15.59413965
899,15.6272012
900,15.59980204
901,15.58942395
902,15.61024354
903,15.59902581
904,15.59228466
905,15.61461245
906,15.57509708
907,15.61904123
908,15.60230453
909,15.59702522
910,15.5994234
911,15.56366848
912,15.60836248
913,15.60158315
914,15.59223878
915,15.60276838
916,15.56932833
917,15.56845317
918,15.60873612
919,15.60479745
920,15.5919422
921,15.56426538
922,15.60330274
923,15.62365118
924,15.59194411
925,15.61141469
926,15.6075544
927,15.57566564
928,15.58495151
929,15.63002028
930,15.60671938
931,15.59657166
932,15.61030679
933,15.58842471
934,15.60770935
935,15.5906597
936,15.59062307
937,15.60865443
938,15.57288418
939,15.62254988
940,15.59964995
941,15.61101621
942,15.59735871
943,15.57910289
944,15.60976528
945,15.5953523
946,15.60623185
947,15.59117728
948,15.58636644
949,15.60055591
950,15.63004508
951,15.62342333
952,15.6092074
953,15.6205639
954,15.60662382
955,15.61284174
956,15.59292918
957,15.62096652
958,15.62238349
959,15.59755599
960,15.59215127
961,15.57894008
962,15.60726507
963,15.61306348
964,15.60864705
965,15.63107544
966,15.63288835
967,15.64411907
968,15.64744853
969,15.65005664
970,15.69813141
971,15.67642697
972,15.70573702
973,15.67583058
974,15.74600116
975,15.75677937
976,15.81293929
977,15.79448398
978,15.83874426
979,15.88155955
980,15.90069769
981,15.97159001
982,15.99376151
983,16.06697997
984,16.09695722
985,16.13504614
986,16.20137613
987,16.29657197
988,16.2890342
989,16.34526876
990,16.4074631
991,16.4497242
992,16.4879533
993,16.52604738
994,16.53922462
995,16.57269606
996,16.60307906
997,16.60872755
998,16.61393569
999,16.59117665
1000,16.57463013
1001,16.54757615
1002,16.5463419
1003,16.5062295
1004,16.4815604
1005,16.45026523
1006,16.39164331
1007,16.37271943
1008,16.31235389
1009,16.24842564
1010,16.20060949
1011,16.13490358
1012,16.09589965
1013,16.07682949
1014,16.02414073
1015,15.96481357
1016,15.93333681
1017,15.88216315
1018,15.83031714
1019,15.81764619
1020,15.81172304
1021,15.76122126
1022,15.74819436
1023,15.70671901
1024,15.67977645
1025,15.66977474
1026,15.70164355
1027,15.66073893
1028,15.65623788
1029,15.6284177
1030,15.62604794
1031,15.64578091
1032,15.60975199
1033,15.60312368
1034,15.61024754
1035,15.61592387
1036,15.62818402
1037,15.61647732
1038,15.60424145
1039,15.61432434
1040,15.61249902
1041,15.60038782
1042,15.60018192
1043,15.59783514
1044,15.60361583
1045,15.6243431
1046,15.57755727
1047,15.60754044
1048,15.58058099
1049,15.58796882
1050,15.60948242
1051,15.60231453
1052,15.62884321
1053,15.59494662
1054,15.60498501
1055,15.56577083
1056,15.63303921
1057,15.60194386
1058,15.60238812
1059,15.59814316
1060,15.6263331
1061,15.58459707
1062,15.59243669
1063,15.60295855
1064,15.57894617
1065,15.59443359
1066,15.60372879
1067,15.607399
1068,15.61226772
1069,15.59971019
1070,15.59110805
1071,15.60118414
1072,15.61934924
1073,15.60526675
1074,15.58905457
1075,15.60583906
1076,15.60809629
1077,15.60471167
1078,15.62216779
1079,15.59145195
1080,15.58006979
1081,15.61813929
1082,15.59600761
1083,15.6095354
1084,15.61384278
1085,15.58357284
1086,15.59464991
1087,15.59638495
1088,15.62799687
1089,15.642589
1090,15.61623757
1091,15.6293316
1092,15.607371
1093,15.67405832
1094,15.61385299
1095,15.63957461
1096,15.67714971
1097,15.62107975
1098,15.65060903
1099,15.66892428
1100,15.66799256
1101,15.67256927
1102,15.70060176
1103,15.70603914
1104,15.72048606
1105,15.72109938
1106,15.73189509
1107,15.78437892
1108,15.77302579
1109,15.77782696
1110,15.78683985
1111,15.81528112
1112,15.79690159
1113,15.83101786
1114,15.86805773
1115,15.86904883
1116,15.90173105
1117,15.90312271
1118,15.89888761
1119,15.98587621
1120,15.95855627
1121,15.95278007
1122,16.0051864
1123,16.0091785
1124,16.01619596
1125,16.04970007
1126,16.02195831
1127,16.0467724
1128,16.07303647
1129,16.05009566
1130,16.05664289
1131,16.07392732
1132,16.07596554
1133,16.0960193
1134,16.09402215
1135,16.10706835
1136,16.11859564
1137,16.07395233
1138,16.08783299
1139,16.07955444
1140,16.08472573
1141,16.04367414
1142,16.06690715
1143,16.03213825
1144,16.05720098
1145,16.02619872
1146,16.01053407
1147,15.96965992
1148,15.95889538
1149,15.98284614
1150,15.95095665
1151,15.95050868
1152,15.92040959
1153,15.92033501
1154,15.90630239
1155,15.87646941
1156,15.87298495
1157,15.86247859
1158,15.79735673
1159,15.82021928
1160,15.80383324
1161,15.79507111
1162,15.74886524
1163,15.75003678
1164,15.76742861
1165,15.74079781
1166,15.70090607
1167,15.71158782
1168,15.68517965
1169,15.68043034
1170,15.68947269
1171,15.6834901
1172,15.64843729
1173,15.65078054
1174,15.65199015
1175,15.64398615
1176,15.62851631
1177,15.63638974
1178,15.63689769
1179,15.63200871
1180,15.61539575
1181,15.60926664
1182,15.61990885
1183,15.58416821
1184,15.62382739
1185,15.60019261
1186,15.60472252
1187,15.60313847
1188,15.60329904
1189,15.59828038
1190,15.57414519
1191,15.60936668
1192,15.6004026
1193,15.62880966
1194,15.58760185
1195,15.59596666
1196,15.62608214
1197,15.60165797
1198,15.58264957
1199,15.61132795
1200,15.58480276
1201,15.62211898
1202,15.60080387
1203,15.5941238
1204,15.56654075
1205,15.59362821
1206,15.59188403
1207,15.62951884
1208,15.59035378
1209,15.59044713
1210,15.6163499
1211,15.60874098
1212,15.59267077
1213,15.61670162
1214,15.57126938
1215,15.60862293
1216,15.60916252
1217,15.60055166
1218,15.59141166
1219,15.58640534
1220,15.60488611
1221,15.56921739
1222,15.61712635
1223,15.61431624
1224,15.5999361
1225,15.59981126
1226,15.56784097
1227,15.59208692
1228,15.56634353
1229,15.5715791
1230,15.61506764
1231,15.58987108
1232,15.59129984
1233,15.59683624
1234,15.59061631
1235,15.59355093
1236,15.62245941
1237,15.60178741
1238,15.59842403
1239,15.59955444
1240,15.58671475
1241,15.62012559
1242,15.60700687
1243,15.61084995
1244,15.58767
1245,15.60346392
1246,15.58123912
1247,15.60824678
1248,15.61259982
1249,15.60776331
1250,15.59280289
1251,15.60492128
1252,15.61117037
1253,15.61966007
1254,15.59979744
1255,15.6280626
1256,15.60830749
1257,15.60652942
1258,15.61027548
1259,15.58139556
1260,15.58263556
1261,15.62841719
1262,15.60100463
1263,15.60230595
1264,15.60419144
1265,15.60732015
1266,15.59066207
1267,15.60959766
1268,15.61647101
1269,15.59275501
1270,15.58445838
1271,15.61188966
1272,15.5955311
1273,15.59873418
1274,15.63408568
1275,15.59844498
1276,15.61674151
1277,15.61984634
1278,15.59097378
1279,15.60587866
1280,15.60563566
1281,15.58857565
1282,15.58073302
1283,15.58651211
1284,15.60551598
1285,15.59861953
1286,15.61698324
1287,15.60562675
1288,15.59131317
1289,15.58641845
1290,15.59180215
1291,15.60605284
1292,15.59378865
1293,15.62110296
1294,15.62012388
1295,15.5953012
1296,15.60015524
1297,15.59404064
1298,15.59171179
1299,15.61475926
1300,15.56553673
1301,15.61094003
1302,15.63527325
1303,15.61561653
1304,15.57912124
1305,15.60297223
1306,15.58886739
1307,15.55672309
1308,15.59304768
1309,15.60756924
1310,15.60786374
1311,15.59082832
1312,15.61445679
1313,15.59490406
1314,15.59297484
1315,15.59118111
1316,15.59494197
1317,15.62901409
1318,15.63957479
1319,15.61626203
1320,15.60432851
1321,15.60959906
1322,15.60338712
1323,15.59949472
1324,15.58234112
1325,15.59947297
1326,15.59392321
1327,15.59268486
1328,15.62980116
1329,15.58561481
1330,15.59857785
1331,15.58320679
1332,15.59832201
1333,15.61954352
1334,15.626631
1335,15.57580972
1336,15.5867971
1337,15.58638664
1338,15.62515769
1339,15.58665262
1340,15.58263078
1341,15.59735789
1342,15.60231015
1343,15.6153715
1344,15.61251571
1345,15.60845316
1346,15.58519033
1347,15.61707738
1348,15.59813881
1349,15.59079551
1350,15.61157438
1351,15.60163647
1352,15.5921367
1353,15.6196795
1354,15.62605195
1355,15.61579243
1356,15.57932898
1357,15.57381756
1358,15.59146675
1359,15.62487648
1360,15.60965299
1361,15.59232584
1362,15.59966479
1363,15.58850391
1364,15.5905922
1365,15.61596174
1366,15.59430772
1367,15.59844558
1368,15.60473527
1369,15.60925127
1370,15.61235021
1371,15.62605814
1372,15.62529145
1373,15.6012013
1374,15.58265848
1375,15.56884173
1376,15.61094652
1377,15.63617818
1378,15.60558744
1379,15.57530429
1380,15.6241142
1381,15.59652537
1382,15.59093864
1383,15.59300894
1384,15.59198278
1385,15.625834
1386,15.58455223
1387,15.61344205
1388,15.61743318
1389,15.59420073
1390,15.61411901
1391,15.595071
1392,15.5993222
1393,15.61851304
1394,15.59094112
1395,15.61215957
1396,15.58206722
1397,15.57754064
1398,15.60945427
1399,15.60747769
1400,15.62799274
1401,15.59990758
1402,15.60970603
1403,15.60973717
1404,15.59917569
1405,15.62564765
1406,15.62600721
1407,15.62016563
1408,15.58017742
1409,15.60006158
1410,15.60232374
1411,15.580811
1412,15.60477395
1413,15.61034194
1414,15.57284241
1415,15.58861329
1416,15.60374493
1417,15.6134943
1418,15.63087431
1419,15.60946257
1420,15.60075179
1421,15.59482236
1422,15.57928755
1423,15.60964988
1424,15.62665655
1425,15.63816955
1426,15.56693544
1427,15.61833122
1428,15.57478203
1429,15.61351621
1430,15.56827274
1431,15.58366785
1432,15.60318439
1433,15.5772436
1434,15.59864936
1435,15.59135262
1436,15.60397335
1437,15.63695059
1438,15.60063231
1439,15.60450586
1440,15.61188263
1441,15.59181339
1442,15.58063584
1443,15.63202056
1444,15.60677088
1445,15.60795548
1446,15.61662901
1447,15.62727397
1448,15.55747105
1449,15.5921339
1450,15.59319866
1451,15.61162674
1452,15.58358435
1453,15.6052527
1454,15.60738129
1455,15.61986996
1456,15.60926684
1457,15.59554253
1458,15.61242688
1459,15.60146203
1460,15.60300325
1461,15.60966818
1462,15.60996955
1463,15.57998498
1464,15.61142727
1465,15.58910376
1466,15.61223108
1467,15.61869003
1468,15.56323731
1469,15.6174104
1470,15.62389101
1471,15.58827316
1472,15.61332928
1473,15.57108642
1474,15.60406516
1475,15.58443678
1476,15.58704812
1477,15.59254929
1478,15.59229616
1479,15.58922257
1480,15.61110496
1481,15.62816076
1482,15.59176419
1483,15.60979499
1484,15.58126861
1485,15.61538423
1486,15.57824518
1487,15.61694129
1488,15.61639579
1489,15.5835769
1490,15.59050168
1491,15.60203697
1492,15.59811114
1493,15.60480698
1494,15.59839275
1495,15.58797691
1496,15.60455685
1497,15.61365446
1498,15.6130092
1499,15.60837534
1500,15.60736651
1501,15.58908033
1502,15.62532485
1503,15.59407021
1504,15.60440332
1505,15.6229085
1506,15.58013478
1507,15.60471585
1508,15.60564634
1509,15.58985408
1510,15.62526528
1511,15.60367165
1512,15.58603294
1513,15.60387007
1514,15.59995145
1515,15.59942609
1516,15.59441303
1517,15.57450007
1518,15.61303626
1519,15.59269889
1520,15.56451113
1521,15.58633196
1522,15.59675656
1523,15.60203801
1524,15.62538951
1525,15.62208848
1526,15.61283635
1527,15.62208638
1528,15.61745909
1529,15.59937325
1530,15.62750891
1531,15.59866639
1532,15.58668424
1533,15.60219411
1534,15.58181038
1535,15.60266627
1536,15.61257451
1537,15.60504093
1538,15.61471913
1539,15.6334251
1540,15.62608675
1541,15.57681186
1542,15.60059088
1543,15.59822692
1544,15.59516209
1545,15.61309105
1546,15.5866174
1547,15.60214745
1548,15.58551557
1549,15.60816618
1550,15.60299974
1551,15.62062608
1552,15.60159008
1553,15.62727075
1554,15.59956506
1555,15.56877773
1556,15.588735
1557,15.58753417
1558,15.59347903
1559,15.55642784
1560,15.6185391
1561,15.60862533
1562,15.59912683
1563,15.59607131
1564,15.59723303
1565,15.58228947
1566,15.61993239
1567,15.6141938
1568,15.59774134
1569,15.6218199
1570,15.59284525
1571,15.61038152
1572,15.62854199
1573,15.61195596
1574,15.59261419
1575,15.60643928
1576,15.61834298
1577,15.60980298
1578,15.5984519
1579,15.6236544
1580,15.61962403
1581,15.58335376
1582,15.61871777
1583,15.61156043
1584,15.61201096
1585,15.61418361
1586,15.63502501
1587,15.58620034
1588,15.6017917
1589,15.58108314
1590,15.59789945
1591,15.59179209
1592,15.58826224
1593,15.58422495
1594,15.60050709
1595,15.59654013
1596,15.59772487
1597,15.59466852
1598,15.60524719
1599,15.60093273
1600,15.58114421
1601,15.61956831
1602,15.6076539
1603,15.59605858
1604,15.62650201
1605,15.61550346
1606,15.59527014
1607,15.58527586
1608,15.61495599
1609,15.5977743
1610,15.6097615
1611,15.58728576
1612,15.6127582
1613,15.59313037
1614,15.5929515
1615,15.57838254
1616,15.57528603
1617,15.63059252
1618,15.59573306
1619,15.58585599
1620,15.60333461
1621,15.58618983
1622,15.60674459
1623,15.60808101
1624,15.59922104
1625,15.60239501
1626,15.6119989
1627,15.58804988
1628,15.59782375
1629,15.61073394
1630,15.60742285
1631,15.6248793
1632,15.61363451
1633,15.58659936
1634,15.61068799
1635,15.61371167
1636,15.60481095
1637,15.6162226
1638,15.58418922
1639,15.60188652
1640,15.62718244
1641,15.60286373
1642,15.61071481
1643,15.6067149
1644,15.61552107
1645,15.59467543
1646,15.60624113
1647,15.60785665
1648,15.59576567
1649,15.62634829
1650,15.58749162
1651,15.59376697
1652,15.59469084
1653,15.59881843
1654,15.61278499
1655,15.60498517
1656,15.5941717
1657,15.5950072
1658,15.60856334
1659,15.59822986
1660,15.59080982
1661,15.62110864
1662,15.59864528
1663,15.62906471
1664,15.59788272
1665,15.5931848
1666,15.60534945
1667,15.5910656
1668,15.58680977
1669,15.60937986
1670,15.5991076
1671,15.6064025
1672,15.5932177
1673,15.56817478
1674,15.58014485
1675,15.58499501
1676,15.61120877
1677,15.57969215
1678,15.61135456
1679,15.57606888
1680,15.58863357
1681,15.59908157
1682,15.59273804
1683,15.58997656
1684,15.61691195
1685,15.61043053
1686,15.58062302
1687,15.61173038
1688,15.63416224
1689,15.62173955
1690,15.6180499
1691,15.60870323
1692,15.61018541
1693,15.6294527
1694,15.59091568
1695,15.5873284
1696,15.61246002
1697,15.60106437
1698,15.60287604
1699,15.58805748
1700,15.59433474
1701,15.56567937
1702,15.58752667
1703,15.59338347
1704,15.58718074
1705,15.6044252
1706,15.61298774
1707,15.5913974
1708,15.57692689
1709,15.59804891
1710,15.58615455
1711,15.60603499
1712,15.60174394
1713,15.60763387
1714,15.61839931
1715,15.60086204
1716,15.5888686
1717,15.61876147
1718,15.59294275
1719,15.61006516
1720,15.59810854
1721,15.590277
1722,15.56697058
1723,15.5890418
1724,15.59882769
1725,15.58692346
1726,15.59702079
1727,15.58811224
1728,15.60661536
1729,15.61055933
1730,15.59748454
1731,15.59323008
1732,15.59185131
1733,15.62427245
1734,15.63573231
1735,15.59323997
1736,15.61955006
1737,15.59158656
1738,15.60187614
1739,15.57398159
1740,15.54646388
1741,15.59237542
1742,15.59423373
1743,15.61009661
1744,15.57332537
1745,15.56577888
1746,15.59912374
1747,15.62379924
1748,15.60974156
1749,15.61095008
1750,15.60323088
1751,15.60308013
1752,15.5920715
1753,15.60855358
1754,15.57453931
1755,15.6056404
1756,15.5705913
1757,15.61130669
1758,15.61749093
1759,15.58061609
1760,15.61469152
1761,15.61360854
1762,15.59141559
1763,15.58399924
1764,15.62050253
1765,15.58085378
1766,15.59083434
1767,15.58258146
1768,15.58016769
1769,15.60718377
1770,15.59622679
1771,15.58139104
1772,15.60496358
1773,15.61535206
1774,15.57788529
1775,15.6112126
1776,15.62337275
1777,15.61598988
1778,15.61369954
1779,15.6206651
1780,15.63008097
1781,15.61653549
1782,15.56743488
1783,15.60434222
1784,15.61181079
1785,15.61386649
1786,15.57856903
1787,15.59206103
1788,15.60230014
1789,15.60681769
1790,15.59913261
1791,15.61336144
1792,15.61666964
1793,15.59082981
1794,15.60923071
1795,15.59507331
1796,15.59425705
1797,15.61522263
1798,15.60922626
1799,15.60451378
1800,15.58414412
1801,15.61758702
1802,15.60695563
1803,15.59675514
1804,15.6041007
1805,15.61905602
1806,15.61626029
1807,15.5993052
1808,15.61370379
1809,15.5984166
1810,15.62464094
1811,15.59894439
1812,15.6241907
1813,15.57663616
1814,15.59353054
1815,15.62295076
1816,15.61906325
1817,15.56857869
1818,15.61165342
1819,15.59007007
1820,15.60153804
1821,15.61630737
1822,15.61094116
1823,15.6105506
1824,15.5796492
1825,15.58125146
1826,15.61685562
1827,15.60566529
1828,15.60307894
1829,15.60729525
1830,15.58707378
1831,15.60258761
1832,15.59410046
1833,15.58528799
1834,15.59357345
1835,15.59339435
1836,15.57073293
1837,15.61638172
1838,15.59573956
1839,15.59418691
1840,15.59581769
1841,15.6112623
1842,15.59826343
1843,15.58596772
1844,15.59410905
1845,15.60195045
1846,15.60495361
1847,15.59627595
1848,15.60650703
1849,15.6241838
1850,15.6090573
1851,15.61866564
1852,15.59166704
1853,15.59253704
1854,15.63407491
1855,15.61448671
1856,15.6089077
1857,15.60030138
1858,15.60407863
1859,15.6200056
1860,15.6041393
1861,15.58906155
1862,15.59014164
1863,15.59883808
1864,15.59772772
1865,15.58734492
1866,15.60554542
1867,15.59783444
1868,15.5921284
1869,15.58260551
1870,15.57718518
1871,15.5792648
1872,15.60655297
1873,15.62734649
1874,15.62747902
1875,15.59289264
1876,15.58530126
1877,15.61659272
1878,15.58807498
1879,15.60264397
1880,15.59896587
1881,15.60529896
1882,15.60015398
1883,15.58279819
1884,15.58369642
1885,15.60116508
1886,15.60809757
1887,15.59222473
1888,15.61092737
1889,15.6219189
1890,15.59279309
1891,15.57065515
1892,15.58435117
1893,15.61564118
1894,15.60335694
1895,15.59325307
1896,15.60128358
1897,15.5992045
1898,15.60813006
1899,15.56851288
1900,15.59365743
1901,15.6298853
1902,15.63289855
1903,15.60308236
1904,15.57787065
1905,15.59516636
1906,15.60222043
1907,15.62184539
1908,15.58935041
1909,15.57843344
1910,15.58127828
1911,15.61507775
1912,15.59338605
1913,15.6112748
1914,15.62750989
1915,15.61525426
1916,15.617635
1917,15.59829598
1918,15.57759499
1919,15.59978773
1920,15.60042976
1921,15.60221568
1922,15.59967021
1923,15.59446079
1924,15.60175043
1925,15.63595506
1926,15.59979909
1927,15.60619519
1928,15.58060526
1929,15.60651599
1930,15.58175619
1931,15.59621574
1932,15.58873361
1933,15.59412007
1934,15.62521902
1935,15.58823338
1936,15.60331509
1937,15.61790165
1938,15.57831333
1939,15.61154519
1940,15.57012153
1941,15.61957633
1942,15.59211381
1943,15.60616042
1944,15.5875103
1945,15.60630061
1946,15.62626268
1947,15.59606268
1948,15.60682372
1949,15.60174286
1950,15.61195333
1951,15.59154703
1952,15.59365537
1953,15.60238896
1954,15.59594177
1955,15.59106823
1956,15.6121486
1957,15.61478003
1958,15.58299768
1959,15.57632156
1960,15.604146
1961,15.62721379
1962,15.59710886
1963,15.59124075
1964,15.59097564
1965,15.59324108
1966,15.57558276
1967,15.59027858
1968,15.63595622
1969,15.61276599
1970,15.625846
1971,15.56584923
1972,15.57344992
1973,15.62237356
1974,15.58030771
1975,15.59451386
1976,15.60085305
1977,15.60206525
1978,15.60219511
1979,15.59928725
1980,15.61171867
1981,15.59664052
1982,15.59708226
1983,15.60146053
1984,15.57350382
1985,15.60103177
1986,15.63271057
1987,15.60083687
1988,15.61288225
1989,15.57906034
1990,15.6085873
1991,15.58994195
1992,15.59720062
1993,15.59238025
1994,15.62073145
1995,15.60764551
1996,15.60046738
1997,15.6103343
1998,15.59830717
1999,15.59528029
2000,15.58965775
2001,15.60316813
2002,15.58905584
2003,15.58859583
2004,15.59126869
2005,15.62417165
2006,15.58668923
2007,15.59830651
2008,15.57718988
2009,15.6081986
2010,15.61648863
2011,15.61059104
2012,15.58619652
2013,15.59815766
2014,15.60693651
2015,15.58450902
2016,15.62341889
2017,15.5871501
2018,15.57580381
2019,15.59670802
2020,15.63994662
2021,15.59833041
2022,15.60893221
2023,15.5897525
2024,15.59333696
2025,15.62557452
2026,15.58879073
2027,15.62066882
2028,15.62768328
2029,15.57986631
2030,15.61144049
2031,15.59201256
2032,15.5944705
2033,15.58673472
2034,15.59348568
2035,15.60376027
2036,15.60936151
2037,15.58976142
2038,15.62062762
2039,15.59806799
2040,15.58812674
2041,15.58860282
2042,15.61992657
2043,15.61777624
2044,15.6249641
2045,15.5932287
2046,15.60757573
2047,15.59793428
2048,15.5916693
2049,15.58660728
2050,15.59294177
2051,15.58789983
2052,15.56612122
2053,15.59882043
2054,15.59602861
2055,15.5562764
2056,15.59663248
2057,15.59158719
2058,15.62551279
2059,15.62482525
2060,15.58606836
2061,15.58584021
2062,15.59895279
2063,15.56231542
2064,15.59417168
2065,15.60452694
2066,15.6069979
2067,15.64146611
2068,15.58065885
2069,15.6104979
2070,15.59816372
2071,15.62691211
2072,15.6230671
2073,15.61177032
2074,15.61764661
2075,15.56339414
2076,15.59819084
2077,15.58969853
2078,15.57495754
2079,15.57117881
2080,15.60915711
2081,15.58609841
2082,15.58340767
2083,15.61311546
2084,15.60885423
2085,15.59421557
2086,15.59724197
2087,15.60056755
2088,15.59854656
2089,15.62638922
2090,15.60250647
2091,15.57713126
2092,15.57182897
2093,15.60218459
2094,15.6204561
2095,15.60900261
2096,15.6064108
2097,15.58759073
2098,15.59796684
2099,15.61174418
2100,15.60970085
2101,15.61462677
2102,15.59022986
2103,15.59919135
2104,15.587311
2105,15.61647809
2106,15.59658097
2107,15.60723132
2108,15.60554883
2109,15.60522272
2110,15.62037695
2111,15.59896899
2112,15.58489352
2113,15.60860293
2114,15.59031324
2115,15.56587521
2116,15.60409153
2117,15.60398576
2118,15.59491925
2119,15.63168045
2120,15.61745057
2121,15.59667896
2122,15.59198366
2123,15.58476282
2124,15.57419921
2125,15.601413
2126,15.61182252
2127,15.59233937
2128,15.58395112
2129,15.62592642
2130,15.58025774
2131,15.61874443
2132,15.6002828
2133,15.63532657
2134,15.55454158
2135,15.58406154
2136,15.58311253
2137,15.61439055
2138,15.5803089
2139,15.60120113
2140,15.58382975
2141,15.5992845
2142,15.60430613
2143,15.59623223
2144,15.62208376
2145,15.62153623
2146,15.59460858
2147,15.59094778
2148,15.59572858
2149,15.60897876
2150,15.57478263
2151,15.59967486
2152,15.58458476
2153,15.58152313
2154,15.60688493
2155,15.58598834
2156,15.61937387
2157,15.58344669
2158,15.59890382
2159,15.60521196
2160,15.62699085
2161,15.5951807
2162,15.58247946
2163,15.59487033
2164,15.60144301
2165,15.58887646
2166,15.639638
2167,15.57903961
2168,15.58832279
2169,15.59750684
2170,15.6223861
2171,15.58334239
2172,15.58898342
2173,15.60855166
2174,15.60481092
2175,15.57639868
2176,15.59039443
2177,15.58240405
2178,15.60815246
2179,15.57643399
2180,15.60796753
2181,15.59942067
2182,15.6146708
2183,15.58685717
2184,15.6099604
2185,15.61810694
2186,15.5884594
2187,15.63162362
2188,15.57726903
2189,15.57532183
2190,15.56800731
2191,15.62296725
2192,15.58872092
2193,15.59306646
2194,15.59749155
2195,15.59990272
2196,15.58600603
2197,15.59065442
2198,15.59646307
2199,15.59777437
2200,15.60209885
2201,15.59787984
2202,15.60874654
2203,15.61988352
2204,15.59483804
2205,15.61288405
2206,15.61662949
2207,15.5843113
2208,15.61353253
2209,15.61732906
2210,15.6250367
2211,15.57124967
2212,15.57949572
2213,15.59977398
2214,15.61404613
2215,15.58807823
2216,15.58393309
2217,15.60411256
2218,15.60612073
2219,15.59038746
2220,15.60342612
2221,15.61077234
2222,15.59727708
2223,15.5852277
2224,15.59921754
2225,15.58945164
2226,15.58992606
2227,15.57891528
2228,15.59218596
2229,15.58656331
2230,15.61572723
2231,15.59720957
2232,15.58631346
2233,15.60807111
2234,15.57510133
2235,15.60273048
2236,15.62084304
2237,15.60676167
2238,15.6065631
2239,15.5981621
2240,15.59283179
2241,15.60013331
2242,15.59782715
2243,15.61489379
2244,15.58920624
2245,15.59196786
2246,15.5929852
2247,15.59377531
2248,15.5991499
2249,15.59841225
2250,15.60280467
2251,15.61517996
2252,15.60052022
2253,15.60336563
2254,15.58618693
2255,15.59976931
2256,15.61303812
2257,15.60716358
2258,15.57732311
2259,15.61331512
2260,15.59504033
2261,15.60351202
2262,15.60869655
2263,15.60338715
2264,15.5831767
2265,15.61794186
2266,15.59129978
2267,15.61981948
2268,15.58851068
2269,15.60466672
2270,15.57387981
2271,15.6201705
2272,15.61969714
2273,15.61783794
2274,15.61452648
2275,15.59645696
2276,15.57694834
2277,15.60514108
2278,15.59674009
2279,15.59495389
2280,15.6137095
2281,15.60493658
2282,15.57622843
2283,15.59457067
2284,15.58589478
2285,15.59663497
2286,15.59924548
2287,15.59476093
2288,15.59606563
2289,15.57187836
2290,15.60779409
2291,15.58756132
2292,15.57791536
2293,15.58120602
2294,15.60473797
2295,15.61443659
2296,15.61264109
2297,15.58727477
2298,15.59221208
2299,15.57357414
2300,15.62543389
2301,15.6203907
2302,15.60992031
2303,15.59618337
2304,15.60624322
2305,15.60508328
2306,15.6035211
2307,15.58589742
2308,15.58931598
2309,15.61174949
2310,15.58581875
2311,15.61701671
2312,15.59437531
2313,15.62631487
2314,15.58753387
2315,15.58688362
2316,15.59206259
2317,15.60753401
2318,15.58601369
2319,15.59799317
2320,15.58608801
2321,15.6234302
2322,15.58186527
2323,15.60560172
2324,15.6016956
2325,15.58166741
2326,15.61307853
2327,15.57716974
2328,15.61419627
2329,15.58802715
2330,15.60699606
2331,15.61144895
2332,15.60652317
2333,15.60749131
2334,15.62179387
2335,15.59746093
2336,15.61487031
2337,15.60186163
2338,15.60526047
2339,15.5860216
2340,15.59632885
2341,15.58666045
2342,15.59373154
2343,15.6212113
2344,15.59713639
2345,15.61404747
2346,15.60104156
2347,15.58491171
2348,15.62389088
2349,15.61875191
2350,15.60424204
2351,15.61485039
2352,15.5999998
2353,15.64781583
2354,15.59571913
2355,15.60318919
2356,15.60055068
2357,15.60171031
2358,15.60223711
2359,15.59660351
2360,15.58259705
2361,15.62241019
2362,15.59813801
2363,15.61164798
2364,15.60451865
2365,15.58060464
2366,15.61328571
2367,15.57764162
2368,15.60114428
2369,15.61313662
2370,15.60566546
2371,15.59282974
2372,15.58662882
2373,15.60647499
2374,15.62104473
2375,15.61991583
2376,15.61587655
2377,15.60845693
2378,15.60298208
2379,15.59804597
2380,15.6262833
2381,15.5769549
2382,15.60044806
2383,15.58773613
2384,15.61827267
2385,15.59488078
2386,15.61372524
2387,15.6271195
2388,15.58804247
2389,15.58275308
2390,15.57599884
2391,15.58194447
2392,15.57134334
2393,15.5793392
2394,15.57669621
2395,15.59801694
2396,15.60979082
2397,15.58936368
2398,15.62505779
2399,15.56171714
2400,15.57993376
2401,15.57271712
2402,15.57961924
2403,15.59348518
2404,15.59573912
2405,15.60503301
2406,15.57594588
2407,15.60534053
2408,15.61501609
2409,15.59809968
2410,15.58497123
2411,15.58471616
2412,15.61306969
2413,15.59944184
2414,15.59755691
2415,15.61942785
2416,15.61938954
2417,15.61368958
2418,15.61519148
2419,15.60675137
2420,15.6012974
2421,15.5983542
2422,15.59888786
2423,15.59351612
2424,15.58867252
2425,15.59692212
2426,15.58006571
2427,15.59391777
2428,15.61190483
2429,15.60116132
2430,15.60512165
2431,15.60361333
2432,15.59048542
2433,15.58377691
2434,15.59905865
2435,15.61991128
2436,15.5760605
2437,15.60320896
2438,15.58058663
2439,15.60443818
2440,15.58751811
2441,15.59524803
2442,15.57000126
2443,15.64200014
2444,15.58940164
2445,15.57238423
2446,15.57453382
2447,15.61697519
2448,15.60541283
2449,15.61215222
2450,15.59637185
2451,15.57406314
2452,15.60385983
2453,15.58775344
2454,15.59499903
2455,15.60490884
2456,15.60979996
2457,15.61418175
2458,15.64095481
2459,15.58687233
2460,15.56483811
2461,15.60046822
2462,15.606175
2463,15.60466652
2464,15.60721699
2465,15.57538529
2466,15.62789045
2467,15.59909448
2468,15.60326452
2469,15.57115004
2470,15.58896869
2471,15.59019502
2472,15.60227768
2473,15.61585447
2474,15.57714651
2475,15.60682249
2476,15.60703965
2477,15.59733304
2478,15.61145966
2479,15.57825056
2480,15.61482609
2481,15.61691235
2482,15.62301627
2483,15.59823431
2484,15.58604378
2485,15.58007177
2486,15.63362923
2487,15.61534699
2488,15.60752386
2489,15.6217149
2490,15.61741705
2491,15.58251151
2492,15.60282091
2493,15.62408464
2494,15.59047226
2495,15.58313045
2496,15.61312119
2497,15.60478726
2498,15.61444626
2499,15.6029608
2500,15.57769393
2501,15.61378442
2502,15.60392585
2503,15.60349348
2504,15.60223948
2505,15.61166055
2506,15.60816875
2507,15.60208105
2508,15.60080183
2509,15.5749941
2510,15.5951161
2511,15.59071582
2512,15.61689301
2513,15.590355
2514,15.58621361
2515,15.58980766
2516,15.58711158
2517,15.60539539
2518,15.59576359
2519,15.61017627
2520,15.59648317
2521,15.60508457
2522,15.6059395
2523,15.58355023
2524,15.64050401
2525,15.59404535
2526,15.58288219
2527,15.59131289
2528,15.5915584
2529,15.6026162
2530,15.58450378
2531,15.59671701
2532,15.58953694
2533,15.58699036
2534,15.58743054
2535,15.62483618
2536,15.57877364
2537,15.59586585
2538,15.56813258
2539,15.61040112
2540,15.58486659
2541,15.60544569
2542,15.5852954
2543,15.63421626
2544,15.60034904
2545,15.57019994
2546,15.5934264
2547,15.57715509
2548,15.59057651
2549,15.60102217
2550,15.5660986
2551,15.61764247
2552,15.62767551
2553,15.58468604
2554,15.60765301
2555,15.59787589
2556,15.58881769
2557,15.59737994
2558,15.6306759
2559,15.61116628
2560,15.62141603
2561,15.59889527
2562,15.60024002
2563,15.61407425
2564,15.58969867
2565,15.57894128
2566,15.59608489
2567,15.58925883
2568,15.59973185
2569,15.59359709
2570,15.595275
2571,15.62053967
2572,15.5995728
2573,15.58921052
2574,15.61122026
2575,15.57792061
2576,15.62025749
2577,15.59265526
2578,15.6112784
2579,15.5957729
2580,15.59049316
2581,15.57525952
2582,15.61524687
2583,15.62436295
2584,15.58286644
2585,15.59009919
2586,15.60083562
2587,15.60468925
2588,15.61509809
2589,15.61911439
2590,15.58573509
2591,15.5947891
2592,15.59434502
2593,15.60798973
2594,15.59571768
2595,15.59272294
2596,15.61385617
2597,15.60897142
2598,15.58585017
2599,15.5770831
2600,15.59649516
2601,15.60341108
2602,15.61099723
2603,15.60346168
2604,15.58950358
2605,15.5973173
2606,15.61140949
2607,15.60643635
2608,15.61360395
2609,15.60351293
2610,15.60245257
2611,15.57492279
2612,15.58187002
2613,15.59620333
2614,15.59071686
2615,15.58324914
2616,15.57721242
2617,15.5936373
2618,15.62611294
2619,15.59487133
2620,15.59825469
2621,15.60821963
2622,15.61202533
2623,15.64048788
2624,15.59623154
2625,15.5912743
2626,15.60307893
2627,15.61862771
2628,15.59674866
2629,15.58645586
2630,15.60599215
2631,15.59170002
2632,15.55669571
2633,15.57342814
2634,15.57150413
2635,15.60269048
2636,15.60219739
2637,15.62243457
2638,15.61408592
2639,15.60726359
2640,15.60227464
2641,15.59811753
2642,15.61638771
2643,15.58904859
2644,15.61149692
2645,15.58299274
2646,15.60849993
2647,15.63082292
2648,15.59034774
2649,15.62383009
2650,15.58560304
2651,15.59384521
2652,15.5962194
2653,15.61052404
2654,15.59431189
2655,15.61314216
2656,15.61458494
2657,15.60524575
2658,15.6186406
2659,15.59565964
2660,15.58897157
2661,15.5956565
2662,15.59095509
2663,15.58334353
2664,15.58709708
2665,15.58525544
2666,15.60259867
2667,15.62867468
2668,15.62624624
2669,15.570128
2670,15.61042671
2671,15.60882874
2672,15.60771903
2673,15.60867699
2674,15.58625318
2675,15.61044638
2676,15.61667578
2677,15.62016106
2678,15.58826033
2679,15.62615911
2680,15.56237597
2681,15.59330697
2682,15.60646775
2683,15.5923031
2684,15.58215154
2685,15.5781166
2686,15.59235988
2687,15.60981134
2688,15.59711427
2689,15.59389212
2690,15.61368551
2691,15.6051764
2692,15.58085816
2693,15.5993661
2694,15.56675966
2695,15.60484217
2696,15.58553979
2697,15.62513277
2698,15.59996976
2699,15.59917065
2700,15.62221059
2701,15.58551772
2702,15.59405223
2703,15.59736839
2704,15.60885867
2705,15.60399952
2706,15.60374393
2707,15.60295908
2708,15.60282603
2709,15.61718118
2710,15.59291839
2711,15.594898
2712,15.61006949
2713,15.6028239
2714,15.60262839
2715,15.58743563
2716,15.60240779
2717,15.61033328
2718,15.60840177
2719,15.57895897
2720,15.5813531
2721,15.61473336
2722,15.61080457
2723,15.59977825
2724,15.59612301
2725,15.61068483
2726,15.6357674
2727,15.58525828
2728,15.59889832
2729,15.59711408
2730,15.60905465
2731,15.60975141
2732,15.61429968
2733,15.59736129
2734,15.60525653
2735,15.60157349
2736,15.57478187
2737,15.61148685
2738,15.59777143
2739,15.57532993
2740,15.60728949
2741,15.60719544
2742,15.61174305
2743,15.6119855
2744,15.59730377
2745,15.61280589
2746,15.58056888
2747,15.59672592
2748,15.60750557
2749,15.59339306
2750,15.59757111
2751,15.57642942
2752,15.60216257
2753,15.60730643
2754,15.60568659
2755,15.62097242
2756,15.58699518
2757,15.59172994
2758,15.57174274
2759,15.57625914
2760,15.58195745
2761,15.59355441
2762,15.58154479
2763,15.61397996
2764,15.61083784
2765,15.61850657
2766,15.6007795
2767,15.62008344
2768,15.61212567
2769,15.59188044
2770,15.61232133
2771,15.58081179
2772,15.61891399
2773,15.59454345
2774,15.58940433
2775,15.58262238
2776,15.62221953
2777,15.60436095
2778,15.59435144
2779,15.60344578
2780,15.60899235
2781,15.5798817
2782,15.57379061
2783,15.59142507
2784,15.60926196
2785,15.57887996
2786,15.58336199
2787,15.59013403
2788,15.59957988
2789,15.62594313
2790,15.59565445
2791,15.58761291
2792,15.59089405
2793,15.5885599
2794,15.6166246
2795,15.59129976
2796,15.59516505
2797,15.60267496
2798,15.60314136
2799,15.58860538
2800,15.60091321
2801,15.57366302
2802,15.60388548
2803,15.60085929
2804,15.58383461
2805,15.60130588
2806,15.59644254
2807,15.61453924
2808,15.59824494
2809,15.58988542
2810,15.59374794
2811,15.60502132
2812,15.60434892
2813,15.61864174
2814,15.6158037
2815,15.60686905
2816,15.60203622
2817,15.62631706
2818,15.62148949
2819,15.59822924
2820,15.61368805
2821,15.60321635
2822,15.59034446
2823,15.60343199
2824,15.59660183
2825,15.60422497
2826,15.59783326
2827,15.58410216
2828,15.5920684
2829,15.60899565
2830,15.61520297
2831,15.60831281
2832,15.60009766
2833,15.57833574
2834,15.60472892
2835,15.59172595
2836,15.5918441
2837,15.59070604
2838,15.59828623
2839,15.60520068
2840,15.6165781
2841,15.60925074
2842,15.60983312
2843,15.60169221
2844,15.58059101
2845,15.61141505
2846,15.61707249
2847,15.61553394
2848,15.59329759
2849,15.56964646
2850,15.60045237
2851,15.62347403
2852,15.59806415
2853,15.60232033
2854,15.58626582
2855,15.58574022
2856,15.58514334
2857,15.5759778
2858,15.58235814
2859,15.607034
2860,15.57853964
2861,15.61990752
2862,15.60529159
2863,15.63123429
2864,15.59699754
2865,15.60092933
2866,15.61399779
2867,15.59858744
2868,15.61466807
2869,15.60837607
2870,15.61011855
2871,15.596955
2872,15.58894717
2873,15.6049518
2874,15.58759717
2875,15.58713098
2876,15.59561933
2877,15.60142833
2878,15.61489289
2879,15.59285573
2880,15.59592593
2881,15.59823488
2882,15.59243373
2883,15.5891661
2884,15.60946644
2885,15.60825912
2886,15.62012082
2887,15.59209638
2888,15.60041585
2889,15.59234029
2890,15.60216423
2891,15.59484791
2892,15.57728571
2893,15.57809123
2894,15.59514102
2895,15.58240238
2896,15.6137801
2897,15.58914793
2898,15.59312579
2899,15.6001738
2900,15.6159036
2901,15.60897888
2902,15.58931028
2903,15.59650191
2904,15.5766995
2905,15.59403487
2906,15.57680077
2907,15.58776956
2908,15.61914926
2909,15.5798891
2910,15.60854854
2911,15.59226432
2912,15.59262107
2913,15.61083268
2914,15.59527156
2915,15.58555134
2916,15.60416996
2917,15.59649206
2918,15.59979487
2919,15.6159524
2920,15.60526217
2921,15.60111043
2922,15.59655452
2923,15.5983987
2924,15.62146347
2925,15.5835787
2926,15.59910869
2927,15.61926561
2928,15.6315392
2929,15.59641822
2930,15.59371661
2931,15.58516267
2932,15.61181591
2933,15.59798341
2934,15.61488096
2935,15.59272465
2936,15.62679446
2937,15.59947293
2938,15.60344422
2939,15.61474137
2940,15.58593521
2941,15.58535368
2942,15.58437101
2943,15.58589224
2944,15.57758974
2945,15.60983093
2946,15.58276856
2947,15.59586903
2948,15.62134521
2949,15.59340893
2950,15.58164087
2951,15.58474142
2952,15.59817743
2953,15.64209179
2954,15.6113434
2955,15.60225049
2956,15.61720817
2957,15.58598456
2958,15.57930523
2959,15.61695846
2960,15.59307112
2961,15.58248477
2962,15.58407123
2963,15.59793142
2964,15.62929742
2965,15.58173048
2966,15.61523084
2967,15.59561992
2968,15.57823278
2969,15.60545355
2970,15.59790141
2971,15.62378409
2972,15.57443706
2973,15.59816594
2974,15.6028479
2975,15.59126879
2976,15.58394357
2977,15.618262
2978,15.58853661
2979,15.60477759
2980,15.59139911
2981,15.62615964
2982,15.62880802
2983,15.57974678
2984,15.60442657
2985,15.62117572
2986,15.5923529
2987,15.60683958
2988,15.58040627
2989,15.56957113
2990,15.61531956
2991,15.59547444
2992,15.60866396
2993,15.60520316
2994,15.61392163
2995,15.59772306
2996,15.60834832
2997,15.61049957
2998,15.60419044
2999,15.5880214
3000,15.57905194
3001,15.58632627
3002,15.60157051
3003,15.59780101
3004,15.60591808
3005,15.58004159
3006,15.59783674
3007,15.61327924
3008,15.60699538
3009,15.62051766
3010,15.58279946
3011,15.5964348
3012,15.58866478
3013,15.59086051
3014,15.60373681
3015,15.62948876
3016,15.5841485
3017,15.59305109
3018,15.59203464
3019,15.60144028
3020,15.6087959
3021,15.57265606
3022,15.60161117
3023,15.60546343
3024,15.61307723
3025,15.59340094
3026,15.61210593
3027,15.59848512
3028,15.621824
3029,15.60294201
3030,15.60075347
3031,15.59257253
3032,15.57511925
3033,15.5936284
3034,15.59054831
3035,15.57683869
3036,15.58282662
3037,15.62124789
3038,15.60258783
3039,15.58700686
3040,15.60511664
3041,15.60734543
3042,15.58215206
3043,15.60399912
3044,15.58962366
3045,15.58701752
3046,15.57034377
3047,15.59024663
3048,15.58278412
3049,15.60198382
3050,15.5847965
3051,15.60719091
3052,15.5959224
3053,15.59430368
3054,15.60614724
3055,15.58851967
3056,15.59399284
3057,15.56644307
3058,15.5639156
3059,15.60902378
3060,15.60272923
3061,15.5850044
3062,15.62573303
3063,15.61344691
3064,15.60936874
3065,15.60122011
3066,15.60267501
3067,15.57460599
3068,15.591566
3069,15.58480112
3070,15.57370775
3071,15.58920537
3072,15.61483349
3073,15.60853392
3074,15.58807441
3075,15.62579196
3076,15.56315824
3077,15.57891985
3078,15.60065244
3079,15.59196483
3080,15.60315398
3081,15.6171014
3082,15.60574353
3083,15.62053282
3084,15.60887377
3085,15.58508226
3086,15.6021757
3087,15.595821
3088,15.57994981
3089,15.5931936
3090,15.58845349
3091,15.59574236
3092,15.59560778
3093,15.60150898
3094,15.5926194
3095,15.61519443
3096,15.58937053
3097,15.58508267
3098,15.61647116
3099,15.57872713
3100,15.5987517
3101,15.59859429
3102,15.61988411
3103,15.61731868
3104,15.5793553
3105,15.59198189
3106,15.61218681
3107,15.60950256
3108,15.58739547
3109,15.59484645
3110,15.61045236
3111,15.59676175
3112,15.59189517
3113,15.58688686
3114,15.59725744
3115,15.56793791
3116,15.58750373
3117,15.60976441
3118,15.62081669
3119,15.60126682
3120,15.60417878
3121,15.61073692
3122,15.62677962
3123,15.58993404
3124,15.56159456
3125,15.59796325
3126,15.60515685
3127,15.61232178
3128,15.61347562
3129,15.62115628
3130,15.60357798
3131,15.59877865
3132,15.60946735
3133,15.60494181
3134,15.6020629
3135,15.58040399
3136,15.60271044
3137,15.59271794
3138,15.59002164
3139,15.6249832
3140,15.64465094
3141,15.61225271
3142,15.60347055
3143,15.61597674
3144,15.59098877
3145,15.58195388
3146,15.59018584
3147,15.59326547
3148,15.59938755
3149,15.6022957
3150,15.59098736
3151,15.58928631
3152,15.61493935
3153,15.58885505
3154,15.57945716
3155,15.57666488
3156,15.58478391
3157,15.58528254
3158,15.62390478
3159,15.63693592
3160,15.60068604
3161,15.6065559
3162,15.5814722
3163,15.60644544
3164,15.60536176
3165,15.60855285
3166,15.60864004
3167,15.58908997
3168,15.57901559
3169,15.59839477
3170,15.59269571
3171,15.61911657
3172,15.60485226
3173,15.60298115
3174,15.57501174
3175,15.61390038
3176,15.58412059
3177,15.58595439
3178,15.58727499
3179,15.63482948
3180,15.60989022
3181,15.59343438
3182,15.60028478
3183,15.60441784
3184,15.59096166
3185,15.62469618
3186,15.61251736
3187,15.59900768
3188,15.59191952
3189,15.57172412
3190,15.59524029
3191,15.60089275
3192,15.59865267
3193,15.60279278
3194,15.60325289
3195,15.59683294
3196,15.61547889
3197,15.5860468
3198,15.59088414
3199,15.58741681
3200,15.58796058
3201,15.61439975
3202,15.58207927
3203,15.61797804
3204,15.58534958
3205,15.60203938
3206,15.57811832
3207,15.61737766
3208,15.59080624
3209,15.59516365
3210,15.61427031
3211,15.59946462
3212,15.62647472
3213,15.5985723
3214,15.57593304
3215,15.59513446
3216,15.61515874
3217,15.58266011
3218,15.59317686
3219,15.59147503
3220,15.60542288
3221,15.61822256
3222,15.58698667
3223,15.57917154
3224,15.6218939
3225,15.61202819
3226,15.59456725
3227,15.58446152
3228,15.58651187
3229,15.57698542
3230,15.61854021
3231,15.63058844
3232,15.60776431
3233,15.58740552
3234,15.59628471
3235,15.60717567
3236,15.60827534
3237,15.66196727
3238,15.61513333
3239,15.61413362
3240,15.60208714
3241,15.61624065
3242,15.57633547
3243,15.59904567
3244,15.58928452
3245,15.57513721
3246,15.62148827
3247,15.60298073
3248,15.60066809
3249,15.63403916
3250,15.61594344
3251,15.61364687
3252,15.57695855
3253,15.59291646
3254,15.61578529
3255,15.60704506
3256,15.61830933
3257,15.60065962
3258,15.59611646
3259,15.57689146
3260,15.61201975
3261,15.59346884
3262,15.60636232
3263,15.58507823
3264,15.62273483
3265,15.60837624
3266,15.60931451
3267,15.59159991
3268,15.57027338
3269,15.62441406
3270,15.60460542
3271,15.58643514
3272,15.61180216
3273,15.61294851
3274,15.56421354
3275,15.59499968
3276,15.63908346
3277,15.60088474
3278,15.59591635
3279,15.61416738
3280,15.59080997
3281,15.59885354
3282,15.59689361
3283,15.61273523
3284,15.57290705
3285,15.59555885
3286,15.61586925
3287,15.59670456
3288,15.56924044
3289,15.62701164
3290,15.60920522
3291,15.6151933
3292,15.59343147
3293,15.59135608
3294,15.61199833
3295,15.60219837
3296,15.58874565
3297,15.58169522
3298,15.61353939
3299,15.60061878
3300,15.60108776
3301,15.58372894
3302,15.62108907
3303,15.62099687
3304,15.6080777
3305,15.60536342
3306,15.58305956
3307,15.5798618
3308,15.57346593
3309,15.59154203
3310,15.58997531
3311,15.60025757
3312,15.57431118
3313,15.60964945
3314,15.58456826
3315,15.60692522
3316,15.58824149
3317,15.59374614
3318,15.59193394
3319,15.61084502
3320,15.64236091
3321,15.59943317
3322,15.60664115
3323,15.59489032
3324,15.59950812
3325,15.59928279
3326,15.58397423
3327,15.59737256
3328,15.60008653
3329,15.61617533
3330,15.59837378
3331,15.59731563
3332,15.59472938
3333,15.6198425
3334,15.59250328
3335,15.60399648
3336,15.61291568
3337,15.59472577
3338,15.62671101
3339,15.61774663
3340,15.59045093
3341,15.58876071
3342,15.58730474
3343,15.56812671
3344,15.62637608
3345,15.61736281
3346,15.61800952
3347,15.61540715
3348,15.61036945
3349,15.58574498
3350,15.61658176
3351,15.60748183
3352,15.6015864
3353,15.584885
3354,15.60761248
3355,15.60965098
3356,15.61186581
3357,15.59583696
3358,15.5888206
3359,15.59907764
3360,15.58776589
3361,15.61446163
3362,15.60568767
3363,15.61395425
3364,15.59707186
3365,15.56807657
3366,15.59320792
3367,15.60722899
3368,15.57808465
3369,15.60504527
3370,15.58236337
3371,15.59287263
3372,15.59288581
3373,15.59882706
3374,15.60563758
3375,15.60678505
3376,15.61207022
3377,15.59251809
3378,15.61390129
3379,15.61799283
3380,15.57775139
3381,15.61771147
3382,15.62249287
3383,15.58296106
3384,15.6030731
3385,15.61392295
3386,15.58113722
3387,15.59299955
3388,15.60102623
3389,15.61342181
3390,15.60858601
3391,15.57498438
3392,15.62410729
3393,15.59377491
3394,15.58908515
3395,15.5693612
3396,15.620275
3397,15.58544725
3398,15.5909804
3399,15.6088815
3400,15.59664257
3401,15.58488415
3402,15.59502578
3403,15.60835257
3404,15.61051966
3405,15.58215738
3406,15.59681206
3407,15.59901974
3408,15.6233023
3409,15.59486274
3410,15.57681469
3411,15.58971836
3412,15.62538795
3413,15.58260854
3414,15.61016878
3415,15.61541668
3416,15.59463422
3417,15.59352817
3418,15.60923037
3419,15.5860322
3420,15.59036881
3421,15.60477373
3422,15.58242603
3423,15.62053087
3424,15.6127359
3425,15.601821
3426,15.6098582
3427,15.58719562
3428,15.60652418
3429,15.58037373
3430,15.60481545
3431,15.59044351
3432,15.59814133
3433,15.60634049
3434,15.6002513
3435,15.59721757
3436,15.59937111
3437,15.60060276
3438,15.6111409
3439,15.60291446
3440,15.58685921
3441,15.60695228
3442,15.63170071
3443,15.57983067
3444,15.58133258
3445,15.5816446
3446,15.61277157
3447,15.61862065
3448,15.59437572
3449,15.6009067
3450,15.61548851
3451,15.61004509
3452,15.61095626
3453,15.60755968
3454,15.61265685
3455,15.58954612
3456,15.57896988
3457,15.60186825
3458,15.58007449
3459,15.59607195
3460,15.58534281
3461,15.61592193
3462,15.59583727
3463,15.60852217
3464,15.58554443
3465,15.60750999
3466,15.60552762
3467,15.60129733
3468,15.57925526
3469,15.60023484
3470,15.58928189
3471,15.59473164
3472,15.58629968
3473,15.6013479
3474,15.58216985
3475,15.62040676
3476,15.58997807
3477,15.60725683
3478,15.62468419
3479,15.6058693
3480,15.57107227
3481,15.63883967
3482,15.58602125
3483,15.60053767
3484,15.57906898
3485,15.56781632
3486,15.63472233
3487,15.58793204
3488,15.60302969
3489,15.59419407
3490,15.61142394
3491,15.5942891
3492,15.60725839
3493,15.59756282
3494,15.59508594
3495,15.58325982
3496,15.60012737
3497,15.58860106
3498,15.59048836
3499,15.5681194
3500,15.60728106
3501,15.56989064
3502,15.59036732
3503,15.58445256
3504,15.5771906
3505,15.59630459
3506,15.60329179
3507,15.60420194
3508,15.62928973
3509,15.59035819
3510,15.59407355
3511,15.60354892
3512,15.5981417
3513,15.63175035
3514,15.60774321
3515,15.59491841
3516,15.58925971
3517,15.6148771
3518,15.60464175
3519,15.59110869
3520,15.61059158
3521,15.63316
3522,15.59111654
3523,15.57789131
3524,15.59508681
3525,15.60296739
3526,15.59058639
3527,15.61775264
3528,15.59310592
3529,15.59002718
3530,15.58723492
3531,15.59777032
3532,15.61211488
3533,15.61558637
3534,15.60910441
3535,15.59321253
3536,15.60824269
3537,15.59388714
3538,15.61236893
3539,15.59088715
3540,15.59236491
3541,15.59590564
3542,15.61867551
3543,15.60635567
3544,15.60641145
3545,15.57411905
3546,15.62076211
3547,15.60236673
3548,15.60910895
3549,15.60775658
3550,15.60265647
3551,15.62423464
3552,15.59556285
3553,15.60724813
3554,15.59969236
3555,15.62630348
3556,15.58246926
3557,15.59386975
3558,15.60969138
3559,15.58375969
3560,15.58628985
3561,15.59004226
3562,15.62126482
3563,15.59816591
3564,15.61721022
3565,15.60521894
3566,15.57196263
3567,15.57920277
3568,15.56988954
3569,15.58544864
3570,15.60743033
3571,15.61970925
3572,15.6042726
3573,15.59378079
3574,15.61447314
3575,15.61706196
3576,15.6050259
3577,15.56780711
3578,15.594592
3579,15.6005983
3580,15.60801394
3581,15.59836384
3582,15.60289999
3583,15.57721107
3584,15.59881977
3585,15.58683577
3586,15.59476851
3587,15.58977954
3588,15.60250203
3589,15.57393264
3590,15.58852656
3591,15.58673618
3592,15.5872377
3593,15.57077926
3594,15.61588915
3595,15.57533473
3596,15.60267129
3597,15.602307
3598,15.59217711
3599,15.61080601
3600,15.60702282
3601,15.5956357
3602,15.58834095
3603,15.59779219
3604,15.62428572
3605,15.57767276
3606,15.60169867
3607,15.6110429
3608,15.6067433
3609,15.5865048
3610,15.6079586
3611,15.60684428
3612,15.59231721
3613,15.60449776
3614,15.60634785
3615,15.59187401
3616,15.60941786
3617,15.59711085
3618,15.61243548
3619,15.60828467
3620,15.58523957
3621,15.60884616
3622,15.61018019
3623,15.58862948
3624,15.60691369
3625,15.60514117
3626,15.5948435
3627,15.59545763
3628,15.60300002
3629,15.62331234
3630,15.6019103
3631,15.58399705
3632,15.5830289
3633,15.63122305
3634,15.62892961
3635,15.61261333
3636,15.60931739
3637,15.62723221
3638,15.61177966
3639,15.64067404
3640,15.61804323
3641,15.59491927
3642,15.58508764
3643,15.58541396
3644,15.57021664
3645,15.62195653
3646,15.61513555
3647,15.60506375
3648,15.59495522
3649,15.57807121
3650,15.56444063
3651,15.64003172
3652,15.63439036
3653,15.62560672
3654,15.61247252
3655,15.59997508
3656,15.584788
3657,15.5844089
3658,15.60883267
3659,15.587691
3660,15.60439086
3661,15.60993127
3662,15.62883688
3663,15.59592351
3664,15.58784607
3665,15.60243244
3666,15.59210141
3667,15.59535294
3668,15.65009586
3669,15.59102822
3670,15.61011605
3671,15.6114891
3672,15.61683521
3673,15.61796357
3674,15.60159491
3675,15.59780078
3676,15.57393682
3677,15.61110806
3678,15.608805
3679,15.59625181
3680,15.61195527
3681,15.60429294
3682,15.63607384
3683,15.60606979
3684,15.61195569
3685,15.58611315
3686,15.6270593
3687,15.60568228
3688,15.6024398
3689,15.58974955
3690,15.61012293
3691,15.60450757
3692,15.56552349
3693,15.59357861
3694,15.60123604
3695,15.6268561
3696,15.59583185
3697,15.60499982
3698,15.5927272
3699,15.60647516
3700,15.59310275
3701,15.60195753
3702,15.60876709
3703,15.60183606
3704,15.60811856
3705,15.60186472
3706,15.59815093
3707,15.59629677
3708,15.61373729
3709,15.60461112
3710,15.59133177
3711,15.61267224
3712,15.600013
3713,15.61759732
3714,15.5837791
3715,15.58874379
3716,15.60644196
3717,15.59717874
3718,15.60135944
3719,15.58019422
3720,15.58781626
3721,15.58364392
3722,15.5847706
3723,15.6214436
3724,15.61052065
3725,15.60324084
3726,15.61622104
3727,15.60852956
3728,15.63556845
3729,15.58226096
3730,15.58899704
3731,15.62369003
3732,15.57809401
3733,15.62692314
3734,15.62260731
3735,15.57516054
3736,15.60652733
3737,15.60962605
3738,15.59803618
3739,15.6099941
3740,15.5661886
3741,15.6071898
3742,15.61519922
3743,15.61273975
3744,15.57448492
3745,15.59432744
3746,15.57730627
3747,15.587273
3748,15.5911519
3749,15.59345838
3750,15.6119651
3751,15.62625134
3752,15.61516585
3753,15.61522182
3754,15.59402802
3755,15.6143027
3756,15.62158046
3757,15.57304487
3758,15.62493465
3759,15.56682896
3760,15.59903317
3761,15.58478135
3762,15.59606722
3763,15.61365587
3764,15.59289475
3765,15.59343419
3766,15.58864175
3767,15.59312152
3768,15.61053121
3769,15.60690881
3770,15.62101813
3771,15.60720679
3772,15.58015086
3773,15.59583587
3774,15.59752329
3775,15.59904629
3776,15.60773289
3777,15.56888738
3778,15.61510169
3779,15.6004611
3780,15.60667246
3781,15.61564284
3782,15.59494867
3783,15.5938469
3784,15.60538042
3785,15.56918912
3786,15.6026027
3787,15.58805297
3788,15.62605048
3789,15.6103435
3790,15.59242105
3791,15.602089
3792,15.60658833
3793,15.61929162
3794,15.59127579
3795,15.6182749
3796,15.60915287
3797,15.60272519
3798,15.62173348
3799,15.61482093
3800,15.62078908
3801,15.583514
3802,15.58159708
3803,15.60770877
3804,15.63890701
3805,15.61098996
3806,15.60375753
3807,15.57844995
3808,15.60520884
3809,15.59959751
3810,15.62539236
3811,15.57516132
3812,15.61461047
3813,15.60080634
3814,15.58432166
3815,15.5890791
3816,15.5865017
3817,15.59199769
3818,15.60764461
3819,15.59707207
3820,15.60999971
3821,15.59933036
3822,15.59549388
3823,15.60793985
3824,15.60047006
3825,15.59607465
3826,15.61565858
3827,15.6062075
3828,15.60393023
3829,15.59037675
3830,15.57593819
3831,15.61901728
3832,15.56421759
3833,15.59228921
3834,15.61336901
3835,15.62111465
3836,15.59487298
3837,15.56922503
3838,15.59138241
3839,15.58802674
3840,15.6137298
3841,15.58390183
3842,15.58853041
3843,15.5717986
3844,15.58828342
3845,15.609754
3846,15.57767617
3847,15.62591545
3848,15.58683737
3849,15.58118655
3850,15.61367301
3851,15.61496246
3852,15.61144529
3853,15.60772017
3854,15.59566495
3855,15.60496037
3856,15.60305947
3857,15.56782812
3858,15.60448083
3859,15.57336668
3860,15.60068851
3861,15.60315751
3862,15.5925614
3863,15.58712778
3864,15.61030761
3865,15.5753191
3866,15.57755527
3867,15.5934629
3868,15.63511829
3869,15.59433882
3870,15.60008067
3871,15.58762866
3872,15.60621304
3873,15.58051556
3874,15.59722787
3875,15.6026907
3876,15.59625146
3877,15.60458589
3878,15.61735453
3879,15.62201196
3880,15.60072072
3881,15.60672719
3882,15.61393867
3883,15.5966285
3884,15.59550241
3885,15.61807637
3886,15.57170151
3887,15.6100448
3888,15.58206293
3889,15.60000825
3890,15.59471159
3891,15.59596053
3892,15.59301506
3893,15.56297566
3894,15.6014377
3895,15.61750067
3896,15.59028275
3897,15.59995464
3898,15.59856776
3899,15.62124149
3900,15.6144954
3901,15.59507894
3902,15.60976951
3903,15.59320171
3904,15.61627867
3905,15.6038144
3906,15.61138954
3907,15.61810545
3908,15.59965212
3909,15.5993674
3910,15.60536775
3911,15.62691208
3912,15.58685668
3913,15.62473295
3914,15.61340588
3915,15.59860735
3916,15.57564735
3917,15.60962195
3918,15.59173022
3919,15.60806068
3920,15.60350922
3921,15.59474365
3922,15.59422921
3923,15.61036629
3924,15.58804508
3925,15.6073346
3926,15.59252441
3927,15.62030061
3928,15.59430545
3929,15.61689944
3930,15.58356753
3931,15.58846912
3932,15.61328145
3933,15.59209004
3934,15.61407488
3935,15.57968585
3936,15.58984174
3937,15.60623786
3938,15.59040369
3939,15.60282509
3940,15.59635389
3941,15.59967767
3942,15.57629929
3943,15.59235926
3944,15.5846843
3945,15.59516659
3946,15.59136454
3947,15.61341906
3948,15.59744353
3949,15.59270405
3950,15.64386016
3951,15.59558905
3952,15.60598287
3953,15.58284607
3954,15.61513767
3955,15.60711748
3956,15.61861362
3957,15.60655086
3958,15.59896376
3959,15.59069953
3960,15.59183405
3961,15.58323015
3962,15.62014755
3963,15.61357303
3964,15.64345755
3965,15.61725877
3966,15.61503511
3967,15.58969391
3968,15.59322686
3969,15.57301491
3970,15.59964337
3971,15.60635363
3972,15.58719788
3973,15.62597944
3974,15.6092587
3975,15.58705837
3976,15.58756136
3977,15.59246208
3978,15.5916125
3979,15.57713959
3980,15.62009447
3981,15.624029
3982,15.60824959
3983,15.61973385
3984,15.5804783
3985,15.61833829
3986,15.598319
3987,15.60075948
3988,15.62405334
3989,15.59496731
3990,15.59972577
3991,15.59320515
3992,15.6085209
3993,15.59292824
3994,15.61337893
3995,15.57954562
3996,15.62553032
3997,15.61464886
3998,15.60551739
3999,15.58197256
4000,15.62516364
