Raman shift,Intensity
781.59665,3555.25754
815.59776,3565.14651
844.44719,3539.97459
868.14493,3544.46958
879.47864,3539.97459
926.96929,3549.62772
926.96929,3546.91503
926.96929,3548.27137
928.52363,3545.55868
928.52363,3537.42059
930.07797,3536.06424
930.07797,3538.77694
930.07797,3544.20233
930.07797,3542.84598
930.07797,3541.48963
931.6323,3540.13329
931.6323,3531.9952
931.6323,3534.7079
931.6323,3533.35155
933.18664,3531.9952
934.74098,3527.92616
934.74098,3529.2825
934.74098,3526.56981
934.74098,3531.9952
934.74098,3530.63885
936.29532,3525.21346
937.84966,3525.21346
939.404,3526.56981
940.95834,3527.92616
942.51268,3529.2825
944.06701,3527.92616
945.62135,3527.92616
947.17569,3491.30477
947.17569,3489.94842
947.17569,3529.2825
948.73003,3492.66112
948.73003,3527.92616
950.28437,3523.85711
950.28437,3525.21346
950.28437,3526.56981
950.28437,3522.50077
950.28437,3492.66112
950.28437,3494.01746
951.83871,3522.50077
951.83871,3494.01746
951.83871,3521.14442
951.83871,3519.78807
953.39305,3508.93729
953.39305,3518.43172
953.39305,3494.01746
954.94739,3510.29364
954.94739,3517.07538
954.94739,3507.58094
954.94739,3506.22459
954.94739,3494.01746
954.94739,3495.37381
956.50173,3495.37381
956.50173,3496.73016
956.50173,3498.08651
956.50173,3504.86825
956.50173,3511.64998
956.50173,3515.71903
956.50173,3514.36268
956.50173,3513.00633
958.05606,3498.08651
958.05606,3503.5119
959.6104,3498.08651
959.6104,3502.15555
961.16474,3500.7992
961.16474,3499.44285
982.51231,3555.25754
982.51231,3584.92445
987.5885,3599.81259
987.5885,3598.45624
989.14284,3597.09989
990.69718,3595.74354
990.69718,3597.09989
990.69718,3594.3872
992.25152,3594.3872
993.80586,3594.3872
995.36019,3594.3872
996.91453,3591.6745
996.91453,3593.03085
996.91453,3594.3872
998.46887,3587.60546
998.46887,3590.31815
998.46887,3591.6745
998.46887,3588.96181
1000.02321,3587.60546
1001.57755,3586.24911
1003.13189,3584.89276
1004.68623,3584.89276
1006.24057,3584.89276
1007.79491,3584.89276
1009.34924,3595.74354
1009.34924,3597.09989
1009.34924,3586.24911
1009.34924,3587.60546
1009.34924,3588.96181
1009.34924,3590.31815
1009.34924,3591.6745
1009.34924,3593.03085
1009.34924,3594.3872
1010.90358,3598.45624
1012.45792,3598.45624
1014.01226,3598.45624
1015.5666,3598.45624
1015.5666,3599.81259
1017.12094,3599.81259
1018.67528,3599.81259
1020.22962,3601.16894
1020.22962,3599.81259
1020.22962,3602.52528
1021.78395,3626.93954
1021.78395,3628.29589
1021.78395,3603.88163
1021.78395,3605.23798
1021.78395,3606.59433
1021.78395,3607.95067
1021.78395,3609.30702
1021.78395,3610.66337
1021.78395,3612.01972
1021.78395,3613.37607
1021.78395,3614.73241
1021.78395,3616.08876
1021.78395,3617.44511
1021.78395,3618.80146
1021.78395,3620.1578
1021.78395,3621.51415
1021.78395,3625.5832
1021.78395,3624.22685
1023.33829,3622.8705
1023.33829,3632.36493
1023.33829,3631.00859
1023.33829,3629.65224
1024.89263,3633.72128
1026.44697,3635.07763
1028.00131,3639.14667
1028.00131,3637.79033
1028.00131,3636.43398
1035.773,3595.74354
1035.773,3597.09989
1035.773,3598.45624
1037.32734,3599.81259
1037.32734,3594.3872
1038.88168,3601.16894
1038.88168,3594.3872
1038.88168,3593.03085
1038.88168,3591.6745
1040.43602,3602.52528
1040.43602,3603.88163
1040.43602,3591.6745
1040.43602,3590.31815
1040.43602,3588.96181
1041.99036,3606.59433
1041.99036,3605.23798
1041.99036,3588.96181
1041.99036,3586.24911
1041.99036,3587.60546
1043.5447,3586.24911
1043.5447,3584.89276
1045.09904,3584.89276
1046.65337,3584.89276
1048.20771,3584.89276
1049.76205,3584.89276
1051.31639,3564.54755
1051.31639,3584.89276
1052.87073,3578.11102
1052.87073,3563.1912
1052.87073,3579.46737
1052.87073,3580.82372
1052.87073,3584.89276
1052.87073,3567.26024
1052.87073,3568.61659
1052.87073,3565.90389
1052.87073,3582.18007
1054.42507,3574.04198
1054.42507,3575.39833
1054.42507,3569.97294
1054.42507,3576.75468
1054.42507,3583.53641
1054.42507,3561.83485
1055.97941,3560.4785
1055.97941,3572.68563
1055.97941,3571.32929
1057.53375,3559.12216
1059.08808,3555.05311
1059.08808,3553.69676
1059.08808,3557.76581
1059.08808,3550.98407
1059.08808,3549.62772
1059.08808,3552.34042
1059.08808,3556.40946
1060.64242,3548.27137
1062.19676,3546.91503
1063.7511,3542.84598
1063.7511,3541.48963
1063.7511,3540.13329
1063.7511,3538.77694
1063.7511,3537.42059
1063.7511,3536.06424
1063.7511,3534.7079
1063.7511,3533.35155
1063.7511,3545.55868
1063.7511,3544.20233
1065.30544,3531.9952
1065.30544,3530.63885
1066.85978,3529.2825
1068.41412,3525.21346
1068.41412,3523.85711
1068.41412,3522.50077
1068.41412,3521.14442
1068.41412,3519.78807
1068.41412,3518.43172
1068.41412,3517.07538
1068.41412,3510.29364
1068.41412,3514.36268
1068.41412,3513.00633
1068.41412,3511.64998
1068.41412,3526.56981
1068.41412,3508.93729
1068.41412,3527.92616
1068.41412,3506.22459
1069.96846,3515.71903
1069.96846,3503.5119
1069.96846,3502.15555
1069.96846,3500.7992
1069.96846,3507.58094
1069.96846,3504.86825
1071.5228,3499.44285
1071.5228,3495.37381
1071.5228,3494.01746
1071.5228,3492.66112
1073.07713,3491.30477
1073.07713,3489.94842
1073.07713,3496.73016
1073.07713,3487.23572
1073.07713,3485.87938
1073.07713,3498.08651
1074.63147,3488.59207
1074.63147,3484.52303
1076.18581,3483.16668
1076.18581,3481.81033
1076.18581,3480.45399
1077.74015,3479.09764
1079.29449,3477.74129
1079.29449,3476.38494
1079.29449,3475.02859
1103.0617,3514.80267
1138.09315,3489.63075
1143.24483,3524.69164
1166.94257,3504.9137
1194.76166,3504.9137
1236.28271,3466.89051
1237.83705,3465.53416
1237.83705,3468.24686
1237.83705,3469.6032
1239.39138,3470.95955
1240.94572,3472.3159
1242.50006,3473.67225
1242.50006,3475.02859
1244.0544,3476.38494
1244.0544,3477.74129
1244.0544,3479.09764
1244.0544,3481.81033
1245.60874,3480.45399
1245.60874,3483.16668
1245.60874,3484.52303
1245.60874,3487.23572
1247.16308,3487.23572
1247.16308,3485.87938
1247.16308,3488.59207
1248.71742,3492.66112
1248.71742,3491.30477
1248.71742,3488.59207
1248.71742,3494.01746
1248.71742,3495.37381
1248.71742,3496.73016
1248.71742,3498.08651
1248.71742,3489.94842
1250.27176,3499.44285
1250.27176,3498.08651
1251.82609,3499.44285
1251.82609,3523.85711
1251.82609,3522.50077
1251.82609,3521.14442
1251.82609,3513.00633
1253.38043,3519.78807
1253.38043,3517.07538
1253.38043,3515.71903
1253.38043,3518.43172
1253.38043,3514.36268
1253.38043,3511.64998
1253.38043,3499.44285
1253.38043,3525.21346
1253.38043,3526.56981
1254.93477,3499.44285
1254.93477,3510.29364
1254.93477,3527.92616
1256.48911,3504.86825
1256.48911,3527.92616
1256.48911,3507.58094
1256.48911,3503.5119
1256.48911,3499.44285
1256.48911,3506.22459
1256.48911,3508.93729
1258.04345,3502.15555
1258.04345,3499.44285
1258.04345,3527.92616
1259.59779,3500.7992
1259.59779,3527.92616
1259.59779,3499.44285
1261.15213,3527.92616
1261.15213,3529.2825
1262.70647,3533.35155
1262.70647,3536.06424
1262.70647,3529.2825
1262.70647,3530.63885
1262.70647,3531.9952
1262.70647,3537.42059
1262.70647,3534.7079
1264.2608,3538.77694
1264.2608,3540.13329
1264.2608,3541.48963
1264.2608,3542.84598
1265.81514,3542.84598
1265.81514,3544.20233
1267.36948,3544.20233
1267.36948,3545.55868
1268.92382,3545.55868
1268.92382,3527.92616
1270.47816,3545.55868
1270.47816,3546.91503
1270.47816,3549.62772
1270.47816,3550.98407
1270.47816,3552.34042
1270.47816,3548.27137
1270.47816,3553.69676
1270.47816,3555.05311
1270.47816,3529.2825
1270.47816,3526.56981
1272.0325,3555.05311
1272.0325,3525.21346
1272.0325,3530.63885
1273.58684,3557.76581
1273.58684,3555.05311
1273.58684,3559.12216
1273.58684,3523.85711
1273.58684,3531.9952
1275.14118,3522.50077
1275.14118,3533.35155
1275.14118,3534.7079
1275.14118,3536.06424
1275.14118,3555.05311
1275.14118,3556.40946
1275.14118,3560.4785
1276.69551,3561.83485
1276.69551,3563.1912
1276.69551,3564.54755
1276.69551,3521.14442
1278.24985,3521.14442
1278.24985,3519.78807
1278.24985,3518.43172
1279.80419,3518.43172
1279.80419,3517.07538
1279.80419,3515.71903
1281.35853,3515.71903
1281.35853,3514.36268
1281.35853,3513.00633
1281.35853,3511.64998
1281.35853,3510.29364
1282.91287,3510.29364
1284.46721,3510.29364
1286.02155,3508.93729
1287.57589,3508.93729
1289.13022,3508.93729
1290.68456,3508.93729
1292.2389,3508.93729
1292.2389,3510.29364
1292.2389,3511.64998
1292.2389,3513.00633
1292.2389,3514.36268
1293.79324,3514.36268
1295.34758,3514.36268
1296.90192,3514.36268
1296.90192,3519.78807
1296.90192,3518.43172
1298.45626,3517.07538
1298.45626,3514.36268
1298.45626,3521.14442
1300.0106,3515.71903
1300.0106,3522.50077
1300.0106,3530.63885
1301.56494,3523.85711
1301.56494,3529.2825
1301.56494,3531.9952
1303.11927,3526.56981
1303.11927,3525.21346
1303.11927,3527.92616
1303.11927,3533.35155
1303.11927,3556.40946
1304.67361,3534.7079
1304.67361,3555.05311
1304.67361,3538.77694
1304.67361,3552.34042
1304.67361,3550.98407
1304.67361,3542.84598
1304.67361,3544.20233
1304.67361,3545.55868
1304.67361,3546.91503
1304.67361,3548.27137
1304.67361,3549.62772
1304.67361,3553.69676
1304.67361,3536.06424
1304.67361,3557.76581
1306.22795,3541.48963
1306.22795,3540.13329
1306.22795,3537.42059
1306.22795,3559.12216
1306.22795,3560.4785
1306.22795,3561.83485
1306.22795,3563.1912
1306.22795,3564.54755
1306.22795,3565.90389
1306.22795,3567.26024
1307.78229,3568.61659
1307.78229,3569.97294
1309.33663,3569.97294
1309.33663,3571.32929
1310.89097,3572.68563
1312.44531,3579.46737
1312.44531,3578.11102
1312.44531,3576.75468
1312.44531,3574.04198
1313.99965,3575.39833
1313.99965,3580.82372
1315.55398,3582.18007
1315.55398,3583.53641
1315.55398,3584.89276
1350.3425,3534.58061
1413.19304,3555.25754
1448.22449,3565.14651
1511.07503,3594.81341
1574.9559,3604.70238
1631.62442,3604.70238
1711.99068,3580.42946
1781.02324,3555.25754
1856.23782,3530.08562
1926.40913,3542.84598
1926.40913,3541.48963
1926.40913,3540.13329
1927.96346,3538.77694
1927.96346,3534.7079
1927.96346,3536.06424
1927.96346,3533.35155
1927.96346,3537.42059
1929.5178,3527.92616
1929.5178,3531.9952
1929.5178,3526.56981
1929.5178,3529.2825
1929.5178,3530.63885
1931.07214,3525.21346
1931.07214,3523.85711
1932.62648,3521.14442
1932.62648,3517.07538
1932.62648,3518.43172
1932.62648,3519.78807
1932.62648,3522.50077
1965.45351,3509.40869
2024.33247,3484.52303
2025.88681,3485.87938
2025.88681,3487.23572
2132.36805,3479.74179
2206.55229,3495.02474
2315.76798,3499.51972
2367.28481,3514.80267
2436.31737,3534.58061
2563.04879,3539.97459
2637.23303,3539.97459
2712.90455,3525.21346
2712.90455,3519.78807
2712.90455,3521.14442
2712.90455,3518.43172
2712.90455,3523.85711
2712.90455,3522.50077
2712.90455,3526.56981
2712.90455,3527.92616
2712.90455,3529.2825
2714.45889,3518.43172
2714.45889,3540.13329
2714.45889,3530.63885
2714.45889,3517.07538
2716.01323,3536.06424
2716.01323,3534.7079
2716.01323,3533.35155
2716.01323,3531.9952
2716.01323,3541.48963
2716.01323,3517.07538
2716.01323,3538.77694
2716.01323,3537.42059
2717.56757,3542.84598
2717.56757,3506.22459
2717.56757,3517.07538
2717.56757,3550.98407
2717.56757,3552.34042
2717.56757,3544.20233
2719.12191,3549.62772
2719.12191,3548.27137
2719.12191,3546.91503
2719.12191,3545.55868
2719.12191,3517.07538
2719.12191,3508.93729
2719.12191,3510.29364
2719.12191,3514.36268
2719.12191,3513.00633
2719.12191,3511.64998
2719.12191,3496.73016
2719.12191,3495.37381
2719.12191,3507.58094
2719.12191,3504.86825
2720.67624,3517.07538
2720.67624,3515.71903
2720.67624,3500.7992
2720.67624,3499.44285
2720.67624,3498.08651
2720.67624,3492.66112
2720.67624,3503.5119
2720.67624,3494.01746
2720.67624,3491.30477
2722.23058,3502.15555
2722.23058,3489.94842
2722.23058,3485.87938
2723.78492,3487.23572
2723.78492,3488.59207
2758.81276,3514.80267
2850.51272,3524.69164
2924.69696,3509.40869
2999.91154,3524.69164
3029.98966,3495.37381
3029.98966,3496.73016
3031.544,3498.08651
3033.09834,3507.58094
3033.09834,3506.22459
3033.09834,3499.44285
3033.09834,3500.7992
3033.09834,3502.15555
3033.09834,3503.5119
3033.09834,3504.86825
3034.65268,3507.58094
3036.20702,3507.58094
3037.76136,3510.29364
3037.76136,3508.93729
3039.3157,3510.29364
3040.87003,3511.64998
3040.87003,3513.00633
3042.42437,3523.85711
3042.42437,3519.78807
3042.42437,3514.36268
3042.42437,3515.71903
3042.42437,3517.07538
3042.42437,3518.43172
3042.42437,3525.21346
3042.42437,3521.14442
3042.42437,3522.50077
3042.42437,3526.56981
3043.97871,3529.2825
3043.97871,3527.92616
3045.53305,3530.63885
3047.08739,3529.2825
3048.64173,3527.92616
3050.19607,3526.56981
3050.19607,3527.92616
3051.75041,3523.85711
3051.75041,3522.50077
3051.75041,3525.21346
3051.75041,3519.78807
3051.75041,3518.43172
3051.75041,3526.56981
3051.75041,3521.14442
3053.30474,3517.07538
3054.85908,3517.07538
3056.41342,3514.36268
3056.41342,3515.71903
3056.41342,3517.07538
3057.96776,3514.36268
3059.5221,3514.36268
3059.5221,3507.58094
3061.07644,3511.64998
3061.07644,3508.93729
3061.07644,3510.29364
3061.07644,3506.22459
3061.07644,3514.36268
3061.07644,3513.00633
3062.63078,3504.86825
3064.18512,3500.7992
3064.18512,3503.5119
3064.18512,3502.15555
3200.96693,3502.15555
3202.52127,3503.5119
3202.52127,3502.15555
3204.07561,3503.5119
3205.62995,3503.5119
3207.18428,3503.5119
3208.73862,3503.5119
3210.29296,3504.86825
3210.29296,3506.22459
3211.8473,3506.22459
3213.40164,3506.22459
3214.95598,3507.58094
3214.95598,3508.93729
3216.51032,3510.29364
3216.51032,3511.64998
3218.06466,3518.43172
3218.06466,3517.07538
3218.06466,3515.71903
3218.06466,3514.36268
3218.06466,3513.00633
3218.06466,3511.64998
3219.61899,3518.43172
3219.61899,3533.35155
3221.17333,3531.9952
3221.17333,3530.63885
3221.17333,3534.7079
3221.17333,3518.43172
3222.72767,3518.43172
3222.72767,3538.77694
3222.72767,3537.42059
3222.72767,3536.06424
3222.72767,3534.7079
3222.72767,3523.85711
3222.72767,3522.50077
3222.72767,3521.14442
3222.72767,3519.78807
3222.72767,3529.2825
3222.72767,3527.92616
3224.28201,3541.48963
3224.28201,3525.21346
3224.28201,3526.56981
3224.28201,3540.13329
3224.28201,3542.84598
3225.83635,3544.20233
3227.39069,3545.55868
3228.94503,3546.91503
3230.49937,3548.27137
3232.0537,3549.62772
3232.0537,3556.40946
3233.60804,3578.11102
3233.60804,3561.83485
3233.60804,3560.4785
3233.60804,3550.98407
3233.60804,3557.76581
3233.60804,3559.12216
3233.60804,3555.05311
3233.60804,3553.69676
3233.60804,3572.68563
3233.60804,3575.39833
3233.60804,3574.04198
3235.16238,3564.54755
3235.16238,3563.1912
3235.16238,3568.61659
3235.16238,3569.97294
3235.16238,3571.32929
3235.16238,3552.34042
3235.16238,3567.26024
3235.16238,3576.75468
3236.71672,3565.90389
3284.90122,3519.78807
3284.90122,3521.14442
3286.45556,3522.50077
3288.0099,3522.50077
3289.56424,3522.50077
3291.11858,3522.50077
3292.67292,3523.85711
3292.67292,3525.21346
3294.22726,3525.21346
3294.22726,3526.56981
3294.22726,3537.42059
3294.22726,3538.77694
3294.22726,3540.13329
3295.78159,3541.48963
3295.78159,3526.56981
3295.78159,3536.06424
3295.78159,3527.92616
3297.33593,3534.7079
3297.33593,3542.84598
3297.33593,3527.92616
3298.89027,3530.63885
3298.89027,3533.35155
3298.89027,3529.2825
3298.89027,3544.20233
3298.89027,3531.9952
3300.44461,3545.55868
3301.99895,3552.34042
3301.99895,3546.91503
3301.99895,3548.27137
3301.99895,3549.62772
3301.99895,3550.98407
3301.99895,3555.05311
3301.99895,3553.69676
3303.55329,3555.05311
3303.55329,3557.76581
3303.55329,3556.40946
3305.10763,3559.12216
3306.66197,3557.76581
3308.2163,3556.40946
3309.77064,3555.05311
3311.32498,3555.05311
3312.87932,3556.40946
3314.43366,3556.40946
3315.988,3557.76581
3317.54234,3557.76581
3319.09668,3557.76581
3320.65102,3560.4785
3320.65102,3561.83485
3320.65102,3563.1912
3320.65102,3559.12216
3322.20535,3564.54755
3323.75969,3565.90389
3325.31403,3565.90389
3326.86837,3564.54755
3328.42271,3563.1912
3329.97705,3561.83485
3329.97705,3563.1912
3331.53139,3561.83485
3333.08573,3561.83485
3333.08573,3560.4785
3333.08573,3559.12216
3333.08573,3557.76581
3333.08573,3553.69676
3333.08573,3552.34042
3333.08573,3555.05311
3334.64006,3557.76581
3334.64006,3556.40946
3334.64006,3542.84598
3334.64006,3550.98407
3334.64006,3549.62772
3334.64006,3548.27137
3334.64006,3546.91503
3334.64006,3545.55868
3334.64006,3541.48963
3336.1944,3557.76581
3336.1944,3544.20233
3336.1944,3540.13329
3336.1944,3538.77694
3336.1944,3537.42059
3336.1944,3536.06424
3337.74874,3534.7079
3337.74874,3533.35155
3337.74874,3527.92616
3337.74874,3526.56981
3337.74874,3525.21346
3337.74874,3523.85711
3337.74874,3531.9952
3337.74874,3530.63885
3337.74874,3529.2825
3339.30308,3518.43172
3339.30308,3522.50077
3339.30308,3519.78807
3339.30308,3521.14442
3340.85742,3517.07538
3342.41176,3515.71903
3342.41176,3514.36268
3342.41176,3513.00633
3342.41176,3511.64998
3342.41176,3510.29364
3343.9661,3508.93729
3345.52044,3507.58094
3345.52044,3506.22459
3345.52044,3504.86825
3361.55972,3544.46958
3425.44059,3539.97459
3441.92598,3539.97459
3528.93241,3546.91503
3528.93241,3545.55868
3528.93241,3544.20233
3530.48675,3542.84598
3530.48675,3525.21346
3532.04109,3541.48963
3532.04109,3538.77694
3532.04109,3537.42059
3532.04109,3536.06424
3532.04109,3526.56981
3532.04109,3523.85711
3533.59543,3534.7079
3533.59543,3531.9952
3533.59543,3522.50077
3533.59543,3527.92616
3533.59543,3533.35155
3533.59543,3540.13329
3535.14977,3530.63885
3535.14977,3529.2825
3535.14977,3521.14442
3536.70411,3519.78807
3536.70411,3518.43172
3536.70411,3517.07538
3536.70411,3515.71903
3536.70411,3514.36268
3538.25844,3514.36268
3539.81278,3514.36268
3539.81278,3502.15555
3539.81278,3503.5119
3539.81278,3504.86825
3539.81278,3506.22459
3539.81278,3499.44285
3541.36712,3508.93729
3541.36712,3510.29364
3541.36712,3511.64998
3541.36712,3513.00633
3541.36712,3500.7992
3541.36712,3507.58094
3541.36712,3498.08651
3542.92146,3498.08651
3544.4758,3498.08651
3546.03014,3498.08651
3546.03014,3496.73016
3546.03014,3494.01746
3546.03014,3495.37381
3547.58448,3494.01746
3547.58448,3492.66112
3549.13882,3492.66112
3550.69316,3492.66112
3552.24749,3492.66112
3553.80183,3492.66112
3555.35617,3492.66112
3555.35617,3494.01746
3555.35617,3495.37381
3555.35617,3496.73016
3555.35617,3498.08651
3556.91051,3498.08651
3558.46485,3498.08651
3560.01919,3498.08651
3561.57353,3498.08651
3561.57353,3499.44285
3563.12787,3499.44285
3564.6822,3500.7992
3564.6822,3502.15555
3564.6822,3503.5119
3564.6822,3504.86825
3564.6822,3506.22459
3566.23654,3507.58094
3567.79088,3507.58094
3569.34522,3507.58094
3569.34522,3508.93729
3570.89956,3508.93729
3570.89956,3510.29364
3570.89956,3511.64998
3570.89956,3513.00633
3572.4539,3514.36268
3574.00824,3515.71903
3574.00824,3517.07538
3574.00824,3518.43172
3574.00824,3519.78807
3574.00824,3521.14442
3574.00824,3522.50077
3574.00824,3523.85711
3574.00824,3525.21346
3574.00824,3526.56981
3574.00824,3527.92616
3574.00824,3529.2825
3574.00824,3530.63885
3574.00824,3531.9952
3574.00824,3533.35155
3575.56258,3534.7079
3575.56258,3546.91503
3575.56258,3544.20233
3575.56258,3545.55868
3577.11691,3553.69676
3577.11691,3536.06424
3577.11691,3548.27137
3577.11691,3549.62772
3577.11691,3550.98407
3577.11691,3552.34042
3577.11691,3542.84598
3578.67125,3541.48963
3578.67125,3537.42059
3578.67125,3555.05311
3580.22559,3540.13329
3580.22559,3538.77694
3580.22559,3556.40946
3581.77993,3557.76581
3581.77993,3567.26024
3581.77993,3571.32929
3581.77993,3569.97294
3581.77993,3568.61659
3583.33427,3564.54755
3583.33427,3563.1912
3583.33427,3561.83485
3583.33427,3559.12216
3583.33427,3565.90389
3583.33427,3572.68563
3584.88861,3560.4785
3584.88861,3574.04198
3586.44295,3576.75468
3586.44295,3579.46737
3586.44295,3578.11102
3586.44295,3575.39833
3628.41009,3498.08651
3629.96443,3492.66112
3629.96443,3489.94842
3629.96443,3523.85711
3629.96443,3496.73016
3629.96443,3525.21346
3629.96443,3491.30477
3629.96443,3519.78807
3629.96443,3521.14442
3629.96443,3495.37381
3629.96443,3494.01746
3629.96443,3499.44285
3631.51877,3514.36268
3631.51877,3515.71903
3631.51877,3522.50077
3631.51877,3538.77694
3631.51877,3526.56981
3631.51877,3517.07538
3631.51877,3500.7992
3631.51877,3533.35155
3631.51877,3534.7079
3631.51877,3518.43172
3631.51877,3511.64998
3631.51877,3513.00633
3631.51877,3541.48963
3631.51877,3540.13329
3631.51877,3488.59207
3631.51877,3537.42059
3631.51877,3531.9952
3631.51877,3529.2825
3633.07311,3504.86825
3633.07311,3503.5119
3633.07311,3487.23572
3633.07311,3530.63885
3633.07311,3536.06424
3633.07311,3527.92616
3633.07311,3542.84598
3633.07311,3544.20233
3633.07311,3510.29364
3633.07311,3480.45399
3633.07311,3502.15555
3634.62745,3508.93729
3634.62745,3480.45399
3634.62745,3506.22459
3634.62745,3485.87938
3634.62745,3484.52303
3634.62745,3483.16668
3636.18179,3481.81033
3636.18179,3507.58094
3712.90453,3524.69164
3793.27079,3534.58061
3867.45503,3514.80267
3965.33702,3539.97459
