Raman Shift,Intensity
209.0,3.83
210.0,8.728
211.0,8.355
212.0,8.378
213.0,7.379
214.0,5.869
215.0,5.436
216.0,7.679
217.0,10.071
218.0,10.748
219.0,11.288
220.0,11.925
221.0,12.652
222.0,13.904
223.0,18.162
224.0,22.48
225.0,28.446
226.0,34.969
227.0,42.506
228.0,51.681
229.0,60.982
230.0,75.729
231.0,90.504
232.0,105.851
233.0,121.522
234.0,135.47
235.0,144.866
236.0,154.364
237.0,155.445
238.0,155.669
239.0,152.684
240.0,146.987
241.0,142.337
242.0,142.558
243.0,142.779
244.0,154.014
245.0,167.783
246.0,189.005
247.0,219.298
248.0,251.257
249.0,299.955
250.0,348.548
251.0,403.956
252.0,462.016
253.0,514.252
254.0,556.621
255.0,598.397
256.0,595.791
257.0,593.176
258.0,563.496
259.0,519.681
260.0,472.644
261.0,418.172
262.0,363.692
263.0,320.869
264.0,279.602
265.0,248.556
266.0,223.57
267.0,200.994
268.0,189.324
269.0,177.653
270.0,177.764
271.0,179.288
272.0,188.689
273.0,204.695
274.0,221.037
275.0,238.756
276.0,256.476
277.0,251.401
278.0,242.272
279.0,219.174
280.0,182.329
281.0,146.227
282.0,114.047
283.0,81.868
284.0,60.48
285.0,41.526
286.0,26.819
287.0,16.824
288.0,7.575
289.0,3.138
290.0,1.298
291.0,3.361
292.0,4.041
293.0,3.003
294.0,0.626
295.0,2.019
296.0,5.927
297.0,8.505
298.0,11.146
299.0,13.882
300.0,16.428
301.0,18.742
302.0,20.761
303.0,20.505
304.0,20.247
305.0,19.319
306.0,18.206
307.0,16.706
308.0,14.735
309.0,13.55
310.0,17.233
311.0,20.848
312.0,23.782
313.0,26.54
314.0,27.254
315.0,25.642
316.0,23.515
317.0,18.097
318.0,12.696
319.0,7.309
320.0,1.934
321.0,1.955
322.0,4.299
323.0,6.205
324.0,5.954
325.0,5.698
326.0,2.52
327.0,1.192
328.0,6.726
329.0,13.9
330.0,21.614
331.0,31.388
332.0,41.165
333.0,49.798
334.0,58.29
335.0,65.061
336.0,70.542
337.0,75.137
338.0,77.167
339.0,79.199
340.0,81.234
341.0,83.271
342.0,86.398
343.0,90.169
344.0,96.274
345.0,107.409
346.0,118.623
347.0,141.015
348.0,163.408
349.0,193.968
350.0,228.081
351.0,261.862
352.0,295.124
353.0,326.396
354.0,335.389
355.0,344.383
356.0,328.804
357.0,306.13
358.0,277.718
359.0,242.864
360.0,209.031
361.0,180.257
362.0,151.482
363.0,129.076
364.0,107.665
365.0,90.663
366.0,77.068
367.0,64.966
368.0,57.022
369.0,49.078
370.0,42.388
371.0,35.743
372.0,28.802
373.0,21.708
374.0,15.258
375.0,9.902
376.0,4.546
377.0,0.812
378.0,6.171
379.0,9.488
380.0,12.238
381.0,14.349
382.0,15.797
383.0,16.471
384.0,13.999
385.0,11.531
386.0,7.083
387.0,2.436
388.0,3.294
389.0,9.693
390.0,17.251
391.0,27.158
392.0,37.182
393.0,49.716
394.0,62.25
395.0,74.127
396.0,85.794
397.0,96.017
398.0,104.606
399.0,111.042
400.0,108.562
401.0,106.091
402.0,94.527
403.0,82.072
404.0,68.503
405.0,54.276
406.0,40.814
407.0,28.783
408.0,17.118
409.0,10.35
410.0,3.585
411.0,0.646
412.0,1.286
413.0,0.723
414.0,2.181
415.0,6.147
416.0,13.453
417.0,20.761
418.0,34.454
419.0,48.368
420.0,68.099
421.0,90.397
422.0,118.48
423.0,154.453
424.0,192.59
425.0,242.689
426.0,292.793
427.0,339.022
428.0,384.748
429.0,411.561
430.0,426.557
431.0,430.197
432.0,412.883
433.0,394.364
434.0,362.695
435.0,331.23
436.0,305.912
437.0,281.95
438.0,265.113
439.0,253.964
440.0,248.408
441.0,256.279
442.0,264.768
443.0,290.784
444.0,316.801
445.0,361.69
446.0,412.091
447.0,469.806
448.0,534.383
449.0,598.289
450.0,660.266
451.0,722.212
452.0,768.274
453.0,814.338
454.0,833.524
455.0,843.655
456.0,831.206
457.0,795.628
458.0,753.513
459.0,690.807
460.0,628.103
461.0,568.453
462.0,508.835
463.0,460.714
464.0,416.635
465.0,380.411
466.0,352.329
467.0,327.597
468.0,313.295
469.0,298.996
470.0,294.019
471.0,289.073
472.0,285.798
473.0,283.078
474.0,280.133
475.0,276.969
476.0,273.335
477.0,268.388
478.0,263.492
479.0,260.776
480.0,258.062
481.0,258.142
482.0,259.003
483.0,259.381
484.0,259.351
485.0,257.685
486.0,252.269
487.0,246.34
488.0,236.06
489.0,225.64
490.0,212.143
491.0,197.997
492.0,182.155
493.0,165.213
494.0,150.018
495.0,137.678
496.0,125.864
497.0,116.001
498.0,106.139
499.0,98.687
500.0,91.511
501.0,87.331
502.0,84.642
503.0,83.333
504.0,83.788
505.0,84.911
506.0,88.513
507.0,92.118
508.0,97.057
509.0,102.018
510.0,107.666
511.0,113.531
512.0,120.605
513.0,128.729
514.0,136.857
515.0,144.989
516.0,153.125
517.0,161.269
518.0,169.415
519.0,174.425
520.0,178.872
521.0,178.668
522.0,176.01
523.0,172.771
524.0,168.768
525.0,165.774
526.0,166.41
527.0,167.131
528.0,173.768
529.0,180.471
530.0,181.569
531.0,181.151
532.0,172.011
533.0,156.286
534.0,137.681
535.0,113.886
536.0,90.525
537.0,69.462
538.0,48.388
539.0,37.011
540.0,26.259
541.0,19.342
542.0,13.805
543.0,9.974
544.0,7.838
545.0,6.112
546.0,5.32
547.0,4.579
548.0,4.244
549.0,3.912
550.0,5.22
551.0,6.707
552.0,9.467
553.0,12.776
554.0,16.539
555.0,20.761
556.0,25.524
557.0,31.569
558.0,37.835
559.0,46.163
560.0,54.493
561.0,66.092
562.0,78.063
563.0,95.143
564.0,114.413
565.0,142.184
566.0,178.319
567.0,223.757
568.0,289.991
569.0,359.271
570.0,451.986
571.0,544.701
572.0,605.512
573.0,663.625
574.0,648.003
575.0,605.25
576.0,533.12
577.0,435.963
578.0,344.887
579.0,265.055
580.0,191.106
581.0,147.36
582.0,103.615
583.0,82.174
584.0,61.281
585.0,49.777
586.0,40.77
587.0,35.924
588.0,33.785
589.0,32.804
590.0,33.412
591.0,34.68
592.0,38.038
593.0,41.56
594.0,47.675
595.0,53.793
596.0,61.127
597.0,68.633
598.0,79.364
599.0,91.48
600.0,105.763
601.0,122.021
602.0,139.241
603.0,158.275
604.0,177.075
605.0,194.736
606.0,212.397
607.0,218.137
608.0,223.839
609.0,216.266
610.0,205.86
611.0,188.851
612.0,168.32
613.0,147.343
614.0,125.882
615.0,105.578
616.0,87.817
617.0,70.916
618.0,59.143
619.0,47.372
620.0,40.109
621.0,32.966
622.0,26.938
623.0,21.168
624.0,16.597
625.0,12.692
626.0,9.674
627.0,7.608
628.0,5.844
629.0,4.726
630.0,3.473
631.0,1.444
632.0,0.584
633.0,1.699
634.0,2.814
635.0,3.535
636.0,4.173
637.0,4.801
638.0,5.42
639.0,5.803
640.0,5.972
641.0,6.318
642.0,6.96
643.0,7.405
644.0,7.118
645.0,6.771
646.0,5.949
647.0,5.142
648.0,3.522
649.0,1.827
650.0,0.922
651.0,4.022
652.0,7.994
653.0,12.537
654.0,17.104
655.0,21.669
656.0,26.192
657.0,30.685
658.0,35.015
659.0,38.558
660.0,42.074
661.0,44.665
662.0,47.214
663.0,48.908
664.0,50.477
665.0,51.697
666.0,52.785
667.0,53.591
668.0,54.168
669.0,54.496
670.0,54.539
671.0,54.138
672.0,52.762
673.0,51.302
674.0,49.446
675.0,47.646
676.0,47.65
677.0,47.654
678.0,48.914
679.0,50.313
680.0,53.136
681.0,56.402
682.0,60.254
683.0,64.447
684.0,68.869
685.0,73.526
686.0,78.179
687.0,82.826
688.0,87.359
689.0,91.533
690.0,95.557
691.0,98.316
692.0,101.068
693.0,102.438
694.0,103.769
695.0,103.897
696.0,103.809
697.0,103.034
698.0,101.994
699.0,100.102
700.0,97.639
701.0,94.274
702.0,89.918
703.0,85.058
704.0,79.282
705.0,73.281
706.0,66.548
707.0,59.811
708.0,53.068
709.0,46.32
710.0,41.439
711.0,36.567
712.0,32.519
713.0,28.585
714.0,25.002
715.0,21.529
716.0,18.966
717.0,16.904
718.0,15.087
719.0,13.488
720.0,12.082
721.0,10.948
722.0,9.953
723.0,9.284
724.0,8.701
725.0,8.497
726.0,8.249
727.0,7.561
728.0,6.869
729.0,7.097
730.0,7.344
731.0,6.764
732.0,6.053
733.0,6.059
734.0,6.288
735.0,5.889
736.0,5.159
737.0,4.685
738.0,4.419
739.0,4.359
740.0,4.515
741.0,4.418
742.0,3.921
743.0,3.363
744.0,2.748
745.0,2.148
746.0,1.9
747.0,1.613
748.0,1.303
749.0,0.957
750.0,0.555
751.0,0.11
752.0,0.736
753.0,1.639
754.0,1.776
755.0,1.642
756.0,1.728
757.0,1.869
758.0,2.113
759.0,2.517
760.0,2.909
761.0,3.305
762.0,3.332
763.0,2.784
764.0,2.386
765.0,2.328
766.0,2.276
767.0,2.229
768.0,2.127
769.0,1.612
770.0,1.122
771.0,1.096
772.0,1.074
773.0,1.058
774.0,1.046
775.0,0.619
776.0,0.136
777.0,0.344
778.0,0.821
779.0,0.954
780.0,0.943
781.0,1.232
782.0,1.696
783.0,1.629
784.0,1.125
785.0,1.071
786.0,1.524
787.0,1.783
788.0,1.748
789.0,1.864
790.0,2.305
791.0,2.625
792.0,2.579
793.0,2.612
794.0,3.042
795.0,3.374
796.0,2.834
797.0,2.317
798.0,2.738
799.0,3.157
800.0,3.574
801.0,3.99
802.0,3.975
803.0,3.904
804.0,4.229
805.0,4.639
806.0,5.414
807.0,6.306
808.0,6.863
809.0,7.268
810.0,7.974
811.0,8.861
812.0,9.746
813.0,10.629
814.0,11.51
815.0,12.389
816.0,13.479
817.0,14.84
818.0,16.383
819.0,18.226
820.0,20.223
821.0,22.549
822.0,25.128
823.0,28.425
824.0,31.921
825.0,36.185
826.0,40.512
827.0,45.243
828.0,49.874
829.0,53.62
830.0,57.337
831.0,60.581
832.0,63.818
833.0,65.604
834.0,67.372
835.0,66.381
836.0,65.199
837.0,63.151
838.0,60.997
839.0,58.421
840.0,55.752
841.0,53.47
842.0,51.292
843.0,49.834
844.0,48.605
845.0,47.705
846.0,46.942
847.0,46.177
848.0,45.417
849.0,45.56
850.0,46.259
851.0,47.507
852.0,49.159
853.0,50.799
854.0,52.441
855.0,54.81
856.0,57.926
857.0,60.818
858.0,63.441
859.0,66.669
860.0,70.718
861.0,74.913
862.0,79.424
863.0,83.622
864.0,87.185
865.0,91.207
866.0,96.232
867.0,101.916
868.0,109.356
869.0,117.257
870.0,126.642
871.0,136.387
872.0,147.324
873.0,158.362
874.0,169.818
875.0,181.748
876.0,196.185
877.0,210.274
878.0,221.833
879.0,232.621
880.0,236.789
881.0,240.29
882.0,236.071
883.0,231.441
884.0,219.382
885.0,207.183
886.0,190.205
887.0,173.256
888.0,158.74
889.0,144.229
890.0,131.685
891.0,119.16
892.0,111.433
893.0,103.851
894.0,97.689
895.0,91.599
896.0,88.752
897.0,86.132
898.0,86.707
899.0,87.565
900.0,89.773
901.0,92.125
902.0,97.579
903.0,103.419
904.0,110.579
905.0,117.988
906.0,127.624
907.0,137.668
908.0,149.381
909.0,161.336
910.0,173.341
911.0,185.394
912.0,196.198
913.0,206.761
914.0,214.425
915.0,221.489
916.0,224.809
917.0,227.296
918.0,226.895
919.0,225.829
920.0,222.699
921.0,219.112
922.0,213.493
923.0,207.408
924.0,201.319
925.0,195.23
926.0,188.332
927.0,181.245
928.0,174.965
929.0,168.875
930.0,163.19
931.0,157.6
932.0,152.417
933.0,147.328
934.0,143.059
935.0,138.972
936.0,135.299
937.0,131.715
938.0,126.879
939.0,121.79
940.0,118.383
941.0,115.301
942.0,110.945
943.0,106.36
944.0,101.774
945.0,97.188
946.0,91.733
947.0,86.147
948.0,81.442
949.0,76.862
950.0,73.628
951.0,70.56
952.0,69.773
953.0,69.228
954.0,69.149
955.0,69.113
956.0,70.023
957.0,71.001
958.0,73.907
959.0,76.908
960.0,78.442
961.0,79.936
962.0,81.434
963.0,82.911
964.0,82.393
965.0,81.861
966.0,80.843
967.0,79.799
968.0,78.28
969.0,76.764
970.0,75.25
971.0,73.952
972.0,74.47
973.0,75.389
974.0,78.955
975.0,83.331
976.0,91.974
977.0,101.476
978.0,114.696
979.0,128.91
980.0,146.721
981.0,165.039
982.0,184.897
983.0,203.623
984.0,219.421
985.0,230.64
986.0,231.708
987.0,228.039
988.0,215.372
989.0,199.803
990.0,179.496
991.0,158.764
992.0,137.432
993.0,117.945
994.0,100.683
995.0,85.168
996.0,71.464
997.0,60.2
998.0,51.09
999.0,42.852
1000.0,35.269
1001.0,29.566
1002.0,25.05
1003.0,20.868
1004.0,16.862
1005.0,13.213
1006.0,9.719
1007.0,6.988
1008.0,4.519
1009.0,2.859
1010.0,1.416
1011.0,0.455
1012.0,2.409
1013.0,3.91
1014.0,5.352
1015.0,4.398
1016.0,3.278
1017.0,4.178
1018.0,5.072
1019.0,4.978
1020.0,4.884
1021.0,4.792
1022.0,4.553
1023.0,3.434
1024.0,2.416
1025.0,1.81
1026.0,0.812
1027.0,1.339
1028.0,3.333
1029.0,4.973
1030.0,6.995
1031.0,9.669
1032.0,12.345
1033.0,15.025
1034.0,18.209
1035.0,21.922
1036.0,25.354
1037.0,28.556
1038.0,33.339
1039.0,39.13
1040.0,44.235
1041.0,49.023
1042.0,53.786
1043.0,58.55
1044.0,62.903
1045.0,67.156
1046.0,70.962
1047.0,74.702
1048.0,76.012
1049.0,77.18
1050.0,76.802
1051.0,76.361
1052.0,74.992
1053.0,73.499
1054.0,71.152
1055.0,68.799
1056.0,66.439
1057.0,64.226
1058.0,62.371
1059.0,60.702
1060.0,59.354
1061.0,58.695
1062.0,58.894
1063.0,58.814
1064.0,58.507
1065.0,59.482
1066.0,61.288
1067.0,63.091
1068.0,64.889
1069.0,67.468
1070.0,70.256
1071.0,74.781
1072.0,79.668
1073.0,86.016
1074.0,92.496
1075.0,101.567
1076.0,110.634
1077.0,119.701
1078.0,129.314
1079.0,141.518
1080.0,153.583
1081.0,165.264
1082.0,177.859
1083.0,192.151
1084.0,208.512
1085.0,227.527
1086.0,250.972
1087.0,278.376
1088.0,310.979
1089.0,346.78
1090.0,384.074
1091.0,421.972
1092.0,451.033
1093.0,477.948
1094.0,479.435
1095.0,478.036
1096.0,439.56
1097.0,399.307
1098.0,343.752
1099.0,289.185
1100.0,238.881
1101.0,192.606
1102.0,156.442
1103.0,125.337
1104.0,102.316
1105.0,83.398
1106.0,68.819
1107.0,57.016
1108.0,47.166
1109.0,40.221
1110.0,34.576
1111.0,30.176
1112.0,26.101
1113.0,22.972
1114.0,19.956
1115.0,17.473
1116.0,15.098
1117.0,13.657
1118.0,12.22
1119.0,10.777
1120.0,9.439
1121.0,8.388
1122.0,7.497
1123.0,6.954
1124.0,6.181
1125.0,5.118
1126.0,4.351
1127.0,3.759
1128.0,3.58
1129.0,3.522
1130.0,2.528
1131.0,1.486
1132.0,1.548
1133.0,1.578
1134.0,1.174
1135.0,0.918
1136.0,1.07
1137.0,1.038
1138.0,0.665
1139.0,0.547
1140.0,0.693
1141.0,0.839
1142.0,0.992
1143.0,1.149
1144.0,1.305
1145.0,0.998
1146.0,0.605
1147.0,0.218
1148.0,0.056
1149.0,0.63
1150.0,1.433
1151.0,2.64
1152.0,4.038
1153.0,5.788
1154.0,4.945
1155.0,1.337
1156.0,0.026
1157.0,0.158
1158.0,0.113
1159.0,0.522
1160.0,0.93
1161.0,1.332
1162.0,1.206
1163.0,1.081
1164.0,0.958
1165.0,0.836
1166.0,0.717
1167.0,0.602
1168.0,0.49
1169.0,0.377
1170.0,0.265
1171.0,0.529
1172.0,0.963
1173.0,0.953
1174.0,0.854
1175.0,0.756
1176.0,0.598
1177.0,0.037
1178.0,0.391
1179.0,0.056
1180.0,0.289
1181.0,0.199
1182.0,0.108
1183.0,0.021
1184.0,0.063
1185.0,0.148
1186.0,0.234
1187.0,0.319
1188.0,0.401
1189.0,0.479
1190.0,0.556
1191.0,0.632
1192.0,0.707
1193.0,0.781
1194.0,0.857
1195.0,0.932
1196.0,1.003
1197.0,1.478
1198.0,2.093
1199.0,1.731
1200.0,1.255
1201.0,0.779
1202.0,0.648
1203.0,1.801
1204.0,2.351
1205.0,1.87
1206.0,1.391
1207.0,0.913
1208.0,1.18
1209.0,1.783
1210.0,1.922
1211.0,1.972
1212.0,1.484
1213.0,1.09
1214.0,1.144
1215.0,1.197
1216.0,1.249
1217.0,1.574
1218.0,2.167
1219.0,2.392
1220.0,2.438
1221.0,2.027
1222.0,1.533
1223.0,2.122
1224.0,2.516
1225.0,2.01
1226.0,1.694
1227.0,1.732
1228.0,1.77
1229.0,1.808
1230.0,1.466
1231.0,0.956
1232.0,1.396
1233.0,1.981
1234.0,2.566
1235.0,3.031
1236.0,3.068
1237.0,2.887
1238.0,2.375
1239.0,1.863
1240.0,1.349
1241.0,1.663
1242.0,2.247
1243.0,1.803
1244.0,1.349
1245.0,1.38
1246.0,1.573
1247.0,2.153
1248.0,2.2
1249.0,1.675
1250.0,1.517
1251.0,1.542
1252.0,2.035
1253.0,2.565
1254.0,2.034
1255.0,1.617
1256.0,1.61
1257.0,1.856
1258.0,2.426
1259.0,2.324
1260.0,1.786
1261.0,2.128
1262.0,2.693
1263.0,2.711
1264.0,2.795
1265.0,3.338
1266.0,3.445
1267.0,2.835
1268.0,2.51
1269.0,2.392
1270.0,2.281
1271.0,2.176
1272.0,2.077
1273.0,2.077
1274.0,2.546
1275.0,2.616
1276.0,1.986
1277.0,1.99
1278.0,2.483
1279.0,2.956
1280.0,3.398
1281.0,3.299
1282.0,3.091
1283.0,2.428
1284.0,2.197
1285.0,2.7
1286.0,2.897
1287.0,2.834
1288.0,2.312
1289.0,1.678
1290.0,2.165
1291.0,2.424
1292.0,1.804
1293.0,1.422
1294.0,1.368
1295.0,1.67
1296.0,2.181
1297.0,2.222
1298.0,2.176
1299.0,2.133
1300.0,1.938
1301.0,1.337
1302.0,1.282
1303.0,1.803
1304.0,1.537
1305.0,0.949
1306.0,1.398
1307.0,1.856
1308.0,1.82
1309.0,1.567
1310.0,0.95
1311.0,1.011
1312.0,1.548
1313.0,1.178
1314.0,0.604
1315.0,1.115
1316.0,1.491
1317.0,1.457
1318.0,1.423
1319.0,1.389
1320.0,1.346
1321.0,1.293
1322.0,1.241
1323.0,1.277
1324.0,1.789
1325.0,2.091
1326.0,2.054
1327.0,1.67
1328.0,1.068
1329.0,1.898
1330.0,2.845
1331.0,2.238
1332.0,1.988
1333.0,2.51
1334.0,2.716
1335.0,2.667
1336.0,2.617
1337.0,2.579
1338.0,3.09
1339.0,3.442
1340.0,3.383
1341.0,3.051
1342.0,2.44
1343.0,2.247
1344.0,2.205
1345.0,2.717
1346.0,3.238
1347.0,3.752
1348.0,3.729
1349.0,3.1
1350.0,2.88
1351.0,2.821
1352.0,2.753
1353.0,2.685
1354.0,2.62
1355.0,3.072
1356.0,4.157
1357.0,4.443
1358.0,4.375
1359.0,4.845
1360.0,5.246
1361.0,5.192
1362.0,4.876
1363.0,4.236
1364.0,3.994
1365.0,3.93
1366.0,3.873
1367.0,3.932
1368.0,4.439
1369.0,4.686
1370.0,4.631
1371.0,4.163
1372.0,3.534
1373.0,4.591
1374.0,5.286
1375.0,4.661
1376.0,4.319
1377.0,4.27
1378.0,4.216
1379.0,4.172
1380.0,4.694
1381.0,4.895
1382.0,4.27
1383.0,3.967
1384.0,3.916
1385.0,4.334
1386.0,4.775
1387.0,4.154
1388.0,3.731
1389.0,3.687
1390.0,3.643
1391.0,3.598
1392.0,3.553
1393.0,3.507
1394.0,3.462
1395.0,3.413
1396.0,3.368
1397.0,3.721
1398.0,4.25
1399.0,4.224
1400.0,4.039
1401.0,3.412
1402.0,3.084
1403.0,3.033
1404.0,3.447
1405.0,3.937
1406.0,3.883
1407.0,3.627
1408.0,2.989
1409.0,3.093
1410.0,3.625
1411.0,3.624
1412.0,3.46
1413.0,2.831
1414.0,2.48
1415.0,2.43
1416.0,2.383
1417.0,2.363
1418.0,2.899
1419.0,3.047
1420.0,2.416
1421.0,2.147
1422.0,2.1
1423.0,2.053
1424.0,2.006
1425.0,1.959
1426.0,1.913
1427.0,1.867
1428.0,1.365
1429.0,0.733
1430.0,0.103
1431.0,0.114
1432.0,1.243
1433.0,1.986
1434.0,2.53
1435.0,1.953
1436.0,1.472
1437.0,1.431
1438.0,1.066
1439.0,0.437
1440.0,0.806
1441.0,1.267
1442.0,1.226
1443.0,1.186
1444.0,1.146
1445.0,1.548
1446.0,2.035
1447.0,1.406
1448.0,0.777
1449.0,0.148
1450.0,0.689
1451.0,1.831
1452.0,0.689
1453.0,0.117
1454.0,1.261
1455.0,1.718
1456.0,1.681
1457.0,1.117
1458.0,0.609
1459.0,0.573
1460.0,0.539
1461.0,0.504
1462.0,0.47
1463.0,0.519
1464.0,1.079
1465.0,1.104
1466.0,0.478
1467.0,0.31
1468.0,0.279
1469.0,0.249
1470.0,0.459
1471.0,1.025
1472.0,0.735
1473.0,0.136
1474.0,0.11
1475.0,0.084
1476.0,0.059
1477.0,0.441
1478.0,1.009
1479.0,0.391
1480.0,0.032
1481.0,0.052
1482.0,0.071
1483.0,0.088
1484.0,0.105
1485.0,0.062
1486.0,0.646
1487.0,0.854
1488.0,0.843
1489.0,0.259
1490.0,0.002
1491.0,0.567
1492.0,0.708
1493.0,0.603
1494.0,1.143
1495.0,1.526
1496.0,1.316
1497.0,0.854
1498.0,0.131
1499.0,0.003
1500.0,0.0
