Raman Shift,Intensity
55.666,730.0
57.065,731.0
58.464,1037.0
59.863,818.0
61.262,825.0
62.661,890.0
64.059,950.0
65.458,962.0
66.856,1101.0
68.253,1178.0
69.651,1326.0
71.048,1582.0
72.445,1757.0
73.842,2167.0
75.239,2707.0
76.635,2753.0
78.031,3013.0
79.427,3498.0
80.823,4216.605
82.218,5135.56
83.614,6311.0
85.009,7612.0
86.404,9187.0
87.798,10903.0
89.193,12150.0
90.587,12704.0
91.981,11605.0
93.375,10687.0
94.768,9750.0
96.161,9035.0
97.554,8328.0
98.947,7119.0
100.34,6019.0
101.732,5090.0
103.124,4392.0
104.516,4046.0
105.908,3935.0
107.3,3728.0
108.691,3445.0
110.082,3448.0
111.473,3402.0
112.864,3481.0
114.254,3602.0
115.644,3705.0
117.034,3904.0
118.424,3666.0
119.813,3628.0
121.203,3769.0
122.592,3979.0
123.981,4388.879
125.369,4941.317
126.758,5588.0
128.146,6493.0
129.534,7426.0
130.922,8578.0
132.309,8911.0
133.696,8647.0
135.083,7843.0
136.47,7070.0
137.857,6363.0
139.243,6033.0
140.63,5815.0
142.016,5986.0
143.401,6385.0
144.787,7136.0
146.172,7745.0
147.557,7568.0
148.942,6970.0
150.327,6572.0
151.711,6407.0
153.096,6584.0
154.48,7158.0
155.863,8020.0
157.247,9175.0
158.63,10894.0
160.013,13033.0
161.396,15416.0
162.779,17911.0
164.161,20051.0
165.544,20269.0
166.926,19340.0
168.308,16754.0
169.689,14742.0
171.07,12774.0
172.452,11845.0
173.833,10675.0
175.213,9634.0
176.594,8602.0
177.974,7574.0
179.354,6909.0
180.734,6473.0
182.114,6038.0
183.493,5824.0
184.872,5646.0
186.251,5544.0
187.63,5475.0
189.008,5333.0
190.387,5269.0
191.765,5189.0
193.143,5235.0
194.52,5430.0
195.898,5583.0
197.275,6024.0
198.652,6434.0
200.029,6856.0
201.405,7095.0
202.782,6999.0
204.158,6679.0
205.534,6470.0
206.909,6262.0
208.285,5807.0
209.66,5415.0
211.035,5213.0
212.41,5038.033
213.784,4995.0
215.159,5012.0
216.533,5135.0
217.907,5322.0
219.281,5547.0
220.654,5804.0
222.027,6132.0
223.4,6670.0
224.773,7050.0
226.146,7503.0
227.518,7905.0
228.891,8380.0
230.263,8865.0
231.634,9430.0
233.006,10290.0
234.377,11405.0
235.748,13386.0
237.119,15656.0
238.49,17877.0
239.86,21252.0
241.231,23275.0
242.601,24208.0
243.97,23112.0
245.34,20971.0
246.709,18256.0
248.079,15202.0
249.448,12982.0
250.816,11123.0
252.185,9774.0
253.553,8865.0
254.921,8100.0
256.289,7636.0
257.657,7166.0
259.024,6813.0
260.391,6486.0
261.758,6273.0
263.125,6179.0
264.492,6128.0
265.858,6277.0
267.224,6369.0
268.59,6735.0
269.956,6986.0
271.321,7519.0
272.687,8126.0
274.052,8523.0
275.416,8598.0
276.781,8589.0
278.146,8207.0
279.51,7879.0
280.874,7824.0
282.237,7863.0
283.601,8266.0
284.964,8655.0
286.327,9530.0
287.69,10861.0
289.053,12370.0
290.416,14483.0
291.778,17049.0
293.14,18273.0
294.502,18064.0
295.863,16807.0
297.225,15122.0
298.586,13358.0
299.947,11928.0
301.308,10438.0
302.668,9287.0
304.029,8407.0
305.389,7738.0
306.749,7241.0
308.108,6849.0
309.468,6835.0
310.827,6808.0
312.186,6903.0
313.545,6937.0
314.903,7104.0
316.262,6929.0
317.62,7083.0
318.978,7313.0
320.336,7662.0
321.693,8235.0
323.051,8857.0
324.408,9632.0
325.765,9838.0
327.121,10270.0
328.478,10191.0
329.834,10199.0
331.19,10250.0
332.546,10456.0
333.902,10350.0
335.257,10848.0
336.612,11178.0
337.967,12000.0
339.322,13053.0
340.677,14692.0
342.031,16887.0
343.385,19979.0
344.739,23227.0
346.093,26857.0
347.446,29367.0
348.799,31209.0
350.153,30578.0
351.505,28096.0
352.858,24321.0
354.21,20622.0
355.563,17358.0
356.915,14532.0
358.267,12715.0
359.618,11081.0
360.969,9833.0
362.321,9123.0
363.672,8328.0
365.022,7930.0
366.373,7484.0
367.723,7145.0
369.073,6850.0
370.423,6322.0
371.773,5958.0
373.122,5553.0
374.471,5302.0
375.821,5069.0
377.169,4895.0
378.518,4736.0
379.866,4676.0
381.215,4682.0
382.563,4756.0
383.91,4879.0
385.258,5176.0
386.605,5258.0
387.952,5474.0
389.299,5466.0
390.646,5528.348
391.992,5500.723
393.339,5480.0
394.685,5351.0
396.031,5192.0
397.376,5127.0
398.722,4992.0
400.067,5007.0
401.412,4855.0
402.757,4915.0
404.101,4945.0
405.446,4961.0
406.79,5000.0
408.134,5114.0
409.478,5314.0
410.821,5607.0
412.165,5818.0
413.508,6132.0
414.851,6756.0
416.193,7382.0
417.536,8303.122
418.878,9128.0
420.22,10546.0
421.562,11993.0
422.904,13398.0
424.245,14448.0
425.586,14999.0
426.927,14861.0
428.268,14961.0
429.609,15464.0
430.949,16194.0
432.289,18027.0
433.629,19920.0
434.969,20684.0
436.309,21093.0
437.648,20743.0
438.987,20712.0
440.326,20818.0
441.665,21558.0
443.003,23534.0
444.342,27120.0
445.68,31365.0
447.018,37049.0
448.355,42195.0
449.693,43785.0
451.03,43912.0
452.367,42514.0
453.704,41632.0
455.041,39716.0
456.377,38045.0
457.713,34954.0
459.049,31530.0
460.385,27716.0
461.721,23800.0
463.056,20646.0
464.391,17644.0
465.726,15226.0
467.061,13495.0
468.395,11956.0
469.73,10660.0
471.064,10038.0
472.398,9117.0
473.731,8685.0
475.065,8290.0
476.398,8041.0
477.731,7840.0
479.064,7842.0
480.397,7781.0
481.729,7783.0
483.062,8029.0
484.394,8156.0
485.725,8474.0
487.057,8701.0
488.389,9209.0
489.72,9695.0
491.051,10407.0
492.382,11516.0
493.712,12832.0
495.043,14272.0
496.373,16034.0
497.703,17451.0
499.032,18602.0
500.362,18968.0
501.691,18747.0
503.02,18036.0
504.349,17038.0
505.678,16614.0
507.007,15967.0
508.335,15259.0
509.663,14485.0
510.991,13158.0
512.319,11662.0
513.646,10155.0
514.973,9030.0
516.3,8298.0
517.627,7963.0
518.954,8007.0
520.28,8064.0
521.607,8313.0
522.933,8374.0
524.259,8146.0
525.584,7656.0
526.91,6899.0
528.235,6290.0
529.56,5758.0
530.885,5308.0
532.209,5042.0
533.534,4791.0
534.858,4717.0
536.182,4633.0
537.506,4540.0
538.829,4510.0
540.152,4503.0
541.476,4456.0
542.799,4530.0
544.121,4461.0
545.444,4670.0
546.766,4724.0
548.088,4847.0
549.41,5104.0
550.732,5309.0
552.053,5658.0
553.375,6065.0
554.696,6650.0
556.017,7392.0
557.337,8588.0
558.658,10472.0
559.978,13041.0
561.298,16482.0
562.618,21083.0
563.938,24600.0
565.257,26238.0
566.576,24531.0
567.895,19914.0
569.214,15673.0
570.533,12332.0
571.851,10048.0
573.17,8670.0
574.488,7865.0
575.805,7481.0
577.123,7228.0
578.44,7267.0
579.758,7511.0
581.075,7987.0
582.391,8334.0
583.708,9090.0
585.024,9765.0
586.341,10296.0
587.657,10747.0
588.972,11416.0
590.288,11951.0
591.603,12818.0
592.918,13987.0
594.233,15704.0
595.548,17369.0
596.863,18701.0
598.177,18857.0
599.491,18655.0
600.805,17868.0
602.119,16756.0
603.432,15064.0
604.746,13891.0
606.059,12909.0
607.372,12254.0
608.685,11619.0
609.997,11487.0
611.309,11136.0
612.621,10686.0
613.933,10103.0
615.245,9258.0
616.557,8500.0
617.868,7821.0
619.179,7369.0
620.49,6631.821
621.801,5856.0
623.111,5551.0
624.421,5162.0
625.731,5044.0
627.041,4664.0
628.351,4567.0
629.66,4404.0
630.97,4336.0
632.279,4169.0
633.588,4101.0
634.896,4044.0
636.205,3969.0
637.513,3897.0
638.821,3852.887
640.129,3751.0
641.437,3766.0
642.744,3749.0
644.051,3715.0
645.358,3639.0
646.665,3689.0
647.972,3650.0
649.278,3615.0
650.584,3654.0
651.89,3548.0
653.196,3649.0
654.502,3622.0
655.807,3644.0
657.113,3631.0
658.418,3665.0
659.722,3633.0
661.027,3658.0
662.331,3668.523
663.636,3661.0
664.94,3697.0
666.244,3641.0
667.547,3646.0
668.851,3625.0
670.154,3684.0
671.457,3687.0
672.76,3738.0
674.062,3810.0
675.365,3889.0
676.667,3955.95
677.969,3993.0
679.271,4137.0
680.572,4294.0
681.874,4454.0
683.175,4711.0
684.476,4894.0
685.777,5077.0
687.077,5199.0
688.378,5186.0
689.678,5149.0
690.978,5029.0
692.278,4749.0
693.577,4442.0
694.877,4369.0
696.176,4199.0
697.475,4088.0
698.774,3939.0
700.072,3898.0
701.371,3808.0
702.669,3692.0
703.967,3615.0
705.265,3584.0
706.562,3485.0
707.86,3483.0
709.157,3380.0
710.454,3371.0
711.751,3234.0
713.047,3287.0
714.344,3218.0
715.64,3233.0
716.936,3164.0
718.232,3158.0
719.527,3176.0
720.823,3134.0
722.118,3143.0
723.413,3149.0
724.708,3125.0
726.002,3105.0
727.297,3079.0
728.591,3072.0
729.885,3051.0
731.179,3062.0
732.472,3111.0
733.766,3074.0
735.059,3040.0
736.352,3088.0
737.645,3048.0
738.937,3037.0
740.23,3058.0
741.522,3042.0
742.814,3045.0
744.106,3039.0
745.397,3060.0
746.689,3083.0
747.98,3033.0
749.271,3064.0
750.562,3037.0
751.853,3082.0
753.143,3058.0
754.433,3014.0
755.723,3084.0
757.013,3004.0
758.303,3022.881
759.592,3023.517
760.881,3023.0
762.17,3028.0
763.459,3051.0
764.748,3076.0
766.036,3057.0
767.325,3092.0
768.613,3023.0
769.901,3132.0
771.188,3107.0
772.476,3020.0
773.763,3131.0
775.05,3039.0
776.337,3124.0
777.624,3052.0
778.91,3092.0
780.196,3125.0
781.482,3106.0
782.768,3140.0
784.054,3100.0
785.339,3172.0
786.625,3187.0
787.91,3186.0
789.195,3205.0
790.479,3194.0
791.764,3208.0
793.048,3211.794
794.332,3191.0
795.616,3229.0
796.9,3253.0
798.183,3279.0
799.467,3266.0
800.75,3243.0
802.033,3277.0
803.316,3275.0
804.598,3490.0
805.88,3462.927
807.163,3581.0
808.445,3513.0
809.726,3441.0
811.008,3401.0
812.289,3618.0
813.57,3971.0
814.851,3949.0
816.132,4114.0
817.413,4239.0
818.693,3842.0
819.973,3735.0
821.253,3724.0
822.533,3799.0
823.813,3866.596
825.092,3934.696
826.371,4132.0
827.65,4136.0
828.929,4220.0
830.208,4352.0
831.486,4258.861
832.764,4420.194
834.042,4519.757
835.32,4433.0
836.598,4473.0
837.875,4526.0
839.152,4533.0
840.429,4554.0
841.706,4762.0
842.983,4754.0
844.259,4947.0
845.536,5005.0
846.812,5182.0
848.088,5419.0
849.363,5468.0
850.639,5728.0
851.914,6083.0
853.189,6260.0
854.464,6641.0
855.739,7007.0
857.013,7669.0
858.288,8093.0
859.562,8815.0
860.836,9540.0
862.11,10255.0
863.383,11096.0
864.656,11764.0
865.93,12238.0
867.203,12773.0
868.475,13156.0
869.748,13642.0
871.02,14348.0
872.292,15195.0
873.564,16023.0
874.836,17064.0
876.108,17920.0
877.379,18887.0
878.65,19618.0
879.922,20177.0
881.192,20723.0
882.463,21038.0
883.733,21690.0
885.004,22252.0
886.274,22587.0
887.544,22262.0
888.813,21674.0
890.083,19761.0
891.352,18405.0
892.621,16589.0
893.89,14709.0
895.159,13162.0
896.427,12030.0
897.695,11189.0
898.964,10613.0
900.232,9950.0
901.499,9802.0
902.767,9606.0
904.034,9583.0
905.301,9680.0
906.568,9950.0
907.835,10350.0
909.102,10560.0
910.368,11167.0
911.634,11552.0
912.9,12011.0
914.166,12256.0
915.432,12374.0
916.697,12090.0
917.962,11505.0
919.227,11075.0
920.492,10272.0
921.757,9273.0
923.021,8574.0
924.285,7987.0
925.55,7386.0
926.813,6930.0
928.077,6441.0
929.341,6100.0
930.604,5858.0
931.867,5620.0
933.13,5408.0
934.393,5211.0
935.655,5150.0
936.918,4957.0
938.18,4918.0
939.442,4794.0
940.703,4688.0
941.965,4649.0
943.226,4592.0
944.488,4497.0
945.749,4514.0
947.009,4457.0
948.27,4502.0
949.53,4381.0
950.791,4386.0
952.051,4357.0
953.311,4370.0
954.57,4401.818
955.83,4424.723
957.089,4486.0
958.348,4493.0
959.607,4525.0
960.866,4511.0
962.124,4528.0
963.383,4563.174
964.641,4576.0
965.899,4662.0
967.156,4708.0
968.414,4809.0
969.671,4902.0
970.928,5022.0
972.185,5246.0
973.442,5592.0
974.699,5966.0
975.955,6503.0
977.211,6978.0
978.468,7379.0
979.723,7942.0
980.979,7978.0
982.234,7830.0
983.49,7461.0
984.745,6820.0
986.0,6391.0
987.254,5904.0
988.509,5452.0
989.763,5238.0
991.017,4936.0
992.271,4851.0
993.525,4697.0
994.779,4564.0
996.032,4428.0
997.285,4362.646
998.538,4378.0
999.791,4277.0
1001.044,4276.0
1002.296,4272.0
1003.548,4225.0
1004.8,4211.0
1006.052,4245.0
1007.304,4301.0
1008.555,4342.0
1009.807,4365.0
1011.058,4551.0
1012.309,4663.0
1013.559,4885.0
1014.81,5132.0
1016.06,5407.0
1017.31,5839.0
1018.56,6182.0
1019.81,6241.0
1021.06,6292.0
1022.309,6198.0
1023.558,5888.0
1024.807,5630.0
1026.056,5314.0
1027.305,5063.0
1028.553,4898.0
1029.801,4839.0
1031.049,4752.0
1032.297,4770.0
1033.545,4813.0
1034.793,4894.0
1036.04,4985.0
1037.287,5079.0
1038.534,5238.0
1039.781,5336.0
1041.027,5449.0
1042.274,5457.0
1043.52,5479.0
1044.766,5560.0
1046.012,5506.0
1047.257,5213.0
1048.503,5072.0
1049.748,5085.0
1050.993,4896.0
1052.238,4868.0
1053.483,4830.0
1054.727,4781.0
1055.971,4820.0
1057.216,4932.0
1058.459,4940.0
1059.703,4967.0
1060.947,5215.0
1062.19,5203.0
1063.433,5161.0
1064.676,5130.0
1065.919,4990.0
1067.162,4948.0
1068.404,4971.0
1069.646,4878.0
1070.888,4941.0
1072.13,5086.0
1073.372,5219.0
1074.613,5479.0
1075.855,5682.0
1077.096,5950.0
1078.337,6234.0
1079.578,6770.0
1080.818,7158.0
1082.059,7707.0
1083.299,8426.0
1084.539,9175.0
1085.779,9665.0
1087.018,9838.0
1088.258,9542.0
1089.497,8890.0
1090.736,7920.0
1091.975,7100.0
1093.213,6409.0
1094.452,5746.0
1095.69,5292.0
1096.928,5161.0
1098.166,4792.783
1099.404,4637.479
1100.642,4495.0
1101.879,4390.0
1103.116,4329.0
1104.353,4275.0
1105.59,4263.0
1106.827,4200.0
1108.063,4169.0
1109.299,4482.0
1110.536,4191.0
1111.771,4439.0
1113.007,3974.0
1114.243,4016.0
1115.478,4028.0
1116.713,3976.0
1117.948,3930.0
1119.183,3968.0
1120.418,3924.0
1121.652,3929.0
1122.886,4043.0
1124.12,3977.0
1125.354,3963.0
1126.588,3884.0
1127.821,3886.0
1129.055,3882.0
1130.288,3858.0
1131.521,3862.0
1132.753,3818.0
1133.986,3802.0
1135.218,3796.0
1136.45,3841.0
1137.682,3766.0
1138.914,3845.0
1140.146,3799.0
1141.377,3774.0
1142.609,3780.0
1143.84,3755.0
1145.071,3754.0
1146.301,3785.0
1147.532,3713.0
1148.762,3703.0
1149.992,3720.0
1151.222,3702.0
1152.452,3718.0
1153.682,3692.0
1154.911,3756.0
1156.14,3671.0
1157.369,3666.0
1158.598,3715.0
1159.827,3785.0
1161.055,3754.395
1162.284,3723.0
1163.512,3689.0
1164.74,3680.151
1165.967,3680.437
1167.195,3674.0
1168.422,3706.0
1169.65,3724.0
1170.877,3736.0
1172.103,3676.0
1173.33,3778.0
1174.557,3652.0
1175.783,3726.0
1177.009,3770.0
1178.235,3713.0
1179.461,3681.0
1180.686,3705.0
1181.912,3729.0
1183.137,3773.0
1184.362,3709.0
1185.587,3744.0
1186.811,3706.0
1188.036,3725.0
1189.26,3705.0
1190.484,3748.0
1191.708,3772.0
1192.932,3788.0
1194.155,3779.713
1195.378,3730.0
1196.602,3733.0
1197.825,3742.0
1199.047,3714.0
1200.27,3748.0
1201.492,3728.0
1202.715,3783.0
1203.937,3713.0
1205.159,3768.0
1206.38,3761.0
1207.602,3765.0
1208.823,3777.389
1210.044,3725.0
1211.265,3784.0
1212.486,3747.0
1213.707,3769.0
1214.927,3692.0
1216.147,3723.622
1217.367,3800.0
1218.587,3759.0
1219.807,3710.0
1221.027,3730.0
1222.246,3703.0
1223.465,3701.0
1224.684,3722.0
1225.903,3722.0
1227.121,3707.0
1228.34,3680.0
1229.558,3677.0
1230.776,3730.0
1231.994,3709.0
1233.212,3760.0
1234.429,3732.0
1235.646,3736.0
1236.864,3755.0
1238.081,3770.0
1239.297,3694.0
1240.514,3710.0
1241.73,3701.0
1242.947,3718.0
1244.163,3766.0
1245.378,3720.0
1246.594,3688.0
1247.81,3748.0
1249.025,3691.0
1250.24,3741.0
1251.455,3718.0
1252.67,3792.0
1253.885,3749.515
1255.099,3733.186
1256.313,3735.0
1257.527,3670.0
1258.741,3772.0
1259.955,3782.0
1261.168,3695.0
1262.382,3776.0
1263.595,3765.0
1264.808,3726.0
1266.021,3732.0
1267.233,3796.0
1268.446,3733.0
1269.658,3750.0
1270.87,3689.0
1272.082,3750.0
1273.294,3791.0
1274.505,3697.0
1275.716,3752.0
1276.928,3753.0
1278.139,3710.0
1279.349,3795.0
1280.56,3762.0
1281.77,3796.0
1282.981,3725.0
1284.191,3796.0
1285.401,3776.0
1286.61,3778.0
1287.82,3743.187
1289.029,3795.857
1290.239,3827.294
1291.448,3838.632
1292.656,3769.683
1293.865,3803.0
1295.073,3840.0
1296.282,3806.0
1297.49,3858.0
1298.698,3819.06
1299.906,3816.894
1301.113,3792.0
1302.32,3772.0
1303.528,3836.0
1304.735,3784.0
1305.942,3834.0
1307.148,3847.0
1308.355,3827.0
1309.561,3788.0
1310.767,3824.0
1311.973,3832.0
1313.179,3894.0
1314.384,3832.0
1315.59,3878.0
1316.795,3858.0
1318.0,3840.0
1319.205,3822.0
1320.41,3842.0
1321.614,3847.0
1322.819,3861.655
1324.023,3870.096
1325.227,3871.756
1326.431,3885.0
1327.634,3875.0
1328.838,3881.0
1330.041,3886.0
1331.244,3919.0
1332.447,3921.358
1333.65,3941.0
1334.852,3931.0
1336.055,3921.0
1337.257,3939.042
1338.459,3927.0
1339.661,3966.0
1340.862,3977.0
1342.064,3998.0
1343.265,3931.0
1344.466,3961.0
1345.667,3959.0
1346.868,3952.863
1348.068,3990.81
1349.269,4018.066
1350.469,4035.18
1351.669,4011.828
1352.869,4040.732
1354.069,4048.693
1355.268,4055.784
1356.468,4092.042
1357.667,4094.0
1358.866,4139.0
1360.065,4146.0
1361.263,4184.0
1362.462,4146.0
1363.66,4197.0
1364.858,4224.0
1366.056,4177.0
1367.254,4137.0
1368.451,4211.0
1369.649,4187.0
1370.846,4172.0
1372.043,4161.0
1373.24,4137.0
1374.436,4143.715
1375.633,4135.82
1376.829,4154.0
1378.025,4163.0
1379.221,4167.0
1380.417,4164.888
1381.613,4170.0
1382.808,4163.0
1384.003,4165.0
1385.199,4197.0
1386.393,4258.0
1387.588,4240.41
1388.783,4251.0
1389.977,4222.0
1391.171,4233.0
1392.365,4199.0
1393.559,4203.0
1394.753,4206.64
1395.946,4195.0
1397.14,4235.0
1398.333,4255.0
1399.526,4299.0
1400.719,4293.0
1401.911,4241.0
1403.104,4252.0
1404.296,4290.0
1405.488,4252.0
1406.68,4271.0
1407.872,4240.0
1409.063,4234.0
1410.255,4295.0
1411.446,4262.0
1412.637,4319.0
1413.828,4224.0
1415.018,4294.0
1416.209,4286.0
1417.399,4345.0
1418.589,4300.0
1419.779,4266.0
1420.969,4332.0
1422.159,4349.0
1423.348,4341.345
1424.537,4460.0
1425.726,4325.0
1426.915,4318.0
1428.104,4282.0
1429.293,4336.0
1430.481,4332.0
1431.669,4384.0
1432.857,4330.0
1434.045,4344.0
1435.233,4400.0
1436.42,4447.0
1437.608,4449.0
1438.795,4396.0
1439.982,4458.0
1441.169,4386.0
1442.355,4497.0
1443.542,4412.0
1444.728,4447.0
1445.914,4442.0
1447.1,4460.0
1448.286,4434.0
1449.472,4467.0
1450.657,4474.0
1451.842,4566.0
1453.027,4442.0
1454.212,4416.0
1455.397,4471.0
1456.581,4416.0
1457.766,4471.0
1458.95,4574.0
1460.134,4500.0
1461.318,4542.0
1462.501,4505.0
1463.685,4486.0
1464.868,4466.0
1466.051,4470.0
1467.234,4488.0
1468.417,4498.0
1469.6,4502.987
1470.782,4524.0
1471.965,4509.0
1473.147,4508.0
1474.329,4501.771
1475.51,4583.0
1476.692,4513.0
1477.873,4575.0
1479.055,4614.0
1480.236,4495.0
1481.416,4660.0
1482.597,4593.149
1483.778,4571.0
1484.958,4582.0
1486.138,4609.0
1487.318,4616.0
1488.498,4653.0
1489.678,4645.052
1490.857,4637.611
1492.037,4636.0
1493.216,4604.0
1494.395,4601.0
1495.574,4598.0
1496.752,4614.0
1497.931,4606.567
1499.109,4640.0
1500.287,4609.0
1501.465,4637.0
1502.643,4650.0
1503.82,4559.0
1504.998,4600.0
1506.175,4625.0
1507.352,4626.0
1508.529,4701.0
1509.706,4655.0
1510.882,4665.0
1512.059,4737.0
1513.235,4714.0
1514.411,4663.0
1515.587,4692.0
1516.762,4739.0
1517.938,4693.0
1519.113,4770.0
1520.288,4711.0
1521.463,4743.0
1522.638,4684.0
