Raman Shift,Intensity
55.666,2151.0
57.065,2134.0
58.464,2184.0
59.863,2153.0
61.262,2106.0
62.661,2161.0
64.059,2174.0
65.458,2220.0
66.856,2334.0
68.253,2361.0
69.651,2548.0
71.048,2731.0
72.445,2954.0
73.842,3280.0
75.239,3665.0
76.635,4014.0
78.031,4664.0
79.427,5399.0
80.823,6648.0
82.218,8259.0
83.614,9731.0
85.009,11442.0
86.404,13098.0
87.798,14622.0
89.193,15620.0
90.587,15771.0
91.981,14643.0
93.375,13145.0
94.768,11390.0
96.161,9882.0
97.554,8843.0
98.947,7722.0
100.34,6789.0
101.732,6092.0
103.124,5700.0
104.516,5437.0
105.908,5111.851
107.3,4933.468
108.691,4822.0
110.082,4704.0
111.473,4659.0
112.864,4694.0
114.254,4810.0
115.644,4861.0
117.034,4802.0
118.424,4674.0
119.813,4505.0
121.203,4582.0
122.592,4576.0
123.981,4414.0
125.369,4391.0
126.758,4484.0
128.146,4601.0
129.534,4590.0
130.922,4690.0
132.309,4636.0
133.696,4634.0
135.083,4617.0
136.47,4681.0
137.857,4745.0
139.243,4726.0
140.63,4694.0
142.016,4724.639
143.401,4593.0
144.787,4730.0
146.172,4804.0
147.557,4805.0
148.942,4981.0
150.327,5059.0
151.711,5198.0
153.096,5412.0
154.48,5687.0
155.863,5903.0
157.247,6255.0
158.63,6757.0
160.013,7374.0
161.396,8209.0
162.779,9294.0
164.161,10732.0
165.544,12302.0
166.926,14377.0
168.308,16287.0
169.689,18188.0
171.07,19557.0
172.452,20650.0
173.833,20510.0
175.213,19318.0
176.594,17771.0
177.974,15414.0
179.354,13743.0
180.734,12130.0
182.114,10892.0
183.493,9842.0
184.872,9120.0
186.251,8625.0
187.63,8219.0
189.008,7680.0
190.387,7473.0
191.765,7126.0
193.143,6951.0
194.52,6897.0
195.898,6829.0
197.275,7036.0
198.652,7132.0
200.029,7319.0
201.405,7414.0
202.782,7432.0
204.158,7390.0
205.534,7286.0
206.909,7360.0
208.285,6972.0
209.66,6787.0
211.035,6705.0
212.41,6619.0
213.784,6686.0
215.159,6849.0
216.533,7123.0
217.907,7566.0
219.281,8072.0
220.654,8852.0
222.027,9594.0
223.4,10869.0
224.773,12108.0
226.146,13517.0
227.518,14720.0
228.891,15560.0
230.263,15982.0
231.634,16162.0
233.006,15897.0
234.377,15352.0
235.748,14961.0
237.119,14748.0
238.49,14481.0
239.86,14657.0
241.231,14367.0
242.601,14013.0
243.97,13406.0
245.34,12470.0
246.709,11397.0
248.079,10208.0
249.448,9431.0
250.816,8595.0
252.185,8138.0
253.553,7831.0
254.921,7514.0
256.289,7358.0
257.657,7064.0
259.024,6870.0
260.391,6659.0
261.758,6631.0
263.125,6484.0
264.492,6634.0
265.858,6917.0
267.224,7338.0
268.59,7980.0
269.956,8625.0
271.321,9511.0
272.687,10417.0
274.052,10915.0
275.416,11055.0
276.781,10861.0
278.146,10019.0
279.51,8931.0
280.874,8159.0
282.237,7389.0
283.601,6952.0
284.964,6541.0
286.327,6424.0
287.69,6395.0
289.053,6386.0
290.416,6481.0
291.778,6687.0
293.14,6723.0
294.502,6841.0
295.863,6906.0
297.225,6940.0
298.586,6838.0
299.947,6758.0
301.308,6739.0
302.668,6631.996
304.029,6568.539
305.389,6452.0
306.749,6426.0
308.108,6300.0
309.468,6268.0
310.827,6114.0
312.186,6088.0
313.545,6016.0
314.903,6010.0
316.262,5979.0
317.62,5975.0
318.978,6089.0
320.336,6156.0
321.693,6171.0
323.051,6402.0
324.408,6446.0
325.765,6424.0
327.121,6571.0
328.478,6467.0
329.834,6574.0
331.19,6761.0
332.546,7073.0
333.902,7249.0
335.257,7748.0
336.612,8036.0
337.967,8696.0
339.322,9429.0
340.677,10505.0
342.031,11968.0
343.385,13486.0
344.739,15264.0
346.093,17243.0
347.446,18524.0
348.799,19542.0
350.153,19750.0
351.505,18947.0
352.858,17585.0
354.21,15590.0
355.563,13956.0
356.915,12228.0
358.267,10739.0
359.618,9600.0
360.969,8585.0
362.321,7845.0
363.672,7230.0
365.022,6762.0
366.373,6402.0
367.723,6050.0
369.073,5792.523
370.423,5618.0
371.773,5459.0
373.122,5297.0
374.471,5300.0
375.821,5305.0
377.169,5236.0
378.518,5479.0
379.866,5552.0
381.215,5741.0
382.563,6180.0
383.91,6544.0
385.258,7041.0
386.605,7495.0
387.952,7868.0
389.299,7916.0
390.646,7977.0
391.992,7498.0
393.339,7126.0
394.685,6695.0
396.031,6252.0
397.376,6010.0
398.722,5626.0
400.067,5588.0
401.412,5429.0
402.757,5304.0
404.101,5318.0
405.446,5234.0
406.79,5249.0
408.134,5392.0
409.478,5467.521
410.821,5897.0
412.165,5925.0
413.508,6184.0
414.851,6700.0
416.193,7237.0
417.536,7947.0
418.878,8896.0
420.22,10119.0
421.562,11441.0
422.904,12526.0
424.245,14172.0
425.586,15509.0
426.927,17015.0
428.268,19021.0
429.609,21060.0
430.949,23626.0
432.289,26639.0
433.629,29950.0
434.969,31664.0
436.309,31191.0
437.648,29393.0
438.987,27586.0
440.326,24772.0
441.665,22476.0
443.003,20810.0
444.342,20246.0
445.68,19914.0
447.018,20374.0
448.355,20751.0
449.693,21525.0
451.03,22039.0
452.367,22393.0
453.704,22688.0
455.041,22064.0
456.377,21569.0
457.713,19764.0
459.049,18360.0
460.385,16327.0
461.721,14694.0
463.056,13136.0
464.391,11843.0
465.726,10320.0
467.061,9406.0
468.395,8595.0
469.73,8035.0
471.064,7664.0
472.398,7201.0
473.731,6854.0
475.065,6465.0
476.398,6272.0
477.731,6127.0
479.064,6010.0
480.397,5967.0
481.729,5970.0
483.062,6066.0
484.394,6046.0
485.725,6287.0
487.057,6251.0
488.389,6620.0
489.72,6961.0
491.051,7187.0
492.382,7639.0
493.712,8467.0
495.043,9113.0
496.373,9922.0
497.703,10743.0
499.032,11505.0
500.362,12134.0
501.691,12460.0
503.02,12846.0
504.349,12893.0
505.678,13487.0
507.007,13571.0
508.335,13883.0
509.663,13628.0
510.991,13038.0
512.319,12224.0
513.646,10736.0
514.973,9760.0
516.3,8576.0
517.627,7860.0
518.954,7168.0
520.28,6495.0
521.607,6180.0
522.933,5763.0
524.259,5516.0
525.584,5346.0
526.91,5101.0
528.235,5068.0
529.56,4965.0
530.885,4918.0
532.209,4829.0
533.534,4812.0
534.858,4878.0
536.182,4837.0
537.506,4890.0
538.829,4801.0
540.152,4891.0
541.476,4944.0
542.799,4979.0
544.121,4943.0
545.444,5137.0
546.766,5141.0
548.088,5301.0
549.41,5442.0
550.732,5848.101
552.053,5919.221
553.375,6853.0
554.696,6469.0
556.017,6985.0
557.337,7808.0
558.658,8798.0
559.978,10313.0
561.298,12019.0
562.618,14072.0
563.938,15444.0
565.257,16435.0
566.576,15521.0
567.895,13694.0
569.214,12217.0
570.533,10809.0
571.851,9724.0
573.17,9088.0
574.488,8936.0
575.805,8952.0
577.123,9154.0
578.44,9623.0
579.758,10442.0
581.075,11439.0
582.391,12450.0
583.708,14190.0
585.024,15198.0
586.341,16652.0
587.657,18409.0
588.972,19371.0
590.288,21323.0
591.603,22961.0
592.918,24800.0
594.233,27400.0
595.548,30174.0
596.863,32012.0
598.177,32777.0
599.491,32348.0
600.805,31825.0
602.119,29514.0
603.432,27899.0
604.746,26157.0
606.059,25019.0
607.372,23628.0
608.685,23094.0
609.997,22702.0
611.309,22254.0
612.621,21527.0
613.933,20582.0
615.245,19250.0
616.557,17673.0
617.868,16230.0
619.179,14320.0
620.49,12791.0
621.801,11270.0
623.111,10209.0
624.421,9219.0
625.731,8612.0
627.041,7760.0
628.351,7458.0
629.66,6851.0
630.97,6672.0
632.279,6427.0
633.588,6103.0
634.896,5927.0
636.205,5646.0
637.513,5628.0
638.821,5386.0
640.129,5289.0
641.437,5174.0
642.744,5081.0
644.051,4932.0
645.358,4890.0
646.665,4773.0
647.972,4661.0
649.278,4606.0
650.584,4508.0
651.89,4373.0
653.196,4402.0
654.502,4313.0
655.807,4320.0
657.113,4190.0
658.418,4141.0
659.722,4232.0
661.027,4067.0
662.331,4062.0
663.636,4047.0
664.94,4078.0
666.244,3992.0
667.547,3980.0
668.851,3904.0
670.154,3908.0
671.457,3924.0
672.76,3886.0
674.062,3929.0
675.365,3909.976
676.667,3911.0
677.969,3898.0
679.271,3890.0
680.572,3878.0
681.874,3866.185
683.175,3874.0
684.476,3845.0
685.777,3822.0
687.077,3817.0
688.378,3777.0
689.678,3740.0
690.978,3728.0
692.278,3784.0
693.577,3744.057
694.877,3749.0
696.176,3738.0
697.475,3719.0
698.774,3745.0
700.072,3696.0
701.371,3712.0
702.669,3742.0
703.967,3600.0
705.265,3635.0
706.562,3632.0
707.86,3543.0
709.157,3530.0
710.454,3496.0
711.751,3529.0
713.047,3480.0
714.344,3456.0
715.64,3406.0
716.936,3411.0
718.232,3382.566
719.527,3341.0
720.823,3344.0
722.118,3399.0
723.413,3363.0
724.708,3364.0
726.002,3283.0
727.297,3307.0
728.591,3201.0
729.885,3316.0
731.179,3233.0
732.472,3271.0
733.766,3267.0
735.059,3260.832
736.352,3252.0
737.645,3269.0
738.937,3273.0
740.23,3238.0
741.522,3208.0
742.814,3226.0
744.106,3215.0
745.397,3233.0
746.689,3234.651
747.98,3195.0
749.271,3252.0
750.562,3193.0
751.853,3215.0
753.143,3225.0
754.433,3232.0
755.723,3239.24
757.013,3235.5
758.303,3236.0
759.592,3228.0
760.881,3211.0
762.17,3216.0
763.459,3258.0
764.748,3260.0
766.036,3167.0
767.325,3236.0
768.613,3190.0
769.901,3258.0
771.188,3254.0
772.476,3235.0
773.763,3274.0
775.05,3213.0
776.337,3200.0
777.624,3254.0
778.91,3206.0
780.196,3169.0
781.482,3239.0
782.768,3202.0
784.054,3227.0
785.339,3230.0
786.625,3269.0
787.91,3293.0
789.195,3315.0
790.479,3284.0
791.764,3335.0
793.048,3304.0
794.332,3318.0
795.616,3431.0
796.9,3382.0
798.183,3441.0
799.467,3407.0
800.75,3427.0
802.033,3442.0
803.316,3453.0
804.598,3509.0
805.88,3467.0
807.163,3542.0
808.445,3527.0
809.726,3606.0
811.008,3636.0
812.289,3653.0
813.57,3710.0
814.851,3780.0
816.132,3832.0
817.413,3935.0
818.693,3990.0
819.973,4096.896
821.253,4174.0
822.533,4310.0
823.813,4473.0
825.092,4584.0
826.371,4790.0
827.65,4988.0
828.929,5158.0
830.208,5316.0
831.486,5410.0
832.764,5368.0
834.042,5468.0
835.32,5409.0
836.598,5362.0
837.875,5403.0
839.152,5374.0
840.429,5419.0
841.706,5412.0
842.983,5347.0
844.259,5298.0
845.536,5457.0
846.812,5438.0
848.088,5522.102
849.363,5706.0
850.639,5668.0
851.914,5794.0
853.189,5849.0
854.464,6002.0
855.739,6169.013
857.013,6415.0
858.288,6585.0
859.562,6757.0
860.836,7024.0
862.11,7268.0
863.383,7265.0
864.656,7523.0
865.93,7613.0
867.203,7618.0
868.475,7634.0
869.748,7754.0
871.02,7725.0
872.292,7881.0
873.564,7985.0
874.836,8256.0
876.108,8367.0
877.379,8584.0
878.65,8965.0
879.922,9307.0
881.192,9658.0
882.463,10140.0
883.733,10543.0
885.004,10867.0
886.274,11161.0
887.544,11420.0
888.813,11633.0
890.083,11672.0
891.352,11652.0
892.621,11897.0
893.89,12177.0
895.159,12564.0
896.427,13151.0
897.695,13899.0
898.964,15009.0
900.232,16314.0
901.499,17441.0
902.767,19112.0
904.034,21116.0
905.301,23179.0
906.568,25887.0
907.835,29086.0
909.102,32334.0
910.368,35818.0
911.634,39555.0
912.9,43472.0
914.166,46336.0
915.432,49296.0
916.697,49233.0
917.962,47576.0
919.227,45440.0
920.492,41459.0
921.757,36722.0
923.021,32469.0
924.285,28401.0
925.55,24938.852
926.813,21783.0
928.077,19128.0
929.341,16861.0
930.604,15000.054
931.867,13996.0
933.13,12254.0
934.393,11258.0
935.655,10593.0
936.918,9709.0
938.18,9216.0
939.442,8641.0
940.703,8178.0
941.965,7831.0
943.226,7441.0
944.488,7100.0
945.749,6990.0
947.009,6792.0
948.27,6571.0
949.53,6478.0
950.791,6351.0
952.051,6347.0
953.311,6290.0
954.57,6201.0
955.83,6280.0
957.089,6192.0
958.348,6182.0
959.607,6113.0
960.866,6054.0
962.124,5964.0
963.383,5767.0
964.641,5682.0
965.899,5585.0
967.156,5518.887
968.414,5519.0
969.671,5496.0
970.928,5553.0
972.185,5632.0
973.442,5786.0
974.699,5934.0
975.955,6157.0
977.211,6426.0
978.468,6473.0
979.723,6570.0
980.979,6433.0
982.234,6243.0
983.49,6091.0
984.745,5689.0
986.0,5440.0
987.254,5130.0
988.509,4933.0
989.763,4760.0
991.017,4702.0
992.271,4582.0
993.525,4510.0
994.779,4373.0
996.032,4344.0
997.285,4293.0
998.538,4258.0
999.791,4221.645
1001.044,4228.0
1002.296,4144.0
1003.548,4135.0
1004.8,4086.0
1006.052,4116.0
1007.304,4130.0
1008.555,4084.0
1009.807,4170.0
1011.058,4170.0
1012.309,4236.0
1013.559,4405.0
1014.81,4406.0
1016.06,4480.0
1017.31,4662.0
1018.56,4739.0
1019.81,4712.0
1021.06,4790.0
1022.309,4789.0
1023.558,4681.0
1024.807,4692.0
1026.056,4647.0
1027.305,4660.0
1028.553,4689.0
1029.801,4768.0
1031.049,4862.0
1032.297,4943.0
1033.545,5032.0
1034.793,5252.0
1036.04,5372.0
1037.287,5462.0
1038.534,5610.0
1039.781,5653.0
1041.027,5687.427
1042.274,5677.0
1043.52,5646.0
1044.766,5631.0
1046.012,5518.0
1047.257,5410.0
1048.503,5262.0
1049.748,5215.0
1050.993,5046.0
1052.238,5034.0
1053.483,4957.0
1054.727,4925.0
1055.971,4857.0
1057.216,4844.161
1058.459,4805.0
1059.703,4827.0
1060.947,4829.0
1062.19,4822.0
1063.433,4748.0
1064.676,4699.0
1065.919,4626.0
1067.162,4608.0
1068.404,4609.67
1069.646,4593.0
1070.888,4693.0
1072.13,4757.0
1073.372,4880.0
1074.613,5028.0
1075.855,5352.0
1077.096,5674.0
1078.337,6068.0
1079.578,6684.0
1080.818,7477.0
1082.059,8376.0
1083.299,9541.0
1084.539,10782.0
1085.779,11470.0
1087.018,11918.0
1088.258,11616.0
1089.497,10728.0
1090.736,9586.0
1091.975,8462.0
1093.213,7391.0
1094.452,6588.0
1095.69,5971.0
1096.928,5456.0
1098.166,5186.0
1099.404,4921.0
1100.642,4688.0
1101.879,4561.0
1103.116,4443.0
1104.353,4333.0
1105.59,4277.0
1106.827,4164.0
1108.063,4177.0
1109.299,4048.0
1110.536,4085.0
1111.771,4002.0
1113.007,3872.0
1114.243,3986.0
1115.478,3991.0
1116.713,3874.0
1117.948,3859.0
1119.183,3790.0
1120.418,3854.0
1121.652,3932.0
1122.886,3962.0
1124.12,3982.0
1125.354,3840.0
1126.588,3788.0
1127.821,3730.0
1129.055,3715.0
1130.288,3677.0
1131.521,3654.506
1132.753,3693.0
1133.986,3636.0
1135.218,3647.0
1136.45,3676.0
1137.682,3579.0
1138.914,3627.0
1140.146,3615.0
1141.377,3619.0
1142.609,3568.0
1143.84,3522.0
1145.071,3550.0
1146.301,3559.0
1147.532,3515.0
1148.762,3553.0
1149.992,3524.0
1151.222,3576.0
1152.452,3520.0
1153.682,3521.0
1154.911,3505.0
1156.14,3520.0
1157.369,3535.0
1158.598,3482.0
1159.827,3523.0
1161.055,3530.0
1162.284,3479.0
1163.512,3489.0
1164.74,3456.0
1165.967,3494.0
1167.195,3449.0
1168.422,3512.0
1169.65,3495.0
1170.877,3480.0
1172.103,3427.0
1173.33,3495.0
1174.557,3468.0
1175.783,3440.0
1177.009,3445.0
1178.235,3492.0
1179.461,3441.0
1180.686,3516.0
1181.912,3504.511
1183.137,3501.445
1184.362,3502.0
1185.587,3505.0
1186.811,3466.0
1188.036,3485.0
1189.26,3488.0
1190.484,3501.0
1191.708,3522.0
1192.932,3480.0
1194.155,3460.0
1195.378,3469.0
1196.602,3499.0
1197.825,3483.0
1199.047,3487.42
1200.27,3476.0
1201.492,3468.0
1202.715,3468.167
1203.937,3477.0
1205.159,3466.0
1206.38,3458.0
1207.602,3462.0
1208.823,3410.0
1210.044,3390.0
1211.265,3402.0
1212.486,3441.0
1213.707,3366.0
1214.927,3445.0
1216.147,3411.761
1217.367,3415.0
1218.587,3392.0
1219.807,3345.0
1221.027,3328.0
1222.246,3409.0
1223.465,3290.0
1224.684,3392.0
1225.903,3406.0
1227.121,3387.0
1228.34,3321.0
1229.558,3358.0
1230.776,3377.0
1231.994,3331.0
1233.212,3289.0
1234.429,3328.0
1235.646,3290.0
1236.864,3319.0
1238.081,3339.0
1239.297,3275.0
1240.514,3334.0
1241.73,3336.0
1242.947,3310.0
1244.163,3264.0
1245.378,3235.0
1246.594,3228.824
1247.81,3249.0
1249.025,3220.0
1250.24,3252.0
1251.455,3238.0
1252.67,3246.0
1253.885,3258.0
1255.099,3241.0
1256.313,3215.0
1257.527,3248.0
1258.741,3240.0
1259.955,3262.0
1261.168,3242.0
1262.382,3238.0
1263.595,3255.0
1264.808,3271.0
1266.021,3287.0
1267.233,3282.0
1268.446,3276.0
1269.658,3268.0
1270.87,3266.447
1272.082,3228.0
1273.294,3253.0
1274.505,3330.0
1275.716,3310.0
1276.928,3280.0
1278.139,3244.0
1279.349,3295.0
1280.56,3249.0
1281.77,3251.0
1282.981,3314.0
1284.191,3254.0
1285.401,3324.0
1286.61,3347.0
1287.82,3283.0
1289.029,3255.0
1290.239,3266.0
1291.448,3278.0
1292.656,3265.0
1293.865,3260.0
1295.073,3272.0
1296.282,3320.0
1297.49,3231.0
1298.698,3309.0
1299.906,3284.0
1301.113,3230.0
1302.32,3242.0
1303.528,3197.0
1304.735,3229.0
1305.942,3223.0
1307.148,3269.0
1308.355,3259.0
1309.561,3282.0
1310.767,3234.0
1311.973,3269.0
1313.179,3225.0
1314.384,3214.0
1315.59,3249.0
1316.795,3216.0
1318.0,3246.0
1319.205,3265.0
1320.41,3262.0
1321.614,3229.0
1322.819,3227.0
1324.023,3232.0
1325.227,3220.0
1326.431,3213.535
1327.634,3198.0
1328.838,3195.0
1330.041,3208.0
1331.244,3212.0
1332.447,3284.0
1333.65,3260.0
1334.852,3249.0
1336.055,3266.0
1337.257,3223.0
1338.459,3273.0
1339.661,3263.0
1340.862,3262.0
1342.064,3252.0
1343.265,3214.0
1344.466,3255.0
1345.667,3287.0
1346.868,3245.0
1348.068,3303.0
1349.269,3317.0
1350.469,3338.0
1351.669,3335.0
1352.869,3326.0
1354.069,3338.0
1355.268,3361.0
1356.468,3331.0
1357.667,3371.0
1358.866,3370.0
1360.065,3406.0
1361.263,3392.0
1362.462,3346.0
1363.66,3354.0
1364.858,3345.0
1366.056,3436.0
1367.254,3401.376
1368.451,3396.594
1369.649,3403.0
1370.846,3346.0
1372.043,3374.0
1373.24,3374.0
1374.436,3358.0
1375.633,3403.0
1376.829,3337.0
1378.025,3378.0
1379.221,3376.0
1380.417,3400.0
1381.613,3371.0
1382.808,3366.0
1384.003,3384.0
1385.199,3380.0
1386.393,3345.0
1387.588,3378.0
1388.783,3415.0
1389.977,3393.0
1391.171,3365.0
1392.365,3385.0
1393.559,3361.0
1394.753,3402.0
1395.946,3350.0
1397.14,3380.0
1398.333,3381.0
1399.526,3376.0
1400.719,3398.0
1401.911,3373.0
1403.104,3407.0
1404.296,3410.0
1405.488,3418.0
1406.68,3430.78
1407.872,3427.536
1409.063,3437.0
1410.255,3422.0
1411.446,3413.0
1412.637,3403.0
1413.828,3384.0
1415.018,3419.0
1416.209,3456.0
1417.399,3454.0
1418.589,3433.0
1419.779,3474.0
1420.969,3434.0
1422.159,3447.0
1423.348,3458.0
1424.537,3475.0
1425.726,3494.0
1426.915,3479.0
1428.104,3512.0
1429.293,3467.0
1430.481,3473.0
1431.669,3494.0
1432.857,3506.0
1434.045,3536.0
1435.233,3515.0
1436.42,3570.0
1437.608,3575.0
1438.795,3505.0
1439.982,3533.0
1441.169,3546.0
1442.355,3482.0
1443.542,3541.0
1444.728,3562.0
1445.914,3526.0
1447.1,3576.0
1448.286,3514.0
1449.472,3564.0
1450.657,3514.0
1451.842,3571.0
1453.027,3551.0
1454.212,3610.0
1455.397,3616.0
1456.581,3611.503
1457.766,3611.0
1458.95,3603.0
1460.134,3592.0
1461.318,3594.0
1462.501,3601.0
1463.685,3576.0
1464.868,3599.0
1466.051,3625.0
1467.234,3557.0
1468.417,3589.0
1469.6,3604.0
1470.782,3605.0
1471.965,3622.0
1473.147,3632.0
1474.329,3611.0
1475.51,3621.545
1476.692,3578.0
1477.873,3606.0
1479.055,3643.0
1480.236,3619.0
1481.416,3640.0
1482.597,3598.0
1483.778,3646.0
1484.958,3633.0
1486.138,3640.0
1487.318,3662.0
1488.498,3701.0
1489.678,3604.0
1490.857,3575.0
1492.037,3628.0
1493.216,3656.0
1494.395,3643.0
1495.574,3639.0
1496.752,3699.0
1497.931,3618.0
1499.109,3648.0
1500.287,3612.0
1501.465,3675.0
1502.643,3670.0
1503.82,3684.0
1504.998,3643.0
1506.175,3616.0
1507.352,3630.0
1508.529,3622.943
1509.706,3631.0
1510.882,3647.0
1512.059,3649.853
1513.235,3686.0
1514.411,3675.0
1515.587,3675.0
1516.762,3697.0
1517.938,3626.0
1519.113,3686.0
1520.288,3644.0
1521.463,3669.0
1522.638,3650.0
1523.813,3655.0
