Raman shift,Intensity
752.29475,68.46953
753.91051,67.8117
753.91051,68.46953
755.52627,68.46953
755.52627,67.8117
757.14202,67.8117
757.14202,68.46953
758.75778,67.8117
758.75778,68.46953
760.37353,67.8117
760.37353,68.46953
761.98929,68.46953
761.98929,67.8117
763.60504,67.8117
763.60504,68.46953
765.2208,68.46953
765.2208,67.8117
766.83656,67.8117
766.83656,67.15388
768.45231,67.15388
768.45231,67.8117
770.06807,67.15388
770.06807,67.8117
771.68382,67.8117
771.68382,67.15388
773.29958,67.15388
773.29958,67.8117
774.91533,67.8117
774.91533,67.15388
776.53109,67.15388
776.53109,67.8117
778.14685,67.15388
778.14685,68.46953
779.7626,67.15388
779.7626,69.12735
781.37836,66.49605
781.37836,69.12735
782.99411,69.12735
782.99411,66.49605
784.60987,69.12735
784.60987,66.49605
786.22563,66.49605
786.22563,69.12735
787.84138,69.12735
787.84138,66.49605
789.45714,66.49605
789.45714,69.12735
791.07289,66.49605
791.07289,69.12735
792.68865,66.49605
792.68865,69.12735
794.3044,66.49605
794.3044,69.12735
795.92016,68.46953
795.92016,66.49605
797.53592,66.49605
797.53592,68.46953
799.15167,68.46953
799.15167,66.49605
800.76743,68.46953
800.76743,66.49605
802.38318,68.46953
802.38318,66.49605
803.99894,68.46953
803.99894,66.49605
805.61469,66.49605
805.61469,68.46953
807.23045,68.46953
807.23045,66.49605
808.84621,68.46953
808.84621,66.49605
810.46196,66.49605
810.46196,68.46953
812.07772,68.46953
812.07772,66.49605
813.69347,68.46953
813.69347,66.49605
815.30923,66.49605
815.30923,68.46953
816.92498,68.46953
816.92498,66.49605
818.54074,68.46953
818.54074,66.49605
820.1565,66.49605
820.1565,68.46953
821.77225,66.49605
821.77225,68.46953
823.38801,68.46953
823.38801,66.49605
825.00376,66.49605
825.00376,68.46953
826.61952,66.49605
826.61952,68.46953
828.23528,66.49605
828.23528,68.46953
829.85103,66.49605
829.85103,68.46953
831.46679,68.46953
831.46679,66.49605
833.08254,66.49605
833.08254,68.46953
834.6983,66.49605
834.6983,68.46953
836.31405,68.46953
836.31405,66.49605
837.92981,66.49605
837.92981,68.46953
839.54557,68.46953
839.54557,66.49605
841.16132,68.46953
841.16132,66.49605
842.77708,66.49605
842.77708,68.46953
844.39283,66.49605
844.39283,68.46953
846.00859,66.49605
846.00859,68.46953
847.62434,66.49605
847.62434,68.46953
849.2401,66.49605
849.2401,68.46953
850.85586,68.46953
850.85586,66.49605
852.47161,66.49605
852.47161,68.46953
854.08737,68.46953
854.08737,66.49605
855.70312,68.46953
855.70312,66.49605
857.31888,66.49605
857.31888,68.46953
858.93464,68.46953
858.93464,66.49605
860.55039,66.49605
860.55039,68.46953
862.16615,67.8117
862.16615,66.49605
863.7819,66.49605
863.7819,67.15388
865.39766,67.15388
865.39766,66.49605
867.01341,66.49605
867.01341,67.15388
868.62917,67.15388
868.62917,66.49605
870.24493,66.49605
870.24493,67.15388
871.86068,66.49605
871.86068,67.15388
873.47644,67.15388
873.47644,66.49605
875.09219,66.49605
875.09219,67.15388
876.70795,67.15388
876.70795,66.49605
878.3237,67.15388
878.3237,66.49605
879.93946,66.49605
879.93946,67.15388
881.55522,67.15388
881.55522,66.49605
883.17097,67.15388
883.17097,66.49605
884.78673,66.49605
884.78673,67.15388
886.40248,66.49605
886.40248,67.15388
888.01824,67.15388
888.01824,66.49605
889.63399,67.15388
889.63399,66.49605
891.24975,67.15388
891.24975,66.49605
892.86551,67.15388
892.86551,66.49605
894.48126,67.15388
894.48126,66.49605
896.09702,67.15388
896.09702,66.49605
897.71277,67.15388
897.71277,66.49605
899.32853,67.15388
899.32853,66.49605
900.94429,66.49605
900.94429,67.15388
902.56004,67.15388
902.56004,66.49605
904.1758,66.49605
904.1758,67.15388
905.79155,67.15388
905.79155,66.49605
907.40731,66.49605
907.40731,67.15388
909.02306,67.15388
909.02306,66.49605
910.63882,66.49605
910.63882,67.15388
912.25458,66.49605
912.25458,67.15388
913.87033,66.49605
913.87033,67.15388
915.48609,67.15388
915.48609,66.49605
917.10184,66.49605
917.10184,67.15388
918.7176,67.15388
918.7176,66.49605
920.33335,67.15388
920.33335,66.49605
921.94911,66.49605
921.94911,67.15388
923.56487,67.15388
923.56487,66.49605
925.18062,66.49605
925.18062,67.15388
926.79638,66.49605
926.79638,67.15388
928.41213,67.15388
928.41213,66.49605
930.02789,66.49605
930.02789,67.15388
931.64365,67.15388
931.64365,66.49605
933.2594,67.15388
933.2594,66.49605
934.87516,66.49605
934.87516,67.15388
936.49091,67.15388
936.49091,66.49605
938.10667,66.49605
938.10667,67.15388
939.72242,67.15388
939.72242,66.49605
941.33818,67.15388
941.33818,66.49605
942.95394,66.49605
942.95394,67.15388
944.56969,66.49605
944.56969,67.15388
946.18545,67.15388
946.18545,66.49605
947.8012,66.49605
947.8012,67.15388
949.41696,66.49605
949.41696,67.15388
951.03271,67.15388
951.03271,66.49605
952.64847,67.15388
952.64847,66.49605
954.26423,66.49605
954.26423,67.15388
955.87998,66.49605
955.87998,67.15388
957.49574,66.49605
957.49574,67.15388
959.11149,67.15388
959.11149,66.49605
960.72725,66.49605
960.72725,67.15388
962.343,67.15388
962.343,66.49605
963.95876,66.49605
963.95876,67.15388
965.57452,67.15388
965.57452,66.49605
967.19027,66.49605
967.19027,67.15388
968.80603,67.15388
968.80603,66.49605
970.42178,66.49605
970.42178,67.15388
972.03754,67.15388
972.03754,66.49605
973.6533,66.49605
973.6533,67.15388
975.26905,67.15388
975.26905,66.49605
976.88481,66.49605
976.88481,67.15388
978.50056,67.15388
978.50056,66.49605
980.11632,67.15388
980.11632,66.49605
981.73207,66.49605
981.73207,67.15388
983.34783,67.15388
983.34783,66.49605
984.96359,66.49605
984.96359,67.15388
986.57934,66.49605
986.57934,67.15388
988.1951,67.15388
988.1951,66.49605
989.81085,67.15388
989.81085,67.8117
991.42661,67.8117
991.42661,68.46953
993.04236,68.46953
993.04236,69.12735
994.65812,68.46953
994.65812,69.12735
996.27388,69.12735
996.27388,68.46953
997.88963,68.46953
997.88963,69.12735
999.50539,69.12735
999.50539,68.46953
1001.12114,68.46953
1001.12114,69.12735
1002.7369,69.12735
1002.7369,68.46953
1004.35266,68.46953
1004.35266,69.12735
1005.96841,69.12735
1005.96841,68.46953
1007.58417,68.46953
1007.58417,67.8117
1009.19992,69.12735
1009.19992,67.15388
1010.81568,67.15388
1010.81568,69.12735
1012.43143,67.15388
1012.43143,69.12735
1014.04719,69.12735
1014.04719,67.15388
1015.66295,69.12735
1015.66295,67.15388
1017.2787,69.12735
1017.2787,67.15388
1018.89446,69.12735
1018.89446,67.15388
1020.51021,67.15388
1020.51021,69.12735
1022.12597,67.15388
1022.12597,69.12735
1023.74172,69.12735
1023.74172,67.15388
1025.35748,67.15388
1025.35748,69.12735
1026.97324,67.15388
1026.97324,69.12735
1028.58899,69.12735
1028.58899,67.15388
1030.20475,67.15388
1030.20475,69.12735
1031.8205,69.12735
1031.8205,67.15388
1033.43626,67.15388
1033.43626,69.12735
1035.05201,69.12735
1035.05201,67.15388
1036.66777,67.15388
1036.66777,69.12735
1038.28353,67.15388
1038.28353,69.12735
1039.89928,69.12735
1039.89928,67.15388
1041.51504,67.15388
1041.51504,69.12735
1043.13079,69.12735
1043.13079,67.15388
1044.74655,67.15388
1044.74655,69.12735
1046.36231,67.15388
1046.36231,69.12735
1047.97806,67.15388
1047.97806,69.12735
1049.59382,67.15388
1049.59382,69.12735
1051.20957,67.15388
1051.20957,69.12735
1052.82533,67.15388
1052.82533,69.12735
1054.44108,67.15388
1054.44108,69.12735
1056.05684,69.12735
1056.05684,67.15388
1057.6726,69.12735
1057.6726,67.15388
1059.28835,67.15388
1059.28835,69.12735
1060.90411,69.12735
1060.90411,67.15388
1062.51986,69.12735
1062.51986,67.15388
1064.13562,67.15388
1064.13562,69.12735
1065.75137,69.12735
1065.75137,67.15388
1067.36713,69.12735
1067.36713,67.15388
1068.98289,69.12735
1068.98289,67.15388
1070.59864,67.15388
1070.59864,69.12735
1072.2144,67.15388
1072.2144,69.12735
1073.83015,67.15388
1073.83015,69.12735
1075.44591,67.15388
1075.44591,69.12735
1077.06167,69.12735
1077.06167,67.15388
1078.67742,67.15388
1078.67742,69.12735
1080.29318,67.15388
1080.29318,69.12735
1081.90893,67.15388
1081.90893,69.12735
1083.52469,67.15388
1083.52469,69.12735
1085.14044,67.15388
1085.14044,69.12735
1086.7562,67.15388
1086.7562,69.12735
1088.37196,69.12735
1088.37196,67.15388
1089.98771,69.12735
1089.98771,67.15388
1091.60347,67.15388
1091.60347,69.12735
1093.21922,67.15388
1093.21922,69.12735
1094.83498,69.12735
1094.83498,67.15388
1096.45073,69.12735
1096.45073,67.15388
1098.06649,67.15388
1098.06649,69.12735
1099.68225,69.12735
1099.68225,67.15388
1101.298,69.12735
1101.298,67.15388
1102.91376,69.12735
1102.91376,67.15388
1104.52951,67.15388
1104.52951,69.12735
1106.14527,67.15388
1106.14527,69.12735
1107.76102,69.12735
1107.76102,67.15388
1109.37678,67.15388
1109.37678,69.12735
1110.99254,69.12735
1110.99254,67.15388
1112.60829,67.15388
1112.60829,69.12735
1114.22405,69.12735
1114.22405,67.15388
1115.8398,69.12735
1115.8398,67.15388
1117.45556,67.15388
1117.45556,69.12735
1119.07132,67.15388
1119.07132,69.12735
1120.68707,69.12735
1120.68707,67.15388
1122.30283,67.15388
1122.30283,69.12735
1123.91858,69.12735
1123.91858,67.15388
1125.53434,69.12735
1125.53434,67.15388
1127.15009,67.15388
1127.15009,69.12735
1128.76585,69.12735
1128.76585,67.15388
1130.38161,69.12735
1130.38161,67.15388
1131.99736,67.15388
1131.99736,69.12735
1133.61312,67.15388
1133.61312,69.12735
1135.22887,69.12735
1135.22887,67.15388
1136.84463,67.15388
1136.84463,69.12735
1138.46038,69.12735
1138.46038,67.15388
1140.07614,69.12735
1140.07614,67.15388
1141.6919,69.12735
1141.6919,67.15388
1143.30765,69.12735
1143.30765,67.15388
1144.92341,67.15388
1144.92341,69.12735
1146.53916,67.15388
1146.53916,69.12735
1148.15492,67.15388
1148.15492,69.12735
1149.77068,67.15388
1149.77068,69.12735
1151.38643,67.15388
1151.38643,69.12735
1153.00219,67.15388
1153.00219,69.12735
1154.61794,69.12735
1154.61794,67.15388
1156.2337,67.15388
1156.2337,69.12735
1157.84945,69.12735
1157.84945,67.15388
1159.46521,67.15388
1159.46521,69.12735
1161.08097,69.12735
1161.08097,67.15388
1162.69672,67.15388
1162.69672,69.12735
1164.31248,69.12735
1164.31248,67.15388
1165.92823,67.15388
1165.92823,69.12735
1167.54399,67.15388
1167.54399,69.12735
1169.15974,67.15388
1169.15974,69.12735
1170.7755,69.12735
1170.7755,67.15388
1172.39126,69.12735
1172.39126,67.15388
1174.00701,69.12735
1174.00701,67.15388
1175.62277,67.15388
1175.62277,69.12735
1177.23852,67.15388
1177.23852,69.12735
1178.85428,69.12735
1178.85428,67.15388
1180.47003,69.12735
1180.47003,67.15388
1182.08579,69.12735
1182.08579,67.15388
1183.70155,67.15388
1183.70155,69.12735
1185.3173,67.15388
1185.3173,69.12735
1186.93306,69.12735
1186.93306,67.15388
1188.54881,67.15388
1188.54881,69.12735
1190.16457,67.15388
1190.16457,69.12735
1191.78033,69.12735
1191.78033,67.15388
1193.39608,67.15388
1193.39608,69.12735
1195.01184,67.15388
1195.01184,69.12735
1196.62759,67.15388
1196.62759,69.12735
1198.24335,69.12735
1198.24335,67.15388
1199.8591,67.15388
1199.8591,69.12735
1201.47486,69.12735
1201.47486,67.15388
1203.09062,67.15388
1203.09062,69.12735
1204.70637,69.12735
1204.70637,67.15388
1206.32213,67.15388
1206.32213,69.12735
1207.93788,67.15388
1207.93788,69.12735
1209.55364,69.12735
1209.55364,67.15388
1211.16939,67.15388
1211.16939,69.12735
1212.78515,67.15388
1212.78515,69.12735
1214.40091,69.12735
1214.40091,67.15388
1216.01666,69.12735
1216.01666,67.15388
1217.63242,69.12735
1217.63242,67.15388
1219.24817,67.15388
1219.24817,69.12735
1220.86393,67.15388
1220.86393,69.12735
1222.47969,67.15388
1222.47969,69.12735
1224.09544,69.12735
1224.09544,67.15388
1225.7112,69.12735
1225.7112,67.15388
1227.32695,67.15388
1227.32695,69.12735
1228.94271,67.15388
1228.94271,69.12735
1230.55846,69.12735
1230.55846,67.15388
1232.17422,69.12735
1232.17422,67.15388
1233.78998,69.12735
1233.78998,67.15388
1235.40573,67.15388
1235.40573,69.12735
1237.02149,67.15388
1237.02149,69.12735
1238.63724,69.12735
1238.63724,67.15388
1240.253,69.12735
1240.253,67.15388
1241.86875,67.15388
1241.86875,69.12735
1243.48451,67.15388
1243.48451,69.12735
1245.10027,69.12735
1245.10027,67.15388
1246.71602,69.12735
1246.71602,67.15388
1248.33178,69.12735
1248.33178,67.15388
1249.94753,69.12735
1249.94753,67.15388
1251.56329,69.12735
1251.56329,67.15388
1253.17904,67.15388
1253.17904,69.12735
1254.7948,67.15388
1254.7948,69.12735
1256.41056,69.12735
1256.41056,67.15388
1258.02631,69.12735
1258.02631,67.15388
1259.64207,67.15388
1259.64207,69.12735
1261.25782,69.12735
1261.25782,67.15388
1262.87358,67.15388
1262.87358,69.12735
1264.48934,69.12735
1264.48934,67.15388
1266.10509,67.15388
1266.10509,69.12735
1267.72085,67.15388
1267.72085,69.12735
1269.3366,69.12735
1269.3366,67.15388
1270.95236,69.12735
1270.95236,67.15388
1272.56811,67.15388
1272.56811,69.12735
1274.18387,67.15388
1274.18387,69.12735
1275.79963,67.15388
1275.79963,69.12735
1277.41538,69.12735
1277.41538,67.15388
1279.03114,67.15388
1279.03114,69.12735
1280.64689,69.12735
1280.64689,67.15388
1282.26265,67.15388
1282.26265,69.12735
1283.8784,69.12735
1283.8784,67.15388
1285.49416,69.12735
1285.49416,67.15388
1287.10992,67.15388
1287.10992,69.12735
1288.72567,69.12735
1288.72567,67.15388
1290.34143,69.12735
1290.34143,67.15388
1291.95718,69.12735
1291.95718,67.15388
1293.57294,69.12735
1293.57294,67.15388
1295.1887,69.12735
1295.1887,67.15388
1296.80445,69.12735
1296.80445,67.15388
1298.42021,67.15388
1298.42021,69.12735
1300.03596,67.15388
1300.03596,69.12735
1301.65172,69.12735
1301.65172,67.15388
1303.26747,67.15388
1303.26747,69.12735
1304.88323,67.15388
1304.88323,69.12735
1306.49899,69.12735
1306.49899,67.15388
1308.11474,69.12735
1308.11474,67.15388
1309.7305,67.15388
1309.7305,69.12735
1311.34625,67.15388
1311.34625,69.12735
1312.96201,69.12735
1312.96201,67.15388
1314.57776,67.15388
1314.57776,69.12735
1316.19352,67.15388
1316.19352,69.12735
1317.80928,67.15388
1317.80928,69.12735
1319.42503,67.15388
1319.42503,69.12735
1321.04079,69.12735
1321.04079,67.15388
1322.65654,67.15388
1322.65654,69.12735
1324.2723,69.12735
1324.2723,67.15388
1325.88805,67.15388
1325.88805,69.12735
1327.50381,67.15388
1327.50381,69.12735
1329.11957,67.15388
1329.11957,69.12735
1330.73532,69.12735
1330.73532,67.15388
1332.35108,69.12735
1332.35108,67.15388
1333.96683,67.15388
1333.96683,69.12735
1335.58259,67.15388
1335.58259,69.12735
1337.19835,67.15388
1337.19835,69.12735
1338.8141,69.12735
1338.8141,67.15388
1340.42986,67.15388
1340.42986,69.12735
1342.04561,67.15388
1342.04561,69.12735
1343.66137,69.12735
1343.66137,67.15388
1345.27712,67.15388
1345.27712,69.12735
1346.89288,67.15388
1346.89288,69.12735
1348.50864,67.15388
1348.50864,69.12735
1350.12439,67.15388
1350.12439,69.12735
1351.74015,67.15388
1351.74015,69.12735
1353.3559,69.12735
1353.3559,67.15388
1354.97166,69.12735
1354.97166,67.15388
1356.58741,67.15388
1356.58741,69.12735
1358.20317,67.15388
1358.20317,69.12735
1359.81893,69.12735
1359.81893,67.15388
1361.43468,69.12735
1361.43468,67.15388
1363.05044,67.15388
1363.05044,69.12735
1364.66619,67.15388
1364.66619,69.12735
1366.28195,67.15388
1366.28195,69.12735
1367.89771,67.15388
1367.89771,69.12735
1369.51346,67.15388
1369.51346,69.12735
1371.12922,69.12735
1371.12922,67.15388
1372.74497,69.12735
1372.74497,67.15388
1374.36073,67.15388
1374.36073,69.12735
1375.97648,69.12735
1375.97648,67.15388
1377.59224,69.12735
1377.59224,67.15388
1379.208,67.15388
1379.208,69.12735
1380.82375,69.12735
1380.82375,67.15388
1382.43951,69.12735
1382.43951,67.15388
1384.05526,67.15388
1384.05526,69.12735
1385.67102,69.12735
1385.67102,67.15388
1387.28677,67.15388
1387.28677,69.12735
1388.90253,67.15388
1388.90253,69.12735
1390.51829,67.15388
1390.51829,69.12735
1392.13404,69.12735
1392.13404,67.15388
1393.7498,69.12735
1393.7498,67.15388
1395.36555,67.15388
1395.36555,69.12735
1396.98131,67.15388
1396.98131,69.12735
1398.59706,67.15388
1398.59706,69.12735
1400.21282,69.12735
1400.21282,67.15388
1401.82858,67.15388
1401.82858,69.12735
1403.44433,69.12735
1403.44433,67.15388
1405.06009,69.12735
1405.06009,67.15388
1406.67584,67.15388
1406.67584,69.12735
1408.2916,67.15388
1408.2916,69.12735
1409.90736,69.12735
1409.90736,67.15388
1411.52311,69.12735
1411.52311,67.15388
1413.13887,67.15388
1413.13887,69.12735
1414.75462,69.12735
1414.75462,67.15388
1416.37038,67.15388
1416.37038,69.12735
1417.98613,69.12735
1417.98613,67.15388
1419.60189,69.12735
1419.60189,67.15388
1421.21765,67.15388
1421.21765,69.12735
1422.8334,69.12735
1422.8334,67.15388
1424.44916,69.12735
1424.44916,67.15388
1426.06491,69.12735
1426.06491,67.15388
1427.68067,67.15388
1427.68067,69.12735
1429.29642,67.15388
1429.29642,69.12735
1430.91218,67.15388
1430.91218,69.12735
1432.52794,69.12735
1432.52794,67.15388
1434.14369,67.15388
1434.14369,69.12735
1435.75945,69.12735
1435.75945,67.15388
1437.3752,69.12735
1437.3752,67.15388
1438.99096,67.15388
1438.99096,69.12735
1440.60672,67.15388
1440.60672,69.12735
1442.22247,69.12735
1442.22247,67.15388
1443.83823,67.15388
1443.83823,69.12735
1445.45398,67.15388
1445.45398,69.12735
1447.06974,67.15388
1447.06974,69.12735
1448.68549,69.12735
1448.68549,67.15388
1450.30125,69.12735
1450.30125,67.15388
1451.91701,67.15388
1451.91701,69.12735
1453.53276,69.12735
1453.53276,67.15388
1455.14852,69.12735
1455.14852,67.15388
1456.76427,67.15388
1456.76427,69.12735
1458.38003,67.15388
1458.38003,69.12735
1459.99578,69.12735
1459.99578,67.15388
1461.61154,67.15388
1461.61154,69.12735
1463.2273,69.12735
1463.2273,67.15388
1464.84305,67.15388
1464.84305,69.12735
1466.45881,67.15388
1466.45881,69.12735
1468.07456,67.15388
1468.07456,69.12735
1469.69032,69.12735
1469.69032,67.15388
1471.30607,67.15388
1471.30607,69.12735
1472.92183,67.15388
1472.92183,69.12735
1474.53759,67.15388
1474.53759,69.12735
1476.15334,67.15388
1476.15334,69.12735
1477.7691,69.12735
1477.7691,67.15388
1479.38485,69.12735
1479.38485,67.15388
1481.00061,67.15388
1481.00061,69.12735
1482.61637,69.12735
1482.61637,67.15388
1484.23212,69.12735
1484.23212,67.15388
1485.84788,69.12735
1485.84788,67.15388
1487.46363,67.15388
1487.46363,69.12735
1489.07939,69.12735
1489.07939,67.15388
1490.69514,69.12735
1490.69514,67.15388
1492.3109,69.12735
1492.3109,67.15388
1493.92666,69.12735
1493.92666,67.15388
1495.54241,69.12735
1495.54241,67.15388
1497.15817,67.15388
1497.15817,69.12735
1498.77392,69.12735
1498.77392,67.15388
1500.38968,69.12735
1500.38968,67.15388
1502.00543,67.15388
1502.00543,69.12735
1503.62119,69.12735
1503.62119,67.15388
1505.23695,69.12735
1505.23695,67.15388
1506.8527,67.15388
1506.8527,69.12735
1508.46846,69.12735
1508.46846,67.15388
1510.08421,67.15388
1510.08421,69.12735
1511.69997,67.8117
1511.69997,69.12735
1513.31573,68.46953
1513.31573,69.12735
1514.93148,68.46953
1514.93148,69.12735
1516.54724,68.46953
1516.54724,69.12735
1518.16299,69.12735
1518.16299,68.46953
1519.77875,68.46953
1519.77875,69.12735
1521.3945,67.8117
1521.3945,69.12735
1523.01026,69.12735
1523.01026,67.15388
1524.62602,66.49605
1524.62602,69.12735
1526.24177,69.12735
1526.24177,67.15388
1527.85753,67.8117
1527.85753,69.12735
1529.47328,67.8117
1529.47328,69.12735
1531.08904,69.12735
1531.08904,67.8117
1532.70479,67.8117
1532.70479,69.12735
1534.32055,69.12735
1534.32055,67.8117
1535.93631,67.8117
1535.93631,68.46953
1537.55206,68.46953
1537.55206,67.8117
1539.16782,68.46953
1539.16782,67.8117
1540.78357,68.46953
1540.78357,67.8117
1542.39933,67.8117
1542.39933,68.46953
1544.01508,68.46953
1544.01508,67.8117
1545.63084,67.8117
1545.63084,68.46953
1547.2466,67.8117
1547.2466,68.46953
1548.86235,67.8117
1548.86235,68.46953
1550.47811,68.46953
1550.47811,67.8117
1552.09386,67.8117
1552.09386,67.15388
1553.70962,66.49605
1553.70962,67.15388
1555.32538,66.49605
1555.32538,67.15388
1556.94113,67.15388
1556.94113,67.8117
1558.55689,67.8117
1558.55689,68.46953
1560.17264,69.12735
1560.17264,68.46953
1561.7884,69.12735
1561.7884,68.46953
1563.40415,69.12735
1563.40415,67.8117
1565.01991,67.15388
1565.01991,68.46953
1566.63567,67.8117
1566.63567,69.12735
1568.25142,69.12735
1568.25142,67.8117
1569.86718,69.12735
1569.86718,68.46953
1571.48293,67.8117
1571.48293,68.46953
1573.09869,67.15388
1573.09869,67.8117
1574.71444,67.15388
1574.71444,66.49605
1576.3302,66.49605
1576.3302,67.15388
1577.94596,67.15388
1577.94596,67.8117
1579.56171,67.8117
1579.56171,68.46953
1581.17747,68.46953
1581.17747,69.12735
1582.79322,69.78517
1582.79322,67.8117
1584.40898,67.8117
1584.40898,69.78517
1586.02474,69.78517
1586.02474,67.15388
1587.64049,67.8117
1587.64049,69.78517
1589.25625,69.12735
1589.25625,68.46953
1590.872,69.12735
1590.872,68.46953
1592.48776,69.78517
1592.48776,69.12735
1594.10351,69.78517
1594.10351,70.443
1595.71927,70.443
1595.71927,69.78517
1597.33503,70.443
1597.33503,69.78517
1598.95078,69.78517
1598.95078,70.443
1600.56654,69.12735
1600.56654,69.78517
1602.18229,69.12735
1602.18229,69.78517
1603.79805,69.78517
1603.79805,70.443
1605.4138,71.10082
1605.4138,70.443
1607.02956,71.10082
1607.02956,71.75865
1608.64532,71.75865
1608.64532,71.10082
1610.26107,71.75865
1610.26107,72.41647
1611.87683,72.41647
1611.87683,71.75865
1613.49258,72.41647
1613.49258,71.75865
1615.10834,71.10082
1615.10834,72.41647
1616.72409,70.443
1616.72409,72.41647
1618.33985,72.41647
1618.33985,69.78517
1619.95561,70.443
1619.95561,73.0743
1621.57136,73.0743
1621.57136,71.10082
1623.18712,73.0743
1623.18712,71.10082
1624.80287,73.73212
1624.80287,71.75865
1626.41863,72.41647
1626.41863,73.73212
1628.03439,73.0743
1628.03439,73.73212
1629.65014,73.0743
1629.65014,73.73212
1631.2659,73.0743
1631.2659,72.41647
1632.88165,71.75865
1632.88165,72.41647
1634.49741,71.75865
1634.49741,71.10082
1636.11316,71.75865
1636.11316,71.10082
1637.72892,71.10082
1637.72892,71.75865
1639.34468,71.75865
1639.34468,71.10082
1640.96043,71.75865
1640.96043,70.443
1642.57619,72.41647
1642.57619,70.443
1644.19194,73.0743
1644.19194,71.10082
1645.8077,72.41647
1645.8077,70.443
1647.42345,70.443
1647.42345,71.75865
1649.03921,70.443
1649.03921,71.10082
1650.65497,71.10082
1650.65497,70.443
1652.27072,71.10082
1652.27072,71.75865
1653.88648,72.41647
1653.88648,71.75865
1655.50223,72.41647
1655.50223,71.75865
1657.11799,71.10082
1657.11799,71.75865
1658.73375,71.10082
1658.73375,70.443
1660.3495,70.443
1660.3495,69.78517
1661.96526,69.78517
1661.96526,69.12735
1663.58101,69.12735
1663.58101,68.46953
1665.19677,68.46953
1665.19677,69.12735
1666.81252,67.8117
1666.81252,68.46953
1668.42828,67.8117
1668.42828,68.46953
1670.04404,67.8117
1670.04404,68.46953
1671.65979,67.8117
1671.65979,68.46953
1673.27555,67.15388
1673.27555,67.8117
1674.8913,67.15388
1674.8913,68.46953
1676.50706,67.15388
1676.50706,69.12735
1678.12281,67.8117
1678.12281,69.78517
1679.73857,67.15388
1679.73857,69.12735
1681.35433,68.46953
1681.35433,67.15388
1682.97008,67.15388
1682.97008,69.12735
1684.58584,66.49605
1684.58584,68.46953
1686.20159,67.8117
1686.20159,66.49605
1687.81735,66.49605
1687.81735,67.15388
1689.4331,66.49605
1689.4331,67.15388
1691.04886,66.49605
1691.04886,67.15388
1692.66462,66.49605
1692.66462,67.15388
1694.28037,66.49605
1694.28037,67.15388
1695.89613,67.15388
1695.89613,67.8117
1697.51188,68.46953
1697.51188,67.8117
1699.12764,68.46953
1699.12764,69.12735
1700.7434,69.12735
1700.7434,68.46953
1702.35915,67.8117
1702.35915,68.46953
1703.97491,67.8117
1703.97491,67.15388
1705.59066,67.15388
1705.59066,66.49605
1707.20642,67.15388
1707.20642,66.49605
1708.82217,67.8117
1708.82217,66.49605
1710.43793,66.49605
1710.43793,68.46953
1712.05369,68.46953
1712.05369,65.83823
1713.66944,65.83823
1713.66944,68.46953
1715.2852,68.46953
1715.2852,65.83823
1716.90095,68.46953
1716.90095,65.83823
1718.51671,65.83823
1718.51671,68.46953
1720.13246,68.46953
1720.13246,65.83823
1721.74822,65.83823
1721.74822,68.46953
1723.36398,65.83823
1723.36398,68.46953
1724.97973,65.83823
1724.97973,68.46953
1726.59549,65.83823
1726.59549,67.8117
1728.21124,65.83823
1728.21124,67.8117
1729.827,65.83823
1729.827,67.8117
1731.44276,65.83823
1731.44276,67.8117
1733.05851,67.8117
1733.05851,65.83823
1734.67427,65.83823
1734.67427,67.8117
1736.29002,67.8117
1736.29002,65.83823
1737.90578,67.8117
1737.90578,65.83823
1739.52153,65.83823
1739.52153,67.8117
1741.13729,65.83823
1741.13729,67.8117
1742.75305,67.8117
1742.75305,65.83823
1744.3688,67.8117
1744.3688,65.83823
1745.98456,65.83823
1745.98456,67.8117
1747.60031,67.8117
1747.60031,65.83823
1749.21607,65.83823
1749.21607,67.8117
1750.83182,67.8117
1750.83182,65.83823
1752.44758,65.83823
1752.44758,67.8117
1754.06334,67.8117
1754.06334,65.83823
1755.67909,65.83823
1755.67909,67.8117
1757.29485,67.8117
1757.29485,65.83823
1758.9106,67.8117
1758.9106,65.83823
1760.52636,67.8117
1760.52636,65.83823
1762.14211,67.8117
1762.14211,65.83823
1763.75787,65.83823
1763.75787,67.8117
1765.37363,67.8117
1765.37363,65.83823
1766.98938,65.83823
1766.98938,67.15388
1768.60514,66.49605
1768.60514,65.83823
1770.22089,66.49605
1770.22089,65.83823
1771.83665,66.49605
1771.83665,65.83823
1773.45241,66.49605
1773.45241,65.83823
1775.06816,65.83823
1775.06816,66.49605
1776.68392,66.49605
1776.68392,65.83823
1778.29967,65.83823
1778.29967,66.49605
1779.91543,65.83823
1779.91543,66.49605
1781.53118,67.15388
1781.53118,66.49605
1783.14694,67.8117
1783.14694,67.15388
1784.7627,67.8117
1784.7627,68.46953
1786.37845,67.8117
1786.37845,68.46953
1787.99421,67.8117
1787.99421,68.46953
1789.60996,67.8117
1789.60996,68.46953
1791.22572,68.46953
1791.22572,67.8117
1792.84147,67.8117
1792.84147,68.46953
1794.45723,68.46953
1794.45723,67.8117
1796.07299,67.8117
1796.07299,68.46953
1797.68874,67.8117
1797.68874,68.46953
1799.3045,67.8117
1799.3045,68.46953
1800.92025,67.8117
1800.92025,68.46953
1802.53601,67.8117
1802.53601,68.46953
1804.15177,68.46953
1804.15177,67.8117
1805.76752,67.8117
1805.76752,68.46953
1807.38328,67.8117
1807.38328,68.46953
1808.99903,67.8117
1808.99903,68.46953
1810.61479,67.8117
1810.61479,68.46953
1812.23054,67.8117
1812.23054,68.46953
1813.8463,68.46953
1813.8463,67.8117
1815.46206,67.8117
1815.46206,68.46953
1817.07781,67.8117
1817.07781,68.46953
1818.69357,67.8117
1818.69357,68.46953
1820.30932,67.8117
1820.30932,68.46953
1821.92508,67.8117
1821.92508,68.46953
1823.54083,67.8117
1823.54083,68.46953
1825.15659,68.46953
1825.15659,67.8117
1826.77235,67.8117
1826.77235,68.46953
1828.3881,67.8117
1828.3881,68.46953
1830.00386,68.46953
1830.00386,67.8117
1831.61961,67.8117
1831.61961,68.46953
1833.23537,68.46953
1833.23537,67.8117
1834.85112,68.46953
1834.85112,67.8117
1836.46688,68.46953
1836.46688,67.8117
1838.08264,68.46953
1838.08264,67.8117
1839.69839,68.46953
1839.69839,67.8117
1841.31415,67.8117
1841.31415,68.46953
1842.9299,68.46953
1842.9299,67.8117
1844.54566,68.46953
1844.54566,67.8117
1846.16142,68.46953
1846.16142,67.8117
1847.77717,68.46953
1847.77717,67.8117
1849.39293,68.46953
1849.39293,67.8117
1851.00868,68.46953
1851.00868,67.8117
1852.62444,68.46953
1852.62444,67.8117
1854.24019,67.8117
1854.24019,68.46953
1855.85595,68.46953
1855.85595,67.8117
1857.47171,68.46953
1857.47171,67.8117
1859.08746,67.8117
1859.08746,68.46953
1860.70322,68.46953
1860.70322,67.8117
1862.31897,68.46953
1862.31897,67.8117
1863.93473,67.8117
1863.93473,68.46953
1865.55048,68.46953
1865.55048,67.8117
1867.16624,67.8117
1867.16624,68.46953
1868.782,67.8117
1868.782,68.46953
1870.39775,68.46953
1870.39775,67.8117
1872.01351,67.8117
1872.01351,68.46953
1873.62926,68.46953
1873.62926,67.8117
1875.24502,67.8117
1875.24502,68.46953
1876.86078,68.46953
1876.86078,67.8117
1878.47653,68.46953
1878.47653,67.8117
1880.09229,67.8117
1880.09229,68.46953
1881.70804,68.46953
1881.70804,67.8117
1883.3238,67.8117
1883.3238,68.46953
1884.93955,68.46953
1884.93955,67.8117
1886.55531,68.46953
1886.55531,67.8117
1888.17107,67.8117
1888.17107,68.46953
1889.78682,67.8117
1889.78682,68.46953
1891.40258,68.46953
1891.40258,67.8117
1893.01833,67.8117
1893.01833,68.46953
1894.63409,67.8117
1894.63409,68.46953
1896.24984,68.46953
1896.24984,67.8117
1897.8656,68.46953
1897.8656,67.8117
1899.48136,68.46953
1899.48136,67.8117
1901.09711,68.46953
1901.09711,67.8117
1902.71287,68.46953
1902.71287,67.8117
1904.32862,68.46953
1904.32862,67.8117
1905.94438,67.8117
1905.94438,68.46953
1907.56013,68.46953
1907.56013,67.8117
1909.17589,68.46953
1909.17589,67.8117
1910.79165,68.46953
1910.79165,67.8117
1912.4074,67.8117
1912.4074,68.46953
1914.02316,68.46953
1914.02316,67.8117
1915.63891,68.46953
1915.63891,67.8117
1917.25467,67.8117
1917.25467,68.46953
1918.87043,68.46953
1918.87043,67.8117
1920.48618,68.46953
1920.48618,67.8117
1922.10194,67.8117
1922.10194,68.46953
1923.71769,68.46953
1923.71769,67.8117
1925.33345,67.8117
1925.33345,68.46953
1926.9492,67.8117
1926.9492,68.46953
1928.56496,67.8117
1928.56496,68.46953
1930.18072,67.8117
1930.18072,68.46953
1931.79647,67.8117
1931.79647,68.46953
1933.41223,67.8117
1933.41223,68.46953
1935.02798,67.8117
1935.02798,68.46953
1936.64374,67.8117
1936.64374,68.46953
1938.25949,67.8117
1938.25949,68.46953
1939.87525,68.46953
1939.87525,67.8117
1941.49101,68.46953
1941.49101,67.8117
1943.10676,67.8117
1943.10676,68.46953
1944.72252,68.46953
1944.72252,67.8117
1946.33827,68.46953
1946.33827,67.8117
1947.95403,68.46953
1947.95403,67.8117
1949.56979,67.15388
1949.56979,67.8117
1951.18554,66.49605
1951.18554,67.15388
1952.8013,65.83823
1952.8013,66.49605
1954.41705,65.83823
1954.41705,66.49605
1956.03281,66.49605
1956.03281,65.83823
1957.64856,65.83823
1957.64856,66.49605
1959.26432,65.83823
1959.26432,66.49605
1960.88008,65.83823
1960.88008,66.49605
1962.49583,66.49605
1962.49583,65.83823
1964.11159,65.83823
1964.11159,66.49605
1965.72734,66.49605
1965.72734,65.83823
1967.3431,66.49605
1967.3431,65.83823
1968.95885,66.49605
1968.95885,67.15388
1970.57461,67.15388
1970.57461,66.49605
1972.19037,67.15388
1972.19037,66.49605
1973.80612,67.15388
1973.80612,66.49605
1975.42188,66.49605
1975.42188,67.15388
1977.03763,66.49605
1977.03763,67.15388
1978.65339,67.15388
1978.65339,66.49605
1980.26914,67.15388
1980.26914,66.49605
1981.8849,67.15388
1981.8849,66.49605
1983.50066,66.49605
1983.50066,67.15388
1985.11641,66.49605
1985.11641,67.15388
1986.73217,67.15388
1986.73217,66.49605
1988.34792,67.15388
1988.34792,66.49605
1989.96368,67.15388
1989.96368,66.49605
1991.57944,67.15388
1991.57944,66.49605
1993.19519,67.15388
1993.19519,66.49605
1994.81095,67.15388
1994.81095,66.49605
1996.4267,65.83823
1996.4267,67.15388
1998.04246,67.15388
1998.04246,65.83823
1999.65821,65.83823
1999.65821,67.15388
2001.27397,67.15388
2001.27397,65.83823
2002.88973,65.83823
2002.88973,67.15388
2004.50548,65.83823
2004.50548,67.15388
2006.12124,67.15388
2006.12124,65.83823
2007.73699,65.83823
2007.73699,67.15388
2009.35275,67.15388
2009.35275,65.83823
2010.9685,65.83823
2010.9685,67.15388
2012.58426,65.83823
2012.58426,67.15388
2014.20002,67.15388
2014.20002,65.83823
2015.81577,67.15388
2015.81577,65.83823
2017.43153,67.15388
2017.43153,65.83823
2019.04728,65.83823
2019.04728,67.15388
2020.66304,67.15388
2020.66304,65.83823
2022.2788,65.83823
2022.2788,67.15388
2023.89455,65.83823
2023.89455,67.15388
2025.51031,67.15388
2025.51031,65.83823
2027.12606,65.83823
2027.12606,67.15388
2028.74182,65.83823
2028.74182,67.15388
2030.35757,65.83823
2030.35757,67.15388
2031.97333,65.83823
2031.97333,67.15388
2033.58909,67.15388
2033.58909,65.83823
2035.20484,67.15388
2035.20484,65.83823
2036.8206,67.15388
2036.8206,65.83823
2038.43635,65.83823
2038.43635,67.15388
2040.05211,67.15388
2040.05211,65.83823
2041.66786,67.15388
2041.66786,65.83823
2043.28362,67.15388
2043.28362,65.83823
2044.89938,67.15388
2044.89938,65.83823
2046.51513,67.15388
2046.51513,65.83823
2048.13089,65.83823
2048.13089,67.15388
2049.74664,65.83823
2049.74664,67.15388
2051.3624,65.83823
2051.3624,67.15388
2052.97815,65.83823
2052.97815,67.15388
2054.59391,67.15388
2054.59391,65.83823
2056.20967,65.83823
2056.20967,67.15388
2057.82542,67.15388
2057.82542,65.83823
2059.44118,67.15388
2059.44118,65.83823
2061.05693,67.15388
2061.05693,65.83823
2062.67269,67.15388
2062.67269,65.83823
2064.28845,65.83823
2064.28845,67.15388
2065.9042,65.83823
2065.9042,67.15388
2067.51996,67.8117
2067.51996,65.83823
2069.13571,65.83823
2069.13571,68.46953
2070.75147,69.12735
2070.75147,66.49605
2072.36722,66.49605
2072.36722,69.12735
2073.98298,66.49605
2073.98298,69.12735
2075.59874,66.49605
2075.59874,69.12735
2077.21449,66.49605
2077.21449,69.12735
2078.83025,66.49605
2078.83025,69.12735
2080.446,69.12735
2080.446,66.49605
2082.06176,66.49605
2082.06176,69.12735
2083.67751,69.12735
2083.67751,66.49605
2085.29327,69.12735
2085.29327,66.49605
2086.90903,69.12735
2086.90903,66.49605
2088.52478,66.49605
2088.52478,69.12735
2090.14054,66.49605
2090.14054,69.12735
2091.75629,66.49605
2091.75629,69.12735
2093.37205,69.12735
2093.37205,66.49605
2094.98781,69.12735
2094.98781,66.49605
2096.60356,66.49605
2096.60356,69.12735
2098.21932,66.49605
2098.21932,69.12735
2099.83507,66.49605
2099.83507,69.12735
2101.45083,66.49605
2101.45083,69.12735
2103.06658,66.49605
2103.06658,69.12735
2104.68234,66.49605
2104.68234,69.12735
2106.2981,66.49605
2106.2981,69.12735
2107.91385,69.12735
2107.91385,66.49605
2109.52961,66.49605
2109.52961,69.12735
2111.14536,66.49605
2111.14536,69.12735
2112.76112,66.49605
2112.76112,69.12735
2114.37687,69.12735
2114.37687,66.49605
2115.99263,66.49605
2115.99263,69.12735
2117.60839,69.12735
2117.60839,66.49605
2119.22414,69.12735
2119.22414,66.49605
2120.8399,69.12735
2120.8399,66.49605
2122.45565,66.49605
2122.45565,68.46953
2124.07141,66.49605
2124.07141,67.8117
2125.68716,67.15388
2125.68716,66.49605
2127.30292,66.49605
2127.30292,67.15388
2128.91868,67.15388
2128.91868,67.8117
2130.53443,67.15388
2130.53443,68.46953
2132.15019,67.15388
2132.15019,68.46953
2133.76594,68.46953
2133.76594,67.15388
2135.3817,68.46953
2135.3817,67.15388
2136.99746,68.46953
2136.99746,67.15388
2138.61321,68.46953
2138.61321,67.15388
2140.22897,68.46953
2140.22897,67.15388
2141.84472,66.49605
2141.84472,67.8117
2143.46048,66.49605
2143.46048,67.15388
2145.07623,67.15388
2145.07623,66.49605
2146.69199,66.49605
2146.69199,67.15388
2148.30775,67.15388
2148.30775,66.49605
2149.9235,67.15388
2149.9235,66.49605
2151.53926,66.49605
2151.53926,67.15388
2153.15501,66.49605
2153.15501,67.15388
2154.77077,67.15388
2154.77077,66.49605
2156.38652,66.49605
2156.38652,67.15388
2158.00228,67.15388
2158.00228,66.49605
2159.61804,66.49605
2159.61804,67.15388
2161.23379,67.15388
2161.23379,66.49605
2162.84955,67.15388
2162.84955,66.49605
2164.4653,67.15388
2164.4653,66.49605
2166.08106,67.15388
2166.08106,66.49605
2167.69682,66.49605
2167.69682,67.15388
2169.31257,66.49605
2169.31257,67.15388
2170.92833,67.15388
2170.92833,66.49605
2172.54408,66.49605
2172.54408,67.15388
2174.15984,67.15388
2174.15984,66.49605
2175.77559,66.49605
2175.77559,67.15388
2177.39135,66.49605
2177.39135,67.8117
2179.00711,68.46953
2179.00711,66.49605
2180.62286,69.12735
2180.62286,66.49605
2182.23862,66.49605
2182.23862,69.12735
2183.85437,66.49605
2183.85437,69.12735
2185.47013,66.49605
2185.47013,69.12735
2187.08588,69.12735
2187.08588,66.49605
2188.70164,66.49605
2188.70164,69.12735
2190.3174,66.49605
2190.3174,68.46953
2191.93315,66.49605
2191.93315,67.8117
2193.54891,66.49605
2193.54891,67.15388
2195.16466,67.8117
2195.16466,66.49605
2196.78042,68.46953
2196.78042,66.49605
2198.39617,69.12735
2198.39617,66.49605
2200.01193,66.49605
2200.01193,69.12735
2201.62769,66.49605
2201.62769,69.12735
2203.24344,69.12735
2203.24344,66.49605
2204.8592,66.49605
2204.8592,69.12735
2206.47495,66.49605
2206.47495,69.12735
2208.09071,69.12735
2208.09071,66.49605
2209.70647,65.83823
2209.70647,68.46953
2211.32222,65.83823
2211.32222,67.8117
2212.93798,65.83823
2212.93798,67.15388
2214.55373,67.15388
2214.55373,65.83823
2216.16949,65.83823
2216.16949,67.15388
2217.78524,67.15388
2217.78524,65.83823
2219.401,67.15388
2219.401,65.83823
2221.01676,67.15388
2221.01676,66.49605
2222.63251,67.8117
2222.63251,66.49605
2224.24827,65.83823
2224.24827,67.15388
2225.86402,66.49605
2225.86402,65.83823
2227.47978,66.49605
2227.47978,65.83823
2229.09553,66.49605
2229.09553,65.83823
2230.71129,65.83823
2230.71129,66.49605
2232.32705,66.49605
2232.32705,65.83823
2233.9428,65.83823
2233.9428,66.49605
2235.55856,65.83823
2235.55856,66.49605
2237.17431,65.83823
2237.17431,67.15388
2238.79007,65.83823
2238.79007,67.8117
2240.40583,65.83823
2240.40583,68.46953
2242.02158,68.46953
2242.02158,65.83823
2243.63734,68.46953
2243.63734,65.83823
2245.25309,68.46953
2245.25309,66.49605
2246.86885,67.15388
2246.86885,68.46953
2248.4846,68.46953
2248.4846,67.8117
2250.10036,68.46953
2250.10036,67.8117
2251.71612,67.15388
2251.71612,68.46953
2253.33187,68.46953
2253.33187,66.49605
2254.94763,68.46953
2254.94763,65.83823
2256.56338,68.46953
2256.56338,65.83823
2258.17914,65.83823
2258.17914,68.46953
2259.79489,68.46953
2259.79489,65.83823
2261.41065,65.83823
2261.41065,68.46953
2263.02641,68.46953
2263.02641,65.83823
2264.64216,68.46953
2264.64216,65.83823
2266.25792,65.83823
2266.25792,68.46953
2267.87367,68.46953
2267.87367,65.83823
2269.48943,68.46953
2269.48943,65.83823
2271.10518,68.46953
2271.10518,65.83823
2272.72094,65.83823
2272.72094,68.46953
2274.3367,68.46953
2274.3367,65.83823
2275.95245,65.83823
2275.95245,68.46953
2277.56821,65.83823
2277.56821,68.46953
2279.18396,65.83823
2279.18396,68.46953
2280.79972,65.83823
2280.79972,68.46953
2282.41548,68.46953
2282.41548,65.83823
2284.03123,68.46953
2284.03123,65.83823
2285.64699,68.46953
2285.64699,65.83823
2287.26274,68.46953
2287.26274,65.83823
2288.8785,68.46953
2288.8785,65.83823
2290.49425,65.83823
2290.49425,68.46953
2292.11001,65.83823
2292.11001,68.46953
2293.72577,68.46953
2293.72577,65.83823
2295.34152,65.83823
2295.34152,68.46953
2296.95728,65.83823
2296.95728,68.46953
2298.57303,68.46953
2298.57303,65.83823
2300.18879,68.46953
2300.18879,65.83823
2301.80454,65.83823
2301.80454,68.46953
2303.4203,68.46953
2303.4203,65.83823
2305.03606,68.46953
2305.03606,65.83823
2306.65181,65.83823
2306.65181,68.46953
2308.26757,68.46953
2308.26757,66.49605
2309.88332,68.46953
2309.88332,66.49605
2311.49908,68.46953
2311.49908,66.49605
2313.11484,67.8117
2313.11484,66.49605
2314.73059,66.49605
2314.73059,67.15388
2316.34635,66.49605
2316.34635,67.15388
2317.9621,66.49605
2317.9621,67.15388
2319.57786,66.49605
2319.57786,67.15388
2321.19361,67.15388
2321.19361,66.49605
2322.80937,67.15388
2322.80937,66.49605
2324.42513,67.15388
2324.42513,63.86475
2324.42513,66.49605
2324.42513,65.1804
2324.42513,64.52258
2324.42513,65.83823
2326.04088,67.15388
2326.04088,61.23346
2326.04088,62.54911
2326.04088,63.20693
2326.04088,61.89128
2327.65664,67.15388
2329.27239,67.15388
2330.88815,67.15388
2332.5039,67.15388
2334.11966,67.15388
2335.73542,67.15388
2337.35117,67.15388
2338.96693,67.15388
2340.58268,67.15388
2342.19844,67.15388
2343.81419,66.49605
2345.42995,65.83823
2347.04571,65.83823
2348.66146,65.83823
2350.27722,65.83823
2351.89297,65.83823
2353.50873,65.83823
2355.12449,65.83823
2356.74024,65.83823
2358.356,65.83823
2359.97175,65.83823
2361.58751,65.83823
2363.20326,65.83823
2364.81902,65.83823
2366.43478,65.83823
2368.05053,65.83823
2369.66629,65.83823
2371.28204,65.83823
2372.8978,65.83823
2374.51355,65.83823
2376.12931,65.83823
2377.74507,65.83823
2379.36082,65.83823
2380.97658,65.83823
2382.59233,65.83823
2384.20809,65.83823
2385.82385,65.83823
2387.4396,66.49605
2389.05536,67.15388
2390.67111,67.8117
2392.28687,67.8117
2393.90262,67.8117
2395.51838,67.8117
2397.13414,67.8117
2398.74989,67.8117
2400.36565,67.8117
2401.9814,67.8117
2403.59716,67.8117
2405.21291,67.15388
2406.82867,66.49605
2408.44443,66.49605
2410.06018,66.49605
2411.67594,66.49605
2413.29169,66.49605
2414.90745,66.49605
2416.5232,66.49605
2418.13896,66.49605
2419.75472,66.49605
2421.37047,66.49605
2422.98623,66.49605
2424.60198,66.49605
2426.21774,66.49605
2427.8335,66.49605
2429.44925,66.49605
2431.06501,66.49605
2432.68076,66.49605
2434.29652,66.49605
2435.91227,66.49605
2437.52803,66.49605
2439.14379,66.49605
2440.75954,66.49605
2442.3753,66.49605
2443.99105,66.49605
2445.60681,66.49605
2447.22256,66.49605
2448.83832,66.49605
2450.45408,66.49605
2452.06983,66.49605
2453.68559,66.49605
2455.30134,66.49605
2456.9171,66.49605
2458.53286,66.49605
2460.14861,66.49605
2461.76437,66.49605
2463.38012,66.49605
2464.99588,66.49605
2466.61163,66.49605
2468.22739,66.49605
2469.84315,66.49605
2471.4589,66.49605
2473.07466,66.49605
2474.69041,66.49605
2476.30617,66.49605
2477.92192,66.49605
2479.53768,66.49605
2481.15344,66.49605
2482.76919,66.49605
2484.38495,66.49605
2486.0007,66.49605
2487.61646,66.49605
2489.23221,66.49605
2490.84797,66.49605
2492.46373,66.49605
2494.07948,66.49605
2495.69524,66.49605
2497.31099,66.49605
2498.92675,66.49605
2500.54251,66.49605
2502.15826,66.49605
2503.77402,66.49605
2505.38977,66.49605
2507.00553,66.49605
2508.62128,66.49605
2510.23704,66.49605
2511.8528,66.49605
2513.46855,66.49605
2515.08431,66.49605
2516.70006,67.15388
2518.31582,67.8117
2519.93157,68.46953
2521.54733,68.46953
2523.16309,68.46953
2524.77884,68.46953
2526.3946,68.46953
2528.01035,68.46953
2529.62611,68.46953
2531.24187,68.46953
2532.85762,68.46953
2534.47338,68.46953
2536.08913,68.46953
2537.70489,68.46953
2539.32064,68.46953
2540.9364,68.46953
2542.55216,68.46953
2544.16791,68.46953
2545.78367,68.46953
2547.39942,68.46953
2549.01518,68.46953
2550.63093,68.46953
2552.24669,68.46953
2553.86245,68.46953
2555.4782,68.46953
2557.09396,68.46953
2558.70971,68.46953
2560.32547,68.46953
2561.94122,68.46953
2563.55698,68.46953
2565.17274,68.46953
2566.78849,68.46953
2568.40425,68.46953
2570.02,68.46953
2571.63576,68.46953
2573.25152,68.46953
2574.86727,68.46953
2576.48303,68.46953
2578.09878,68.46953
2579.71454,68.46953
2581.33029,68.46953
2582.94605,68.46953
2584.56181,68.46953
2586.17756,68.46953
2587.79332,68.46953
2589.40907,68.46953
2591.02483,68.46953
2592.64058,68.46953
2594.25634,68.46953
2595.8721,68.46953
2597.48785,68.46953
2599.10361,68.46953
2600.71936,68.46953
2602.33512,68.46953
2603.95088,68.46953
2605.56663,68.46953
2607.18239,68.46953
2608.79814,68.46953
2610.4139,68.46953
2612.02965,68.46953
2613.64541,68.46953
2615.26117,68.46953
2616.87692,68.46953
2618.49268,68.46953
2620.10843,68.46953
2621.72419,68.46953
2623.33994,68.46953
2624.9557,68.46953
2626.57146,68.46953
2628.18721,68.46953
2629.80297,68.46953
2631.41872,68.46953
2633.03448,68.46953
2634.65023,68.46953
2636.26599,68.46953
2637.88175,68.46953
2639.4975,68.46953
2641.11326,68.46953
2642.72901,68.46953
2644.34477,68.46953
2645.96053,68.46953
2647.57628,68.46953
2649.19204,68.46953
2650.80779,68.46953
2652.42355,68.46953
2654.0393,68.46953
2655.65506,68.46953
2657.27082,68.46953
2658.88657,68.46953
2660.50233,68.46953
2662.11808,68.46953
2663.73384,68.46953
2665.34959,68.46953
2666.96535,68.46953
2668.58111,68.46953
2670.19686,68.46953
2671.81262,68.46953
2673.42837,68.46953
2675.04413,68.46953
2676.65989,68.46953
2678.27564,68.46953
2679.8914,68.46953
2681.50715,68.46953
2683.12291,68.46953
2684.73866,68.46953
2686.35442,68.46953
2687.97018,68.46953
2689.58593,68.46953
2691.20169,68.46953
2692.81744,68.46953
2694.4332,68.46953
2696.04895,68.46953
2697.66471,68.46953
2699.28047,68.46953
2700.89622,68.46953
2702.51198,68.46953
2704.12773,68.46953
2705.74349,68.46953
2707.35924,68.46953
2708.975,68.46953
2710.59076,68.46953
2712.20651,68.46953
2713.82227,68.46953
2715.43802,68.46953
2717.05378,68.46953
2718.66954,68.46953
2720.28529,68.46953
2721.90105,68.46953
2723.5168,68.46953
2725.13256,68.46953
2726.74831,68.46953
2728.36407,68.46953
2729.97983,68.46953
2731.59558,68.46953
2733.21134,68.46953
2734.82709,68.46953
2736.44285,68.46953
2738.0586,68.46953
2739.67436,68.46953
2741.29012,68.46953
2742.90587,68.46953
2744.52163,68.46953
2746.13738,68.46953
2747.75314,68.46953
2749.3689,68.46953
2750.98465,68.46953
2752.60041,68.46953
2754.21616,68.46953
2755.83192,68.46953
2757.44767,68.46953
2759.06343,68.46953
2760.67919,68.46953
2762.29494,68.46953
2763.9107,68.46953
2765.52645,68.46953
2767.14221,68.46953
2768.75796,68.46953
2770.37372,68.46953
2771.98948,68.46953
2773.60523,68.46953
2775.22099,68.46953
2776.83674,68.46953
2778.4525,68.46953
2780.06825,68.46953
2781.68401,68.46953
2783.29977,68.46953
2784.91552,68.46953
2786.53128,68.46953
2788.14703,68.46953
2789.76279,68.46953
2791.37855,68.46953
2792.9943,68.46953
2794.61006,68.46953
2796.22581,68.46953
2797.84157,68.46953
2799.45732,68.46953
2801.07308,68.46953
2802.68884,68.46953
2804.30459,68.46953
2805.92035,68.46953
2807.5361,68.46953
2809.15186,68.46953
2810.76761,68.46953
2812.38337,68.46953
2813.99913,68.46953
2815.61488,68.46953
2817.23064,68.46953
2818.84639,68.46953
2820.46215,68.46953
2822.07791,68.46953
2823.69366,68.46953
2825.30942,68.46953
2826.92517,68.46953
2828.54093,68.46953
2830.15668,68.46953
2831.77244,68.46953
2833.3882,68.46953
2835.00395,68.46953
2836.61971,68.46953
2838.23546,68.46953
2839.85122,68.46953
2841.46697,68.46953
2843.08273,68.46953
2844.69849,68.46953
2846.31424,68.46953
2847.93,68.46953
2849.54575,68.46953
2851.16151,68.46953
2852.77726,68.46953
2854.39302,68.46953
2856.00878,68.46953
2857.62453,68.46953
2859.24029,68.46953
2860.85604,68.46953
2862.4718,68.46953
2864.08756,68.46953
2865.70331,68.46953
2867.31907,68.46953
2868.93482,68.46953
2870.55058,68.46953
2872.16633,68.46953
2873.78209,68.46953
2875.39785,68.46953
2877.0136,68.46953
2878.62936,68.46953
2880.24511,68.46953
2881.86087,68.46953
2883.47662,68.46953
2885.09238,68.46953
2886.70814,68.46953
2888.32389,68.46953
2889.93965,68.46953
2891.5554,68.46953
2893.17116,68.46953
2894.78692,68.46953
2896.40267,68.46953
2898.01843,68.46953
2899.63418,68.46953
2901.24994,68.46953
2902.86569,68.46953
2904.48145,68.46953
2906.09721,68.46953
2907.71296,68.46953
2909.32872,68.46953
2910.94447,68.46953
2912.56023,68.46953
2914.17598,68.46953
2915.79174,68.46953
2917.4075,68.46953
2919.02325,68.46953
2920.63901,68.46953
2922.25476,68.46953
2923.87052,68.46953
2925.48627,68.46953
2927.10203,68.46953
2928.71779,68.46953
2930.33354,68.46953
2931.9493,68.46953
2933.56505,68.46953
2935.18081,68.46953
2936.79657,68.46953
2938.41232,68.46953
2940.02808,68.46953
2941.64383,68.46953
2943.25959,68.46953
2944.87534,68.46953
2946.4911,68.46953
2948.10686,68.46953
2949.72261,68.46953
2951.33837,68.46953
2952.95412,68.46953
2954.56988,68.46953
2956.18563,68.46953
2957.80139,68.46953
2959.41715,68.46953
2961.0329,68.46953
2962.64866,68.46953
2964.26441,68.46953
2965.88017,68.46953
2967.49593,68.46953
2969.11168,68.46953
2970.72744,68.46953
2972.34319,68.46953
2973.95895,68.46953
2975.5747,68.46953
2977.19046,68.46953
2978.80622,68.46953
2980.42197,68.46953
2982.03773,68.46953
2983.65348,68.46953
2985.26924,68.46953
2986.88499,68.46953
2988.50075,68.46953
2990.11651,68.46953
2991.73226,68.46953
2993.34802,68.46953
2994.96377,68.46953
2996.57953,68.46953
2998.19528,68.46953
2999.81104,68.46953
3001.4268,68.46953
3003.04255,68.46953
3004.65831,68.46953
3006.27406,68.46953
3007.88982,68.46953
3009.50558,68.46953
3011.12133,68.46953
3012.73709,68.46953
3014.35284,68.46953
3015.9686,68.46953
3017.58435,68.46953
3019.20011,68.46953
3020.81587,68.46953
3022.43162,68.46953
3024.04738,68.46953
3025.66313,67.8117
3027.27889,67.15388
3028.89464,66.49605
3030.5104,66.49605
3032.12616,66.49605
3033.74191,66.49605
3035.35767,66.49605
3036.97342,66.49605
3038.58918,66.49605
3040.20494,66.49605
3041.82069,66.49605
3043.43645,66.49605
3045.0522,67.15388
3046.66796,67.15388
3048.28371,67.15388
3049.89947,67.15388
3051.51523,67.15388
3053.13098,67.15388
3054.74674,67.15388
3056.36249,67.15388
3057.97825,67.15388
3059.594,67.15388
3061.20976,67.15388
3062.82552,67.15388
3064.44127,67.15388
3066.05703,67.15388
3067.67278,67.15388
3069.28854,67.15388
3070.90429,67.8117
3072.52005,68.46953
3074.13581,69.12735
3075.75156,69.12735
3077.36732,69.12735
3078.98307,69.12735
3080.59883,69.12735
3082.21459,69.12735
3083.83034,69.12735
3085.4461,69.12735
3087.06185,69.12735
3088.67761,69.12735
3090.29336,69.12735
3091.90912,69.12735
3093.52488,69.12735
3095.14063,69.12735
3096.75639,69.12735
3098.37214,69.12735
3099.9879,69.12735
3101.60365,69.12735
3103.21941,69.12735
3104.83517,69.12735
3106.45092,69.12735
3108.06668,69.12735
3109.68243,69.12735
3111.29819,69.12735
3112.91395,69.12735
3114.5297,69.12735
3116.14546,69.12735
3117.76121,69.12735
3119.37697,69.12735
3120.99272,69.12735
3122.60848,68.46953
3124.22424,67.8117
3125.83999,67.15388
3127.45575,67.15388
3129.0715,67.15388
3130.68726,67.15388
3132.30301,67.15388
3133.91877,67.15388
3135.53453,67.15388
3137.15028,67.15388
3138.76604,67.8117
3140.38179,68.46953
3141.99755,67.8117
3143.6133,67.8117
3145.22906,67.8117
3146.84482,67.8117
3148.46057,67.8117
3150.07633,67.8117
3151.69208,67.15388
3153.30784,67.8117
3154.9236,68.46953
3156.53935,68.46953
3158.15511,68.46953
3159.77086,67.8117
3161.38662,67.8117
3163.00237,67.8117
3164.61813,67.8117
3166.23389,67.8117
3167.84964,68.46953
3169.4654,69.12735
3171.08115,68.46953
3172.69691,67.8117
3174.31266,67.8117
3175.92842,68.46953
3177.54418,69.12735
3179.15993,69.12735
3180.77569,68.46953
3182.39144,69.12735
3184.0072,69.78517
3185.62296,70.443
3187.23871,71.10082
3188.85447,71.10082
3190.47022,71.10082
3192.08598,71.75865
3193.70173,71.75865
3195.31749,71.10082
3196.93325,71.75865
3198.549,71.75865
3200.16476,71.75865
3201.78051,72.41647
3203.39627,72.41647
3205.01202,71.75865
3206.62778,72.41647
3208.24354,72.41647
3209.85929,72.41647
3211.47505,73.0743
3213.0908,73.0743
3214.70656,72.41647
3216.32231,73.0743
3217.93807,73.0743
3219.55383,73.0743
3221.16958,73.0743
3222.78534,73.0743
3224.40109,72.41647
3226.01685,71.75865
3227.63261,72.41647
3229.24836,73.0743
3230.86412,72.41647
3232.47987,71.75865
3234.09563,71.75865
3235.71138,72.41647
3237.32714,73.0743
3238.9429,72.41647
3240.55865,72.41647
3242.17441,72.41647
3243.79016,72.41647
3245.40592,72.41647
3247.02167,73.0743
3248.63743,73.73212
3250.25319,73.73212
3251.86894,73.0743
3253.4847,73.73212
3255.10045,74.38995
3256.71621,75.04777
3258.33197,74.38995
3259.94772,73.73212
3261.56348,73.73212
3263.17923,74.38995
3264.79499,74.38995
3266.41074,75.04777
3268.0265,75.70559
3269.64226,76.36342
3271.25801,76.36342
3272.87377,76.36342
3274.48952,75.70559
3276.10528,76.36342
3277.72103,76.36342
3279.33679,77.02124
3280.95255,77.02124
3282.5683,77.02124
3284.18406,77.02124
3285.79981,77.67907
3287.41557,77.67907
3289.03132,77.67907
3290.64708,77.67907
3292.26284,78.33689
3293.87859,78.33689
3295.49435,78.33689
3297.1101,78.33689
3298.72586,78.99472
3300.34162,78.99472
3301.95737,78.99472
3303.57313,79.65254
3305.18888,79.65254
3306.80464,79.65254
3308.42039,80.31037
3310.03615,79.65254
3311.65191,78.99472
3313.26766,78.33689
3314.88342,78.33689
3316.49917,78.33689
3318.11493,78.99472
3318.11493,79.65254
3319.73068,79.65254
3321.34644,79.65254
3321.34644,80.31037
3322.9622,80.31037
3324.57795,80.31037
3324.57795,80.96819
3326.19371,80.96819
3327.80946,80.96819
3327.80946,81.62601
3329.42522,81.62601
3329.42522,82.28384
3331.04098,82.28384
3331.04098,82.94166
3332.65673,82.94166
3334.27249,82.94166
3334.27249,83.59949
3335.88824,83.59949
3335.88824,84.25731
3335.88824,84.91514
3335.88824,85.57296
3335.88824,86.23079
3335.88824,86.88861
3337.504,86.88861
3337.504,87.54643
3339.11975,88.20426
3340.73551,88.86208
3342.35127,88.86208
3342.35127,89.51991
3342.35127,90.17773
3343.96702,90.17773
3343.96702,90.83556
3345.58278,91.49338
3347.19853,92.15121
3348.81429,92.15121
3348.81429,92.80903
3350.43004,92.80903
3350.43004,93.46685
3350.43004,94.12468
3352.0458,94.12468
3353.66156,94.12468
3355.27731,94.12468
3355.27731,94.7825
3356.89307,94.7825
3356.89307,95.44033
3358.50882,95.44033
3358.50882,96.09815
3358.50882,96.75598
3358.50882,97.4138
3358.50882,98.07163
3358.50882,98.72945
3360.12458,99.38727
3361.74033,99.38727
3361.74033,100.0451
3361.74033,100.70292
3363.35609,101.36075
3363.35609,102.01857
3364.97185,102.01857
3364.97185,102.6764
3364.97185,103.33422
3366.5876,103.33422
3368.20336,103.33422
3368.20336,103.99205
3368.20336,104.64987
3368.20336,105.30769
3368.20336,105.96552
3369.81911,106.62334
3369.81911,107.28117
3371.43487,107.28117
3371.43487,107.93899
3371.43487,108.59682
3373.05063,109.25464
3374.66638,109.91247
3374.66638,110.57029
3376.28214,110.57029
3376.28214,111.22811
3376.28214,111.88594
3377.89789,111.88594
3377.89789,112.54376
3379.51365,113.20159
3379.51365,113.85941
3379.51365,114.51724
3381.1294,114.51724
3381.1294,115.17506
3382.74516,115.17506
3384.36092,115.17506
3384.36092,115.83289
3385.97667,115.83289
3385.97667,116.49071
3387.59243,116.49071
3387.59243,117.14853
3387.59243,117.80636
3389.20818,117.80636
3389.20818,118.46418
3390.82394,119.12201
3390.82394,119.77983
3392.43969,120.43766
3392.43969,121.09548
3394.05545,121.7533
3394.05545,122.41113
3395.67121,123.06895
3395.67121,123.72678
3397.28696,124.3846
3397.28696,125.04243
3398.90272,125.70025
3398.90272,126.35808
3400.51847,127.0159
3400.51847,127.67372
3402.13423,128.33155
3402.13423,128.98937
3403.74999,129.6472
3403.74999,130.30502
3403.74999,130.96285
3405.36574,130.96285
3405.36574,131.62067
3405.36574,132.2785
3406.9815,132.2785
3406.9815,132.93632
3408.59725,132.93632
3408.59725,133.59414
3410.21301,133.59414
3411.82876,133.59414
3411.82876,134.25197
3413.44452,134.25197
3413.44452,134.90979
3413.44452,135.56762
3413.44452,136.22544
3415.06028,136.22544
3416.67603,136.22544
3416.67603,136.88327
3416.67603,137.54109
3416.67603,138.19892
3418.29179,138.85674
3418.29179,139.51456
3419.90754,139.51456
3419.90754,140.17239
3419.90754,140.83021
3421.5233,140.83021
3421.5233,141.48804
3421.5233,142.14586
3423.13905,142.14586
3423.13905,142.80369
3423.13905,143.46151
3424.75481,144.11934
3426.37057,144.77716
3426.37057,145.43498
3427.98632,146.09281
3427.98632,146.75063
3427.98632,147.40846
3427.98632,148.06628
3429.60208,148.06628
3429.60208,148.72411
3429.60208,149.38193
3431.21783,149.38193
3431.21783,150.03976
3431.21783,150.69758
3432.83359,150.69758
3432.83359,151.3554
3432.83359,152.01323
3434.44934,152.01323
3434.44934,152.67105
3436.0651,153.32888
3436.0651,153.9867
3436.0651,154.64453
3437.68086,155.30235
3437.68086,155.96018
3437.68086,156.618
3439.29661,156.618
3439.29661,157.27582
3440.91237,157.27582
3440.91237,157.93365
3440.91237,158.59147
3442.52812,158.59147
3442.52812,159.2493
3442.52812,159.90712
3442.52812,160.56495
3442.52812,161.22277
3442.52812,161.8806
3442.52812,162.53842
3442.52812,163.19624
3442.52812,163.85407
3444.14388,163.85407
3444.14388,164.51189
3445.75964,164.51189
3447.37539,165.16972
3448.99115,165.16972
3450.6069,165.16972
3452.22266,165.16972
3453.83841,164.51189
3455.45417,164.51189
3455.45417,163.85407
3455.45417,163.19624
3455.45417,162.53842
3455.45417,161.8806
3455.45417,161.22277
3457.06993,161.22277
3457.06993,160.56495
3458.68568,160.56495
3460.30144,160.56495
3461.91719,160.56495
3463.53295,160.56495
3465.1487,160.56495
3465.1487,159.90712
3465.1487,159.2493
3466.76446,158.59147
3466.76446,152.01323
3468.38022,157.93365
3468.38022,157.27582
3468.38022,150.03976
3468.38022,152.67105
3468.38022,158.59147
3468.38022,150.69758
3468.38022,151.3554
3469.99597,156.618
3469.99597,155.96018
3469.99597,153.32888
3469.99597,149.38193
3469.99597,148.72411
3471.61173,153.9867
3471.61173,155.96018
3471.61173,148.06628
3473.22748,155.30235
3473.22748,154.64453
3473.22748,147.40846
3473.22748,146.75063
3473.22748,146.09281
3473.22748,145.43498
3474.84324,144.77716
3474.84324,144.11934
3474.84324,143.46151
3474.84324,142.80369
3476.459,142.14586
3476.459,141.48804
3478.07475,140.83021
3478.07475,140.17239
3479.69051,139.51456
3479.69051,138.85674
3479.69051,138.19892
3481.30626,137.54109
3481.30626,136.88327
3481.30626,136.22544
3481.30626,135.56762
3482.92202,134.90979
3482.92202,134.25197
3484.53777,133.59414
3484.53777,132.93632
3486.15353,132.2785
3487.76929,131.62067
3487.76929,128.98937
3487.76929,130.30502
3487.76929,129.6472
3487.76929,128.33155
3489.38504,130.96285
3489.38504,127.67372
3489.38504,127.0159
3491.0008,126.35808
3491.0008,125.70025
3491.0008,125.04243
3492.61655,124.3846
3494.23231,123.72678
3494.23231,123.06895
3494.23231,122.41113
3494.23231,121.7533
3494.23231,121.09548
3494.23231,120.43766
3495.84806,119.77983
3497.46382,119.12201
3499.07958,118.46418
3500.69533,117.80636
3500.69533,113.85941
3500.69533,114.51724
3500.69533,113.20159
3502.31109,115.17506
3502.31109,112.54376
3502.31109,117.14853
3502.31109,113.85941
3502.31109,111.88594
3502.31109,113.20159
3503.92684,111.22811
3503.92684,113.85941
3503.92684,116.49071
3503.92684,111.88594
3503.92684,115.83289
3505.5426,108.59682
3505.5426,109.25464
3505.5426,109.91247
3505.5426,110.57029
3505.5426,113.85941
3505.5426,111.88594
3507.15835,113.85941
3507.15835,108.59682
3508.77411,113.20159
3508.77411,111.22811
3508.77411,113.85941
3508.77411,106.62334
3508.77411,107.28117
3508.77411,108.59682
3508.77411,112.54376
3508.77411,105.96552
3510.38987,107.93899
3510.38987,111.88594
3510.38987,111.22811
3510.38987,105.96552
3510.38987,105.30769
3510.38987,104.64987
3510.38987,108.59682
3510.38987,106.62334
3512.00562,109.91247
3512.00562,110.57029
3512.00562,103.33422
3512.00562,103.99205
3512.00562,104.64987
3512.00562,107.28117
3512.00562,109.25464
3512.00562,111.22811
3512.00562,108.59682
3512.00562,106.62334
3513.62138,108.59682
3513.62138,109.25464
3513.62138,106.62334
3513.62138,103.33422
3513.62138,102.6764
3513.62138,107.93899
3515.23713,102.01857
3515.23713,106.62334
3515.23713,101.36075
3515.23713,100.70292
3516.85289,100.70292
3516.85289,105.96552
3516.85289,106.62334
3516.85289,100.0451
3516.85289,99.38727
3518.46865,99.38727
3518.46865,105.30769
3518.46865,104.64987
3518.46865,98.07163
3518.46865,103.99205
3518.46865,98.72945
3520.0844,97.4138
3520.0844,103.33422
3520.0844,98.07163
3520.0844,102.01857
3520.0844,102.6764
3521.70016,96.09815
3521.70016,96.75598
3521.70016,101.36075
3521.70016,102.01857
3523.31591,95.44033
3523.31591,100.70292
3523.31591,101.36075
3523.31591,100.0451
3524.93167,94.12468
3524.93167,94.7825
3524.93167,100.0451
3524.93167,99.38727
3524.93167,98.72945
3524.93167,98.07163
3524.93167,97.4138
3526.54742,94.12468
3526.54742,96.75598
3528.16318,96.75598
3528.16318,94.12468
3529.77894,94.12468
3529.77894,96.75598
3531.39469,96.75598
3531.39469,93.46685
3531.39469,94.12468
3533.01045,91.49338
3533.01045,96.75598
3533.01045,92.15121
3533.01045,92.80903
3533.01045,93.46685
3533.01045,90.83556
3533.01045,90.17773
3533.01045,89.51991
3533.01045,96.09815
3534.6262,95.44033
3534.6262,89.51991
3534.6262,96.09815
3536.24196,89.51991
3536.24196,95.44033
3536.24196,94.7825
3537.85771,94.12468
3537.85771,94.7825
3537.85771,89.51991
3539.47347,92.80903
3539.47347,92.15121
3539.47347,94.12468
3539.47347,89.51991
3539.47347,93.46685
3541.08923,89.51991
3541.08923,92.15121
3542.70498,89.51991
3542.70498,91.49338
3544.32074,89.51991
3544.32074,91.49338
3544.32074,90.83556
3545.93649,87.54643
3545.93649,88.20426
3545.93649,90.17773
3545.93649,90.83556
3545.93649,88.86208
3547.55225,88.86208
3547.55225,88.20426
3547.55225,89.51991
3547.55225,90.17773
3547.55225,86.88861
3547.55225,87.54643
3549.16801,87.54643
3549.16801,86.88861
3549.16801,86.23079
3550.78376,86.23079
3550.78376,85.57296
3550.78376,87.54643
3552.39952,84.91514
3552.39952,85.57296
3554.01527,84.91514
3555.63103,84.91514
3557.24678,83.59949
3557.24678,84.25731
3558.86254,83.59949
3560.4783,83.59949
3562.09405,82.94166
3562.09405,82.28384
3563.70981,82.28384
3565.32556,81.62601
3565.32556,82.28384
3566.94132,80.96819
3566.94132,81.62601
3568.55707,80.96819
3570.17283,80.96819
3571.78859,80.31037
3573.40434,80.31037
3575.0201,80.31037
3576.63585,78.99472
3576.63585,78.33689
3576.63585,77.67907
3576.63585,77.02124
3576.63585,76.36342
3576.63585,79.65254
3578.25161,76.36342
3579.86736,75.70559
3581.48312,76.36342
3583.09888,76.36342
3584.71463,75.70559
3586.33039,75.70559
3587.94614,75.04777
3589.5619,75.04777
3591.17766,74.38995
3592.79341,74.38995
3594.40917,73.73212
3596.02492,73.73212
3597.64068,73.73212
3599.25643,73.73212
3600.87219,73.0743
3602.48795,73.0743
3604.1037,73.73212
3605.71946,74.38995
3607.33521,74.38995
3608.95097,74.38995
3610.56672,73.73212
3612.18248,74.38995
3613.79824,74.38995
3615.41399,73.73212
3617.02975,73.0743
3618.6455,72.41647
3620.26126,72.41647
3621.87702,71.75865
3623.49277,71.75865
3625.10853,71.75865
3626.72428,71.75865
3628.34004,72.41647
3629.95579,73.0743
3631.57155,72.41647
3633.18731,72.41647
3634.80306,73.0743
3636.41882,73.0743
3638.03457,73.0743
3639.65033,72.41647
3641.26608,71.75865
3642.88184,71.10082
3644.4976,71.75865
3646.11335,71.10082
3647.72911,71.10082
3649.34486,70.443
3650.96062,69.78517
3652.57637,69.78517
3654.19213,70.443
3655.80789,71.10082
3657.42364,70.443
3659.0394,70.443
3660.65515,71.10082
3662.27091,71.75865
3663.88667,71.10082
3665.50242,71.10082
3667.11818,70.443
3668.73393,69.78517
3670.34969,70.443
3671.96544,70.443
3673.5812,70.443
3675.19696,70.443
3676.81271,70.443
3678.42847,69.78517
3680.04422,69.12735
3681.65998,69.12735
3683.27573,69.78517
3684.89149,69.78517
3686.50725,69.12735
3688.123,68.46953
3689.73876,67.8117
3691.35451,67.8117
3692.97027,67.15388
3694.58603,67.8117
3696.20178,67.15388
3697.81754,67.15388
3699.43329,67.15388
3701.04905,67.15388
3702.6648,67.8117
3704.28056,68.46953
3705.89632,69.12735
3707.51207,69.12735
3709.12783,69.12735
3710.74358,69.12735
3712.35934,69.12735
3713.97509,69.12735
3715.59085,69.12735
3717.20661,69.12735
3718.82236,68.46953
3720.43812,68.46953
3722.05387,68.46953
3723.66963,68.46953
3725.28538,68.46953
3726.90114,68.46953
3728.5169,67.8117
3730.13265,67.15388
3731.74841,66.49605
3733.36416,66.49605
3734.97992,66.49605
3736.59568,66.49605
3738.21143,66.49605
3739.82719,66.49605
3741.44294,66.49605
3743.0587,66.49605
3744.67445,66.49605
3746.29021,66.49605
3747.90597,66.49605
3749.52172,66.49605
3751.13748,66.49605
3752.75323,66.49605
3754.36899,66.49605
3755.98474,66.49605
3757.6005,66.49605
3759.21626,66.49605
3760.83201,66.49605
3762.44777,66.49605
3764.06352,66.49605
3765.67928,66.49605
3767.29504,66.49605
3768.91079,66.49605
3770.52655,66.49605
3772.1423,66.49605
3773.75806,66.49605
3775.37381,66.49605
3776.98957,66.49605
3778.60533,66.49605
3780.22108,66.49605
3781.83684,66.49605
3783.45259,66.49605
3785.06835,66.49605
3786.6841,66.49605
3788.29986,66.49605
3789.91562,66.49605
3791.53137,66.49605
3793.14713,66.49605
3794.76288,66.49605
3796.37864,66.49605
3797.99439,66.49605
3799.61015,66.49605
3801.22591,66.49605
3802.84166,67.15388
3804.45742,67.8117
3806.07317,68.46953
3807.68893,68.46953
3809.30469,68.46953
3810.92044,68.46953
3812.5362,68.46953
3814.15195,68.46953
3815.76771,68.46953
3817.38346,68.46953
3818.99922,68.46953
3820.61498,67.8117
3822.23073,67.15388
3823.84649,67.15388
3825.46224,67.15388
3827.078,67.15388
3828.69375,67.15388
3830.30951,67.15388
3831.92527,67.15388
3833.54102,67.15388
3835.15678,67.15388
3836.77253,67.15388
3838.38829,67.15388
3840.00405,67.15388
3841.6198,67.15388
3843.23556,67.15388
3844.85131,67.15388
3846.46707,67.15388
3848.08282,67.15388
3849.69858,67.15388
3851.31434,67.15388
3852.93009,67.15388
3854.54585,67.15388
3856.1616,67.15388
3857.77736,67.15388
3859.39311,67.15388
3861.00887,67.15388
3862.62463,67.15388
3864.24038,67.15388
3865.85614,67.15388
3867.47189,67.15388
3869.08765,67.15388
3870.7034,67.15388
3872.31916,67.15388
3873.93492,67.15388
3875.55067,67.15388
3877.16643,67.15388
3878.78218,67.15388
3880.39794,66.49605
3882.0137,65.83823
3883.62945,65.83823
3885.24521,65.83823
3886.86096,65.83823
3888.47672,65.83823
3890.09247,65.83823
3891.70823,65.83823
3893.32399,65.83823
3894.93974,65.83823
3896.5555,65.83823
3898.17125,65.83823
3899.78701,65.83823
3901.40276,65.83823
3903.01852,65.83823
3904.63428,65.83823
3906.25003,65.83823
3907.86579,65.83823
3909.48154,65.83823
3911.0973,65.83823
3912.71306,65.83823
3914.32881,65.83823
3915.94457,65.83823
3917.56032,65.83823
3919.17608,65.83823
3920.79183,65.83823
3922.40759,65.83823
3924.02335,65.83823
3925.6391,65.83823
3927.25486,66.49605
3928.87061,66.49605
3930.48637,66.49605
3932.10212,66.49605
3933.71788,66.49605
3935.33364,66.49605
3936.94939,66.49605
3938.56515,66.49605
3940.1809,66.49605
3941.79666,66.49605
3943.41241,67.15388
3945.02817,67.8117
3946.64393,68.46953
3948.25968,68.46953
3949.87544,68.46953
3951.49119,68.46953
3953.10695,68.46953
3954.72271,68.46953
3956.33846,67.8117
3957.95422,67.15388
3959.56997,66.49605
3961.18573,65.83823
3962.80148,65.83823
3964.41724,65.83823
3966.033,65.83823
3967.64875,65.83823
3969.26451,65.83823
3970.88026,65.83823
3972.49602,65.83823
3974.11177,65.83823
3975.72753,65.83823
3977.34329,65.83823
3978.95904,65.83823
3980.5748,65.83823
3982.19055,65.83823
3983.80631,65.83823
3985.42207,65.83823
3987.03782,65.83823
3988.65358,65.83823
3990.26933,65.83823
3991.88509,66.49605
3993.50084,67.15388
3995.1166,67.15388
3996.73236,67.15388
3998.34811,67.15388
3999.96387,64.52258
3999.96387,67.15388
4001.57962,65.1804
4001.57962,66.49605
4001.57962,65.83823
