Raman Shift,Intensity
178.7195,78.40144
179.2017,78.91237
179.6838,79.31398
180.1659,79.39601
180.648,79.14975
181.1301,78.80569
181.6122,78.46298
182.0944,78.17537
182.5765,78.12978
183.0586,78.81155
183.5407,79.73068
184.0228,79.58535
184.5049,78.17915
184.9871,76.77045
185.4692,77.19004
185.9513,79.11167
186.4334,80.77499
186.9155,81.06322
187.3976,80.41918
187.8798,80.43333
188.3619,81.28623
188.844,82.30453
189.3261,82.4391
189.8082,81.7564
190.2903,81.09376
190.7725,81.01272
191.2546,81.37449
191.7367,81.2759
192.2188,80.536
192.7009,79.69022
193.183,79.84115
193.6652,80.99292
194.1473,81.94041
194.6294,81.80127
195.1115,80.6867
195.5936,80.09529
196.0757,80.25542
196.5579,80.71891
197.04,80.54268
197.5221,79.66402
198.0042,78.82973
198.4863,78.4383
198.9684,78.49377
199.4506,78.77187
199.9327,79.3575
200.4148,80.02841
200.8969,80.25291
201.379,79.97287
201.8611,79.58172
202.3433,79.27268
202.8254,79.04408
203.3075,78.93791
203.7896,79.0228
204.2717,79.17565
204.7538,78.99255
205.236,78.34481
205.7181,77.82914
206.2002,77.94136
206.6823,78.84183
207.1644,79.2668
207.6465,78.94751
208.1287,78.18151
208.6108,77.91468
209.0929,78.32528
209.575,78.73975
210.0571,78.6547
210.5392,77.89589
211.0214,77.52029
211.5035,77.84878
211.9856,78.54939
212.4677,78.3361
212.9498,76.81126
213.4319,75.26702
213.914,74.54119
214.3962,74.89265
214.8783,75.13544
215.3604,75.15043
215.8425,74.9869
216.3246,74.80891
216.8067,74.54501
217.2889,74.3979
217.771,74.56667
218.2531,75.2711
218.7352,75.59843
219.2173,75.27725
219.6994,74.51595
220.1816,74.36372
220.6637,75.1018
221.1458,75.95067
221.6279,76.40226
222.11,76.30446
222.5921,76.23108
223.0743,76.28639
223.5564,76.40585
224.0385,76.24128
224.5206,75.61378
225.0027,74.99446
225.4848,74.76073
225.967,75.30718
226.4491,75.23984
226.9312,74.09605
227.4133,72.22501
227.8954,71.35451
228.3775,72.06411
228.8597,72.95023
229.3418,73.07394
229.8239,71.86106
230.306,71.24648
230.7881,71.61227
231.2702,72.71421
231.7524,73.37074
232.2345,73.38478
232.7166,73.22181
233.1987,73.16454
233.6808,73.35205
234.1629,73.31036
234.6451,72.83485
235.1272,72.09265
235.6093,71.80718
236.0914,72.05209
236.5735,72.6492
237.0556,73.58293
237.5378,75.21774
238.0199,76.41379
238.502,77.17202
238.9841,77.45896
239.4662,77.01309
239.9483,75.29819
240.4305,73.58796
240.9126,72.55917
241.3947,72.49262
241.8768,72.5005
242.3589,72.59312
242.841,72.73131
243.3232,72.75347
243.8053,72.52207
244.2874,72.36352
244.7695,72.50333
245.2516,73.27901
245.7337,73.57945
246.2159,73.21016
246.698,72.36019
247.1801,71.61901
247.6622,70.91467
248.1443,70.41289
248.6264,70.27084
249.1086,70.8241
249.5907,70.86271
250.0728,69.93369
250.5549,68.60078
251.037,68.49068
251.5191,70.38764
252.0013,72.2672
252.4834,73.24503
252.9655,73.03006
253.4476,72.62
253.9297,71.83393
254.4118,70.93547
254.894,70.52673
255.3761,70.80148
255.8582,71.22463
256.3403,71.62773
256.8224,72.09534
257.3046,72.23142
257.7867,71.89271
258.2688,71.31108
258.7509,70.99425
259.233,71.18995
259.7151,71.13969
260.1973,70.32153
260.6794,68.31601
261.1615,67.59173
261.6436,68.69153
262.1257,70.60709
262.6078,71.61612
263.09,71.41409
263.5721,71.01619
264.0542,70.74854
264.5363,70.62987
265.0184,70.45891
265.5005,70.08305
265.9827,69.82822
266.4648,70.35456
266.9469,72.11563
267.429,73.3148
267.9111,73.2146
268.3932,71.70591
268.8754,70.67825
269.3575,70.19773
269.8396,70.09157
270.3217,70.22609
270.8038,70.68581
271.2859,71.04985
271.7681,71.1907
272.2502,71.11349
272.7323,70.964
273.2144,70.70264
273.6965,70.45365
274.1786,70.38329
274.6608,70.53487
275.1429,70.62173
275.625,70.53979
276.1071,70.32407
276.5892,70.3035
277.0714,70.57911
277.5535,70.76226
278.0356,70.35977
278.5177,69.28936
278.9998,68.49876
279.4819,68.25436
279.9641,68.41965
280.4462,68.43691
280.9283,68.29836
281.4104,68.04301
281.8925,67.53206
282.3746,66.75459
282.8568,66.53938
283.3389,67.19411
283.821,68.36172
284.3031,69.03103
284.7852,69.16347
285.2673,69.15894
285.7495,69.33031
286.2316,69.65573
286.7137,69.81767
287.1958,69.7476
287.6779,69.53999
288.16,69.32636
288.6422,69.104
289.1243,69.01557
289.6064,69.21964
290.0885,69.65898
290.5706,70.07314
291.0527,70.47813
291.5349,70.7477
292.017,70.55966
292.4991,69.95752
292.9812,69.42223
293.4633,69.32484
293.9454,69.51234
294.4276,69.46917
294.9097,69.13232
295.3918,68.72704
295.8739,68.48927
296.356,68.41679
296.8381,68.48855
297.3203,68.96569
297.8024,69.53243
298.2845,69.3279
298.7666,68.25041
299.2487,67.26891
299.7308,67.71057
300.213,69.08829
300.6951,69.98936
301.1772,69.45087
301.6593,68.31062
302.1414,67.7164
302.6235,67.6666
303.1057,67.89143
303.5878,68.44448
304.0699,69.09072
304.552,69.36086
305.0341,68.81424
305.5162,68.09534
305.9984,67.96142
306.4805,68.33167
306.9626,68.64363
307.4447,68.38023
307.9268,67.86981
308.4089,67.55061
308.8911,67.61698
309.3732,67.77719
309.8553,67.78517
310.3374,67.68758
310.8195,67.64259
311.3016,67.89691
311.7838,68.16299
312.2659,68.15696
312.748,67.73045
313.2301,67.24913
313.7122,66.91547
314.1943,66.68132
314.6765,66.45325
315.1586,65.993
315.6407,65.66249
316.1228,65.82468
316.6049,66.70766
317.087,67.29099
317.5692,66.81487
318.0513,65.83229
318.5334,65.11789
319.0155,65.18979
319.4976,65.3523
319.9797,65.26775
320.4619,64.88437
320.944,64.62101
321.4261,64.52869
321.9082,64.64598
322.3903,65.01132
322.8724,66.13575
323.3546,67.00049
323.8367,67.42948
324.3188,67.41096
324.8009,66.83371
325.283,64.66591
325.7651,62.5638
326.2473,61.60575
326.7294,63.28613
327.2115,64.50449
327.6936,64.76707
328.1757,64.26167
328.6578,63.94459
329.14,64.09124
329.6221,64.21098
330.1042,64.08754
330.5863,63.50654
331.0684,63.03517
331.5505,62.70759
332.0327,62.48421
332.5148,62.27354
332.9969,61.98212
333.479,61.82793
333.9611,61.92847
334.4432,62.39453
334.9254,62.66887
335.4075,62.74573
335.8896,62.63001
336.3717,62.22364
336.8538,61.22787
337.3359,60.69009
337.818,61.05124
338.3001,62.28942
338.7823,63.12946
339.2644,63.47741
339.7465,63.60043
340.2286,63.76711
340.7107,64.01109
341.1928,64.0765
341.675,63.83212
342.1571,63.39907
342.6392,63.32115
343.1213,63.66536
343.6034,64.00777
344.0855,64.00254
344.5677,63.66589
345.0498,63.37868
345.5319,63.17199
346.014,63.06094
346.4961,63.17883
346.9782,63.51092
347.4604,63.67933
347.9425,63.26595
348.4246,62.48185
348.9067,62.16746
349.3888,62.42538
349.8709,62.86049
350.3531,62.95318
350.8352,62.80272
351.3173,62.77769
351.7994,63.25631
352.2815,63.88575
352.7636,63.9734
353.2458,63.51918
353.7279,63.082
354.21,63.19954
354.6921,63.64596
355.1742,64.05023
355.6563,64.44509
356.1385,64.59669
356.6206,64.0481
357.1027,62.95283
357.5848,62.09036
358.0669,61.90141
358.549,62.16854
359.0312,62.82991
359.5133,64.25922
359.9954,65.20521
360.4775,64.30207
360.9596,62.39011
361.4417,61.2643
361.9239,62.54865
362.406,64.11507
362.8881,64.77988
363.3702,64.29597
363.8523,63.57701
364.3344,62.33998
364.8166,61.22548
365.2987,60.96306
365.7808,62.73132
366.2629,64.36749
366.745,65.36217
367.2271,65.69926
367.7093,65.62172
368.1914,64.56058
368.6735,63.46703
369.1556,62.96146
369.6377,63.92472
370.1198,64.40954
370.602,64.15471
371.0841,63.34206
371.5662,62.58472
372.0483,61.53835
372.5304,60.97573
373.0125,61.34458
373.4947,63.15393
373.9768,64.42198
374.4589,65.04401
374.941,65.22313
375.4231,65.23521
375.9052,65.01585
376.3874,64.80386
376.8695,64.60527
377.3516,64.4285
377.8337,64.71492
378.3158,65.61481
378.7979,66.57465
379.2801,67.00024
379.7622,66.87189
380.2443,66.75523
380.7264,66.81744
381.2085,66.91233
381.6906,66.4865
382.1728,65.52599
382.6549,64.77751
383.137,64.80962
383.6191,65.49213
384.1012,66.40491
384.5833,67.59725
385.0655,68.72339
385.5476,69.33681
386.0297,69.49796
386.5118,69.39115
386.9939,68.80961
387.476,68.13333
387.9582,67.92838
388.4403,68.20747
388.9224,68.71554
389.4045,69.53432
389.8866,70.37479
390.3687,70.81176
390.8509,70.41899
391.333,69.88511
391.8151,69.70515
392.2972,69.80479
392.7793,69.8746
393.2614,69.79124
393.7436,69.6023
394.2257,69.28574
394.7078,68.69099
395.1899,68.33764
395.672,68.60194
396.1541,69.18961
396.6363,69.62794
397.1184,69.78881
397.6005,69.79406
398.0826,69.59482
398.5647,69.14172
399.0468,68.9113
399.529,69.22379
400.0111,69.62302
400.4932,69.74532
400.9753,69.47205
401.4574,69.07084
401.9395,68.47334
402.4217,67.74747
402.9038,67.21156
403.3859,66.82697
403.868,66.69012
404.3501,66.96719
404.8322,67.9456
405.3144,68.2308
405.7965,67.50233
406.2786,66.45837
406.7607,66.32828
407.2428,67.30051
407.7249,68.1556
408.2071,68.44154
408.6892,68.25331
409.1713,68.21278
409.6534,68.35549
410.1355,68.43344
410.6176,68.12051
411.0998,67.4977
411.5819,67.06287
412.064,66.95638
412.5461,67.00492
413.0282,67.03573
413.5103,67.01431
413.9925,66.74726
414.4746,65.66085
414.9567,64.40364
415.4388,64.19514
415.9209,65.23885
416.403,66.30621
416.8852,66.32526
417.3673,65.69166
417.8494,65.05578
418.3315,64.84006
418.8136,64.56013
419.2957,63.64235
419.7779,62.2439
420.26,61.33829
420.7421,61.92543
421.2242,62.84486
421.7063,63.22245
422.1884,62.62539
422.6706,62.02346
423.1527,61.44445
423.6348,61.03933
424.1169,61.08302
424.599,62.46733
425.0811,63.48985
425.5633,63.38247
426.0454,61.87541
426.5275,61.15202
427.0096,61.68871
427.4917,62.62498
427.9738,63.26643
428.456,63.49744
428.9381,63.66747
429.4202,63.79836
429.9023,63.89461
430.3844,63.98846
430.8665,64.09848
431.3487,64.15072
431.8308,64.01208
432.3129,63.65489
432.795,63.82726
433.2771,64.75619
433.7592,65.62224
434.2414,65.09434
434.7235,63.30722
435.2056,61.90208
435.6877,61.5461
436.1698,61.79435
436.6519,61.63863
437.1341,61.1097
437.6162,60.74411
438.0983,61.26607
438.5804,62.14055
439.0625,62.37044
439.5446,61.66
440.0268,60.73969
440.5089,60.03146
440.991,59.59874
441.4731,59.57701
441.9552,60.64372
442.4373,61.65055
442.9195,61.68671
443.4016,60.75542
443.8837,60.00985
444.3658,60.11551
444.8479,60.49065
445.33,60.67365
445.8122,60.30606
446.2943,60.09154
446.7764,60.30901
447.2585,60.76925
447.7406,60.98802
448.2227,60.78425
448.7049,60.47614
449.187,60.02146
449.6691,59.28928
450.1512,59.2611
450.6333,60.25894
451.1154,61.60907
451.5976,62.72445
452.0797,63.60557
452.5618,64.21048
453.0439,64.48687
453.526,64.50563
454.0081,64.54684
454.4903,64.65144
454.9724,64.50813
455.4545,63.73138
455.9366,62.46027
456.4187,61.65658
456.9008,61.38345
457.383,61.42501
457.8651,61.64653
458.3472,61.99854
458.8293,62.32587
459.3114,62.6605
459.7935,62.86234
460.2757,62.74289
460.7578,62.32589
461.2399,61.73858
461.722,60.90924
462.2041,60.02838
462.6862,59.2359
463.1684,58.51006
463.6505,58.07267
464.1326,58.1587
464.6147,58.57068
465.0968,59.05816
465.5789,59.71959
466.0611,60.2613
466.5432,60.60451
467.0253,60.75049
467.5074,60.75937
467.9895,60.41058
468.4716,60.11123
468.9538,60.11827
469.4359,60.87949
469.918,60.90728
470.4001,59.66935
470.8822,58.06345
471.3643,57.50117
471.8465,58.32592
472.3286,59.2263
472.8107,60.0165
473.2928,60.61335
473.7749,60.40332
474.257,59.23811
474.7392,58.04497
475.2213,57.51986
475.7034,57.59139
476.1855,57.80297
476.6676,58.13223
477.1497,58.51094
477.6319,58.90819
478.114,59.28946
478.5961,59.53378
479.0782,59.5699
479.5603,59.45387
480.0424,59.15049
480.5246,58.69396
481.0067,58.37184
481.4888,58.46408
481.9709,58.71386
482.453,58.89574
482.9352,58.94452
483.4173,58.9762
483.8994,59.12964
484.3815,59.27356
484.8636,59.2072
485.3457,58.20616
485.8279,57.68581
486.31,58.39941
486.7921,60.34949
487.2742,61.36733
487.7563,60.79811
488.2384,59.97356
488.7206,59.62005
489.2027,59.87081
489.6848,60.28516
490.1669,61.03094
490.649,61.75331
491.1311,61.77953
491.6133,60.98744
492.0954,60.35549
492.5775,60.26332
493.0596,60.53897
493.5417,60.45564
494.0238,60.00514
494.506,59.67643
494.9881,60.00993
495.4702,60.73339
495.9523,61.11498
496.4344,60.98648
496.9165,60.84029
497.3987,61.35832
497.8808,62.19453
498.3629,62.68622
498.845,62.31704
499.3271,61.72045
499.8092,61.16991
500.2914,60.69667
500.7735,60.49017
501.2556,60.93526
501.7377,61.43258
502.2198,61.57224
502.7019,61.05463
503.1841,60.84964
503.6662,61.32434
504.1483,62.07306
504.6304,62.62427
505.1125,62.88816
505.5946,63.0937
506.0768,63.29853
506.5589,63.47459
507.041,63.48979
507.5231,63.33891
508.0052,63.04179
508.4873,62.38291
508.9695,61.3618
509.4516,61.36191
509.9337,62.59632
510.4158,63.99131
510.8979,64.21178
511.38,63.48587
511.8622,62.79606
512.3443,62.32054
512.8264,62.12404
513.3085,62.51044
513.7906,63.30473
514.2728,63.87861
514.7549,63.70472
515.237,63.27182
515.7191,62.97859
516.2012,62.8606
516.6833,62.78645
517.1655,62.65137
517.6476,62.5554
518.1297,62.58663
518.6118,62.95173
519.0939,63.21076
519.576,63.30964
520.0582,63.25315
520.5403,63.04718
521.0224,62.42748
521.5045,62.03339
521.9866,62.0911
522.4688,62.60067
522.9509,63.04639
523.433,63.42317
523.9151,63.75266
524.3972,64.05925
524.8793,64.34182
525.3615,64.56129
525.8436,64.72734
526.3257,64.79604
526.8078,64.65961
527.2899,64.35172
527.772,64.02262
528.2542,63.60318
528.7363,63.29845
529.2184,63.56776
529.7005,64.28698
530.1826,64.79335
530.6647,64.36823
531.1469,63.74214
531.629,63.60127
532.1111,64.15313
532.5932,64.63865
533.0753,64.9221
533.5574,64.92097
534.0396,64.54562
534.5217,63.16125
535.0038,62.12947
535.4859,61.71412
535.968,61.78595
536.4501,61.96788
536.9323,62.38036
537.4144,62.69041
537.8965,62.68156
538.3786,62.33603
538.8607,62.4977
539.3428,63.31364
539.825,64.17672
540.3071,64.53325
540.7892,64.41164
541.2713,64.04842
541.7534,63.39638
542.2355,62.74195
542.7177,62.47729
543.1998,62.5423
543.6819,62.75535
544.164,63.21809
544.6461,63.65729
545.1282,63.87924
545.6104,63.87174
546.0925,63.57894
546.5746,62.48413
547.0567,61.43938
547.5388,61.07737
548.0209,61.70152
548.5031,62.28735
548.9852,62.66298
549.4673,62.88137
549.9494,62.99389
550.4315,62.90327
550.9136,62.85927
551.3958,62.87499
551.8779,62.95631
552.36,63.1146
552.8421,63.34374
553.3242,63.68213
553.8063,64.2851
554.2885,65.06283
554.7706,65.18276
555.2527,64.5911
555.7348,63.91454
556.2169,63.78589
556.699,63.99453
557.1812,63.94776
557.6633,63.48887
558.1454,63.01454
558.6275,63.06573
559.1096,63.34727
559.5917,63.33888
560.0739,62.4243
560.556,61.55509
561.0381,61.15471
561.5202,61.19246
562.0023,61.49284
562.4844,62.67183
562.9666,63.53703
563.4487,63.32318
563.9308,61.65064
564.4129,60.85118
564.895,61.52852
565.3771,62.41775
565.8593,62.36557
566.3414,61.04431
566.8235,60.21263
567.3056,60.13923
567.7877,60.46354
568.2698,60.58039
568.752,60.49656
569.2341,60.29342
569.7162,59.8867
570.1983,59.45805
570.6804,59.41977
571.1625,59.71589
571.6447,59.9497
572.1268,59.80742
572.6089,59.5106
573.091,59.28302
573.5731,59.16228
574.0552,59.00016
574.5374,58.68219
575.0195,58.31167
575.5016,57.98386
575.9837,57.52972
576.4658,57.35326
576.9479,57.65554
577.4301,58.21528
577.9122,58.59043
578.3943,58.65521
578.8764,58.81264
579.3585,59.31536
579.8406,60.03398
580.3228,59.91306
580.8049,58.82446
581.287,57.72659
581.7691,57.20894
582.2512,57.20886
582.7333,57.55061
583.2155,58.26049
583.6975,58.9729
584.1796,59.40277
584.6617,59.60143
585.1439,59.69289
585.626,59.8774
586.1081,59.66191
586.5902,58.13919
587.0723,56.06133
587.5544,54.90126
588.0366,55.78976
588.5187,56.90979
589.0008,57.76729
589.4829,58.34892
589.965,58.81382
590.4471,59.17936
590.9293,59.40245
591.4114,59.45802
591.8935,59.34105
592.3756,59.01386
592.8577,58.34991
593.3398,57.816
593.822,58.07854
594.3041,59.0106
594.7862,59.61404
595.2683,59.68737
595.7504,59.43221
596.2325,59.06848
596.7147,58.58466
597.1968,57.95914
597.6789,56.77132
598.161,55.7763
598.6431,55.58774
599.1252,56.09708
599.6074,56.76929
600.0895,57.82184
600.5716,58.64864
601.0537,58.89503
601.5358,58.39783
602.0179,57.94605
602.5001,57.56083
602.9822,57.21083
603.4643,56.82441
603.9464,56.2965
604.4285,56.1731
604.9106,56.58061
605.3928,57.22758
605.8749,57.76683
606.357,58.18848
606.8391,58.33778
607.3212,58.11719
607.8033,57.6669
608.2855,57.08938
608.7676,56.43928
609.2497,55.89728
609.7318,55.63481
610.2139,55.4731
610.696,55.27059
611.1782,55.02311
611.6603,54.83638
612.1424,54.58806
612.6245,54.52603
613.1066,54.86135
613.5887,55.95417
614.0709,56.63391
614.553,56.70341
615.0351,56.54497
615.5172,56.57915
615.9993,56.87771
616.4814,57.05263
616.9636,57.05534
617.4457,56.89988
617.9278,56.45301
618.4099,55.77
618.892,55.42085
619.3741,55.88705
619.8563,56.63726
620.3384,56.95405
620.8205,56.86518
621.3026,56.51112
621.7847,55.63173
622.2668,54.76092
622.749,54.43537
623.2311,54.76744
623.7132,54.80812
624.1953,53.85754
624.6774,52.83741
625.1595,52.39891
625.6417,52.83949
626.1238,53.32733
626.6059,53.98613
627.088,54.55435
627.5701,54.52433
628.0522,53.78955
628.5344,53.57614
629.0165,54.36118
629.4986,55.47533
629.9807,55.43395
630.4628,54.45046
630.9449,53.68237
631.4271,53.81543
631.9092,54.37451
632.3913,55.0373
632.8734,55.74094
633.3555,56.11492
633.8376,55.57379
634.3198,54.96395
634.8019,54.84774
635.284,55.40001
635.7661,55.80688
636.2482,55.90049
636.7303,55.89625
637.2125,55.91816
637.6946,55.92498
638.1767,56.11187
638.6588,56.55888
639.1409,57.06163
639.623,57.29854
640.1052,57.28833
640.5873,57.28467
641.0694,57.34667
641.5515,57.45487
642.0336,57.70773
642.5157,57.99876
642.9979,58.01699
643.48,57.24848
643.9621,56.45063
644.4442,56.14072
644.9263,56.27922
645.4084,56.59148
645.8906,57.42648
646.3727,58.03432
646.8548,57.91376
647.3369,56.92082
647.819,56.39046
648.3011,56.56985
648.7833,56.84824
649.2654,56.73603
649.7475,56.18862
650.2296,55.76957
650.7117,55.50433
651.1938,55.3849
651.676,55.43678
652.1581,55.63263
652.6402,55.92576
653.1223,56.41434
653.6044,56.7608
654.0865,56.52321
654.5687,55.94529
655.0508,55.49713
655.5329,55.32644
656.015,55.33953
656.4971,55.62827
656.9792,56.11361
657.4614,56.38896
657.9435,56.28014
658.4256,56.18917
658.9077,56.29433
659.3898,56.57825
659.8719,56.53192
660.3541,56.06242
660.8362,55.6977
661.3183,55.94664
661.8004,56.62583
662.2825,57.00012
662.7646,57.01896
663.2468,56.9215
663.7289,56.98712
664.211,57.03728
664.6931,56.78016
665.1752,55.97332
665.6573,55.33363
666.1395,55.45436
666.6216,55.80693
667.1037,55.74071
667.5858,54.34093
668.0679,53.6262
668.55,54.26445
669.0322,55.44835
669.5143,55.21778
669.9964,53.21114
670.4785,51.58012
670.9606,51.10284
671.4427,51.35678
671.9249,51.08303
672.407,50.37202
672.8891,49.96955
673.3712,50.70773
673.8533,51.76277
674.3354,52.21779
674.8176,52.07466
675.2997,51.629
675.7818,50.6915
676.2639,49.75919
676.746,49.13783
677.2281,48.92462
677.7103,48.83389
678.1924,48.84307
678.6745,48.97615
679.1566,49.34835
679.6387,50.11657
680.1208,50.29839
680.603,49.71197
681.0851,48.88342
681.5672,48.39003
682.0493,48.20625
682.5314,48.26845
683.0135,48.70113
683.4957,49.03945
683.9778,48.60797
684.4599,47.74817
684.942,47.11939
685.4241,47.12252
685.9063,47.22535
686.3884,47.12727
686.8705,46.95583
687.3526,47.18999
687.8347,48.43284
688.3168,49.23299
688.799,49.09885
689.2811,48.17391
689.7632,47.28889
690.2453,46.39076
690.7274,45.90601
691.2095,46.32538
691.6917,47.33595
692.1738,48.09623
692.6559,48.58503
693.138,48.77934
693.6201,48.35707
694.1022,47.81057
694.5844,47.65666
695.0665,48.0221
695.5486,48.37206
696.0307,48.56734
696.5128,48.64408
696.9949,48.62665
697.4771,48.4679
697.9592,48.30817
698.4413,48.09086
698.9234,47.9489
699.4055,48.22606
699.8876,48.94192
700.3698,48.90295
700.8519,47.67653
701.334,46.24976
701.8161,46.2546
702.2982,47.16634
702.7803,47.65132
703.2625,46.86501
703.7446,45.91859
704.2267,45.48356
704.7088,45.44121
705.1909,45.53889
705.673,45.65795
706.1552,45.9845
706.6373,46.7664
707.1194,47.81744
707.6015,48.19194
708.0836,47.63624
708.5657,47.1749
709.0479,47.35258
709.53,47.94515
710.0121,47.91421
710.4942,47.28169
710.9763,46.6242
711.4584,46.27391
711.9406,46.14658
712.4227,46.2049
712.9048,46.4357
713.3869,46.60152
713.869,46.56374
714.3511,46.43959
714.8333,46.31991
715.3154,46.2613
715.7975,46.0368
716.2796,45.57217
716.7617,45.0324
717.2438,44.3924
717.726,43.57814
718.2081,43.68002
718.6902,44.93414
719.1723,46.39648
719.6544,46.83601
720.1365,46.61182
720.6187,46.68955
721.1008,47.43517
721.5829,48.05494
722.065,47.8024
722.5471,47.11439
723.0292,46.57053
723.5114,46.39886
723.9935,46.3175
724.4756,46.36903
724.9577,46.4524
725.4398,46.3772
725.9219,46.07103
726.4041,45.82557
726.8862,45.70314
727.3683,45.67863
727.8504,45.68885
728.3325,45.73979
728.8146,45.88293
729.2968,46.23724
729.7789,46.6121
730.261,46.74437
730.7431,46.70535
731.2252,46.73171
731.7073,47.23682
732.1895,47.52772
732.6716,47.16393
733.1537,46.19153
733.6358,45.48944
734.1179,45.144
734.6,44.9052
735.0822,44.61707
735.5643,44.31856
736.0464,44.52436
736.5285,45.26096
737.0106,45.97856
737.4927,46.31139
737.9749,46.35661
738.457,46.1265
738.9391,45.6452
739.4212,45.45161
739.9033,46.4199
740.3854,47.39831
740.8676,47.40344
741.3497,45.92667
741.8318,45.12032
742.3139,45.58851
742.796,46.21035
743.2781,46.16211
743.7603,45.30106
744.2424,44.84224
744.7245,44.89437
745.2066,45.02223
745.6887,44.60604
746.1708,43.91585
746.653,43.7757
747.1351,44.45144
747.6172,45.00976
748.0993,44.47227
748.5814,43.56893
749.0635,43.12523
749.5457,43.55654
750.0278,44.09536
750.5099,44.84735
750.992,45.51719
751.4741,45.68149
751.9562,45.16949
752.4384,44.89099
752.9205,45.03156
753.4026,45.31441
753.8847,45.21716
754.3668,44.86007
754.8489,44.74257
755.3311,45.11253
755.8132,45.59033
756.2953,45.9116
756.7774,46.09365
757.2595,46.16025
757.7416,45.84774
758.2238,45.74311
758.7059,46.1668
759.188,46.84234
759.6701,47.20671
760.1522,47.2232
760.6343,47.03715
761.1165,46.60679
761.5986,46.07531
762.0807,45.81592
762.5628,45.78857
763.0449,45.75142
763.527,45.30775
764.0092,45.05641
764.4913,46.00006
764.9734,47.66035
765.4555,48.56543
765.9376,47.37926
766.4197,46.1865
766.9019,45.82864
767.384,46.09594
767.8661,45.92312
768.3482,45.04522
768.8303,44.53874
769.3124,45.11339
769.7946,46.29197
770.2767,46.14925
770.7588,44.84007
771.2409,43.80958
771.723,44.17269
772.2051,45.07048
772.6873,45.86344
773.1694,46.48753
773.6515,46.68016
774.1336,45.80817
774.6157,45.01384
775.0978,44.78988
775.58,45.11951
776.0621,45.63308
776.5442,46.42533
777.0263,47.13863
777.5084,47.67573
777.9905,47.98035
778.4727,47.56418
778.9548,46.473
779.4369,45.52857
779.919,45.5556
780.4011,45.8585
780.8832,45.62442
781.3654,44.81434
781.8475,44.37126
782.3296,44.58806
782.8117,45.2854
783.2938,46.59364
783.7759,48.66011
784.2581,49.49832
784.7402,48.79293
785.2223,47.83022
785.7044,47.51876
786.1865,47.6894
786.6686,47.67098
787.1508,47.4447
787.6329,47.1436
788.115,46.68018
788.5971,46.30342
789.0792,46.38885
789.5613,47.05798
790.0435,47.36383
790.5256,46.5402
791.0077,45.77269
791.4898,45.75335
791.9719,46.6366
792.454,47.18959
792.9362,47.38824
793.4183,47.31517
793.9004,46.89573
794.3825,46.26497
794.8646,45.79132
795.3467,45.49715
795.8289,45.3673
796.311,45.85111
796.7931,46.19032
797.2752,45.47018
797.7573,43.08424
798.2394,41.93338
798.7216,43.10616
799.2037,44.72035
799.6858,45.64292
800.1679,45.79975
800.65,45.7437
801.1321,45.408
801.6143,45.27168
802.0964,46.10197
802.5785,47.34507
803.0606,47.89512
803.5427,47.59436
804.0248,47.10061
804.507,46.66702
804.9891,46.28955
805.4712,45.95137
805.9533,45.61043
806.4354,45.46906
806.9175,45.66844
807.3997,45.8609
807.8818,45.67982
808.3639,45.14309
808.846,45.13081
809.3281,45.71095
809.8102,46.3363
810.2924,46.53157
810.7745,46.46182
811.2566,46.31291
811.7387,46.09956
812.2208,45.92948
812.7029,46.03769
813.1851,46.05922
813.6672,45.63208
814.1493,44.49679
814.6314,44.14754
815.1135,44.87319
815.5956,45.6707
816.0778,45.56957
816.5599,44.81298
817.042,44.57602
817.5241,44.92891
818.0062,45.38074
818.4883,45.64186
818.9705,45.7562
819.4526,45.72533
819.9347,45.5248
820.4168,45.38213
820.8989,45.41119
821.381,45.44826
821.8632,45.39692
822.3453,45.24003
822.8274,45.19594
823.3095,45.29091
823.7916,45.34766
824.2737,45.0507
824.7559,44.66574
825.238,44.89841
825.7201,45.76056
826.2022,46.38807
826.6843,46.11385
827.1664,45.53356
827.6486,44.95882
828.1307,44.38015
828.6128,44.16152
829.0949,44.48695
829.577,44.84786
830.0591,44.89386
830.5413,44.67931
831.0234,44.89038
831.5055,45.52132
831.9876,46.16064
832.4697,46.64513
832.9518,46.90391
833.434,46.80284
833.9161,46.35534
834.3982,45.85124
834.8803,45.18602
835.3624,44.69274
835.8445,44.48575
836.3267,44.56301
836.8088,44.97047
837.2909,45.79295
837.773,46.55121
838.2551,47.07475
838.7372,47.31315
839.2194,46.95411
839.7015,46.1077
840.1836,45.41038
840.6657,45.29736
841.1478,45.38607
841.6299,45.46824
842.1121,45.54281
842.5942,45.70075
843.0763,46.06122
843.5584,46.30124
844.0405,46.29719
844.5226,46.10225
845.0048,45.89979
845.4869,45.69193
845.969,45.51316
846.4511,45.32499
846.9332,45.22366
847.4153,45.50267
847.8975,45.96906
848.3796,46.07662
848.8617,45.0659
849.3438,44.33535
849.8259,44.46934
850.308,45.10439
850.7902,45.1791
851.2723,44.50826
851.7544,44.4871
852.2365,45.81665
852.7186,47.52614
853.2007,47.77023
853.6829,46.96686
854.165,46.26552
854.6471,46.20657
855.1292,46.23204
855.6113,46.02987
856.0934,45.7449
856.5756,45.6534
857.0577,45.90377
857.5398,46.0437
858.0219,45.97354
858.504,45.85366
858.9861,46.01196
859.4683,46.3781
859.9504,46.54272
860.4325,46.35782
860.9146,46.11763
861.3967,46.1759
861.8788,46.30065
862.361,46.18316
862.8431,45.44319
863.3252,45.02137
863.8073,45.06266
864.2894,45.36392
864.7715,45.82572
865.2537,46.47251
865.7358,46.74694
866.2179,46.57495
866.7,46.27619
867.1821,46.13987
867.6642,46.09919
868.1464,46.04093
868.6285,45.92962
869.1106,45.9336
869.5927,46.30992
870.0748,46.66204
870.5569,46.67095
871.0391,46.23423
871.5212,46.22424
872.0033,46.75393
872.4854,47.25456
872.9675,47.22963
873.4496,46.86755
873.9318,46.5617
874.4139,46.33195
874.896,46.22823
875.3781,46.37196
875.8602,46.57087
876.3423,46.62791
876.8245,46.55165
877.3066,46.93559
877.7887,48.21421
878.2708,48.94176
878.7529,48.31221
879.235,46.79753
879.7172,45.86444
880.1993,45.49602
880.6814,45.48906
881.1635,45.95889
881.6456,46.55001
882.1277,47.11814
882.6099,47.60032
883.092,47.80962
883.5741,47.31025
884.0562,47.13392
884.5383,47.65138
885.0204,48.40679
885.5026,48.25755
885.9847,47.27456
886.4668,46.53791
886.9489,46.39294
887.431,46.52617
887.9131,46.73806
888.3953,46.95461
888.8774,47.06253
889.3595,46.92064
889.8416,46.83141
890.3237,46.75861
890.8058,46.82019
891.288,47.2876
891.7701,48.23526
892.2522,48.50687
892.7343,47.93353
893.2164,47.14793
893.6985,46.5802
894.1807,46.32026
894.6628,46.63054
895.1449,47.6572
895.627,48.43708
896.1091,48.48924
896.5912,48.30046
897.0734,48.15397
897.5555,48.05591
898.0376,47.94215
898.5197,47.81213
899.0018,47.67979
899.4839,47.48358
899.9661,47.323
900.4482,47.51094
900.9303,47.97192
901.4124,48.20031
901.8945,47.63232
902.3766,47.08637
902.8588,46.99091
903.3409,47.26096
903.823,47.51034
904.3051,47.75208
904.7872,47.92295
905.2693,47.992
905.7515,47.99158
906.2336,48.07282
906.7157,48.14639
907.1978,47.93763
907.6799,46.80927
908.162,46.03925
908.6442,46.4326
909.1263,47.48484
909.6084,48.38554
910.0905,49.25041
910.5726,49.56261
911.0547,49.1848
911.5369,48.47915
912.019,47.75628
912.5011,47.10116
912.9832,46.81206
913.4653,46.98882
913.9474,47.19922
914.4296,47.12669
914.9117,46.99713
915.3938,47.02347
915.8759,47.27967
916.358,47.38815
916.8401,47.24862
917.3223,47.20755
917.8044,47.67289
918.2865,48.43084
918.7686,48.55633
919.2507,48.12309
919.7328,47.8687
920.215,48.5571
920.6971,49.29689
921.1792,49.57016
921.6613,49.37525
922.1434,48.913
922.6255,47.82575
923.1077,47.39256
923.5898,48.25928
924.0719,49.70625
924.554,49.81919
925.0361,48.97054
925.5182,48.72355
926.0004,50.1182
926.4825,51.51485
926.9646,51.90269
927.4467,51.64159
927.9288,51.2392
928.4109,50.6514
928.8931,50.12782
929.3752,49.67736
929.8573,49.30716
930.3394,48.98231
930.8215,48.74084
931.3036,48.81893
931.7858,49.27724
932.2679,49.52601
932.75,48.75798
933.2321,47.91709
933.7142,47.86247
934.1964,48.82775
934.6785,49.11385
935.1606,48.43529
935.6427,47.76851
936.1248,47.58604
936.6069,47.82042
937.0891,48.45533
937.5712,49.37776
938.0533,49.97609
938.5354,49.74596
939.0175,49.26788
939.4996,48.68803
939.9818,48.12051
940.4639,47.87106
940.946,48.00397
941.4281,48.35023
941.9102,49.02107
942.3923,49.61824
942.8745,49.23802
943.3566,48.25224
943.8387,47.87974
944.3208,48.67945
944.8029,49.13546
945.285,47.72378
945.7672,45.98745
946.2493,45.48747
946.7314,46.66677
947.2135,47.37451
947.6956,47.55142
948.1777,47.46036
948.6599,47.11546
949.142,46.6991
949.6241,46.76913
950.1062,47.26691
950.5883,47.63102
951.0704,47.42098
951.5526,47.13642
952.0347,47.05333
952.5168,47.10998
952.9989,47.05722
953.481,46.87333
953.9631,46.62959
954.4453,46.20396
954.9274,45.98765
955.4095,47.05999
955.8916,48.77601
956.3737,49.73511
956.8558,49.1318
957.338,48.40587
957.8201,47.99982
958.3022,47.72524
958.7843,47.35791
959.2664,46.80699
959.7485,46.79729
960.2307,47.43079
960.7128,48.00094
961.1949,47.60442
961.677,46.89481
962.1591,46.9237
962.6412,47.70847
963.1234,48.28337
963.6055,48.20492
964.0876,47.96821
964.5697,47.74569
965.0518,47.51254
965.5339,47.04934
966.0161,46.35504
966.4982,45.99303
966.9803,46.34259
967.4624,46.84798
967.9445,46.94728
968.4266,46.75127
968.9088,46.44159
969.3909,45.81009
969.873,45.43844
970.3551,45.38665
970.8372,45.55867
971.3193,45.94824
971.8015,46.51378
972.2836,46.81689
972.7657,46.81347
973.2478,46.89724
973.7299,47.67145
974.212,48.44388
974.6942,48.61824
975.1763,48.13593
975.6584,47.47116
976.1405,46.39203
976.6226,45.68848
977.1047,45.72218
977.5869,46.26332
978.069,46.92517
978.5511,47.57652
979.0332,47.72336
979.5153,46.82026
979.9974,45.87009
980.4796,45.27391
980.9617,45.02073
981.4438,45.10704
981.9259,45.68525
982.408,46.13953
982.8901,46.46265
983.3723,46.59039
983.8544,46.23205
984.3365,45.7129
984.8186,45.66679
985.3007,46.14183
985.7828,46.77953
986.265,48.03656
986.7471,48.74366
987.2292,48.13409
987.7113,46.55866
988.1934,45.95633
988.6755,46.36904
989.1577,46.77345
989.6398,46.82676
990.1219,46.60639
990.604,46.00966
991.0861,45.25383
991.5682,44.69915
992.0504,44.1598
992.5325,44.37565
993.0146,45.97542
993.4967,47.54374
993.9788,47.52427
994.4609,46.14549
994.9431,45.45088
995.4252,45.5442
995.9073,45.78273
996.3894,45.74705
996.8715,45.6305
997.3536,45.58221
997.8358,45.60051
998.3179,45.55117
998.8,45.40296
999.2821,45.2469
999.7642,45.05819
1000.246,44.94957
1000.728,45.30717
1001.211,45.92298
1001.693,46.22689
1002.175,45.89669
1002.657,45.56411
1003.139,45.45988
1003.621,45.51136
1004.103,45.66247
1004.585,45.93525
1005.068,46.20076
1005.55,46.46922
1006.032,46.6464
1006.514,46.69868
1006.996,46.59578
1007.478,46.12489
1007.96,45.39778
1008.442,45.0357
1008.924,45.61864
1009.407,46.06913
1009.889,46.23023
1010.371,46.0895
1010.853,45.35253
1011.335,44.18067
1011.817,43.77433
1012.299,44.54614
1012.781,45.50686
1013.263,46.07082
1013.746,46.37101
1014.228,46.56121
1014.71,46.71525
1015.192,46.33125
1015.674,45.15678
1016.156,44.28424
1016.638,44.60627
1017.12,45.57452
1017.603,46.04865
1018.085,46.12328
1018.567,46.11774
1019.049,46.2062
1019.531,46.18583
1020.013,45.85795
1020.495,45.47834
1020.977,45.43044
1021.459,45.7195
1021.942,46.12824
1022.424,46.65356
1022.906,47.11194
1023.388,47.58226
1023.87,47.7432
1024.352,47.03413
1024.834,45.31176
1025.316,44.31654
1025.799,44.34312
1026.281,44.71323
1026.763,45.31104
1027.245,45.94728
1027.727,46.09131
1028.209,45.8591
1028.691,45.63311
1029.173,45.55696
1029.656,45.52555
1030.138,45.59383
1030.62,45.61448
1031.102,45.41143
1031.584,44.92332
1032.066,44.45998
1032.548,43.987
1033.03,43.89792
1033.512,45.07343
1033.995,46.44822
1034.477,46.53319
1034.959,45.50148
1035.441,44.84476
1035.923,45.27055
1036.405,45.50972
1036.887,45.20282
1037.369,44.71021
1037.851,44.78088
1038.334,45.28543
1038.816,45.76354
1039.298,46.14172
1039.78,46.34884
1040.262,46.35415
1040.744,46.15626
1041.226,45.6202
1041.708,44.69209
1042.191,44.63879
1042.673,45.5983
1043.155,46.22545
1043.637,45.44501
1044.119,44.22311
1044.601,43.79226
1045.083,43.97914
1045.565,44.40002
1046.047,45.63885
1046.53,46.0116
1047.012,45.00376
1047.494,43.66512
1047.976,43.18324
1048.458,43.40203
1048.94,43.63669
1049.422,43.83218
1049.904,44.00836
1050.386,44.19333
1050.869,44.35046
1051.351,44.39378
1051.833,44.38331
1052.315,44.62292
1052.797,45.17097
1053.279,45.50089
1053.761,45.41396
1054.243,45.22101
1054.726,45.37184
1055.208,45.64432
1055.69,45.6959
1056.172,45.33257
1056.654,45.16263
1057.136,45.28733
1057.618,45.51012
1058.1,45.80002
1058.583,46.07897
1059.065,45.99786
1059.547,45.60864
1060.029,45.14759
1060.511,44.40525
1060.993,44.00915
1061.475,44.4914
1061.957,45.34792
1062.439,45.92781
1062.922,46.21999
1063.404,46.33018
1063.886,46.26302
1064.368,46.03863
1064.85,45.61679
1065.332,45.0872
1065.814,44.39009
1066.296,43.58189
1066.778,43.3123
1067.261,43.84653
1067.743,44.3969
1068.225,44.76656
1068.707,45.03926
1069.189,45.4624
1069.671,45.89068
1070.153,45.85743
1070.635,45.00716
1071.118,44.61929
1071.6,45.8629
1072.082,47.10458
1072.564,47.3705
1073.046,46.74366
1073.528,46.2603
1074.01,45.91157
1074.492,45.50063
1074.974,44.80869
1075.457,44.15354
1075.939,43.65618
1076.421,43.39821
1076.903,43.57687
1077.385,44.47435
1077.867,44.88895
1078.349,44.69704
1078.831,44.31601
1079.313,43.89369
1079.796,43.65663
1080.278,44.20062
1080.76,45.38669
1081.242,46.10265
1081.724,45.92223
1082.206,45.22165
1082.688,43.7398
1083.17,42.19347
1083.652,42.18262
1084.135,43.28502
1084.617,43.80944
1085.099,43.34335
1085.581,43.03477
1086.063,43.85494
1086.545,44.7715
1087.027,45.08418
1087.509,44.86795
1087.992,45.0561
1088.474,45.65764
1088.956,45.86115
1089.438,45.13436
1089.92,44.22968
1090.402,43.79367
1090.884,43.67463
1091.366,43.68771
1091.849,43.8742
1092.331,44.05489
1092.813,44.31337
1093.295,44.28232
1093.777,43.28143
1094.259,42.00793
1094.741,41.83887
1095.223,42.55883
1095.705,43.36552
1096.188,44.22076
1096.67,44.75673
1097.152,44.86278
1097.634,44.71779
1098.116,44.55122
1098.598,44.33738
1099.08,43.82326
1099.562,42.99493
1100.044,42.53486
1100.527,43.19178
1101.009,44.0064
1101.491,44.45321
1101.973,44.64502
1102.455,45.03444
1102.937,45.63168
1103.419,45.65408
1103.901,44.77951
1104.384,43.80612
1104.866,43.55021
1105.348,43.56585
1105.83,43.35078
1106.312,42.79509
1106.794,42.62733
1107.276,42.88724
1107.758,43.41138
1108.24,44.32252
1108.723,45.21461
1109.205,45.37752
1109.687,45.07383
1110.169,44.80631
1110.651,44.66258
1111.133,44.69917
1111.615,45.11184
1112.097,45.34745
1112.579,44.6602
1113.062,43.47949
1113.544,43.57935
1114.026,44.68874
1114.508,45.43588
1114.99,44.81264
1115.472,44.13965
1115.954,43.83756
1116.436,43.70483
1116.919,43.39525
1117.401,42.95154
1117.883,43.15798
1118.365,44.08414
1118.847,44.86396
1119.329,44.73814
1119.811,44.38893
1120.293,44.25746
1120.776,44.27785
1121.258,44.16838
1121.74,43.91404
1122.222,43.66153
1122.704,43.42874
1123.186,43.25622
1123.668,43.02209
1124.15,42.96953
1124.632,43.53931
1125.115,44.86999
1125.597,45.4043
1126.079,44.88993
1126.561,44.35863
1127.043,44.16075
1127.525,44.21699
1128.007,44.59225
1128.489,45.06269
1128.971,45.2244
1129.454,44.86928
1129.936,44.47594
1130.418,43.99133
1130.9,43.67347
1131.382,43.69748
1131.864,43.99599
1132.346,44.53302
1132.828,45.18169
1133.311,45.52338
1133.793,45.21307
1134.275,44.7712
1134.757,44.17344
1135.239,43.64692
1135.721,43.38965
1136.203,43.39628
1136.685,43.71987
1137.167,44.32196
1137.65,44.78392
1138.132,44.90306
1138.614,44.76765
1139.096,43.98396
1139.578,43.17811
1140.06,43.61566
1140.542,45.34347
1141.024,46.04186
1141.506,45.42639
1141.989,44.623
1142.471,44.54674
1142.953,44.61141
1143.435,44.24177
1143.917,43.59252
1144.399,43.56523
1144.881,44.30794
1145.363,44.60081
1145.846,44.0765
1146.328,43.45457
1146.81,43.80049
1147.292,44.29375
1147.774,43.79803
1148.256,42.07521
1148.738,41.66166
1149.22,42.99584
1149.703,44.17371
1150.185,44.50287
1150.667,44.40649
1151.149,44.35109
1151.631,44.36475
1152.113,44.5717
1152.595,45.21284
1153.077,45.13138
1153.559,43.83586
1154.042,42.86721
1154.524,43.23486
1155.006,44.30022
1155.488,44.70094
1155.97,44.63593
1156.452,44.58358
1156.934,44.92464
1157.416,44.82529
1157.898,43.9266
1158.381,43.03944
1158.863,42.79301
1159.345,43.06299
1159.827,43.3564
1160.309,43.70801
1160.791,44.25846
1161.273,45.90118
1161.755,46.58888
1162.238,45.25753
1162.72,43.43128
1163.202,42.69178
1163.684,42.9113
1164.166,43.4044
1164.648,44.0848
1165.13,44.48415
1165.612,44.23557
1166.094,43.74824
1166.577,43.00909
1167.059,42.26933
1167.541,41.9995
1168.023,42.15351
1168.505,42.09203
1168.987,41.74643
1169.469,41.60887
1169.951,42.5105
1170.433,43.23943
1170.916,42.69141
1171.398,41.51139
1171.88,41.39972
1172.362,42.33816
1172.844,43.07892
1173.326,43.38735
1173.808,43.46025
1174.29,43.21265
1174.773,42.99541
1175.255,43.19265
1175.737,43.69424
1176.219,43.85273
1176.701,43.6454
1177.183,43.63537
1177.665,44.04244
1178.147,44.45274
1178.63,44.48552
1179.112,44.318
1179.594,44.02873
1180.076,43.63264
1180.558,43.65253
1181.04,44.14405
1181.522,44.52097
1182.004,44.56826
1182.486,44.39083
1182.969,43.94955
1183.451,43.43394
1183.933,43.07362
1184.415,42.90685
1184.897,42.76634
1185.379,42.62733
1185.861,42.69453
1186.343,43.34066
1186.825,43.88239
1187.308,43.1405
1187.79,41.8806
1188.272,41.35099
1188.754,41.97734
1189.236,42.6469
1189.718,43.44772
1190.2,43.80857
1190.682,42.85323
1191.165,41.66789
1191.647,41.94196
1192.129,42.9888
1192.611,43.3932
1193.093,42.52631
1193.575,41.82936
1194.057,41.27726
1194.539,41.07575
1195.021,41.76682
1195.504,42.63377
1195.986,42.62609
1196.468,41.96635
1196.95,41.32809
1197.432,40.68888
1197.914,40.35089
1198.396,40.30804
1198.878,40.65892
1199.36,41.86461
1199.843,43.28877
1200.325,44.00506
1200.807,44.0923
1201.289,43.9727
1201.771,43.55826
1202.253,43.32853
1202.735,43.35376
1203.217,43.52149
1203.7,43.92609
1204.182,44.26492
1204.664,43.93194
1205.146,43.02961
1205.628,42.4768
1206.11,42.59863
1206.592,42.5877
1207.074,42.21129
1207.557,41.97414
1208.039,43.03127
1208.521,44.34061
1209.003,44.11
1209.485,42.31328
1209.967,41.18486
1210.449,41.22545
1210.931,41.37452
1211.413,41.42322
1211.896,41.47111
1212.378,41.65233
1212.86,41.92202
1213.342,42.2347
1213.824,42.58684
1214.306,42.8846
1214.788,43.12447
1215.27,43.33869
1215.752,43.60167
1216.235,43.67759
1216.717,42.88743
1217.199,41.86031
1217.681,41.75806
1218.163,41.09154
1218.645,40.22873
1219.127,40.59945
1219.609,39.13803
1220.092,39.27651
1220.574,40.16113
1221.056,40.62813
1221.538,40.95831
1222.02,41.69617
1222.502,43.04087
1222.984,43.52828
1223.466,42.84571
1223.948,42.17696
1224.431,41.91792
1224.913,41.95267
1225.395,42.42819
1225.877,42.93451
1226.359,42.73651
1226.841,41.4098
1227.323,41.32443
1227.805,42.94882
1228.287,43.86507
1228.77,42.68784
1229.252,41.00219
1229.734,41.23227
1230.216,40.37374
1230.698,39.98989
1231.18,40.4342
1231.662,39.99652
1232.144,41.05542
1232.627,42.14831
1233.109,42.68688
1233.591,42.80929
1234.073,42.43275
1234.555,41.87812
1235.037,41.64407
1235.519,41.89213
1236.001,41.58984
1236.484,40.64533
1236.966,39.99961
1237.448,40.20367
1237.93,40.79765
1238.412,41.70336
1238.894,42.51799
1239.376,42.57519
1239.858,41.74037
1240.34,41.16336
1240.823,40.85025
1241.305,40.85184
1241.787,41.4403
1242.269,42.00895
1242.751,41.87917
1243.233,42.20382
1243.715,42.24463
1244.197,42.11028
1244.679,42.19133
1245.162,41.8257
1245.644,41.66378
1246.126,42.36665
1246.608,42.97744
1247.09,42.87885
1247.572,42.29626
1248.054,41.41875
1248.536,40.20282
1249.019,39.71882
1249.501,39.92739
1249.983,40.40333
1250.465,41.08518
1250.947,41.75796
1251.429,42.50508
1251.911,43.02252
1252.393,42.93079
1252.875,42.27268
1253.358,41.76895
1253.84,41.45062
1254.322,41.50504
1254.804,42.70124
1255.286,43.39787
1255.768,42.5778
1256.25,41.512
1256.732,41.34582
1257.214,41.89133
1257.697,41.95412
1258.179,41.63669
1258.661,41.43115
1259.143,41.6169
1259.625,41.87763
1260.107,42.26381
1260.589,42.52784
1261.071,42.30079
1261.554,41.81615
1262.036,41.98138
1262.518,42.56846
1263.0,42.7911
1263.482,41.99599
1263.964,41.3344
1264.446,40.84896
1264.928,40.63752
1265.411,40.89469
1265.893,41.42301
1266.375,41.9804
1266.857,42.48305
1267.339,42.70528
1267.821,42.10773
1268.303,42.27463
1268.785,43.52437
1269.267,44.46553
1269.75,43.5679
1270.232,42.05212
1270.714,41.43055
1271.196,41.44696
1271.678,41.50464
1272.16,41.55024
1272.642,41.53584
1273.124,41.44195
1273.606,41.44269
1274.089,41.89358
1274.571,42.27265
1275.053,41.77496
1275.535,42.38272
1276.017,41.2174
1276.499,42.65816
1276.981,43.15069
1277.463,42.66059
1277.946,41.73513
1278.428,40.05271
1278.91,38.81049
1279.392,38.9974
1279.874,39.92027
1280.356,40.92443
1280.838,41.98249
1281.32,42.44905
1281.802,42.33819
1282.285,41.89134
1282.767,40.60435
1283.249,39.83959
1283.731,40.45946
1284.213,41.38802
1284.695,41.65624
1285.177,41.42805
1285.659,41.4496
1286.141,41.69857
1286.624,42.05032
1287.106,42.84159
1287.588,43.05476
1288.07,42.25482
1288.552,41.5486
1289.034,42.16908
1289.516,43.40349
1289.998,43.5658
1290.481,42.99865
1290.963,42.60192
1291.445,42.93073
1291.927,42.83677
1292.409,42.19256
1292.891,41.61171
1293.373,41.67323
1293.855,41.93498
1294.338,41.92941
1294.82,41.68095
1295.302,41.1461
1295.784,40.07821
1296.266,39.88017
1296.748,40.60035
1297.23,41.32138
1297.712,41.45903
1298.194,41.40884
1298.677,41.18615
1299.159,41.16425
1299.641,41.98748
1300.123,41.75216
1300.605,41.44958
1301.087,42.00621
1301.569,40.67787
1302.051,40.72421
1302.533,41.11378
1303.016,41.55268
