Raman Shift,Intensity
66.856,6524.0
68.253,6471.0
69.651,6659.0
71.048,6674.0
72.445,7060.0
73.842,7311.755
75.239,7891.0
76.635,8099.0
78.031,8521.0
79.427,9058.0
80.823,10361.0
82.218,11827.0
83.614,13017.0
85.009,14716.0
86.404,16758.0
87.798,19221.0
89.193,21224.0
90.587,22016.0
91.981,20710.0
93.375,19253.0
94.768,17502.0
96.161,15919.0
97.554,14474.0
98.947,12759.0
100.34,11522.0
101.732,10591.0
103.124,10133.0
104.516,9953.0
105.908,9818.0
107.3,9591.0
108.691,9492.0
110.082,9044.0
111.473,8779.0
112.864,8806.0
114.254,9025.0
115.644,9110.0
117.034,9081.0
118.424,9067.0
119.813,8806.0
121.203,9003.0
122.592,8670.0
123.981,8646.0
125.369,8922.0
126.758,9271.0
128.146,9828.0
129.534,10491.0
130.922,11157.0
132.309,11027.0
133.696,10546.0
135.083,9792.0
136.47,9406.0
137.857,8973.0
139.243,8632.0
140.63,8393.0
142.016,8159.0
143.401,8138.0
144.787,8283.0
146.172,8162.0
147.557,8038.0
148.942,7965.0
150.327,7979.789
151.711,8021.654
153.096,8143.0
154.48,8288.0
155.863,8512.0
157.247,8772.0
158.63,9308.0
160.013,9899.0
161.396,10480.0
162.779,11280.0
164.161,12253.0
165.544,13394.0
166.926,15040.0
168.308,16535.0
169.689,18440.0
171.07,19812.0
172.452,20564.0
173.833,19858.0
175.213,17955.0
176.594,16108.0
177.974,14269.0
179.354,13162.0
180.734,12161.0
182.114,11596.0
183.493,11394.0
184.872,11434.0
186.251,11508.0
187.63,11201.0
189.008,10520.0
190.387,9957.0
191.765,9604.0
193.143,9329.0
194.52,9206.0
195.898,9097.0
197.275,9291.0
198.652,9529.0
200.029,9786.0
201.405,9854.0
202.782,9824.0
204.158,9790.0
205.534,9608.0
206.909,9427.0
208.285,9123.0
209.66,9096.0
211.035,9115.0
212.41,9164.0
213.784,9405.0
215.159,9775.0
216.533,10181.0
217.907,10774.0
219.281,11277.0
220.654,12244.0
222.027,13209.0
223.4,14557.0
224.773,15802.0
226.146,16989.0
227.518,17886.0
228.891,18324.0
230.263,17820.0
231.634,17034.0
233.006,16150.0
234.377,15649.0
235.748,15325.0
237.119,15543.0
238.49,15737.0
239.86,16501.0
241.231,16506.0
242.601,16112.0
243.97,15083.0
245.34,13904.0
246.709,12893.0
248.079,12233.0
249.448,11978.0
250.816,11779.0
252.185,11959.0
253.553,12079.0
254.921,12081.0
256.289,11791.0
257.657,11230.0
259.024,10749.0
260.391,10237.0
261.758,9836.0
263.125,9498.0
264.492,9454.0
265.858,9667.0
267.224,9770.0
268.59,10344.0
269.956,10833.0
271.321,11691.0
272.687,12734.0
274.052,13144.0
275.416,13140.0
276.781,12604.0
278.146,11379.0
279.51,10242.0
280.874,9651.0
282.237,9164.0
283.601,9012.0
284.964,8897.0
286.327,8980.0
287.69,9354.0
289.053,9476.0
290.416,9868.0
291.778,10290.0
293.14,10323.0
294.502,10269.0
295.863,10040.0
297.225,10046.0
298.586,9693.0
299.947,9519.0
301.308,9364.0
302.668,9152.0
304.029,9178.0
305.389,9364.0
306.749,9297.0
308.108,9140.0
309.468,9313.0
310.827,9150.0
312.186,9193.0
313.545,9152.0
314.903,9350.0
316.262,9284.0
317.62,9382.0
318.978,9545.0
320.336,9871.0
321.693,10056.0
323.051,10196.0
324.408,10150.0
325.765,9935.0
327.121,9818.0
328.478,9594.0
329.834,9584.0
331.19,9555.0
332.546,9711.0
333.902,9639.0
335.257,10256.0
336.612,10790.0
337.967,10695.0
339.322,11292.0
340.677,12321.0
342.031,13484.0
343.385,14936.0
344.739,16381.0
346.093,18200.0
347.446,19154.0
348.799,19988.0
350.153,19191.0
351.505,18106.0
352.858,16407.0
354.21,14802.0
355.563,13330.0
356.915,12131.0
358.267,11322.0
359.618,10398.0
360.969,9851.0
362.321,9480.0
363.672,9125.0
365.022,8884.0
366.373,8577.0
367.723,8399.057
369.073,8262.0
370.423,8122.0
371.773,8049.0
373.122,7994.0
374.471,8068.0
375.821,8066.0
377.169,8126.0
378.518,8512.0
379.866,8686.0
381.215,8986.0
382.563,9542.0
383.91,10026.0
385.258,10469.0
386.605,11289.0
387.952,11759.0
389.299,11718.0
390.646,11773.0
391.992,11218.0
393.339,10801.0
394.685,10352.0
396.031,9989.0
397.376,9626.0
398.722,9355.292
400.067,9206.0
401.412,9019.64
402.757,8955.006
404.101,9069.0
405.446,9113.0
406.79,9180.0
408.134,9561.0
409.478,9748.0
410.821,10110.0
412.165,10424.0
413.508,10707.0
414.851,11317.0
416.193,11765.0
417.536,12613.36
418.878,13361.0
420.22,14575.0
421.562,15777.0
422.904,17009.0
424.245,17965.0
425.586,18939.0
426.927,20053.0
428.268,21607.0
429.609,23240.0
430.949,25907.0
432.289,28640.0
433.629,31125.0
434.969,29768.0
436.309,28139.0
437.648,25210.0
438.987,22981.0
440.326,20954.0
441.665,19942.0
443.003,19200.0
444.342,19894.0
445.68,20220.0
447.018,21419.0
448.355,22553.0
449.693,23000.0
451.03,23040.0
452.367,23008.0
453.704,22522.0
455.041,21385.0
456.377,20284.0
457.713,18434.0
459.049,16861.0
460.385,15087.0
461.721,13907.0
463.056,12928.0
464.391,12008.0
465.726,11479.0
467.061,11138.0
468.395,10835.0
469.73,10399.0
471.064,10186.0
472.398,9647.0
473.731,9352.0
475.065,8982.0
476.398,8849.0
477.731,8761.0
479.064,8782.0
480.397,8804.755
481.729,8842.0
483.062,9021.0
484.394,9152.0
485.725,9332.0
487.057,9643.583
488.389,9922.0
489.72,10414.0
491.051,11017.0
492.382,11633.0
493.712,12660.0
495.043,13562.0
496.373,14498.0
497.703,15249.0
499.032,15918.0
500.362,16481.0
501.691,15946.0
503.02,16002.0
504.349,15901.0
505.678,16317.0
507.007,16004.0
508.335,16077.0
509.663,15420.0
510.991,14518.0
512.319,13479.0
513.646,12090.0
514.973,11411.0
516.3,10807.0
517.627,10435.0
518.954,9912.0
520.28,9558.0
521.607,9340.0
522.933,9007.0
524.259,8701.0
525.584,8483.0
526.91,8268.0
528.235,8188.0
529.56,8072.0
530.885,8122.0
532.209,7989.0
533.534,7993.0
534.858,8059.0
536.182,7995.0
537.506,8016.0
538.829,7977.0
540.152,8102.0
541.476,8104.0
542.799,8261.0
544.121,8202.0
545.444,8418.0
546.766,8481.0
548.088,8696.0
549.41,8960.0
550.732,9073.0
552.053,9474.0
553.375,9978.0
554.696,10406.0
556.017,11277.0
557.337,12616.0
558.658,13800.0
559.978,15759.0
561.298,17511.0
562.618,19408.0
563.938,19584.0
565.257,18557.0
566.576,16509.0
567.895,14510.0
569.214,13248.0
570.533,12392.0
571.851,11855.0
573.17,11637.0
574.488,11872.0
575.805,12122.0
577.123,12921.0
578.44,13250.0
579.758,14240.0
581.075,15545.0
582.391,16594.0
583.708,18229.0
585.024,19018.0
586.341,20104.0
587.657,20952.0
588.972,21832.0
590.288,23238.0
591.603,24834.0
592.918,26202.0
594.233,28221.0
595.548,30030.0
596.863,30302.0
598.177,29430.0
599.491,28352.0
600.805,26752.0
602.119,24869.0
603.432,23477.0
604.746,22386.0
606.059,21814.0
607.372,21569.0
608.685,21342.0
609.997,21568.0
611.309,21292.0
612.621,20963.0
613.933,20274.0
615.245,19136.0
616.557,17810.0
617.868,16327.0
619.179,14942.0
620.49,13500.0
621.801,12345.0
623.111,11766.0
624.421,10986.0
625.731,10525.0
627.041,9944.0
628.351,9701.0
629.66,9294.0
630.97,8985.0
632.279,8920.0
633.588,8619.0
634.896,8492.0
636.205,8352.0
637.513,8304.0
638.821,8171.0
640.129,8138.0
641.437,7964.0
642.744,7916.0
644.051,7811.0
645.358,7778.0
646.665,7739.0
647.972,7568.0
649.278,7484.0
650.584,7402.0
651.89,7333.0
653.196,7377.0
654.502,7306.0
655.807,7222.0
657.113,7118.0
658.418,7133.0
659.722,7133.0
661.027,7066.0
662.331,7014.0
663.636,7012.0
664.94,7006.0
666.244,6999.0
667.547,6998.0
668.851,6965.0
670.154,7025.0
671.457,6942.0
672.76,7021.0
674.062,7073.0
675.365,6985.0
676.667,6908.0
677.969,6912.0
679.271,6989.0
680.572,6964.0
681.874,6983.0
683.175,6975.547
684.476,6914.584
685.777,6898.0
687.077,6834.0
688.378,6724.0
689.678,6791.0
690.978,6618.0
692.278,6666.0
693.577,6647.0
694.877,6606.0
696.176,6571.0
697.475,6542.0
698.774,6498.0
700.072,6541.0
701.371,6562.0
702.669,6480.0
703.967,6390.0
705.265,6465.0
706.562,6394.0
707.86,6387.0
709.157,6286.0
710.454,6398.0
711.751,6312.0
713.047,6355.0
714.344,6262.0
715.64,6323.0
716.936,6217.0
718.232,6297.0
719.527,6291.0
720.823,6264.0
722.118,6289.0
723.413,6208.0
724.708,6208.0
726.002,6211.0
727.297,6227.0
728.591,6293.0
729.885,6286.137
731.179,6241.0
732.472,6310.0
733.766,6228.0
735.059,6227.0
736.352,6164.0
737.645,6240.0
738.937,6237.0
740.23,6234.0
741.522,6265.0
742.814,6208.0
744.106,6236.0
745.397,6245.0
746.689,6310.0
747.98,6266.0
749.271,6237.0
750.562,6247.0
751.853,6243.0
753.143,6212.0
754.433,6272.0
755.723,6298.0
757.013,6308.0
758.303,6270.0
759.592,6204.751
760.881,6272.022
762.17,6307.125
763.459,6311.788
764.748,6239.0
766.036,6272.0
767.325,6263.0
768.613,6292.0
769.901,6342.0
771.188,6345.0
772.476,6318.0
773.763,6382.0
775.05,6434.0
776.337,6432.0
777.624,6371.0
778.91,6387.0
780.196,6428.0
781.482,6481.0
782.768,6482.0
784.054,6506.0
785.339,6529.901
786.625,6448.0
787.91,6529.0
789.195,6575.0
790.479,6498.0
791.764,6551.0
793.048,6591.0
794.332,6572.0
795.616,6624.0
796.9,6670.0
798.183,6696.0
799.467,6707.0
800.75,6720.0
802.033,6689.0
803.316,6804.0
804.598,6910.0
805.88,6870.0
807.163,6946.0
808.445,7044.0
809.726,7041.0
811.008,7168.0
812.289,7162.0
813.57,7300.0
814.851,7358.0
816.132,7511.0
817.413,7633.0
818.693,7694.0
819.973,7947.0
821.253,8143.0
822.533,8284.0
823.813,8521.0
825.092,8745.0
826.371,8958.0
827.65,9103.0
828.929,9229.611
830.208,9283.0
831.486,9326.0
832.764,9322.0
834.042,9197.0
835.32,9262.0
836.598,9173.0
837.875,9143.0
839.152,9091.0
840.429,9163.0
841.706,9189.0
842.983,9175.0
844.259,9259.0
845.536,9417.0
846.812,9408.0
848.088,9649.0
849.363,9663.0
850.639,9947.0
851.914,10154.0
853.189,10240.0
854.464,10698.0
855.739,11033.0
857.013,11405.0
858.288,11666.0
859.562,11977.437
860.836,12265.0
862.11,12513.0
863.383,12625.0
864.656,12848.0
865.93,12843.0
867.203,13022.0
868.475,12939.0
869.748,13117.0
871.02,13129.0
872.292,13526.0
873.564,13763.0
874.836,14184.0
876.108,14712.0
877.379,15329.0
878.65,16102.0
879.922,16783.0
881.192,17454.0
882.463,17942.0
883.733,18155.0
885.004,18369.0
886.274,18160.0
887.544,17844.0
888.813,17662.0
890.083,17054.0
891.352,17009.0
892.621,17252.0
893.89,17280.0
895.159,17690.0
896.427,18158.0
897.695,18873.0
898.964,19776.16
900.232,20902.0
901.499,22167.0
902.767,23651.0
904.034,25423.0
905.301,27609.385
906.568,29840.0
907.835,32801.0
909.102,35736.0
910.368,38976.0
911.634,42068.0
912.9,44835.0
914.166,46197.0
915.432,46316.0
916.697,44484.0
917.962,41041.0
919.227,37482.0
920.492,33456.0
921.757,29766.0
923.021,26220.0
924.285,23800.0
925.55,21412.0
926.813,19446.0
928.077,17669.0
929.341,16427.0
930.604,15194.0
931.867,14376.0
933.13,13595.0
934.393,12830.0
935.655,12384.0
936.918,11786.0
938.18,11491.0
939.442,11008.0
940.703,10771.0
941.965,10474.0
943.226,10373.0
944.488,10039.0
945.749,9824.0
947.009,9902.0
948.27,9789.0
949.53,9613.0
950.791,9689.0
952.051,9598.0
953.311,9640.0
954.57,9577.0
955.83,9786.0
957.089,9748.0
958.348,9810.0
959.607,9615.0
960.866,9503.0
962.124,9432.0
963.383,9293.0
964.641,9250.964
965.899,9185.443
967.156,9191.0
968.414,9127.0
969.671,9181.0
970.928,9219.0
972.185,9267.0
973.442,9527.0
974.699,9726.0
975.955,9837.0
977.211,10160.0
978.468,9905.0
979.723,9951.0
980.979,9767.0
982.234,9383.0
983.49,9209.0
984.745,8801.0
986.0,8719.0
987.254,8542.0
988.509,8277.0
989.763,8321.0
991.017,8169.0
992.271,8084.0
993.525,8107.0
994.779,8155.0
996.032,7918.0
997.285,8014.0
998.538,8066.0
999.791,7882.0
1001.044,8033.0
1002.296,7921.0
1003.548,7916.0
1004.8,7954.0
1006.052,8056.0
1007.304,8000.0
1008.555,8095.0
1009.807,8162.0
1011.058,8364.0
1012.309,8583.0
1013.559,8718.0
1014.81,8868.0
1016.06,9035.0
1017.31,9182.0
1018.56,9149.0
1019.81,8938.0
1021.06,8951.0
1022.309,8795.0
1023.558,8635.0
1024.807,8619.0
1026.056,8560.0
1027.305,8539.0
1028.553,8649.0
1029.801,8786.0
1031.049,8821.0
1032.297,8819.0
1033.545,8944.886
1034.793,9027.133
1036.04,9105.0
1037.287,9221.0
1038.534,9262.0
1039.781,9219.0
1041.027,9265.0
1042.274,9118.0
1043.52,9132.0
1044.766,8995.0
1046.012,8917.0
1047.257,8790.0
1048.503,8707.0
1049.748,8653.218
1050.993,8594.0
1052.238,8588.0
1053.483,8548.0
1054.727,8567.0
1055.971,8592.0
1057.216,8660.0
1058.459,8750.0
1059.703,8724.0
1060.947,8724.0
1062.19,8677.0
1063.433,8562.0
1064.676,8555.0
1065.919,8533.0
1067.162,8537.0
1068.404,8594.0
1069.646,8673.978
1070.888,8759.0
1072.13,8975.0
1073.372,9113.0
1074.613,9405.0
1075.855,9809.0
1077.096,10232.0
1078.337,10908.0
1079.578,11868.0
1080.818,12810.0
1082.059,14189.0
1083.299,15257.0
1084.539,16060.0
1085.779,15961.0
1087.018,14884.0
1088.258,13891.0
1089.497,12455.0
1090.736,11520.0
1091.975,10524.0
1093.213,9817.0
1094.452,9346.0
1095.69,8879.0
1096.928,8646.0
1098.166,8464.0
1099.404,8368.0
1100.642,8290.0
1101.879,8111.0
1103.116,8060.0
1104.353,8032.0
1105.59,7972.0
1106.827,7870.0
1108.063,7761.0
1109.299,7756.0
1110.536,7841.0
1111.771,7794.0
1113.007,7705.0
1114.243,7622.0
1115.478,7705.0
1116.713,7641.0
1117.948,7664.0
1119.183,7662.0
1120.418,7643.0
1121.652,7756.0
1122.886,7801.0
1124.12,7670.0
1125.354,7601.0
1126.588,7506.0
1127.821,7634.0
1129.055,7453.0
1130.288,7500.0
1131.521,7521.0
1132.753,7433.0
1133.986,7382.0
1135.218,7420.0
1136.45,7444.0
1137.682,7350.0
1138.914,7438.0
1140.146,7356.0
1141.377,7409.0
1142.609,7377.0
1143.84,7405.0
1145.071,7390.0
1146.301,7383.332
1147.532,7404.0
1148.762,7372.0
1149.992,7366.0
1151.222,7366.0
1152.452,7299.0
1153.682,7346.0
1154.911,7275.0
1156.14,7342.0
1157.369,7274.0
1158.598,7304.0
1159.827,7352.0
1161.055,7382.0
1162.284,7318.0
1163.512,7391.0
1164.74,7305.0
1165.967,7421.0
1167.195,7299.0
1168.422,7362.0
1169.65,7374.0
1170.877,7385.0
1172.103,7395.357
1173.33,7401.122
1174.557,7377.0
1175.783,7400.0
1177.009,7385.0
1178.235,7361.0
1179.461,7389.0
1180.686,7338.0
1181.912,7299.0
1183.137,7438.0
1184.362,7474.0
1185.587,7462.0
1186.811,7428.0
1188.036,7440.0
1189.26,7413.0
1190.484,7386.0
1191.708,7388.0
1192.932,7471.0
1194.155,7414.0
1195.378,7486.0
1196.602,7428.0
1197.825,7408.0
1199.047,7378.0
1200.27,7399.0
1201.492,7406.0
1202.715,7408.0
1203.937,7341.0
1205.159,7368.0
1206.38,7346.0
1207.602,7345.0
1208.823,7334.0
1210.044,7329.0
1211.265,7385.0
1212.486,7350.0
1213.707,7299.0
1214.927,7395.0
1216.147,7311.0
1217.367,7292.0
1218.587,7373.0
1219.807,7312.0
1221.027,7223.0
1222.246,7294.0
1223.465,7290.0
1224.684,7327.0
1225.903,7266.0
1227.121,7235.0
1228.34,7253.0
1229.558,7157.0
1230.776,7203.0
1231.994,7234.0
1233.212,7255.0
1234.429,7246.0
1235.646,7239.0
1236.864,7100.0
1238.081,7163.0
1239.297,7188.0
1240.514,7264.0
1241.73,7116.0
1242.947,7115.0
1244.163,7142.0
1245.378,7143.0
1246.594,7193.0
1247.81,7185.0
1249.025,7104.0
1250.24,7144.0
1251.455,7061.0
1252.67,7132.0
1253.885,7129.0
1255.099,7173.0
1256.313,7102.0
1257.527,7079.0
1258.741,7131.0
1259.955,7165.0
1261.168,7066.0
1262.382,7134.0
1263.595,7129.0
1264.808,7195.0
1266.021,7079.0
1267.233,7181.0
1268.446,7052.0
1269.658,7134.0
1270.87,7129.0
1272.082,7175.0
1273.294,7112.0
1274.505,7126.0
1275.716,7122.0
1276.928,7158.0
1278.139,7123.0
1279.349,7173.0
1280.56,7147.0
1281.77,7134.0
1282.981,7195.0
1284.191,7116.0
1285.401,7195.0
1286.61,7158.0
1287.82,7116.0
1289.029,7147.0
1290.239,7098.0
1291.448,7143.0
1292.656,7190.0
1293.865,7161.0
1295.073,7153.0
1296.282,7168.0
1297.49,7110.0
1298.698,7065.0
1299.906,7104.0
1301.113,7144.0
1302.32,7051.0
1303.528,7117.0
1304.735,7138.0
1305.942,7027.0
1307.148,7143.0
1308.355,7112.0
1309.561,7073.0
1310.767,7071.0
1311.973,7046.0
1313.179,7028.0
1314.384,7112.0
1315.59,7127.0
1316.795,7101.0
1318.0,7072.0
1319.205,7114.0
1320.41,7116.0
1321.614,7074.0
1322.819,7135.0
1324.023,7129.0
1325.227,7032.0
1326.431,7139.0
1327.634,7090.0
1328.838,7095.0
1330.041,7176.0
1331.244,7147.0
1332.447,7178.0
1333.65,7166.0
1334.852,7199.0
1336.055,7152.0
1337.257,7106.0
1338.459,7147.0
1339.661,7215.0
1340.862,7195.0
1342.064,7187.0
1343.265,7164.0
1344.466,7165.092
1345.667,7282.0
1346.868,7194.0
1348.068,7261.0
1349.269,7340.0
1350.469,7213.0
1351.669,7298.0
1352.869,7198.0
1354.069,7401.0
1355.268,7320.0
1356.468,7361.0
1357.667,7377.0
1358.866,7290.0
1360.065,7329.0
1361.263,7381.184
1362.462,7383.611
1363.66,7390.023
1364.858,7454.0
1366.056,7385.0
1367.254,7370.0
1368.451,7414.0
1369.649,7340.0
1370.846,7377.0
1372.043,7378.467
1373.24,7433.0
1374.436,7416.0
1375.633,7411.0
1376.829,7454.0
1378.025,7396.0
1379.221,7385.0
1380.417,7439.0
1381.613,7419.0
1382.808,7428.0
1384.003,7446.0
1385.199,7455.0
1386.393,7457.0
1387.588,7465.0
1388.783,7499.0
1389.977,7500.0
1391.171,7537.0
1392.365,7524.0
1393.559,7470.0
1394.753,7511.0
1395.946,7463.0
1397.14,7467.0
1398.333,7471.0
1399.526,7525.0
1400.719,7525.0
1401.911,7558.0
1403.104,7524.0
1404.296,7481.0
1405.488,7568.0
1406.68,7553.0
1407.872,7550.0
1409.063,7605.0
1410.255,7691.0
1411.446,7563.0
1412.637,7554.0
1413.828,7561.0
1415.018,7652.0
1416.209,7655.0
1417.399,7616.0
1418.589,7613.0
1419.779,7639.0
1420.969,7675.0
1422.159,7654.0
1423.348,7635.0
1424.537,7760.0
1425.726,7692.0
1426.915,7727.0
1428.104,7703.0
1429.293,7689.0
1430.481,7678.0
1431.669,7709.0
1432.857,7793.0
1434.045,7761.0
1435.233,7767.0
1436.42,7842.0
1437.608,7810.0
1438.795,7787.0
1439.982,7770.0
1441.169,7776.835
1442.355,7802.0
1443.542,7813.0
1444.728,7832.0
1445.914,7860.0
1447.1,7928.0
1448.286,7948.0
1449.472,7897.0
1450.657,7846.0
1451.842,7873.0
1453.027,7911.0
1454.212,7883.0
1455.397,7964.0
1456.581,7966.0
1457.766,8027.0
1458.95,7988.0
1460.134,7937.0
1461.318,8026.0
1462.501,7981.0
1463.685,7957.0
1464.868,8000.0
1466.051,7953.0
1467.234,8047.0
1468.417,8038.155
1469.6,7975.0
1470.782,8051.0
1471.965,8008.0
1473.147,7959.0
1474.329,7993.0
1475.51,8047.0
1476.692,7976.0
1477.873,7990.0
1479.055,8078.0
1480.236,8070.0
1481.416,8153.0
1482.597,8078.0
1483.778,8067.0
1484.958,8060.0
1486.138,8086.0
1487.318,8035.0
1488.498,8132.0
1489.678,8029.0
1490.857,8032.0
1492.037,8097.0
1493.216,8102.0
1494.395,8084.0
1495.574,8106.0
1496.752,8150.0
1497.931,8103.0
1499.109,8134.0
1500.287,8040.0
1501.465,8167.0
1502.643,8056.0
1503.82,8134.0
1504.998,8132.0
1506.175,8108.0
1507.352,8123.0
1508.529,8126.0
1509.706,8105.0
1510.882,8111.0
1512.059,8144.0
1513.235,8027.0
1514.411,8102.0
1515.587,8058.0
1516.762,8122.0
1517.938,8125.0
1519.113,8106.0
1520.288,8100.0
1521.463,8200.0
1522.638,8156.0
