Raman Shift,Intensity 
400,4.804954567
401,4.797162498
402,4.792129868
403,4.806585666
404,4.79478327
405,4.802544402
406,4.78978771
407,4.80620129
408,4.830056855
409,4.809949836
410,4.801658175
411,4.794293845
412,4.789274882
413,4.814430871
414,4.803371746
415,4.810827952
416,4.790947231
417,4.804042111
418,4.806433613
419,4.782208779
420,4.805765356
421,4.787475043
422,4.805688816
423,4.785584812
424,4.79768847
425,4.792697017
426,4.800045085
427,4.800150953
428,4.801563075
429,4.806622925
430,4.826069554
431,4.792184445
432,4.801498741
433,4.780492136
434,4.800487426
435,4.803064788
436,4.819079449
437,4.801105393
438,4.802497885
439,4.80964097
440,4.802736785
441,4.800697463
442,4.797977832
443,4.79910603
444,4.825268507
445,4.799333538
446,4.802099429
447,4.787000275
448,4.801957228
449,4.809052945
450,4.806312684
451,4.801022103
452,4.789511873
453,4.792290529
454,4.807485824
455,4.805898613
456,4.801351211
457,4.803956741
458,4.80121371
459,4.777268979
460,4.789158189
461,4.780926947
462,4.822329161
463,4.80975698
464,4.787590944
465,4.808953095
466,4.795570718
467,4.797192785
468,4.808394885
469,4.803693054
470,4.7895437
471,4.804020642
472,4.791909514
473,4.786537729
474,4.790830734
475,4.802623484
476,4.787410458
477,4.789459339
478,4.808957987
479,4.803866633
480,4.792245489
481,4.808298907
482,4.804116944
483,4.792277882
484,4.800505432
485,4.794254057
486,4.813155009
487,4.795111423
488,4.815266621
489,4.801902236
490,4.806940895
491,4.783365411
492,4.810619155
493,4.78746018
494,4.80109678
495,4.7892693
496,4.798713074
497,4.819174713
498,4.801160169
499,4.783437164
500,4.780743218
501,4.794648963
502,4.811241724
503,4.8008032
504,4.801121551
505,4.793422489
506,4.804383161
507,4.792246514
508,4.781773748
509,4.787895355
510,4.808030722
511,4.808691421
512,4.796427532
513,4.793407687
514,4.808568108
515,4.789324667
516,4.824446598
517,4.804319392
518,4.810985601
519,4.794232164
520,4.797630256
521,4.790121207
522,4.770403267
523,4.80133305
524,4.799782292
525,4.798774919
526,4.806835917
527,4.807016551
528,4.811067028
529,4.801011256
530,4.797219509
531,4.794924989
532,4.801542381
533,4.814403735
534,4.799607856
535,4.798716917
536,4.797073757
537,4.795936658
538,4.795413464
539,4.804416149
540,4.80006115
541,4.795385176
542,4.80327446
543,4.806802779
544,4.809324831
545,4.776034354
546,4.807887062
547,4.801469804
548,4.809953341
549,4.78765457
550,4.777393754
551,4.792806608
552,4.813175915
553,4.791653962
554,4.79740907
555,4.795073951
556,4.803069319
557,4.797570466
558,4.796693633
559,4.791003254
560,4.810725979
561,4.807883169
562,4.7999204
563,4.821862449
564,4.802020785
565,4.800276183
566,4.779480568
567,4.811034193
568,4.807043442
569,4.796297318
570,4.778359046
571,4.79062017
572,4.824738048
573,4.805457875
574,4.802366792
575,4.794608878
576,4.80850733
577,4.795059953
578,4.803306179
579,4.797477198
580,4.791514308
581,4.804121506
582,4.807905191
583,4.802325808
584,4.803578625
585,4.805392065
586,4.799963034
587,4.790550836
588,4.79767061
589,4.798333554
590,4.810832797
591,4.828163955
592,4.792898157
593,4.808743672
594,4.784537119
595,4.81560928
596,4.801747355
597,4.806150141
598,4.800121131
599,4.797613682
600,4.794403644
601,4.813839275
602,4.810612139
603,4.797929275
604,4.814222352
605,4.809468833
606,4.804812104
607,4.800617792
608,4.802132608
609,4.802392161
610,4.809026813
611,4.797979718
612,4.803839481
613,4.804436027
614,4.79006809
615,4.789318844
616,4.791296469
617,4.79649788
618,4.811649218
619,4.78591503
620,4.775991454
621,4.808544647
622,4.785187192
623,4.801762155
624,4.810156818
625,4.79566228
626,4.797417883
627,4.803195928
628,4.781534425
629,4.789960015
630,4.816288336
631,4.797390694
632,4.792026897
633,4.802085932
634,4.793367803
635,4.806933304
636,4.812628999
637,4.8154319
638,4.798758145
639,4.791148422
640,4.788612046
641,4.804484024
642,4.795268822
643,4.806095341
644,4.806970336
645,4.807808639
646,4.784777169
647,4.803412311
648,4.797427333
649,4.793808
650,4.794360679
651,4.799961997
652,4.814356602
653,4.805869538
654,4.783750395
655,4.794797827
656,4.797504641
657,4.814141249
658,4.804564481
659,4.790969687
660,4.800670311
661,4.808218948
662,4.811858504
663,4.804354906
664,4.801597711
665,4.791723856
666,4.80967273
667,4.81007983
668,4.810163038
669,4.795394946
670,4.80236049
671,4.801825016
672,4.799113627
673,4.785007271
674,4.799739289
675,4.818648068
676,4.794346618
677,4.806679446
678,4.806009069
679,4.791798511
680,4.817287092
681,4.810717628
682,4.800007192
683,4.788205022
684,4.799592862
685,4.795339603
686,4.806917107
687,4.824927094
688,4.809621836
689,4.784245525
690,4.789412151
691,4.814919771
692,4.795660837
693,4.796379011
694,4.794068679
695,4.801090921
696,4.797587388
697,4.795120306
698,4.815824641
699,4.813749591
700,4.793929778
701,4.801837903
702,4.785000636
703,4.789418522
704,4.79047474
705,4.803660102
706,4.815299673
707,4.804988806
708,4.80202655
709,4.795982681
710,4.806680736
711,4.816880194
712,4.807548755
713,4.798421684
714,4.800721621
715,4.815383687
716,4.805477434
717,4.803852566
718,4.796102742
719,4.794554148
720,4.811065346
721,4.812027606
722,4.821108403
723,4.789105332
724,4.795329842
725,4.796351323
726,4.816486798
727,4.804482777
728,4.789999368
729,4.814364031
730,4.804305636
731,4.791737573
732,4.818586925
733,4.812896409
734,4.799627666
735,4.808439652
736,4.801729477
737,4.79929507
738,4.796139243
739,4.796001837
740,4.805571162
741,4.806737258
742,4.793748307
743,4.808365999
744,4.799567086
745,4.810183677
746,4.790203965
747,4.809410785
748,4.812450912
749,4.821453042
750,4.824176576
751,4.803080434
752,4.782685634
753,4.787946397
754,4.806455753
755,4.806940169
756,4.799132904
757,4.816980008
758,4.803603861
759,4.801635592
760,4.794709501
761,4.81029608
762,4.779639791
763,4.815296834
764,4.794011835
765,4.797294662
766,4.796966718
767,4.803281994
768,4.80531082
769,4.810804756
770,4.806434706
771,4.776497689
772,4.797210336
773,4.778924625
774,4.811002294
775,4.807448606
776,4.775906495
777,4.8035291
778,4.79647502
779,4.821268496
780,4.803121901
781,4.798346379
782,4.791671785
783,4.801067688
784,4.798554861
785,4.793224094
786,4.800761632
787,4.790527628
788,4.799616004
789,4.805199218
790,4.804643996
791,4.798409393
792,4.807560392
793,4.804837156
794,4.81077596
795,4.788698059
796,4.799500643
797,4.790313833
798,4.800482817
799,4.796064291
800,4.78649232
801,4.78923059
802,4.794387689
803,4.785707283
804,4.787971628
805,4.79122172
806,4.803475913
807,4.792162496
808,4.788097859
809,4.79419827
810,4.812841005
811,4.812048168
812,4.815927016
813,4.794963777
814,4.821137916
815,4.809716434
816,4.795325485
817,4.817257834
818,4.793744718
819,4.798658315
820,4.791941649
821,4.795729561
822,4.809543634
823,4.79550144
824,4.809337519
825,4.801343033
826,4.791125162
827,4.801260262
828,4.799909026
829,4.800043738
830,4.776740097
831,4.812387306
832,4.786221979
833,4.801720564
834,4.79387747
835,4.799693994
836,4.802121631
837,4.799569587
838,4.776301953
839,4.788130467
840,4.806536684
841,4.800854259
842,4.809611921
843,4.79707585
844,4.809812812
845,4.791355
846,4.80179474
847,4.79118524
848,4.802442043
849,4.783835865
850,4.796879951
851,4.806446623
852,4.791811849
853,4.786184411
854,4.786059289
855,4.799118645
856,4.798471264
857,4.812661901
858,4.795799057
859,4.785097646
860,4.801646803
861,4.803588853
862,4.802570387
863,4.805682661
864,4.799254573
865,4.800683264
866,4.804891461
867,4.815369778
868,4.806595418
869,4.807049742
870,4.784972797
871,4.788246333
872,4.785866922
873,4.799103639
874,4.801615536
875,4.795257269
876,4.793473826
877,4.794610655
878,4.791812263
879,4.793093899
880,4.792196579
881,4.791284731
882,4.793616555
883,4.807930105
884,4.804236141
885,4.81945547
886,4.785055276
887,4.791858596
888,4.803536313
889,4.811287865
890,4.816008796
891,4.81273878
892,4.795141645
893,4.792799482
894,4.790581778
895,4.814154894
896,4.789001277
897,4.806492707
898,4.798152649
899,4.79262907
900,4.798218765
901,4.800986021
902,4.795228778
903,4.804117032
904,4.805394439
905,4.787295448
906,4.785654005
907,4.792899183
908,4.803767304
909,4.804369833
910,4.797920394
911,4.813832793
912,4.804374163
913,4.78434226
914,4.807032983
915,4.802985613
916,4.79188584
917,4.799008141
918,4.7932545
919,4.806746711
920,4.812780064
921,4.813826607
922,4.797725286
923,4.78882984
924,4.810716628
925,4.789264848
926,4.801572677
927,4.801204133
928,4.806372937
929,4.791953704
930,4.800507708
931,4.797147467
932,4.798453351
933,4.802856013
934,4.81120203
935,4.808103237
936,4.787781098
937,4.797106208
938,4.79762339
939,4.804820108
940,4.776876199
941,4.787873714
942,4.820365142
943,4.784954398
944,4.806086187
945,4.804772162
946,4.78715666
947,4.804392093
948,4.788312408
949,4.788525085
950,4.792582401
951,4.805961699
952,4.81574098
953,4.796747074
954,4.805342163
955,4.792812177
956,4.788279816
957,4.783959846
958,4.808375625
959,4.784378909
960,4.79334931
961,4.805480768
962,4.785673095
963,4.795170794
964,4.813662845
965,4.804717444
966,4.797951796
967,4.789087683
968,4.792539498
969,4.808791599
970,4.800061708
971,4.795927599
972,4.803204708
973,4.784724642
974,4.799026512
975,4.794374953
976,4.796890693
977,4.804039877
978,4.790936694
979,4.803945379
980,4.80570054
981,4.80787235
982,4.820548002
983,4.801765366
984,4.798852486
985,4.800102445
986,4.792611797
987,4.809081134
988,4.808250884
989,4.787757257
990,4.802819543
991,4.798030491
992,4.801404956
993,4.80623533
994,4.793782797
995,4.788471757
996,4.8052376
997,4.795640902
998,4.795020358
999,4.81845951
1000,4.822629608
1001,4.796230743
1002,4.815554879
1003,4.782700039
1004,4.815046299
1005,4.793283253
1006,4.803578354
1007,4.812419135
1008,4.796957643
1009,4.798602873
1010,4.798309183
1011,4.798992754
1012,4.803283079
1013,4.808505962
1014,4.791361148
1015,4.755199014
1016,4.787563237
1017,4.792948785
1018,4.81559007
1019,4.788109295
1020,4.794206388
1021,4.791942362
1022,4.799751158
1023,4.813306417
1024,4.811452951
1025,4.802999616
1026,4.803534881
1027,4.798457484
1028,4.804682488
1029,4.802415536
1030,4.824694765
1031,4.791713509
1032,4.811643131
1033,4.812467681
1034,4.796384129
1035,4.795481636
1036,4.805094815
1037,4.816283489
1038,4.796476133
1039,4.791544254
1040,4.795754219
1041,4.826572893
1042,4.768953286
1043,4.792180352
1044,4.797130778
1045,4.788456998
1046,4.798309391
1047,4.791036801
1048,4.798851854
1049,4.819342077
1050,4.7972827
1051,4.809343118
1052,4.788255166
1053,4.796749558
1054,4.781076537
1055,4.787154911
1056,4.808380333
1057,4.803201638
1058,4.808715994
1059,4.783070022
1060,4.80111218
1061,4.802817455
1062,4.809886255
1063,4.799806243
1064,4.795672064
1065,4.781133856
1066,4.818575829
1067,4.811073899
1068,4.819674107
1069,4.799376778
1070,4.799987905
1071,4.809929603
1072,4.801854103
1073,4.807850031
1074,4.840849369
1075,4.824568275
1076,4.849275072
1077,4.866114842
1078,4.892163263
1079,4.90042701
1080,4.949875347
1081,4.97155376
1082,5.004496694
1083,5.081250393
1084,5.134366113
1085,5.200850147
1086,5.267777443
1087,5.323221994
1088,5.430698143
1089,5.487785325
1090,5.538987329
1091,5.612601149
1092,5.677324511
1093,5.728780867
1094,5.778209722
1095,5.781886082
1096,5.79346799
1097,5.796467494
1098,5.780450227
1099,5.746756367
1100,5.686868005
1101,5.611849323
1102,5.572780577
1103,5.483695991
1104,5.380025163
1105,5.325442223
1106,5.25998046
1107,5.194701336
1108,5.127638885
1109,5.063598383
1110,4.998826271
1111,4.971666155
1112,4.948259788
1113,4.910372122
1114,4.895961957
1115,4.859083328
1116,4.835837619
1117,4.850025676
1118,4.821513824
1119,4.807377652
1120,4.802659664
1121,4.808328875
1122,4.808776677
1123,4.801132289
1124,4.795034932
1125,4.805211412
1126,4.809797437
1127,4.790458867
1128,4.801641568
1129,4.799109637
1130,4.793619735
1131,4.810505598
1132,4.786489165
1133,4.818507633
1134,4.775652802
1135,4.78378743
1136,4.798197618
1137,4.786670946
1138,4.786802416
1139,4.795000266
1140,4.794007765
1141,4.801552113
1142,4.792170879
1143,4.811544144
1144,4.792414819
1145,4.792658772
1146,4.812612275
1147,4.797287082
1148,4.790462893
1149,4.79153679
1150,4.788410198
1151,4.797613092
1152,4.804039008
1153,4.797751211
1154,4.797063489
1155,4.794838147
1156,4.813440622
1157,4.812021956
1158,4.819304751
1159,4.799432875
1160,4.773349531
1161,4.798415782
1162,4.778179448
1163,4.811770572
1164,4.795927077
1165,4.799588954
1166,4.805858647
1167,4.805341652
1168,4.791151431
1169,4.797806091
1170,4.802769654
1171,4.79795144
1172,4.792088514
1173,4.790666782
1174,4.811566168
1175,4.80850243
1176,4.803618235
1177,4.779300607
1178,4.809431921
1179,4.794860505
1180,4.801771769
1181,4.808937333
1182,4.790540999
1183,4.806380578
1184,4.818053111
1185,4.790207518
1186,4.80244584
1187,4.782325956
1188,4.795132982
1189,4.784882934
1190,4.798912041
1191,4.801752182
1192,4.792050101
1193,4.789791809
1194,4.797025078
1195,4.792570842
1196,4.792905634
1197,4.794787551
1198,4.814557204
1199,4.807924509
1200,4.805141399
1201,4.783450781
1202,4.802699624
1203,4.806928099
1204,4.793134185
1205,4.794353104
1206,4.822536169
1207,4.786009958
1208,4.793164451
1209,4.781104949
1210,4.796450585
1211,4.792546676
1212,4.79067968
1213,4.774068941
1214,4.774517448
1215,4.821054076
1216,4.805254161
1217,4.800226176
1218,4.808161746
1219,4.790180699
1220,4.796636439
1221,4.80426035
1222,4.803700751
1223,4.812663635
1224,4.806039214
1225,4.809290849
1226,4.796722978
1227,4.811498195
1228,4.800038204
1229,4.790547818
1230,4.797626168
1231,4.80356228
1232,4.789830374
1233,4.809943428
1234,4.788484722
1235,4.780103007
1236,4.795737367
1237,4.81145064
1238,4.792788974
1239,4.794409847
1240,4.811849226
1241,4.807003341
1242,4.80953297
1243,4.807412869
1244,4.80073679
1245,4.79732968
1246,4.795847646
1247,4.781260472
1248,4.802297319
1249,4.811704361
1250,4.78146024
1251,4.797697241
1252,4.802448329
1253,4.805667901
1254,4.796718579
1255,4.789324938
1256,4.797900412
1257,4.789340898
1258,4.792719221
1259,4.802800794
1260,4.80181778
1261,4.813182617
1262,4.817075832
1263,4.811232235
1264,4.79993663
1265,4.793001773
1266,4.807974753
1267,4.805539765
1268,4.813703619
1269,4.795681889
1270,4.809667987
1271,4.827872297
1272,4.806224971
1273,4.812564008
1274,4.79042834
1275,4.788646587
1276,4.795110972
1277,4.796157708
1278,4.79423098
1279,4.803845021
1280,4.814673387
1281,4.790186993
1282,4.787881825
1283,4.794587037
1284,4.793171562
1285,4.794520522
1286,4.804446908
1287,4.809309316
1288,4.809189395
1289,4.784425472
1290,4.803540122
1291,4.804779479
1292,4.805961851
1293,4.784231918
1294,4.793065785
1295,4.790323175
1296,4.790799463
1297,4.802412081
1298,4.799214099
1299,4.804763443
1300,4.798580587
1301,4.791207205
1302,4.800883432
1303,4.804046362
1304,4.793137515
1305,4.791051386
1306,4.806998335
1307,4.787304055
1308,4.804905912
1309,4.810671246
1310,4.809281272
1311,4.788997932
1312,4.796533293
1313,4.805458407
1314,4.798031188
1315,4.788336476
1316,4.81049207
1317,4.801456987
1318,4.800133034
1319,4.782067815
1320,4.798104428
1321,4.809114925
1322,4.8126167
1323,4.799874191
1324,4.792288627
1325,4.8042961
1326,4.789755653
1327,4.789865159
1328,4.805420035
1329,4.784766662
1330,4.8176801
1331,4.805085346
1332,4.795377017
1333,4.798941523
1334,4.802752853
1335,4.795163887
1336,4.809115197
1337,4.802035946
1338,4.806458238
1339,4.784758675
1340,4.793350016
1341,4.806872116
1342,4.805746422
1343,4.801806244
1344,4.803146895
1345,4.797592426
1346,4.783094809
1347,4.809996419
1348,4.795511308
1349,4.795646258
1350,4.797288676
1351,4.791148885
1352,4.795245885
1353,4.789031801
1354,4.807286436
1355,4.806882023
1356,4.805484387
1357,4.826389229
1358,4.789764353
1359,4.797214333
1360,4.806411068
1361,4.807818361
1362,4.798027045
1363,4.802562782
1364,4.798939887
1365,4.78991517
1366,4.811097019
1367,4.79246431
1368,4.785229632
1369,4.803396707
1370,4.781007691
1371,4.788210177
1372,4.804704873
1373,4.797908664
1374,4.799270504
1375,4.818410161
1376,4.80229229
1377,4.800283667
1378,4.783118869
1379,4.793525782
1380,4.806551591
1381,4.795611475
1382,4.788010558
1383,4.813874642
1384,4.804985635
1385,4.812726247
1386,4.78191066
1387,4.807454224
1388,4.802471083
1389,4.799457232
1390,4.797811516
1391,4.789308219
1392,4.810897441
1393,4.812267389
1394,4.817732361
1395,4.811034588
1396,4.795964107
1397,4.806602246
1398,4.809135279
1399,4.800506685
1400,4.798853318
1401,4.799291779
1402,4.80051885
1403,4.790253143
1404,4.789608824
1405,4.808734269
1406,4.807808556
1407,4.806536042
1408,4.807070482
1409,4.797815178
1410,4.801606892
1411,4.803559812
1412,4.810299926
1413,4.796931414
1414,4.807034165
1415,4.793019379
1416,4.803241248
1417,4.808510576
1418,4.779235291
1419,4.82143535
1420,4.788555516
1421,4.798641949
1422,4.817699211
1423,4.813965741
1424,4.815679718
1425,4.834926636
1426,4.832809562
1427,4.841304223
1428,4.834540107
1429,4.851819904
1430,4.859007391
1431,4.886406212
1432,4.866631205
1433,4.893729166
1434,4.901417112
1435,4.935922788
1436,4.936474179
1437,4.928139724
1438,4.941407676
1439,4.947029542
1440,4.979627875
1441,4.977467162
1442,4.997585571
1443,4.991587766
1444,5.001508008
1445,5.003298363
1446,4.990633048
1447,5.000343711
1448,4.988370334
1449,4.995858819
1450,4.985037498
1451,4.988831381
1452,4.960328645
1453,4.958656531
1454,4.936160032
1455,4.918928619
1456,4.930630952
1457,4.927080726
1458,4.897217551
1459,4.892739442
1460,4.870657725
1461,4.85751418
1462,4.852357885
1463,4.828324288
1464,4.846349324
1465,4.824814929
1466,4.821235095
1467,4.825529902
1468,4.807594891
1469,4.810561606
1470,4.812852801
1471,4.790880234
1472,4.811647146
1473,4.802737855
1474,4.804307992
1475,4.798559712
1476,4.782708356
1477,4.808254862
1478,4.801843613
1479,4.79496468
1480,4.804552296
1481,4.796780298
1482,4.792624433
1483,4.809942584
1484,4.794521837
1485,4.793003513
1486,4.782682176
1487,4.805469105
1488,4.804660336
1489,4.815725617
1490,4.787518392
1491,4.792683677
1492,4.811437274
1493,4.793456789
1494,4.788097402
1495,4.808705214
1496,4.802287976
1497,4.794326175
1498,4.785150144
1499,4.797992911
1500,4.795199331
1501,4.794991338
1502,4.808937309
1503,4.809031845
1504,4.782554595
1505,4.791296473
1506,4.823971577
1507,4.80045228
1508,4.790368794
1509,4.81298507
1510,4.801163621
1511,4.797511635
1512,4.797026282
1513,4.811070029
1514,4.805000868
1515,4.783949853
1516,4.79221737
1517,4.800419932
1518,4.799831631
1519,4.806576138
1520,4.804770298
1521,4.82138547
1522,4.788757575
1523,4.797404237
1524,4.801203785
1525,4.794810218
1526,4.793378328
1527,4.793450084
1528,4.801417065
1529,4.781998025
1530,4.816860468
1531,4.801548509
1532,4.793771148
1533,4.782796896
1534,4.788091505
1535,4.809795716
1536,4.793673277
1537,4.781445562
1538,4.810439942
1539,4.811703585
1540,4.804471434
1541,4.800042718
1542,4.78560029
1543,4.827036822
1544,4.802148876
1545,4.807384231
1546,4.786900301
1547,4.801684952
1548,4.797222983
1549,4.802799236
1550,4.778996223
1551,4.806170685
1552,4.802356917
1553,4.80194701
1554,4.798694408
1555,4.809410427
1556,4.802636218
1557,4.787769212
1558,4.811526663
1559,4.795193208
1560,4.799643494
1561,4.805281611
1562,4.806323558
1563,4.804205733
1564,4.799260825
1565,4.814855329
1566,4.784854577
1567,4.817439207
1568,4.812861288
1569,4.796880259
1570,4.803295317
1571,4.823120451
1572,4.800906728
1573,4.810866514
1574,4.779501482
1575,4.794753011
1576,4.793057677
1577,4.799608058
1578,4.785368811
1579,4.825547101
1580,4.792975838
1581,4.812858011
1582,4.795867697
1583,4.801949032
1584,4.812236009
1585,4.777415246
1586,4.781440576
1587,4.80589766
1588,4.794842794
1589,4.799394048
1590,4.776635818
1591,4.795938785
1592,4.794686206
1593,4.792034142
1594,4.807298383
1595,4.792738772
1596,4.800024102
1597,4.806398687
1598,4.800888049
1599,4.812419944
1600,4.79749519
1601,4.802535999
1602,4.802123287
1603,4.808325739
1604,4.803425507
1605,4.792870448
1606,4.806602247
1607,4.803653501
1608,4.808373898
1609,4.799647888
1610,4.799688369
1611,4.793752501
1612,4.786492396
1613,4.797865959
1614,4.792831943
1615,4.7917087
1616,4.795739176
1617,4.800481566
1618,4.797574369
1619,4.797329966
1620,4.797359999
1621,4.822551895
1622,4.800844873
1623,4.782223478
1624,4.796642091
1625,4.81578947
1626,4.794588564
1627,4.788419201
1628,4.795269
1629,4.802900592
1630,4.800863044
1631,4.786881359
1632,4.783488697
1633,4.791863059
1634,4.815178316
1635,4.813925385
1636,4.804372398
1637,4.800047566
1638,4.792763611
1639,4.798610372
1640,4.783168055
1641,4.794802138
1642,4.799481191
1643,4.804792303
1644,4.811804947
1645,4.803956129
1646,4.783963581
1647,4.791778425
1648,4.793811085
1649,4.795791659
1650,4.801320286
1651,4.829300982
1652,4.796650885
1653,4.807925006
1654,4.812014316
1655,4.784218943
1656,4.781641622
1657,4.783493848
1658,4.786825062
1659,4.798556819
1660,4.805043778
1661,4.799705057
1662,4.788743615
1663,4.798060801
1664,4.801954282
1665,4.796022557
1666,4.796486975
1667,4.790414256
1668,4.791204335
1669,4.790788468
1670,4.80073019
1671,4.808184831
1672,4.801926603
1673,4.785864103
1674,4.803851876
1675,4.802409948
1676,4.78585772
1677,4.784801557
1678,4.800973088
1679,4.77566306
1680,4.800406956
1681,4.823230096
1682,4.807520847
1683,4.793089007
1684,4.816955306
1685,4.81443675
1686,4.799212083
1687,4.793484506
1688,4.793063426
1689,4.813573435
1690,4.795789535
1691,4.808943296
1692,4.79435775
1693,4.796827225
1694,4.794810216
1695,4.804996384
1696,4.804691866
1697,4.805694107
1698,4.786490076
1699,4.8161761
1700,4.783872916
1701,4.8014499
1702,4.817329697
1703,4.800223864
1704,4.802168486
1705,4.782389825
1706,4.812482462
1707,4.793546868
1708,4.802862614
1709,4.789481222
1710,4.791434243
1711,4.803380316
1712,4.801298795
1713,4.790089688
1714,4.794325121
1715,4.811847206
1716,4.80141695
1717,4.831714295
1718,4.804859113
1719,4.787208633
1720,4.80695681
1721,4.807584831
1722,4.807678679
1723,4.792686293
1724,4.79552024
1725,4.816644266
1726,4.82140519
1727,4.794448752
1728,4.801597513
1729,4.834008185
1730,4.800191063
1731,4.790009533
1732,4.800013843
1733,4.789475368
1734,4.822607286
1735,4.81629113
1736,4.804882702
1737,4.798177089
1738,4.781633369
1739,4.809080033
1740,4.812940924
1741,4.801594452
1742,4.814004545
1743,4.811416658
1744,4.807387134
1745,4.806874561
1746,4.813403298
1747,4.838043623
1748,4.825757131
1749,4.830787054
1750,4.8271196
1751,4.842857587
1752,4.854532307
1753,4.863388543
1754,4.857548959
1755,4.864466375
1756,4.874632271
1757,4.873249194
1758,4.889325188
1759,4.892025426
1760,4.875621176
1761,4.897743874
1762,4.883589309
1763,4.888985459
1764,4.889115204
1765,4.914663161
1766,4.893030324
1767,4.90318019
1768,4.881992993
1769,4.897330397
1770,4.88346395
1771,4.864480958
1772,4.871945963
1773,4.878943326
1774,4.87495232
1775,4.852746063
1776,4.844967828
1777,4.846966739
1778,4.837002707
1779,4.839734677
1780,4.82098226
1781,4.810236946
1782,4.817987521
1783,4.821026412
1784,4.807195119
1785,4.809797834
1786,4.818593166
1787,4.820760368
1788,4.813455052
1789,4.80264938
1790,4.797579001
1791,4.800287623
1792,4.814544531
1793,4.807710993
1794,4.791029929
1795,4.804944298
1796,4.787634103
1797,4.792051075
1798,4.798888806
1799,4.79824001
1800,4.791763291
1801,4.791397325
1802,4.797873708
1803,4.804795047
1804,4.796425261
1805,4.814800502
1806,4.804175602
1807,4.798725167
1808,4.816863603
1809,4.796405868
1810,4.801530952
1811,4.793195214
1812,4.79786713
1813,4.808043046
1814,4.812843732
1815,4.802629586
1816,4.797158288
1817,4.785988172
1818,4.797552196
1819,4.793018165
1820,4.815043142
1821,4.796620138
1822,4.78918409
1823,4.8086905
1824,4.781509307
1825,4.803641717
1826,4.810221859
1827,4.802329586
1828,4.796097531
1829,4.808361811
1830,4.780586553
1831,4.796918667
1832,4.791688507
1833,4.777846542
1834,4.802625436
1835,4.808493154
1836,4.804046913
1837,4.802124013
1838,4.788361333
1839,4.800194668
1840,4.807336942
1841,4.801698329
1842,4.79828262
1843,4.788581726
1844,4.800172622
1845,4.798792039
1846,4.803167228
1847,4.78653036
1848,4.80896382
1849,4.797400559
1850,4.789881797
1851,4.787792203
1852,4.797055761
1853,4.800093618
1854,4.8131756
1855,4.801240784
1856,4.791558316
1857,4.808714704
1858,4.816817978
1859,4.793004027
1860,4.796042883
1861,4.804292931
1862,4.80456971
1863,4.801225004
1864,4.806216608
1865,4.811421478
1866,4.790897709
1867,4.80243221
1868,4.814650675
1869,4.802272442
1870,4.788651244
1871,4.804539024
1872,4.809392716
1873,4.800900067
1874,4.808373792
1875,4.802922698
1876,4.806985569
1877,4.805590742
1878,4.798450634
1879,4.788308614
1880,4.794696754
1881,4.786924146
1882,4.79566279
1883,4.801601859
1884,4.80232965
1885,4.798164527
1886,4.798531413
1887,4.802283035
1888,4.805167877
1889,4.806799106
1890,4.81046493
1891,4.8072966
1892,4.783347897
1893,4.798499912
1894,4.797466461
1895,4.814677708
1896,4.797616857
1897,4.786677884
1898,4.795492335
1899,4.800381578
1900,4.800128464
1901,4.817386431
1902,4.805194814
1903,4.789780912
1904,4.800032215
1905,4.784833524
1906,4.791722116
1907,4.800237814
1908,4.799071586
1909,4.825759173
1910,4.790745401
1911,4.809766839
1912,4.809491937
1913,4.787214703
1914,4.789240228
1915,4.812365601
1916,4.807261991
1917,4.802239551
1918,4.81271374
1919,4.796672766
1920,4.796198308
1921,4.80279095
1922,4.7813389
1923,4.783161603
1924,4.788757295
1925,4.80685212
1926,4.803085092
1927,4.808287505
1928,4.797523736
1929,4.792947226
1930,4.803885251
1931,4.791276838
1932,4.807474423
1933,4.786964825
1934,4.800292315
1935,4.803491816
1936,4.805215842
1937,4.802928647
1938,4.794887374
1939,4.805631517
1940,4.804963723
1941,4.79003095
1942,4.819676707
1943,4.803784608
1944,4.795595597
1945,4.796169074
1946,4.803467971
1947,4.793303644
1948,4.797191968
1949,4.815668911
1950,4.811390535
1951,4.785843864
1952,4.793646916
1953,4.791859247
1954,4.803689139
1955,4.81020438
1956,4.794230426
1957,4.802560162
1958,4.823080613
1959,4.795060128
1960,4.795039369
1961,4.808239617
1962,4.812479152
1963,4.803603978
1964,4.812893439
1965,4.79686546
1966,4.814808698
1967,4.792983469
1968,4.813545128
1969,4.817351692
1970,4.789425286
1971,4.80152996
1972,4.792698432
1973,4.79172951
1974,4.796310193
1975,4.768930429
1976,4.824649323
1977,4.785993673
1978,4.794520567
1979,4.807553276
1980,4.814612133
1981,4.795311595
1982,4.809355265
1983,4.803092687
1984,4.820355548
1985,4.809596508
1986,4.806337157
1987,4.799781656
1988,4.801633798
1989,4.78957732
1990,4.79064933
1991,4.800395863
1992,4.791432698
1993,4.813831447
1994,4.795611345
1995,4.799595784
1996,4.811370851
1997,4.786474369
1998,4.799419247
1999,4.79796731
2000,4.808873883
2001,4.795763044
2002,4.805207376
2003,4.816651794
2004,4.797417161
2005,4.811458783
2006,4.817901455
2007,4.79123745
2008,4.803825256
2009,4.808343548
2010,4.802165474
2011,4.795956035
2012,4.808595151
2013,4.794386339
2014,4.830470128
2015,4.802881861
2016,4.818522136
2017,4.811487976
2018,4.781887517
2019,4.813411204
2020,4.79897607
2021,4.797842542
2022,4.808055383
2023,4.8054635
2024,4.794324982
2025,4.801018368
2026,4.798120634
2027,4.801037833
2028,4.792058679
2029,4.785909293
2030,4.801786619
2031,4.80618999
2032,4.810839964
2033,4.800706864
2034,4.813475137
2035,4.797735267
2036,4.787668485
2037,4.810812135
2038,4.78857252
2039,4.791208906
2040,4.790988676
2041,4.797848637
2042,4.807766329
2043,4.800530562
2044,4.802143336
2045,4.799121179
2046,4.804617192
2047,4.782765765
2048,4.806473023
2049,4.79464104
2050,4.819197794
2051,4.808838118
2052,4.801981572
2053,4.798119557
2054,4.792536144
2055,4.800605437
2056,4.810147912
2057,4.803178912
2058,4.794940922
2059,4.796374145
2060,4.809450479
2061,4.792399103
2062,4.794393167
2063,4.796628934
2064,4.810368839
2065,4.786950842
2066,4.815120453
2067,4.788711495
2068,4.794632663
2069,4.806841199
2070,4.807829257
2071,4.788493471
2072,4.808534137
2073,4.803548869
2074,4.794851057
2075,4.784841631
2076,4.780429515
2077,4.790331584
2078,4.802166798
2079,4.803286023
2080,4.797949623
2081,4.796228948
2082,4.814242637
2083,4.800118845
2084,4.817468484
2085,4.808705823
2086,4.813475816
2087,4.779495986
2088,4.788963848
2089,4.811375539
2090,4.797653461
2091,4.81121663
2092,4.810827664
2093,4.786603694
2094,4.800704374
2095,4.797949403
2096,4.814882676
2097,4.811833845
2098,4.806520816
2099,4.808255028
2100,4.799130066
2101,4.796150122
2102,4.808931429
2103,4.78980979
2104,4.798673093
2105,4.810573198
2106,4.80134011
2107,4.799452336
2108,4.815147436
2109,4.79482839
2110,4.799531866
2111,4.817375938
2112,4.811225708
2113,4.803933775
2114,4.822450783
2115,4.809098019
2116,4.814641493
2117,4.797348639
2118,4.792491132
2119,4.779411299
2120,4.799191106
2121,4.804939519
2122,4.797893711
2123,4.787185963
2124,4.786851502
2125,4.801082714
2126,4.779946201
2127,4.795231847
2128,4.798632777
2129,4.815059957
2130,4.795023671
2131,4.814341582
2132,4.806628099
2133,4.796631905
2134,4.807380347
2135,4.795017071
2136,4.796032723
2137,4.798254597
2138,4.774260486
2139,4.795792392
2140,4.798469587
2141,4.801286325
2142,4.800560954
2143,4.785036666
2144,4.812969811
2145,4.799073182
2146,4.785460019
2147,4.788989261
2148,4.79841787
2149,4.800615606
2150,4.796223054
2151,4.829598853
2152,4.800521389
2153,4.818412793
2154,4.798323049
2155,4.811027595
2156,4.787381378
2157,4.779990633
2158,4.801593294
2159,4.798781115
2160,4.803232011
2161,4.79121955
2162,4.800483639
2163,4.80193533
2164,4.823936383
2165,4.789076344
2166,4.7985029
2167,4.816597972
2168,4.790300657
2169,4.804236367
2170,4.799269395
2171,4.799082725
2172,4.778917116
2173,4.800250266
2174,4.800899936
2175,4.786248372
2176,4.795612442
2177,4.790317895
2178,4.788603508
2179,4.805455404
2180,4.799507911
2181,4.805740299
2182,4.802058736
2183,4.820927351
2184,4.803751417
2185,4.788582427
2186,4.795047027
2187,4.811495051
2188,4.814768201
2189,4.793777996
2190,4.802705485
2191,4.789833212
2192,4.806231636
2193,4.797402946
2194,4.77256249
2195,4.808786579
2196,4.790395846
2197,4.810818
2198,4.792020238
2199,4.775574375
2200,4.814513651
2201,4.793955092
2202,4.809414106
2203,4.8136934
2204,4.817311518
2205,4.788415172
2206,4.80501979
2207,4.798834291
2208,4.796727091
2209,4.795887778
2210,4.792562232
2211,4.813523091
2212,4.813136636
2213,4.807437283
2214,4.801770769
2215,4.798749803
2216,4.790848893
2217,4.791812354
2218,4.804583632
2219,4.790411143
2220,4.803865854
2221,4.789347999
2222,4.783522125
2223,4.792072504
2224,4.818438104
2225,4.792791607
2226,4.806275565
2227,4.809203252
2228,4.801935255
2229,4.800609269
2230,4.802590301
2231,4.799310311
2232,4.813887606
2233,4.806006085
2234,4.805911248
2235,4.801538902
2236,4.805447983
2237,4.814684794
2238,4.774602838
2239,4.790896323
2240,4.799027493
2241,4.799893915
2242,4.785969263
2243,4.818840587
2244,4.79414531
2245,4.796607555
2246,4.802070966
2247,4.80236196
2248,4.804810648
2249,4.789548704
2250,4.82085232
2251,4.805295913
2252,4.801819826
2253,4.811529674
2254,4.819372902
2255,4.81810473
2256,4.799219034
2257,4.79528619
2258,4.784352955
2259,4.80694411
2260,4.814578444
2261,4.805727784
2262,4.80504428
2263,4.814648739
2264,4.790914979
2265,4.799301212
2266,4.797691361
2267,4.801848916
2268,4.799067547
2269,4.797653483
2270,4.796446548
2271,4.792831396
2272,4.790608878
2273,4.810587415
2274,4.809171084
2275,4.786886458
2276,4.810862805
2277,4.810943904
2278,4.796580605
2279,4.781973013
2280,4.792031731
2281,4.803483421
2282,4.801210276
2283,4.792555989
2284,4.797512819
2285,4.803573867
2286,4.778881997
2287,4.804816782
2288,4.810087957
2289,4.782217979
2290,4.799012321
2291,4.804893332
2292,4.792996127
2293,4.796026927
2294,4.803023442
2295,4.800255915
2296,4.780147878
2297,4.809207901
2298,4.808631221
2299,4.817781397
2300,4.795745882
2301,4.786637304
2302,4.78484911
2303,4.789819219
2304,4.786086186
2305,4.79342677
2306,4.79415091
2307,4.798656369
2308,4.823596728
2309,4.795909974
2310,4.813071699
2311,4.805281267
2312,4.806505168
2313,4.797818739
2314,4.794022884
2315,4.799153369
2316,4.800643347
2317,4.788522409
2318,4.780600699
2319,4.812633478
2320,4.787264741
2321,4.801293888
2322,4.793548062
2323,4.797962914
2324,4.807727155
2325,4.800923435
2326,4.78025763
2327,4.80340344
2328,4.819383667
2329,4.794050573
2330,4.80114096
2331,4.795284535
2332,4.80338612
2333,4.805344524
2334,4.801355701
2335,4.816723438
2336,4.790611127
2337,4.802346877
2338,4.803843791
2339,4.797073019
2340,4.801773136
2341,4.786959933
2342,4.794609987
2343,4.796176008
2344,4.792608152
2345,4.796129242
2346,4.802547827
2347,4.811071867
2348,4.801848757
2349,4.789608087
2350,4.803638693
2351,4.796622279
2352,4.796662657
2353,4.794111561
2354,4.785905034
2355,4.811266833
2356,4.800073017
2357,4.808447931
2358,4.798104855
2359,4.794767761
2360,4.810491793
2361,4.799989523
2362,4.809235955
2363,4.793750158
2364,4.799090777
2365,4.797038524
2366,4.807987477
2367,4.796029874
2368,4.80427356
2369,4.793549667
2370,4.803043269
2371,4.789797995
2372,4.795559361
2373,4.797161008
2374,4.795760298
2375,4.79491246
2376,4.792991662
2377,4.779556437
2378,4.789871235
2379,4.790494763
2380,4.808393279
2381,4.792705839
2382,4.784611686
2383,4.792175821
2384,4.809901553
2385,4.790881457
2386,4.794843936
2387,4.801416969
2388,4.787646078
2389,4.816223435
2390,4.81414776
2391,4.79113271
2392,4.789356896
2393,4.801752588
2394,4.808783617
2395,4.804402465
2396,4.79902809
2397,4.794971093
2398,4.811402238
2399,4.793667693
2400,4.78396423
2401,4.797986671
2402,4.806109851
2403,4.792201304
2404,4.788871017
2405,4.818527674
2406,4.790497191
2407,4.785861729
2408,4.795141779
2409,4.806902712
2410,4.798390566
2411,4.80636222
2412,4.804162736
2413,4.780625679
2414,4.80996503
2415,4.794311192
2416,4.818467466
2417,4.800153501
2418,4.805646311
2419,4.801981786
2420,4.806508965
2421,4.800992171
2422,4.803492083
2423,4.806639497
2424,4.795581661
2425,4.80395481
2426,4.815099627
2427,4.816014568
2428,4.803314071
2429,4.797079003
2430,4.802344473
2431,4.791567829
2432,4.801309176
2433,4.78331989
2434,4.797675836
2435,4.807802657
2436,4.792669867
2437,4.787012916
2438,4.816673721
2439,4.805909303
2440,4.786537188
2441,4.80495462
2442,4.786806919
2443,4.798776763
2444,4.797157363
2445,4.802116157
2446,4.795808403
2447,4.788667333
2448,4.792777647
2449,4.809852604
2450,4.786972704
2451,4.790046615
2452,4.791350973
2453,4.793853219
2454,4.80046719
2455,4.791726712
2456,4.793576883
2457,4.790543065
2458,4.792061701
2459,4.813414131
2460,4.784849384
2461,4.802235382
2462,4.803050185
2463,4.802252719
2464,4.817654782
2465,4.793045364
2466,4.797281811
2467,4.796938207
2468,4.779573583
2469,4.805860436
2470,4.793493807
2471,4.780675615
2472,4.786292977
2473,4.804157575
2474,4.803327745
2475,4.794835434
2476,4.806541401
2477,4.80744079
2478,4.820049655
2479,4.803770991
2480,4.79351381
2481,4.805906144
2482,4.797792662
2483,4.800838811
2484,4.795143752
2485,4.785554287
2486,4.812072713
2487,4.784447582
2488,4.807465191
2489,4.783691209
2490,4.793483982
2491,4.804315362
2492,4.806737722
2493,4.815311635
2494,4.796956377
2495,4.801587258
2496,4.803793021
2497,4.806954061
2498,4.817867144
2499,4.795646241
2500,4.815170029
2501,4.8016344
2502,4.802300076
2503,4.811013624
2504,4.799633835
2505,4.797135224
2506,4.804417062
2507,4.784260706
2508,4.796656341
2509,4.783486537
2510,4.795983771
2511,4.783716176
2512,4.810426426
2513,4.800120471
2514,4.789957878
2515,4.804339425
2516,4.782611427
2517,4.811724096
2518,4.793659184
2519,4.796301868
2520,4.798609278
2521,4.796575704
2522,4.812666734
2523,4.805671511
2524,4.793173334
2525,4.80316589
2526,4.811360195
2527,4.81219811
2528,4.806913875
2529,4.812592463
2530,4.816668848
2531,4.81495178
2532,4.793446097
2533,4.819225708
2534,4.799918094
2535,4.786486824
2536,4.805876161
2537,4.793653715
2538,4.802179404
2539,4.808681689
2540,4.818739094
2541,4.806026861
2542,4.810142345
2543,4.80513543
2544,4.814095921
2545,4.799709144
2546,4.79011053
2547,4.810472602
2548,4.791022569
2549,4.793144604
2550,4.805705532
2551,4.815373492
2552,4.794492391
2553,4.798976198
2554,4.797037266
2555,4.799735417
2556,4.813367453
2557,4.797699345
2558,4.817306349
2559,4.803040933
2560,4.812141264
2561,4.807833812
2562,4.799195058
2563,4.790517544
2564,4.800129404
2565,4.799665183
2566,4.801533607
2567,4.808621195
2568,4.797947639
2569,4.774223029
2570,4.80741895
2571,4.799253858
2572,4.794317193
2573,4.795927074
2574,4.809024845
2575,4.815261258
2576,4.790856562
2577,4.813108899
2578,4.79378418
2579,4.811295285
2580,4.808821828
2581,4.806646208
2582,4.810893155
2583,4.804276483
2584,4.803665942
2585,4.806219821
2586,4.812101553
2587,4.797136673
2588,4.786479283
2589,4.795873527
2590,4.801729276
2591,4.80007753
2592,4.812807106
2593,4.798370954
2594,4.808484149
2595,4.789294969
2596,4.796049896
2597,4.806662545
2598,4.807543373
2599,4.80920182
2600,4.809285319
2601,4.801409097
2602,4.796872865
2603,4.802180801
2604,4.82240695
2605,4.78805391
2606,4.799805364
2607,4.798649164
2608,4.784522866
2609,4.806205087
2610,4.80641511
2611,4.801156244
2612,4.794654547
2613,4.813133001
2614,4.787692645
2615,4.794433252
2616,4.821025837
2617,4.803292664
2618,4.824869346
2619,4.78563334
2620,4.799118584
2621,4.79750912
2622,4.808220372
2623,4.783893208
2624,4.7983572
2625,4.792922074
2626,4.818469789
2627,4.791713919
2628,4.8005255
2629,4.795159916
2630,4.808907189
2631,4.797465051
2632,4.800403633
2633,4.809243831
2634,4.801082108
2635,4.802569866
2636,4.806018032
2637,4.782285025
2638,4.805840023
2639,4.81689722
2640,4.818846057
2641,4.798684651
2642,4.79887787
2643,4.808317951
2644,4.779242476
2645,4.816797598
2646,4.794331679
2647,4.793378585
2648,4.785769781
2649,4.813591355
2650,4.815862396
2651,4.79780566
2652,4.804231817
2653,4.806059639
2654,4.809175627
2655,4.782822104
2656,4.793962993
2657,4.792637867
2658,4.800369987
2659,4.794692084
2660,4.78977408
2661,4.796216142
2662,4.809769601
2663,4.78917566
2664,4.791456665
2665,4.795505077
2666,4.811196975
2667,4.782840712
2668,4.806409996
2669,4.815412683
2670,4.780420828
2671,4.782078347
2672,4.796145952
2673,4.793622963
2674,4.806866524
2675,4.796801917
2676,4.811877789
2677,4.801130297
2678,4.790335657
2679,4.807954205
2680,4.79262335
2681,4.809042475
2682,4.789921088
2683,4.788122985
2684,4.798448997
2685,4.790759386
2686,4.790082116
2687,4.797732279
2688,4.804434858
2689,4.793267319
2690,4.793258535
2691,4.804076881
2692,4.802374321
2693,4.789566194
2694,4.779568653
2695,4.805404585
2696,4.806595499
2697,4.803947183
2698,4.800068719
2699,4.793143017
2700,4.796756965
2701,4.800383115
2702,4.78611847
2703,4.803421017
2704,4.813871659
2705,4.786388949
2706,4.81055562
2707,4.792866013
2708,4.796866146
2709,4.806350996
2710,4.784130636
2711,4.791819786
2712,4.811344383
2713,4.797929596
2714,4.820887776
2715,4.809241455
2716,4.798002167
2717,4.797931578
2718,4.797961771
2719,4.807748866
2720,4.799784723
2721,4.803380945
2722,4.802333081
2723,4.782640126
2724,4.813724264
2725,4.806463879
2726,4.794783071
2727,4.811471843
2728,4.783361432
2729,4.789868136
2730,4.811576266
2731,4.803511939
2732,4.803466965
2733,4.816992908
2734,4.803146081
2735,4.793080858
2736,4.810886652
2737,4.805860281
2738,4.791565023
2739,4.810017825
2740,4.793614028
2741,4.803450451
2742,4.821131835
2743,4.794368887
2744,4.791028701
2745,4.805279317
2746,4.797265445
2747,4.810580827
2748,4.781749334
2749,4.793242071
2750,4.820666043
2751,4.793708402
2752,4.803482871
2753,4.795446999
2754,4.825387984
2755,4.790261229
2756,4.801081182
2757,4.803861445
2758,4.798165844
2759,4.806664608
2760,4.801890765
2761,4.802334658
2762,4.803366075
2763,4.812611834
2764,4.798906268
2765,4.801751948
2766,4.803511582
2767,4.776308112
2768,4.789344403
2769,4.82016223
2770,4.80459626
2771,4.798848108
2772,4.788455611
2773,4.811737906
2774,4.796899442
2775,4.80263784
2776,4.804642955
2777,4.798310503
2778,4.810423658
2779,4.798744521
2780,4.807120302
2781,4.784215799
2782,4.799121936
2783,4.806997649
2784,4.805850755
2785,4.805133107
2786,4.804186519
2787,4.80675018
2788,4.800802481
2789,4.793266042
2790,4.798426195
2791,4.794944937
2792,4.786911345
2793,4.805214458
2794,4.790553687
2795,4.800931853
2796,4.802931067
2797,4.798399903
2798,4.797608578
2799,4.791207246
2800,4.802845208
2801,4.806635884
2802,4.795746655
2803,4.784580743
2804,4.792349262
2805,4.785641699
2806,4.81922955
2807,4.816341945
2808,4.796932872
2809,4.800671138
2810,4.801588381
2811,4.782169718
2812,4.790557237
2813,4.800603663
2814,4.804673109
2815,4.795160826
2816,4.819053993
2817,4.806427962
2818,4.798094929
2819,4.805619534
2820,4.792027063
2821,4.813295873
2822,4.805947917
2823,4.788574815
2824,4.800494226
2825,4.806581108
2826,4.815847146
2827,4.820077965
2828,4.788320557
2829,4.795249701
2830,4.793184371
2831,4.806668867
2832,4.803466589
2833,4.810950377
2834,4.816898306
2835,4.806445573
2836,4.78763283
2837,4.796282148
2838,4.796417208
2839,4.787372132
2840,4.803796569
2841,4.808566915
2842,4.78894172
2843,4.831363049
2844,4.798900147
2845,4.789225567
2846,4.802601833
2847,4.799755596
2848,4.798177747
2849,4.781891194
2850,4.80653628
2851,4.799763312
2852,4.808440936
2853,4.797335405
2854,4.805824915
2855,4.797047292
2856,4.808263874
2857,4.791829085
2858,4.812526721
2859,4.786795112
2860,4.805647651
2861,4.794266653
2862,4.7986132
2863,4.806292003
2864,4.7963367
2865,4.796886575
2866,4.797254954
2867,4.783624028
2868,4.794451156
2869,4.799154317
2870,4.789632626
2871,4.787034742
2872,4.814181203
2873,4.806933339
2874,4.795977166
2875,4.803384685
2876,4.814563525
2877,4.792840468
2878,4.802772012
2879,4.797244412
2880,4.809798858
2881,4.800824741
2882,4.81633853
2883,4.810732398
2884,4.786006597
2885,4.791119904
2886,4.822229811
2887,4.802725656
2888,4.786262911
2889,4.795830599
2890,4.776349538
2891,4.813804356
2892,4.814373714
2893,4.808524171
2894,4.786771013
2895,4.80112495
2896,4.797326704
2897,4.803270158
2898,4.805388372
2899,4.78797289
2900,4.801751642
2901,4.80373065
2902,4.809605383
2903,4.813847017
2904,4.803086582
2905,4.808851552
2906,4.78892485
2907,4.802980488
2908,4.794151337
2909,4.798088737
2910,4.787018774
2911,4.794256653
2912,4.802348296
2913,4.805075201
2914,4.796503795
2915,4.803323766
2916,4.785284548
2917,4.801287174
2918,4.805965301
2919,4.807310825
2920,4.80147929
2921,4.797102694
2922,4.816655755
2923,4.793938545
2924,4.785106808
2925,4.803998162
2926,4.788638731
2927,4.794198101
2928,4.786223561
2929,4.807003953
2930,4.797157898
2931,4.79558901
2932,4.787288573
2933,4.802567941
2934,4.783962634
2935,4.794973056
2936,4.799049689
2937,4.798962117
2938,4.804912639
2939,4.812096234
2940,4.797598211
2941,4.791937569
2942,4.787802313
2943,4.798223551
2944,4.792467781
2945,4.806092609
2946,4.80276118
2947,4.80672474
2948,4.788680385
2949,4.788864082
2950,4.818744842
2951,4.800364655
2952,4.787018267
2953,4.797062194
2954,4.807636193
2955,4.773300517
2956,4.79909808
2957,4.814339082
2958,4.798094252
2959,4.8149171
2960,4.800773891
2961,4.790003096
2962,4.804913312
2963,4.798613383
2964,4.815920592
2965,4.80323516
2966,4.801352791
2967,4.791450876
2968,4.791145675
2969,4.791877511
2970,4.782887829
2971,4.802529308
2972,4.784696723
2973,4.81526067
2974,4.799970514
2975,4.797703334
2976,4.783844821
2977,4.809592953
2978,4.805647113
2979,4.807713176
2980,4.802459883
2981,4.787324728
2982,4.784629723
2983,4.787235943
2984,4.799449669
2985,4.794488237
2986,4.809213977
2987,4.805367869
2988,4.807111405
2989,4.789555051
2990,4.795679186
2991,4.808746205
2992,4.800361641
2993,4.799399147
2994,4.79629488
2995,4.809328626
2996,4.799690949
2997,4.81534338
2998,4.795926123
2999,4.796968543
3000,4.792149067
3001,4.811640554
3002,4.78297781
3003,4.794053763
3004,4.810042189
3005,4.799931252
3006,4.819092612
3007,4.80800763
3008,4.79535023
3009,4.80390044
3010,4.80437979
3011,4.79740629
3012,4.79877389
3013,4.80497025
3014,4.802097407
3015,4.788378737
3016,4.795541776
3017,4.781839166
3018,4.797658394
3019,4.790154475
3020,4.788897239
3021,4.810213422
3022,4.793079703
3023,4.797394718
3024,4.794773008
3025,4.796174425
3026,4.812792018
3027,4.790905428
3028,4.80153988
3029,4.8018001
3030,4.791734954
3031,4.794799025
3032,4.803596457
3033,4.795503324
3034,4.806044117
3035,4.815865964
3036,4.788566517
3037,4.821938679
3038,4.791396174
3039,4.803978203
3040,4.804770605
3041,4.807299872
3042,4.811298652
3043,4.802554705
3044,4.821863363
3045,4.803179709
3046,4.798880433
3047,4.786603722
3048,4.79973198
3049,4.772344715
3050,4.800156769
3051,4.775387166
3052,4.821844243
3053,4.797856446
3054,4.787474372
3055,4.815354876
3056,4.804235327
3057,4.805146518
3058,4.796184171
3059,4.794055447
3060,4.796944422
3061,4.79415399
3062,4.795067779
3063,4.804353947
3064,4.801270499
3065,4.78952647
3066,4.8121596
3067,4.792099846
3068,4.814587549
3069,4.796403006
3070,4.796320439
3071,4.795123952
3072,4.808242364
3073,4.827322919
3074,4.795232176
3075,4.777709689
3076,4.78715677
3077,4.804075925
3078,4.814505132
3079,4.808027509
3080,4.788845869
3081,4.799192465
3082,4.81110677
3083,4.802442672
3084,4.789958004
3085,4.798736898
3086,4.80460104
3087,4.818809538
3088,4.780910457
3089,4.809854294
3090,4.79396267
3091,4.80154613
3092,4.802029062
3093,4.789743782
3094,4.798929842
3095,4.787584825
3096,4.80074119
3097,4.820038054
3098,4.798369167
3099,4.791197512
3100,4.790903934
3101,4.804877815
3102,4.803502431
3103,4.810722437
3104,4.803401898
3105,4.79322161
3106,4.790418242
3107,4.79841736
3108,4.802181057
3109,4.814652837
3110,4.79618075
3111,4.788515212
3112,4.793523701
3113,4.797898508
3114,4.788351405
3115,4.815339788
3116,4.79512598
3117,4.800814142
3118,4.790519293
3119,4.802427374
3120,4.789199146
3121,4.802782232
3122,4.792760711
3123,4.793934134
3124,4.792756749
3125,4.797335899
3126,4.804094043
3127,4.790319052
3128,4.79759762
3129,4.79966462
3130,4.785501459
3131,4.803281163
3132,4.801559593
3133,4.795641467
3134,4.813403324
3135,4.790473755
3136,4.797989827
3137,4.794680142
3138,4.800754221
3139,4.809606795
3140,4.798238077
3141,4.798216107
3142,4.790773327
3143,4.791663471
3144,4.808663832
3145,4.794565859
3146,4.797551905
3147,4.810293744
3148,4.79896552
3149,4.802696819
3150,4.798303956
3151,4.782912113
3152,4.809085294
3153,4.801627208
3154,4.790709504
3155,4.783870333
3156,4.796159117
3157,4.796979445
3158,4.805301844
3159,4.791819577
3160,4.793295741
3161,4.808936622
3162,4.800532145
3163,4.787759746
3164,4.801689431
3165,4.799052468
3166,4.815041846
3167,4.781173619
3168,4.810236992
3169,4.785813325
3170,4.804388037
3171,4.802785038
3172,4.793466092
3173,4.810453393
3174,4.815985013
3175,4.800712994
3176,4.799037032
3177,4.798831757
3178,4.787009131
3179,4.803285869
3180,4.781867017
3181,4.792994854
3182,4.817762155
3183,4.811957879
3184,4.808192958
3185,4.820490881
3186,4.802252458
3187,4.80074897
3188,4.786478224
3189,4.798310586
3190,4.800718976
3191,4.808827782
3192,4.801512962
3193,4.807537532
3194,4.800223803
3195,4.802899616
3196,4.804593869
3197,4.791499299
3198,4.7971687
3199,4.801907562
3200,4.797743788
3201,4.803340715
3202,4.798091562
3203,4.807842636
3204,4.796624749
3205,4.784991222
3206,4.801289286
3207,4.80127029
3208,4.804905624
3209,4.78201673
3210,4.787669961
3211,4.80221871
3212,4.8108262
3213,4.801366928
3214,4.786350221
3215,4.789564748
3216,4.807399652
3217,4.795617035
3218,4.805446352
3219,4.791952218
3220,4.800244967
3221,4.80341567
3222,4.80404856
3223,4.787036166
3224,4.786872842
3225,4.786275458
3226,4.802509868
3227,4.794325274
3228,4.791693612
3229,4.801152576
3230,4.787845256
3231,4.810050435
3232,4.793225077
3233,4.78674695
3234,4.791243865
3235,4.810208228
3236,4.801897485
3237,4.804951681
3238,4.807081008
3239,4.78378042
3240,4.812442093
3241,4.789738864
3242,4.78195102
3243,4.790918505
3244,4.807744279
3245,4.80702327
3246,4.797496713
3247,4.781128753
3248,4.809101631
3249,4.787662384
3250,4.797359572
3251,4.789839912
3252,4.798776719
3253,4.790094058
3254,4.810593941
3255,4.820600272
3256,4.802753567
3257,4.812983721
3258,4.811590732
3259,4.770840585
3260,4.792908526
3261,4.809483414
3262,4.788017182
3263,4.795013469
3264,4.794322765
3265,4.815344252
3266,4.791144345
3267,4.791500673
3268,4.801789283
3269,4.799483427
3270,4.796090753
3271,4.798694746
3272,4.791016747
3273,4.796365174
3274,4.813232608
3275,4.794682704
3276,4.793191135
3277,4.81356158
3278,4.78637187
3279,4.813489916
3280,4.803253472
3281,4.808362405
3282,4.790620651
3283,4.794991494
3284,4.798730961
3285,4.819872137
3286,4.802299514
3287,4.815113261
3288,4.805188931
3289,4.809796721
3290,4.792432284
3291,4.803506622
3292,4.794791888
3293,4.783666497
3294,4.799692777
3295,4.797351337
3296,4.80300672
3297,4.808187406
3298,4.810708734
3299,4.777193131
3300,4.795399354
3301,4.799885396
3302,4.81229231
3303,4.796856476
3304,4.790707508
3305,4.804780436
3306,4.797191166
3307,4.803999459
3308,4.792350306
3309,4.797811624
3310,4.802316655
3311,4.796309852
3312,4.817639316
3313,4.797222852
3314,4.797384304
3315,4.810550248
3316,4.786728185
3317,4.810019721
3318,4.79573315
3319,4.80587368
3320,4.800903599
3321,4.805367253
3322,4.804242257
3323,4.800526606
3324,4.794266851
3325,4.805091058
3326,4.800206988
3327,4.793312605
3328,4.821293851
3329,4.809316146
3330,4.811336911
3331,4.792096636
3332,4.803970716
3333,4.785118876
3334,4.790838093
3335,4.79984259
3336,4.802749839
3337,4.801157054
3338,4.808177775
3339,4.816585733
3340,4.812295722
3341,4.796484604
3342,4.811846675
3343,4.800308931
3344,4.792517771
3345,4.799437027
3346,4.810616467
3347,4.80640292
3348,4.800400057
3349,4.795852841
3350,4.810452054
3351,4.793077249
3352,4.80746011
3353,4.807761153
3354,4.790240341
3355,4.790229244
3356,4.794388675
3357,4.816138669
3358,4.810427039
3359,4.799874248
3360,4.793917942
3361,4.815072143
3362,4.799072581
3363,4.793017289
3364,4.788719923
3365,4.796955116
3366,4.808581394
3367,4.793265875
3368,4.804790972
3369,4.775932357
3370,4.802569835
3371,4.803795809
3372,4.806846739
3373,4.798024252
3374,4.802377622
3375,4.798347454
3376,4.783161363
3377,4.796963527
3378,4.792069546
3379,4.797654816
3380,4.814744736
3381,4.783273696
3382,4.80884991
3383,4.798839047
3384,4.802331224
3385,4.778350019
3386,4.807611906
3387,4.806764649
3388,4.806454724
3389,4.788663896
3390,4.822079977
3391,4.782694438
3392,4.793613573
3393,4.792378225
3394,4.809344509
3395,4.821128155
3396,4.810025007
3397,4.794998078
3398,4.794218941
3399,4.784142661
3400,4.781868558
3401,4.807152517
3402,4.797895106
3403,4.794106124
3404,4.796365447
3405,4.814046934
3406,4.802259674
3407,4.798803035
3408,4.791394027
3409,4.787030805
3410,4.81864061
3411,4.799233455
3412,4.813143182
3413,4.796943508
3414,4.804402986
3415,4.783273298
3416,4.809098267
3417,4.807962464
3418,4.807783563
3419,4.785683349
3420,4.783617897
3421,4.800771953
3422,4.801425489
3423,4.794934458
3424,4.795321238
3425,4.789318771
3426,4.790621156
3427,4.797329526
3428,4.806257065
3429,4.819040105
3430,4.800163841
3431,4.813692389
3432,4.810145483
3433,4.805141203
3434,4.797380081
3435,4.798816713
3436,4.791655388
3437,4.801315222
3438,4.783253066
3439,4.797665309
3440,4.81875962
3441,4.782270262
3442,4.809403039
3443,4.801757592
3444,4.79721905
3445,4.804604831
3446,4.790330651
3447,4.807671723
3448,4.806337067
3449,4.797465447
3450,4.803219742
3451,4.799665624
3452,4.799821414
3453,4.795880611
3454,4.791147478
3455,4.780471188
3456,4.783315399
3457,4.804449242
3458,4.792198594
3459,4.811262285
3460,4.798979647
3461,4.796344856
3462,4.806009528
3463,4.792412021
3464,4.793279573
3465,4.792129667
3466,4.804269223
3467,4.794899638
3468,4.794107449
3469,4.8118489
3470,4.79732222
3471,4.782166008
3472,4.805983189
3473,4.807827569
3474,4.78386032
3475,4.807238352
3476,4.816996483
3477,4.811629545
3478,4.803371585
3479,4.820237366
3480,4.810267954
3481,4.800184038
3482,4.811558295
3483,4.806564648
3484,4.811564293
3485,4.805906495
3486,4.807452977
3487,4.789010865
3488,4.797114219
3489,4.800873526
3490,4.794464402
3491,4.808820268
3492,4.793162145
3493,4.808490251
3494,4.773368962
3495,4.799925429
3496,4.78776548
3497,4.793160024
3498,4.783923807
3499,4.792840116
3500,4.791852573
3501,4.800390475
3502,4.805045602
3503,4.79477048
3504,4.788634981
3505,4.797201262
3506,4.797201406
3507,4.790017421
3508,4.800777465
3509,4.806200507
3510,4.802298377
3511,4.816145755
3512,4.792370665
3513,4.812994115
3514,4.807234878
3515,4.812018624
3516,4.811277922
3517,4.803114564
3518,4.789105587
3519,4.797107759
3520,4.810352622
3521,4.79484535
3522,4.80242197
3523,4.808556548
3524,4.806086054
3525,4.787871777
3526,4.797023105
3527,4.808453663
3528,4.799438709
3529,4.800775461
3530,4.791896078
3531,4.791853054
3532,4.807485024
3533,4.778434665
3534,4.796214633
3535,4.795361041
3536,4.795237744
3537,4.799186184
3538,4.800991451
3539,4.792594517
3540,4.774529098
3541,4.808654048
3542,4.798958665
3543,4.791603245
3544,4.791905999
3545,4.802098008
3546,4.793554143
3547,4.819900855
3548,4.805496592
3549,4.804760151
3550,4.807655779
3551,4.801440704
3552,4.785812258
3553,4.817739451
3554,4.800109753
3555,4.787172794
3556,4.79529973
3557,4.808327784
3558,4.792311217
3559,4.788409889
3560,4.802462168
3561,4.805023824
3562,4.788050156
3563,4.792714149
3564,4.794733711
3565,4.780596331
3566,4.793839937
3567,4.806112833
3568,4.791072829
3569,4.787852256
3570,4.794560598
3571,4.79390558
3572,4.796314069
3573,4.813357782
3574,4.811204472
3575,4.785825079
3576,4.811460173
3577,4.818594732
3578,4.809634937
3579,4.816357685
3580,4.784726379
3581,4.797402215
3582,4.787994572
3583,4.811167937
3584,4.794244446
3585,4.808055818
3586,4.813210585
3587,4.80177658
3588,4.795151116
3589,4.80937736
3590,4.793605185
3591,4.805101071
3592,4.793912767
3593,4.809742593
3594,4.815007864
3595,4.818667621
3596,4.804460355
3597,4.824727537
3598,4.799562745
3599,4.807672066
3600,4.787590548
3601,4.80558461
3602,4.80083519
3603,4.790636496
3604,4.803981513
3605,4.809579798
3606,4.793075654
3607,4.77634127
3608,4.810941563
3609,4.782629082
3610,4.792658689
3611,4.79390172
3612,4.785588086
3613,4.814230812
3614,4.772533522
3615,4.801644292
3616,4.818790989
3617,4.809881088
3618,4.798298548
3619,4.786345597
3620,4.814393423
3621,4.809938997
3622,4.81539492
3623,4.808125071
3624,4.810892838
3625,4.784673992
3626,4.806595102
3627,4.792732922
3628,4.793127445
3629,4.782680944
3630,4.805667124
3631,4.811282824
3632,4.798296189
3633,4.81301836
3634,4.812303867
3635,4.806907616
3636,4.804544943
3637,4.804467918
3638,4.796770459
3639,4.783706089
3640,4.791167467
3641,4.781440016
3642,4.804652415
3643,4.796022574
3644,4.792380207
3645,4.800910826
3646,4.802020991
3647,4.808427336
3648,4.802335686
3649,4.800933218
3650,4.80569561
3651,4.811203118
3652,4.796502981
3653,4.786346411
3654,4.801333982
3655,4.807242126
3656,4.790960024
3657,4.813538541
3658,4.808279087
3659,4.797832552
3660,4.790476927
3661,4.801376864
3662,4.797139044
3663,4.799483106
3664,4.809645307
3665,4.794487953
3666,4.794176585
3667,4.797999627
3668,4.806178495
3669,4.797605735
3670,4.792024151
3671,4.809252089
3672,4.800444272
3673,4.803963511
3674,4.794656057
3675,4.823331816
3676,4.79965918
3677,4.793164524
3678,4.784250132
3679,4.802937892
3680,4.810501627
3681,4.796580616
3682,4.805692488
3683,4.796739495
3684,4.818352111
3685,4.79524803
3686,4.806977179
3687,4.795004879
3688,4.805649426
3689,4.786279198
3690,4.803339006
3691,4.805003821
3692,4.792289788
3693,4.802662959
3694,4.810434501
3695,4.804111283
3696,4.802217672
3697,4.810541032
3698,4.804472602
3699,4.794783469
3700,4.792407319
3701,4.805454267
3702,4.794910953
3703,4.798719204
3704,4.790814283
3705,4.795551986
3706,4.819239985
3707,4.812810692
3708,4.800703057
3709,4.805326449
3710,4.786498868
3711,4.807345397
3712,4.793406254
3713,4.796375007
3714,4.80869685
3715,4.807525756
3716,4.815599256
3717,4.808803744
3718,4.791973032
3719,4.807164072
3720,4.809365346
3721,4.795149514
3722,4.808083374
3723,4.799885945
3724,4.803815016
3725,4.800993816
3726,4.803371125
3727,4.8001103
3728,4.789402379
3729,4.808964291
3730,4.786881154
3731,4.809948891
3732,4.820705864
3733,4.794666613
3734,4.805907196
3735,4.79493271
3736,4.811160945
3737,4.799845412
3738,4.808373113
3739,4.803058169
3740,4.786564066
3741,4.801918442
3742,4.806801044
3743,4.795824645
3744,4.792147329
3745,4.79012628
3746,4.8049079
3747,4.794227316
3748,4.789901236
3749,4.813193568
3750,4.810477582
3751,4.798771093
3752,4.808669944
3753,4.813593511
3754,4.801305698
3755,4.792911614
3756,4.792988227
3757,4.796506218
3758,4.779923932
3759,4.792256527
3760,4.786103954
3761,4.803861195
3762,4.789168673
3763,4.808053165
3764,4.801849264
3765,4.800633426
3766,4.785802855
3767,4.80607886
3768,4.801204013
3769,4.813183507
3770,4.814845525
3771,4.781597046
3772,4.81996814
3773,4.797409328
3774,4.791288335
3775,4.818458087
3776,4.814773503
3777,4.807565922
3778,4.800980719
3779,4.811685642
3780,4.794206007
3781,4.799080125
3782,4.800700001
3783,4.808174305
3784,4.790249567
3785,4.805406383
3786,4.797615478
3787,4.800421105
3788,4.817081085
3789,4.799297909
3790,4.793307958
3791,4.804644252
3792,4.806759966
3793,4.791146803
3794,4.8099744
3795,4.793159631
3796,4.797321007
3797,4.808050794
3798,4.799711334
3799,4.817762819
3800,4.797837288
3801,4.803381835
3802,4.814403629
3803,4.809039178
3804,4.818919558
3805,4.796446885
3806,4.806506509
3807,4.809415837
3808,4.806309182
3809,4.775806774
3810,4.78381159
3811,4.800408852
3812,4.806491745
3813,4.795522688
3814,4.778815553
3815,4.801523428
3816,4.79759145
3817,4.796454327
3818,4.810387796
3819,4.808356446
3820,4.803127368
3821,4.801310863
3822,4.796892468
3823,4.804184336
3824,4.798310236
3825,4.803375754
3826,4.79671813
3827,4.785918933
3828,4.803981644
3829,4.801760658
3830,4.797608131
3831,4.807045916
3832,4.825655257
3833,4.803142051
3834,4.789817676
3835,4.810904969
3836,4.795409576
3837,4.80775883
3838,4.7952991
3839,4.799677173
3840,4.791763475
3841,4.806567358
3842,4.791910892
3843,4.777694774
3844,4.794046161
3845,4.786796015
3846,4.788411179
3847,4.787093288
3848,4.788861364
3849,4.815497806
3850,4.802602994
3851,4.795504958
3852,4.810985018
3853,4.819784763
3854,4.809249718
3855,4.78867054
3856,4.790271084
3857,4.800251957
3858,4.791649154
3859,4.794156082
3860,4.793102516
3861,4.811580731
3862,4.794901877
3863,4.795278709
3864,4.792592848
3865,4.795513703
3866,4.800111868
3867,4.807410702
3868,4.787653935
3869,4.8073637
3870,4.800556882
3871,4.80406379
3872,4.779842271
3873,4.792253262
3874,4.786462907
3875,4.77949361
3876,4.808562765
3877,4.800134905
3878,4.806480416
3879,4.797241455
3880,4.808786446
3881,4.791882289
3882,4.805099666
3883,4.799100929
3884,4.793093302
3885,4.803664164
3886,4.806691243
3887,4.79876839
3888,4.811658534
3889,4.811986302
3890,4.804624086
3891,4.813208078
3892,4.797101162
3893,4.806077737
3894,4.787241739
3895,4.803838927
3896,4.811267583
3897,4.777198396
3898,4.794048359
3899,4.80461711
3900,4.803934097
3901,4.817347786
3902,4.795680453
3903,4.786481505
3904,4.792768535
3905,4.80279167
3906,4.795111053
3907,4.801129713
3908,4.796411294
3909,4.801695429
3910,4.783513565
3911,4.806749057
3912,4.807651972
3913,4.789330997
3914,4.801032162
3915,4.800189047
3916,4.798976361
3917,4.810098245
3918,4.794725069
3919,4.791631414
3920,4.805569657
3921,4.786715641
3922,4.7892545
3923,4.812078076
3924,4.801567475
3925,4.786496649
3926,4.811921015
3927,4.784029468
3928,4.791216342
3929,4.787539671
3930,4.791381275
3931,4.786873113
3932,4.791711722
3933,4.806630893
3934,4.793329046
3935,4.807179395
3936,4.804420669
3937,4.793374796
3938,4.80127564
3939,4.793378673
3940,4.798435973
3941,4.802079222
3942,4.788235788
3943,4.787725961
3944,4.800729932
3945,4.789667146
3946,4.775767274
3947,4.813398868
3948,4.785295538
3949,4.801566687
3950,4.785290881
3951,4.805415107
3952,4.790654741
3953,4.78842598
3954,4.788591635
3955,4.780557681
3956,4.795021656
3957,4.800964111
3958,4.799371814
3959,4.799578332
3960,4.797623004
3961,4.792247527
3962,4.816813035
3963,4.789363968
3964,4.798930292
3965,4.815460385
3966,4.79882926
3967,4.797981117
3968,4.798355317
3969,4.773220779
3970,4.818459131
3971,4.796595386
3972,4.805410495
3973,4.800146475
3974,4.780415559
3975,4.796006662
3976,4.801583402
3977,4.813613506
3978,4.795582451
3979,4.789300358
3980,4.801934975
3981,4.782306651
3982,4.804154343
3983,4.798722109
3984,4.805420808
3985,4.794145094
3986,4.78451431
3987,4.818134832
3988,4.796957635
3989,4.802080096
3990,4.829433338
3991,4.798927293
3992,4.800029948
3993,4.794491329
3994,4.799495662
3995,4.791404919
3996,4.801839325
3997,4.802892275
3998,4.815905392
3999,4.806361767
4000,4.809000633
