Raman Shift,Intensity
213.4319,0.351746
213.914,0.553009
214.3962,1.804169
214.8783,1.924683
215.3604,1.330841
215.8425,0.272858
216.3246,0.216675
216.8067,0.001892
217.2889,0.500214
217.771,1.050415
218.2531,1.683228
218.7352,2.268463
219.2173,2.81192
219.6994,3.29834
220.1816,3.654755
220.6637,3.903656
221.1458,3.98175
221.6279,3.790222
222.11,3.139465
222.5921,2.712219
223.0743,2.591736
223.5564,2.737091
224.0385,3.014709
224.5206,3.601624
225.0027,4.045044
225.4848,3.985687
225.967,3.063049
226.4491,2.55719
226.9312,2.753815
227.4133,3.464569
227.8954,3.759888
228.3775,3.448029
228.8597,2.996552
229.3418,2.648438
229.8239,2.321472
230.306,2.298492
230.7881,2.735138
231.2702,3.502411
231.7524,3.957306
232.2345,3.869476
232.7166,3.76712
233.1987,4.004608
233.6808,4.892426
234.1629,5.396362
234.6451,5.325714
235.1272,4.808319
235.6093,4.435181
236.0914,4.354706
236.5735,4.216034
237.0556,3.784485
237.5378,2.807098
238.0199,2.108948
238.502,1.81076
238.9841,1.83374
239.4662,1.84201
239.9483,1.750977
240.4305,1.783234
240.9126,2.1427
241.3947,3.261749
241.8768,3.738251
242.3589,3.199707
242.841,2.000458
243.3232,1.439178
243.8053,1.974487
244.2874,2.518097
244.7695,2.429474
245.2516,1.132141
245.7337,0.484589
246.2159,0.701355
246.698,1.574249
247.1801,2.533508
247.6622,3.98291
248.1443,4.912567
248.6264,4.668243
249.1086,2.449738
249.5907,1.198517
250.0728,1.080414
250.5549,1.803131
251.037,2.317841
251.5191,2.617035
252.0013,2.733978
252.4834,2.654663
252.9655,2.264832
253.4476,1.981537
253.9297,1.752014
254.4118,1.658356
254.894,1.932739
255.3761,2.808807
255.8582,3.642426
256.3403,4.224121
256.8224,4.649567
257.3046,4.393341
257.7867,3.00589
258.2688,1.212311
258.7509,0.538788
259.233,1.52063
259.7151,2.523224
260.1973,2.888763
260.6794,2.431763
261.1615,2.127655
261.6436,2.017181
262.1257,2.029877
262.6078,2.104614
263.09,2.373505
263.5721,2.3974
264.0542,1.886261
264.5363,0.67276
265.0184,0.111389
265.5005,0.362579
265.9827,1.076965
266.4648,1.840179
266.9469,2.75174
267.429,3.407745
267.9111,3.63504
268.3932,3.400513
268.8754,3.197113
269.3575,3.035065
269.8396,2.874023
270.3217,2.602783
270.8038,2.126465
271.2859,1.87558
271.7681,2.00592
272.2502,2.496796
272.7323,3.036346
273.2144,3.676422
273.6965,4.228302
274.1786,4.405304
274.6608,4.190369
275.1429,4.135803
275.625,4.445587
276.1071,5.015686
276.5892,5.130035
277.0714,4.698456
277.5535,4.158356
278.0356,3.935211
278.5177,4.059998
278.9998,4.16687
279.4819,4.194061
279.9641,4.141663
280.4462,3.974823
280.9283,3.660248
281.4104,3.365112
281.8925,3.205536
282.3746,3.183075
282.8568,3.367584
283.3389,3.967346
283.821,4.641907
284.3031,4.261902
284.7852,2.724213
285.2673,1.077515
285.7495,0.030853
286.2316,0.609589
286.7137,0.807678
287.1958,0.609741
287.6779,0.083526999
288.16,0.881134
288.6422,2.300018
289.1243,3.340881
289.6064,3.039856
290.0885,1.696381
290.5706,1.018677
291.0527,1.27066
291.5349,1.911346
292.017,2.074951
292.4991,1.802948
292.9812,1.616882
293.4633,1.988403
293.9454,2.683197
294.4276,2.864563
294.9097,2.399078
295.3918,1.809814
295.8739,1.737915
296.356,2.120361
296.8381,2.657562
297.3203,3.490906
297.8024,4.328522
298.2845,4.461029
298.7666,3.824677
299.2487,3.005554
299.7308,2.526123
300.213,2.32724
300.6951,2.242554
301.1772,2.21106
301.6593,2.249359
302.1414,2.412598
302.6235,2.698395
303.1057,3.017487
303.5878,3.329102
304.0699,3.589752
304.552,3.678619
305.0341,3.469055
305.5162,3.154999
305.9984,2.870544
306.4805,2.632233
306.9626,2.539825
307.4447,2.844574
307.9268,3.281494
308.4089,3.483185
308.8911,3.24881
309.3732,2.924072
309.8553,2.797241
310.3374,2.818237
310.8195,2.813782
311.3016,2.626831
311.7838,2.398499
312.2659,2.291626
312.748,2.439667
313.2301,2.457123
313.7122,1.851349
314.1943,0.943024
314.6765,0.42038
315.1586,0.962891
315.6407,1.727264
316.1228,2.163788
316.6049,2.120972
317.087,2.099945
317.5692,2.481232
318.0513,2.984009
318.5334,3.210907
319.0155,2.729553
319.4976,2.222626
319.9797,1.956268
320.4619,1.977295
320.944,2.065765
321.4261,2.298981
321.9082,2.50708
322.3903,2.514709
322.8724,1.958954
323.3546,1.533325
323.8367,1.530792
324.3188,1.917664
324.8009,2.069946
325.283,1.512238
325.7651,0.94812
326.2473,0.835846
326.7294,1.982025
327.2115,2.717499
327.6936,2.70105
328.1757,2.084198
328.6578,1.652313
329.14,1.629303
329.6221,1.629852
330.1042,1.4953
330.5863,1.180939
331.0684,0.798157
331.5505,0.190216
332.0327,0.463257
332.5148,0.759949
332.9969,0.661499
333.479,0.27243
333.9611,0.493408
334.4432,1.870392
334.9254,2.5755
335.4075,2.242157
335.8896,1.517242
336.3717,1.322815
336.8538,1.867493
337.3359,2.434113
337.818,2.869476
338.3001,3.172394
338.7823,3.2565
339.2644,3.03952
339.7465,2.781372
340.2286,2.824615
340.7107,3.278595
341.1928,3.39566
341.675,2.91861
342.1571,2.044006
342.6392,1.545715
343.1213,1.467957
343.6034,1.562408
344.0855,1.801819
344.5677,2.181122
345.0498,2.064178
345.5319,1.245605
346.014,0.126221
346.4961,0.50415
346.9782,0.656372
347.4604,0.602448
347.9425,0.474976
348.4246,0.261169
348.9067,0.081940003
349.3888,0.560211
349.8709,1.150421
350.3531,1.976013
350.8352,2.93222
351.3173,3.628723
351.7994,3.901367
352.2815,3.809052
352.7636,3.295959
353.2458,2.35965
353.7279,1.515656
354.21,1.208374
354.6921,1.28418
355.1742,1.488129
355.6563,1.807739
356.1385,2.150085
356.6206,2.484314
357.1027,2.788086
357.5848,2.946594
358.0669,2.969757
358.549,2.782837
359.0312,2.229004
359.5133,1.0271
359.9954,0.034363002
360.4775,0.198486
360.9596,0.142639
361.4417,0.656494
361.9239,1.557098
362.406,2.308441
362.8881,2.542206
363.3702,2.123627
363.8523,1.725586
364.3344,1.673279
364.8166,1.720825
365.2987,1.586792
365.7808,0.726318
366.2629,0.162872
366.745,0.369812
367.2271,1.333588
367.7093,1.975739
368.1914,1.893982
368.6735,1.636597
369.1556,1.555023
369.6377,2.006012
370.1198,2.187958
370.602,1.899231
371.0841,1.290192
371.5662,0.905823
372.0483,0.767731
372.5304,0.822662
373.0125,1.092072
373.4947,1.705231
373.9768,2.167755
374.4589,2.567871
374.941,2.75351
375.4231,2.3703
375.9052,1.130676
376.3874,0.152283
376.8695,0.128784
377.3516,0.271759
377.8337,0.419098
378.3158,0.267029
378.7979,0.037445001
379.2801,0.049072001
379.7622,0.001465
380.2443,0.0081179999
380.7264,0.101013
381.2085,0.246521
381.6906,0.180664
382.1728,0.096129999
382.6549,0.371094
383.137,0.484894
383.6191,0.46344
384.1012,0.367096
384.5833,0.144989
385.0655,0.011139
385.5476,0.346863
386.0297,1.039093
386.5118,1.667877
386.9939,2.084198
387.476,2.30307
387.9582,2.335144
388.4403,2.176178
388.9224,1.899414
389.4045,1.365173
389.8866,0.770599
390.3687,0.480591
390.8509,0.985352
391.333,1.507172
391.8151,1.347046
392.2972,0.656525
392.7793,0.144897
393.2614,0.399933
393.7436,0.816437
394.2257,0.930756
394.7078,0.493561
395.1899,0.152802
395.672,0.196747
396.1541,0.465698
396.6363,0.70462
397.1184,0.740631
397.6005,0.834778
398.0826,1.20636
398.5647,1.948334
399.0468,2.221405
399.529,1.302551
400.0111,0.243469
400.4932,0.108612
400.9753,0.794373
401.4574,1.69519
401.9395,2.65863
402.4217,3.575562
402.9038,3.820648
403.3859,2.917847
403.868,2.042633
404.3501,1.816986
404.8322,2.596863
405.3144,2.895416
405.7965,2.596527
406.2786,1.963623
406.7607,1.29715
407.2428,0.500702
407.7249,0.090790004
408.2071,0.350159
408.6892,1.165314
409.1713,1.913788
409.6534,2.636841
410.1355,3.047699
410.6176,2.544586
411.0998,1.350952
411.5819,0.877991
412.064,1.61087
412.5461,2.823853
413.0282,3.343781
413.5103,3.269348
413.9925,3.141174
414.4746,3.343781
414.9567,3.692108
415.4388,3.861328
415.9209,3.807648
416.403,3.778259
416.8852,4.178497
417.3673,4.70047
417.8494,4.832153
418.3315,4.166901
418.8136,3.24649
419.2957,2.203522
419.7779,1.104156
420.26,0.298798
420.7421,0.122437
421.2242,0.209778
421.7063,0.323059
422.1884,0.510345
422.6706,0.563843
423.1527,0.288544
423.6348,0.135223
424.1169,0.371582
424.599,0.431335
425.0811,0.235718
425.5633,0.382019
426.0454,1.555695
426.5275,2.200317
427.0096,2.039307
427.4917,1.560059
427.9738,1.127167
428.456,0.65097
428.9381,0.411041
429.4202,0.53656
429.9023,0.898834
430.3844,1.060547
430.8665,0.964172
431.3487,0.879303
431.8308,0.905914
432.3129,1.028625
432.795,1.127411
433.2771,1.203094
433.7592,1.236664
434.2414,1.225128
434.7235,1.163574
435.2056,1.004242
435.6877,0.575043
436.1698,0.066711001
436.6519,0.023833999
437.1341,0.363678
437.6162,0.937531
438.0983,1.575714
438.5804,2.223816
439.0625,2.850677
439.5446,3.550934
440.0268,4.002411
440.5089,3.837433
440.991,3.227783
441.4731,2.531128
441.9552,1.545624
442.4373,0.800201
442.9195,0.853729
443.4016,1.691803
443.8837,2.209351
444.3658,1.333862
444.8479,0.289337
445.33,0.060913
445.8122,1.742218
446.2943,3.056213
446.7764,3.493683
447.2585,3.28775
447.7406,3.036469
448.2227,2.470856
448.7049,2.181396
449.187,2.496979
449.6691,3.620331
450.1512,4.105469
450.6333,3.715668
451.1154,2.951324
451.5976,2.194458
452.0797,1.335632
452.5618,0.937164
453.0439,1.263489
453.526,2.024109
454.0081,2.320129
454.4903,2.106323
454.9724,1.740479
455.4545,1.296722
455.9366,0.82309
456.4187,0.627045
456.9008,0.705444
457.383,1.114166
457.8651,2.200195
458.3472,3.707336
458.8293,4.80127
459.3114,5.187683
459.7935,5.033234
460.2757,4.363892
460.7578,3.263824
461.2399,2.169495
461.722,1.120544
462.2041,0.328491
462.6862,0.12262
463.1684,0.693939
463.6505,1.205597
464.1326,1.120026
464.6147,0.759216
465.0968,0.538788
465.5789,0.711426
466.0611,0.92511
466.5432,1.123718
467.0253,1.300659
467.5074,1.392242
467.9895,1.399689
468.4716,1.319153
468.9538,1.133972
469.4359,0.756958
469.918,0.450836
470.4001,0.136017
470.8822,0.062987998
471.3643,0.131012
471.8465,0.956818
472.3286,1.434937
472.8107,1.154938
473.2928,0.300354
473.7749,0.026611
474.257,0.233734
474.7392,0.705811
475.2213,1.255737
475.7034,1.831207
476.1855,2.013855
476.6676,1.690948
477.1497,1.218475
477.6319,1.086548
478.114,1.212402
478.5961,1.31958
479.0782,1.230408
479.5603,1.099457
480.0424,1.193176
480.5246,1.467499
481.0067,1.562897
481.4888,0.884308
481.9709,0.112061
482.453,0.061248999
482.9352,0.774719
483.4173,1.553955
483.8994,1.91803
484.3815,1.934509
484.8636,1.704193
485.3457,0.68457
485.8279,0.002197
486.31,0.228851
486.7921,1.380432
487.2742,1.800323
487.7563,1.019348
488.2384,0.002106
488.7206,0.750244
489.2027,1.245239
489.6848,1.393799
490.1669,1.03894
490.649,0.496094
491.1311,0.262695
491.6133,0.37204
492.0954,0.606262
492.5775,1.062286
493.0596,1.553009
493.5417,1.190216
494.0238,0.026276
494.506,1.179932
494.9881,1.562714
495.4702,1.352203
495.9523,0.923126
496.4344,0.224731
496.9165,0.255096
497.3987,0.206177
497.8808,1.212952
498.3629,2.01059
498.845,2.152161
499.3271,2.102692
499.8092,2.093323
500.2914,2.136902
500.7735,2.260193
501.2556,2.711151
501.7377,3.086121
502.2198,3.118164
502.7019,2.630829
503.1841,2.204437
503.6662,1.869873
504.1483,1.667236
504.6304,1.658508
505.1125,1.978149
505.5946,2.273407
506.0768,2.507538
506.5589,2.674988
507.041,2.717224
507.5231,2.533813
508.0052,2.490845
508.4873,2.88443
508.9695,3.710724
509.4516,4.246765
509.9337,4.455994
510.4158,4.490601
510.8979,4.415009
511.38,4.281982
511.8622,4.361267
512.3443,4.826447
512.8264,5.385345
513.3085,5.582001
513.7906,5.523743
514.2728,5.593201
514.7549,6.384125
515.237,7.156128
515.7191,7.122711
516.2012,6.18454
516.6833,5.395416
517.1655,5.309082
517.6476,5.554657
518.1297,5.818665
518.6118,6.156311
519.0939,6.364197
519.576,6.157288
520.0582,5.814331
520.5403,6.004364
521.0224,7.141388
521.5045,8.227783
521.9866,8.997101
522.4688,9.449402
522.9509,9.826355
523.433,10.12317
523.9151,10.34906
524.3972,10.45447
524.8793,10.42987
525.3615,10.53448
525.8436,10.76083
526.3257,11.19717
526.8078,12.27472
527.2899,13.78696
527.772,14.7121
528.2542,14.31656
528.7363,13.3544
529.2184,12.66943
529.7005,12.27808
530.1826,12.28897
530.6647,13.3078
531.1469,14.43619
531.629,14.81915
532.1111,14.20035
532.5932,13.60678
533.0753,13.39288
533.5574,13.44058
534.0396,13.6282
534.5217,14.0058
535.0038,14.45337
535.4859,15.09271
535.968,15.80585
536.4501,16.18008
536.9323,15.92319
537.4144,15.83142
537.8965,16.29105
538.3786,17.3186
538.8607,17.931
539.3428,18.04501
539.825,17.96417
540.3071,17.91794
540.7892,17.91428
541.2713,17.92871
541.7534,17.95563
542.2355,17.99756
542.7177,18.00861
543.1998,18.02872
543.6819,18.18097
544.164,18.75397
544.6461,19.32916
545.1282,19.36542
545.6104,18.97247
546.0925,18.82562
546.5746,19.56531
547.0567,20.41171
547.5388,20.8183
548.0209,20.58017
548.5031,20.47632
548.9852,20.89493
549.4673,21.36459
549.9494,21.37543
550.4315,20.29718
550.9136,19.71774
551.3958,20.13028
551.8779,21.21896
552.36,21.76233
552.8421,21.64023
553.3242,21.38126
553.8063,21.22864
554.2885,21.15433
554.7706,20.8161
555.2527,20.22079
555.7348,19.66385
556.2169,19.45703
556.699,19.50717
557.1812,19.5939
557.6633,19.69128
558.1454,19.75601
558.6275,19.72208
559.1096,19.6344
559.5917,19.56784
560.0739,19.50079
560.556,19.51785
561.0381,19.77457
561.5202,20.17377
562.0023,20.32111
562.4844,19.8349
562.9666,19.35666
563.4487,19.24057
563.9308,19.59018
564.4129,19.6618
564.895,19.30103
565.3771,18.80533
565.8593,18.38629
566.3414,18.01138
566.8235,17.83774
567.3056,17.93442
567.7877,18.15271
568.2698,18.23212
568.752,18.18707
569.2341,18.12881
569.7162,18.20029
570.1983,18.22949
570.6804,17.78519
571.1625,16.94318
571.6447,16.18881
572.1268,15.767
572.6089,15.63522
573.091,15.9509
573.5731,16.85065
574.0552,17.26929
574.5374,16.23358
575.0195,14.7338
575.5016,13.69128
575.9837,13.43329
576.4658,13.44388
576.9479,13.8981
577.4301,14.5213
577.9122,14.78085
578.3943,14.56866
578.8764,14.15888
579.3585,13.49908
579.8406,12.66882
580.3228,12.33112
580.8049,12.55054
581.287,12.83878
581.7691,12.84604
582.2512,12.6528
582.7333,12.6889
583.2155,13.03366
583.6975,13.1424
584.1796,12.073
584.6617,10.5329
585.1439,9.747498
585.626,10.43256
586.1081,11.26868
586.5902,11.51749
587.0723,11.3425
587.5544,11.05368
588.0366,10.47989
588.5187,10.0603
589.0008,10.03452
589.4829,10.3678
589.965,10.46597
590.4471,10.19287
590.9293,9.831329
591.4114,9.449921
591.8935,8.990784
592.3756,8.937225
592.8577,9.414124
593.3398,9.952332
593.822,10.08646
594.3041,9.84726
594.7862,9.434662
595.2683,8.849304
595.7504,8.212494
596.2325,7.593079
596.7147,7.04187
597.1968,6.688843
597.6789,6.75531
598.161,6.908875
598.6431,6.976807
599.1252,6.946289
599.6074,6.765686
600.0895,6.464813
600.5716,5.969604
601.0537,5.086792
601.5358,3.600037
602.0179,2.809021
602.5001,3.207642
602.9822,3.825104
603.4643,3.93222
603.9464,3.392212
604.4285,2.885132
604.9106,2.448608
605.3928,2.058594
605.8749,1.646698
606.357,1.220703
606.8391,0.926514
607.3212,0.905792
607.8033,0.910797
608.2855,0.369965
608.7676,0.528259
609.2497,1.096863
609.7318,0.593689
610.2139,0.120514
610.696,0.341187
611.1782,0.047332998
611.6603,0.242432
612.1424,0.269897
612.6245,0.291626
613.1066,0.482056
613.5887,0.979431
614.0709,1.34256
614.553,1.56073
615.0351,1.643372
615.5172,1.556274
615.9993,1.223206
616.4814,1.053497
616.9636,1.145447
617.4457,1.366333
617.9278,1.508453
618.4099,1.567871
618.892,1.485413
619.3741,1.049805
619.8563,0.601196
620.3384,0.818268
620.8205,1.559723
621.3026,2.102295
621.7847,1.856964
622.2668,1.379761
622.749,1.088135
623.2311,1.035614
623.7132,0.942841
624.1953,0.681274
624.6774,0.378143
625.1595,0.119904
625.6417,0.063049003
626.1238,0.288879
626.6059,0.580963
627.088,0.903412
627.5701,1.235382
628.0522,1.595825
628.5344,1.778992
629.0165,1.635864
629.4986,1.449951
629.9807,1.781158
630.4628,2.578461
630.9449,3.554047
631.4271,4.830109
631.9092,6.040009
632.3913,6.693329
632.8734,6.860443
633.3555,7.007996
633.8376,7.339874
634.3198,7.740356
634.8019,8.179291
635.284,8.687439
635.7661,9.041077
636.2482,9.187286
636.7303,9.207611
637.2125,9.113251
637.6946,8.766327
638.1767,8.756805
638.6588,9.19751
639.1409,9.833191
639.623,10.3678
640.1052,10.80035
640.5873,10.97156
641.0694,10.75879
641.5515,10.41278
642.0336,10.24002
642.5157,10.23682
642.9979,10.39508
643.48,10.89581
643.9621,11.39716
644.4442,11.57013
644.9263,11.48331
645.4084,11.55634
645.8906,12.41794
646.3727,13.03619
646.8548,12.74207
647.3369,11.35077
647.819,10.55045
648.3011,10.57434
648.7833,10.85062
649.2654,10.94525
649.7475,10.83408
650.2296,10.92764
650.7117,11.3028
651.1938,11.67514
651.676,11.4888
652.1581,10.98392
652.6402,10.9549
653.1223,11.776
653.6044,12.77194
654.0865,13.40094
654.5687,13.76932
655.0508,14.08984
655.5329,14.4884
656.015,14.81125
656.4971,14.87717
656.9792,14.77698
657.4614,14.98605
657.9435,15.66492
658.4256,16.45938
658.9077,17.38513
659.3898,18.41263
659.8719,18.72171
660.3541,18.17679
660.8362,17.5473
661.3183,17.24216
661.8004,17.28638
662.2825,17.93057
662.7646,19.22678
663.2468,20.44897
663.7289,20.73715
664.211,20.65543
664.6931,20.98041
665.1752,22.0589
665.6573,23.10211
666.1395,23.55756
666.6216,23.82849
667.1037,24.47488
667.5858,26.28949
668.0679,27.72473
668.55,28.42245
669.0322,28.70285
669.5143,29.29684
669.9964,30.28314
670.4785,31.30426
670.9606,32.28748
671.4427,33.16876
671.9249,33.69623
672.407,33.93475
672.8891,34.33987
673.3712,35.34814
673.8533,36.58865
674.3354,37.45633
674.8176,37.99167
675.2997,38.86432
675.7818,41.15216
676.2639,43.32553
676.746,44.2746
677.2281,43.41431
677.7103,43.20538
678.1924,43.87228
678.6745,44.96155
679.1566,46.30991
679.6387,48.13138
680.1208,49.40991
680.603,49.93332
681.0851,50.30261
681.5672,51.3779
682.0493,53.01727
682.5314,54.73148
683.0135,56.57407
683.4957,57.96051
683.9778,57.99799
684.4599,57.15311
684.942,56.30573
685.4241,55.61731
685.9063,55.15982
686.3884,54.98523
686.8705,55.06992
687.3526,55.34436
687.8347,56.16574
688.3168,56.65598
688.799,56.47986
689.2811,55.76062
689.7632,55.34921
690.2453,55.30853
690.7274,55.17169
691.2095,54.50775
691.6917,53.55106
692.1738,53.10535
692.6559,53.15265
693.138,53.07721
693.6201,52.20932
694.1022,51.12152
694.5844,50.453
695.0665,50.38379
695.5486,50.02228
696.0307,48.68341
696.5128,47.16711
696.9949,46.13028
697.4771,46.04584
697.9592,45.42786
698.4413,43.98679
698.9234,42.40344
699.4055,41.70465
699.8876,41.92471
700.3698,41.45773
700.8519,39.88336
701.334,37.96988
701.8161,36.79639
702.2982,36.14972
702.7803,35.47751
703.2625,34.42804
703.7446,33.47141
704.2267,33.07584
704.7088,32.99991
705.1909,32.71451
705.673,31.66013
706.1552,30.85071
706.6373,30.6308
707.1194,30.84903
707.6015,30.79825
708.0836,30.35077
708.5657,29.9953
709.0479,30.02347
709.53,30.28275
710.0121,30.03558
710.4942,29.29987
710.9763,28.64551
711.4584,28.57422
711.9406,28.74216
712.4227,28.65945
712.9048,28.30011
713.3869,28.09689
713.869,28.73157
714.3511,29.28741
714.8333,29.09305
715.3154,27.77014
715.7975,26.72128
716.2796,26.0332
716.7617,25.53598
717.2438,25.10883
717.726,24.76617
718.2081,24.43753
718.6902,24.0697
719.1723,23.90744
719.6544,24.56506
720.1365,25.66229
720.6187,26.12238
721.1008,25.46176
721.5829,24.79959
722.065,24.95273
722.5471,25.62949
723.0292,26.45322
723.5114,27.51218
723.9935,28.46133
724.4756,29.35425
724.9577,30.01187
725.4398,30.10226
725.9219,29.28961
726.4041,28.93097
726.8862,29.33975
727.3683,30.35187
727.8504,32.08905
728.3325,34.36203
728.8146,35.79626
729.2968,35.2117
729.7789,33.96631
730.261,33.56607
730.7431,33.75183
731.2252,33.77887
731.7073,33.03864
732.1895,32.42676
732.6716,32.36862
733.1537,32.81128
733.6358,33.19666
734.1179,33.72174
734.6,33.9014
735.0822,33.39288
735.5643,32.29791
736.0464,31.57559
736.5285,31.23587
737.0106,31.13913
737.4927,31.47614
737.9749,31.88541
738.457,31.6405
738.9391,30.72745
739.4212,29.81119
739.9033,29.53226
740.3854,29.21832
740.8676,28.27545
741.3497,26.34787
741.8318,24.99503
742.3139,24.61212
742.796,24.42056
743.2781,23.89374
743.7603,22.97626
744.2424,22.11346
744.7245,21.35818
745.2066,20.59375
745.6887,19.56
746.1708,18.36581
746.653,17.38318
747.1351,16.7334
747.6172,16.20676
748.0993,15.74832
748.5814,15.27979
749.0635,14.70392
749.5457,13.75763
750.0278,13.08072
750.5099,12.84213
750.992,12.84204
751.4741,12.96466
751.9562,13.36627
752.4384,13.08224
752.9205,11.79404
753.4026,10.15213
753.8847,9.142792
754.3668,8.674561
754.8489,8.399017
755.3311,8.274261
755.8132,8.178802
756.2953,7.978394
756.7774,7.740448
757.2595,7.58783
757.7416,8.047607
758.2238,8.028778
758.7059,6.895447
759.188,5.227051
759.6701,4.241577
760.1522,4.144287
760.6343,4.067535
761.1165,3.763733
761.5986,3.384094
762.0807,3.456573
762.5628,3.863953
763.0449,3.897675
763.527,2.808777
764.0092,1.574219
764.4913,1.147583
764.9734,1.335052
765.4555,1.528717
765.9376,1.443481
766.4197,1.391449
766.9019,1.61496
767.384,1.987579
767.8661,1.86084
768.3482,1.057922
768.8303,0.249115
769.3124,0.383362
769.7946,0.786896
770.2767,0.732605
770.7588,0.249176
771.2409,0.400269
771.723,1.397095
772.2051,2.244415
772.6873,2.352234
773.1694,1.793243
773.6515,1.186951
774.1336,0.675293
774.6157,0.240723
775.0978,0.148163
775.58,0.486389
776.0621,0.598541
776.5442,0.40155
777.0263,0.209656
777.5084,0.271301
777.9905,0.492676
778.4727,0.322845
778.9548,0.207611
779.4369,0.600403
779.919,0.346161
780.4011,0.127045
780.8832,0.49826
781.3654,0.736084
781.8475,0.652283
782.3296,0.478638
782.8117,1.328064
783.2938,1.104675
783.7759,0.336548
784.2581,1.104797
784.7402,1.039246
785.2223,0.764038
785.7044,0.623352
786.1865,0.613831
786.6686,0.824982
787.1508,1.249054
787.6329,1.530457
788.115,1.213043
788.5971,0.746613
789.0792,0.636078
789.5613,0.993988
790.0435,1.143585
790.5256,0.736969
791.0077,0.258301
791.4898,0.024811
791.9719,0.058990002
792.454,0.213074
792.9362,0.508881
793.4183,0.785156
793.9004,0.823792
794.3825,0.736786
794.8646,0.919952
795.3467,1.408752
795.8289,1.773926
796.311,1.676788
796.7931,1.348358
797.2752,0.955505
797.7573,0.50351
798.2394,0.087402001
798.7216,0.321869
799.2037,0.636658
799.6858,0.779663
800.1679,0.724457
800.65,0.635132
801.1321,0.493073
801.6143,0.402802
802.0964,0.615967
802.5785,0.905975
803.0606,0.8255
803.5427,0.314178
804.0248,0.395966
804.507,1.619141
804.9891,2.670441
805.4712,2.940521
805.9533,2.020142
806.4354,1.373047
806.9175,0.98999
807.3997,0.898132
807.8818,1.244049
808.3639,2.008026
808.846,2.499023
809.3281,2.691345
809.8102,2.637604
810.2924,2.129822
810.7745,1.524323
811.2566,1.380188
811.7387,1.825226
812.2208,2.204651
812.7029,2.14505
813.1851,2.011963
813.6672,2.082214
814.1493,2.439331
814.6314,2.634583
815.1135,2.582642
815.5956,2.575867
816.0778,3.015259
816.5599,3.729095
817.042,3.746429
817.5241,2.994934
818.0062,2.402954
818.4883,2.961487
818.9705,3.856659
819.4526,4.221436
819.9347,3.844482
820.4168,3.710236
820.8989,4.290222
821.381,4.918549
821.8632,5.291901
822.3453,5.406372
822.8274,5.317322
823.3095,5.01944
823.7916,4.607788
824.2737,4.015686
824.7559,3.418365
825.238,3.271667
825.7201,3.589996
826.2022,3.825623
826.6843,3.656372
827.1664,3.279877
827.6486,2.734161
828.1307,1.973816
828.6128,1.581268
829.0949,1.590698
829.577,1.869843
830.0591,2.527618
830.5413,3.477142
831.0234,3.66153
831.5055,3.088104
831.9876,2.57254
832.4697,2.872345
832.9518,3.41983
833.434,3.502869
833.9161,3.133392
834.3982,3.016724
834.8803,3.910004
835.3624,4.574951
835.8445,4.326233
836.3267,3.241302
836.8088,2.766327
837.2909,2.990204
837.773,3.391083
838.2551,3.773468
838.7372,4.080078
839.2194,4.196747
839.7015,4.150696
840.1836,4.018188
840.6657,3.393677
841.1478,3.017761
841.6299,3.643402
842.1121,5.07605
842.5942,5.735901
843.0763,5.065948
843.5584,4.510468
844.0405,4.628174
844.5226,5.141022
845.0048,4.912323
845.4869,3.992859
845.969,3.126801
846.4511,2.637573
846.9332,2.408905
847.4153,2.422089
847.8975,2.612274
848.3796,2.788788
848.8617,2.745209
849.3438,2.844818
849.8259,3.346466
850.308,4.019135
850.7902,4.112793
851.2723,3.464417
851.7544,3.280823
852.2365,4.139618
852.7186,5.277924
853.2007,5.195953
853.6829,4.267822
854.165,3.515533
854.6471,3.344727
855.1292,3.41861
855.6113,3.646667
856.0934,3.96936
856.5756,4.325348
857.0577,4.834869
857.5398,5.121277
858.0219,5.10144
858.504,4.944946
858.9861,4.938782
859.4683,5.043823
859.9504,5.037354
860.4325,4.836426
860.9146,4.621155
861.3967,4.537231
861.8788,4.565918
862.361,4.670593
862.8431,5.07251
863.3252,5.084503
863.8073,4.417847
864.2894,3.612823
864.7715,3.251282
865.2537,3.369324
865.7358,3.320801
866.2179,3.055573
866.7,2.672791
867.1821,2.173859
867.6642,1.673309
868.1464,1.279236
868.6285,0.968353
869.1106,1.041138
869.5927,2.156677
870.0748,3.241211
870.5569,3.476288
871.0391,2.638763
871.5212,2.494476
872.0033,3.184052
872.4854,3.940063
872.9675,4.104187
873.4496,3.898346
873.9318,3.78244
874.4139,3.77655
874.896,3.972748
875.3781,4.921143
875.8602,5.650818
876.3423,5.346771
876.8245,3.995911
877.3066,3.256073
877.7887,3.49295
878.2708,3.604584
878.7529,2.974854
879.235,1.939423
879.7172,1.763916
880.1993,2.336334
880.6814,2.847961
881.1635,2.757874
881.6456,2.56131
882.1277,2.557861
882.6099,2.733734
883.092,3.052673
883.5741,3.837982
884.0562,4.238434
884.5383,3.917633
885.0204,3.266327
885.5026,3.199097
885.9847,3.668884
886.4668,4.119049
886.9489,4.443756
887.431,4.580841
887.9131,4.166412
888.3953,3.548676
888.8774,3.234406
889.3595,3.790497
889.8416,4.021332
890.3237,3.583588
890.8058,2.927277
891.288,2.485077
891.7701,2.270142
892.2522,2.20871
892.7343,2.315582
893.2164,2.429565
893.6985,2.337921
894.1807,2.160461
894.6628,2.119934
895.1449,2.290314
895.627,2.277832
896.1091,1.690369
896.5912,1.096649
897.0734,0.88739
897.5555,1.123077
898.0376,1.024567
898.5197,0.536743
899.0018,0.100586
899.4839,0.101105
899.9661,0.340088
900.4482,0.3797
900.9303,0.272552
901.4124,0.379211
901.8945,1.356445
902.3766,2.120697
902.8588,1.908356
903.3409,0.981049
903.823,0.566376
904.3051,0.714264
904.7872,1.100189
905.2693,1.774689
905.7515,2.512238
906.2336,2.793945
906.7157,2.7211
907.1978,2.582214
907.6799,2.387878
908.162,2.286621
908.6442,2.463593
909.1263,2.745972
909.6084,2.848846
910.0905,2.730743
910.5726,2.559265
911.0547,2.359192
911.5369,2.099548
912.019,1.611572
912.5011,1.03775
912.9832,0.809753
913.4653,1.036652
913.9474,1.375824
914.4296,1.638702
914.9117,1.896576
915.3938,2.223053
915.8759,2.650848
916.358,3.009491
916.8401,3.339752
917.3223,3.477448
917.8044,3.158234
918.2865,2.543549
918.7686,2.377563
919.2507,2.613953
919.7328,2.716064
920.215,2.198517
920.6971,1.589294
921.1792,1.264923
921.6613,1.207489
922.1434,1.084778
922.6255,0.822083
923.1077,0.838776
923.5898,1.412903
924.0719,2.159058
924.554,1.921936
925.0361,0.999512
925.5182,0.677002
926.0004,1.91571
926.4825,3.06189
926.9646,2.876373
927.4467,2.003052
927.9288,1.413635
928.4109,1.293793
928.8931,1.220428
929.3752,1.197754
929.8573,1.169769
930.3394,1.081696
930.8215,0.940582
931.3036,0.738983
931.7858,0.473236
932.2679,0.268707
932.75,0.285645
933.2321,0.37326
933.7142,0.468201
934.1964,0.594513
934.6785,0.447845
935.1606,0.10379
935.6427,0.582794
936.1248,0.724487
936.6069,0.604004
937.0891,0.459656
937.5712,0.284576
938.0533,0.049072001
938.5354,0.276611
939.0175,0.644104
939.4996,1.173553
939.9818,1.696594
940.4639,1.694641
940.946,0.784546
941.4281,0.331696
941.9102,0.653595
942.3923,1.367004
942.8745,2.146973
943.3566,2.812225
943.8387,2.593994
944.3208,0.922272
944.8029,0.188049
945.285,1.029694
945.7672,2.962524
946.2493,4.082916
946.7314,4.144104
947.2135,4.328888
947.6956,4.7724
948.1777,4.87323
948.6599,3.750885
949.142,2.057434
949.6241,1.459534
950.1062,1.886902
950.5883,2.438568
951.0704,2.910431
951.5526,3.110199
952.0347,2.755157
952.5168,2.022491
952.9989,1.481812
953.481,1.063904
953.9631,1.269043
954.4453,2.556213
954.9274,3.966736
955.4095,3.663879
955.8916,2.317261
956.3737,1.358185
956.8558,1.386688
957.338,1.567688
957.8201,1.847198
958.3022,2.002258
958.7843,1.779205
959.2664,1.080658
959.7485,0.606262
960.2307,0.397583
960.7128,0.256592
961.1949,0.245667
961.677,0.660919
962.1591,0.052948002
962.6412,1.548187
963.1234,2.563965
963.6055,1.790039
964.0876,1.049377
964.5697,1.001465
965.0518,1.49054
965.5339,1.915619
966.0161,2.27243
966.4982,2.416931
966.9803,2.204285
967.4624,1.894653
967.9445,1.766693
968.4266,1.748413
968.9088,1.722412
969.3909,1.701752
969.873,1.60379
970.3551,1.349731
970.8372,1.117645
971.3193,1.186951
971.8015,1.507629
972.2836,1.531158
972.7657,1.213776
973.2478,0.849854
973.7299,0.632751
974.212,0.499725
974.6942,0.325378
975.1763,0.111328
975.6584,0.335938
976.1405,1.325867
976.6226,2.089905
977.1047,2.303284
977.5869,2.009064
978.069,0.87796
978.5511,0.739807
979.0332,1.516266
979.5153,0.391571
979.9974,0.918335
980.4796,1.700317
980.9617,2.013977
981.4438,1.915649
981.9259,1.158691
982.408,0.827942
982.8901,1.056396
983.3723,1.404602
983.8544,1.413757
984.3365,1.244751
984.8186,1.204285
985.3007,1.320862
985.7828,1.462402
986.265,1.571655
986.7471,1.70636
987.2292,1.984497
987.7113,2.312866
988.1934,2.009583
988.6755,1.019836
989.1577,0.634827
989.6398,1.698792
990.1219,2.991821
990.604,2.874512
991.0861,1.997681
991.5682,1.466431
992.0504,1.893127
992.5325,2.215576
993.0146,2.31488
993.4967,2.287781
993.9788,2.298462
994.4609,2.341919
994.9431,2.190857
995.4252,1.838806
995.9073,1.419983
996.3894,0.82782
996.8715,0.363342
997.3536,0.366943
997.8358,0.798279
998.3179,0.947876
998.8,0.666748
999.2821,0.465637
999.7642,0.548767
1000.246,0.737183
1000.728,0.591064
1001.211,0.254456
1001.693,0.114258
1002.175,0.386597
1002.657,0.631409
1003.139,0.795288
1003.621,0.81842
1004.103,0.595154
1004.585,0.002502
1005.068,0.023560001
1005.55,0.575745
1006.032,1.125244
1006.514,0.885681
1006.996,0.440491
1007.478,0.517334
1007.96,1.07489
1008.442,1.714783
1008.924,2.733398
1009.407,3.256958
1009.889,2.970825
1010.371,2.224487
1010.853,1.761047
1011.335,1.52179
1011.817,1.102661
1012.299,0.358154
1012.781,0.312683
1013.263,0.607056
1013.746,0.66687
1014.228,0.607178
1014.71,0.416626
1015.192,0.145447
1015.674,0.251587
1016.156,0.634949
1016.638,0.921265
1017.12,1.106079
1017.603,1.076477
1018.085,0.893494
1018.567,0.781372
1019.049,0.609131
1019.531,0.736389
1020.013,1.569092
1020.495,2.624084
1020.977,3.190002
1021.459,3.245239
1021.942,3.255676
1022.424,3.285156
1022.906,3.235229
1023.388,2.935608
1023.87,2.57019
1024.352,2.359558
1024.834,2.352295
1025.316,2.247498
1025.799,2.082458
1026.281,1.719788
1026.763,0.945251
1027.245,0.088257
1027.727,0.070983998
1028.209,0.701233
1028.691,1.33905
1029.173,1.829285
1029.656,2.130676
1030.138,1.969849
1030.62,1.750916
1031.102,1.976135
1031.584,2.80896
1032.066,3.009827
1032.548,2.487183
1033.03,1.949463
1033.512,2.032776
1033.995,2.441833
1034.477,2.882141
1034.959,3.323853
1035.441,3.748169
1035.923,4.428162
1036.405,4.557922
1036.887,3.843506
1037.369,2.835449
1037.851,2.249146
1038.334,2.030029
1038.816,2.122559
1039.298,2.580811
1039.78,3.065979
1040.262,3.412598
1040.744,3.692566
1041.226,4.103699
1041.708,4.714478
1042.191,4.169373
1042.673,2.293152
1043.155,0.763916
1043.637,0.720825
1044.119,1.328186
1044.601,1.540222
1045.083,1.479431
1045.565,1.414246
1046.047,1.55481
1046.53,1.452209
1047.012,0.858154
1047.494,0.334412
1047.976,0.655701
1048.458,1.618774
1048.94,2.205444
1049.422,2.344849
1049.904,2.372986
1050.386,2.401001
1050.869,2.472534
1051.351,2.685791
1051.833,2.970459
1052.315,3.046753
1052.797,2.900513
1053.279,2.560486
1053.761,1.903381
1054.243,1.395386
1054.726,1.854431
1055.208,2.744202
1055.69,3.337585
1056.172,3.479675
1056.654,3.247559
1057.136,2.299133
1057.618,1.669006
1058.1,2.252441
1058.583,3.604858
1059.065,3.85553
1059.547,3.220764
1060.029,2.695862
1060.511,3.244324
1060.993,3.495728
1061.475,2.313232
1061.957,0.791443
1062.439,0.56073
1062.922,1.831177
1063.404,2.52478
1063.886,2.428101
1064.368,2.181702
1064.85,2.338013
1065.332,2.650452
1065.814,2.997986
1066.296,3.324158
1066.778,3.151733
1067.261,2.099426
1067.743,1.341064
1068.225,1.212097
1068.707,1.457764
1069.189,1.677246
1069.671,1.888
1070.153,2.170471
1070.635,2.593933
1071.118,2.789185
1071.6,2.675598
1072.082,2.218994
1072.564,1.188477
1073.046,0.283997
1073.528,0.567932
1074.01,0.20929
1074.492,0.873291
1074.974,0.765503
1075.457,0.43634
1075.939,0.059937
1076.421,0.18988
1076.903,0.080627002
1077.385,1.22998
1077.867,1.712524
1078.349,1.317261
1078.831,0.827515
1079.313,1.094727
1079.796,1.650513
1080.278,1.745361
1080.76,1.409058
1081.242,1.141113
1081.724,1.045105
1082.206,1.131836
1082.688,1.522583
1083.17,1.953735
1083.652,1.872131
1084.135,1.40564
1084.617,0.990112
1085.099,0.691833
1085.581,0.585144
1086.063,0.988953
1086.545,1.348267
1087.027,1.270935
1087.509,0.814209
1087.992,0.597107
1088.474,0.624695
1088.956,0.544189
1089.438,0.070618004
1089.92,0.321106
1090.402,0.030396
1090.884,0.66748
1091.366,0.917908
1091.849,0.371216
1092.331,0.400696
1092.813,1.186768
1093.295,1.939087
1093.777,1.934631
1094.259,1.567932
1094.741,1.559204
1095.223,1.843567
1095.705,2.173523
1096.188,2.612366
1096.67,2.826843
1097.152,2.639709
1097.634,2.366089
1098.116,2.515442
1098.598,2.95343
1099.08,2.946716
1099.562,2.438049
1100.044,2.128784
1100.527,2.730164
1101.009,3.377014
1101.491,3.567261
1101.973,3.451721
1102.455,3.485474
1102.937,3.678528
1103.419,3.850098
1103.901,3.986816
1104.384,3.985474
1104.866,3.416748
1105.348,2.873291
1105.83,3.186401
1106.312,4.6297
1106.794,4.806946
1107.276,3.368469
1107.758,2.024109
1108.24,1.539551
1108.723,1.592773
1109.205,1.772522
1109.687,2.062744
1110.169,2.443848
1110.651,3.047546
1111.133,3.481018
1111.615,3.742676
1112.097,3.899719
1112.579,3.786499
1113.062,3.580078
1113.544,3.737915
1114.026,4.179016
1114.508,4.492859
1114.99,4.468567
1115.472,4.297791
1115.954,4.029785
1116.436,3.670227
1116.919,3.07666
1117.401,2.308044
1117.883,2.349976
1118.365,3.263245
1118.847,3.941467
1119.329,3.242798
1119.811,2.369995
1120.293,2.098877
1120.776,2.321106
1121.258,2.692688
1121.74,3.258667
1122.222,3.405518
1122.704,2.911194
1123.186,2.336975
1123.668,2.307068
1124.15,2.454834
1124.632,2.418335
1125.115,2.133789
1125.597,1.64917
1126.079,0.839722
1126.561,0.287842
1127.043,0.290344
1127.525,0.595215
1128.007,0.944702
1128.489,1.248413
1128.971,1.349182
1129.454,1.233887
1129.936,0.82251
1130.418,0.14563
1130.9,0.867737
1131.382,0.684082
1131.864,0.066528
1132.346,0.191467
1132.828,0.119751
1133.311,0.242188
1133.793,0.179871
1134.275,0.702576
1134.757,1.351074
1135.239,1.906311
1135.721,2.062561
1136.203,1.879272
1136.685,2.053894
1137.167,2.555054
1137.65,2.903381
1138.132,2.793091
1138.614,2.474487
1139.096,1.817993
1139.578,1.153259
1140.06,1.120728
1140.542,1.748474
1141.024,2.026245
1141.506,1.84552
1141.989,1.569824
1142.471,1.29303
1142.953,1.220398
1143.435,1.849365
1143.917,2.880371
1144.399,2.733459
1144.881,1.139648
1145.363,0.296875
1145.846,0.829224
1146.328,1.627014
1146.81,1.323792
1147.292,0.720154
1147.774,0.699158
1148.256,1.428894
1148.738,2.015381
1149.22,2.414124
1149.703,2.773682
1150.185,3.207092
1150.667,3.498901
1151.149,3.209778
1151.631,2.609009
1152.113,2.105713
1152.595,1.773743
1153.077,1.6474
1153.559,1.874878
1154.042,1.947266
1154.524,1.468506
1155.006,0.772766
1155.488,0.675415
1155.97,0.960449
1156.452,1.093384
1156.934,0.702209
1157.416,0.552307
1157.898,0.899658
1158.381,1.237366
1158.863,1.076904
1159.345,0.596191
1159.827,0.510742
1160.309,0.753967
1160.791,1.06073
1161.273,1.540344
1161.755,1.739807
1162.238,1.359497
1162.72,0.833191
1163.202,0.603271
1163.684,0.661865
1164.166,1.083862
1164.648,1.815308
1165.13,2.365173
1165.612,2.449768
1166.094,2.227417
1166.577,1.570862
1167.059,0.819153
1167.541,0.62854
1168.023,0.928589
1168.505,0.579773
1168.987,0.536865
1169.469,1.125732
1169.951,0.456421
1170.433,2.114807
1170.916,2.538391
1171.398,2.096252
1171.88,1.512695
1172.362,0.790161
1172.844,0.640137
1173.326,1.281982
1173.808,1.782715
1174.29,1.02594
1174.773,0.092834003
1175.255,0.182861
1175.737,0.140991
1176.219,0.947449
1176.701,2.280884
1177.183,2.839966
1177.665,2.145447
1178.147,1.236877
1178.63,0.78186
1179.112,0.618042
1179.594,0.806885
1180.076,1.369507
1180.558,1.601685
1181.04,1.481567
1181.522,1.368225
1182.004,1.417358
1182.486,1.400208
1182.969,0.784119
1183.451,0.183716
1183.933,0.48938
1184.415,2.008911
1184.897,2.812195
1185.379,2.825256
1185.861,2.58252
1186.343,2.216125
1186.825,1.915161
1187.308,1.99762
1187.79,2.266113
1188.272,2.410767
1188.754,2.368347
1189.236,2.115662
1189.718,1.597595
1190.2,1.260132
1190.682,1.473389
1191.165,2.023254
1191.647,2.846741
1192.129,3.653809
1192.611,3.90332
1193.093,3.124329
1193.575,2.648743
1194.057,2.527405
1194.539,2.588989
1195.021,2.701416
1195.504,2.913574
1195.986,3.526611
1196.468,4.287842
1196.95,4.409729
1197.432,3.276917
1197.914,2.573486
1198.396,2.403076
1198.878,2.639404
1199.36,3.614807
1199.843,4.63916
1200.325,4.491211
1200.807,3.444092
1201.289,2.766724
1201.771,2.959717
1202.253,2.895447
1202.735,2.388184
1203.217,1.840576
1203.7,1.716187
1204.182,1.827698
1204.664,1.881287
1205.146,1.886169
1205.628,2.065674
1206.11,2.429993
1206.592,3.003418
1207.074,3.858948
1207.557,4.692017
1208.039,5.083557
1208.521,5.223022
1209.003,5.452454
1209.485,5.769409
1209.967,5.645996
1210.449,4.479614
1210.931,4.327881
1211.413,5.97522
1211.896,7.850647
1212.378,7.596741
1212.86,6.367554
1213.342,5.967529
1213.824,6.60199
1214.306,6.50769
1214.788,5.157593
1215.27,4.136963
1215.752,3.954468
1216.235,4.065125
1216.717,3.761536
1217.199,3.211548
1217.681,2.635742
1218.163,2.061646
1218.645,1.44519
1219.127,0.573792
1219.609,0.341858
1220.092,1.250122
1220.574,2.433167
1221.056,2.688721
1221.538,2.341125
1222.02,1.624878
1222.502,0.437805
1222.984,0.506226
1223.466,2.44989
1223.948,3.603699
1224.431,2.647949
1224.913,1.127197
1225.395,1.422485
1225.877,2.528015
1226.359,2.982971
1226.841,2.28479
1227.323,2.217712
1227.805,3.152222
1228.287,3.713196
1228.77,3.234619
1229.252,2.341919
1229.734,1.632446
1230.216,1.1828
1230.698,1.240173
1231.18,2.061707
1231.662,2.040344
1232.144,1.018066
1232.627,0.082947001
1233.109,0.272095
1233.591,0.286011
1234.073,0.026611
1234.555,0.22699
1235.037,0.035950001
1235.519,1.050049
1236.001,1.141296
1236.484,0.203918
1236.966,0.807068
1237.448,1.630981
1237.93,1.978455
1238.412,1.092407
1238.894,0.219177
1239.376,0.814575
1239.858,0.580322
1240.34,0.39624
1240.823,0.291931
1241.305,0.041747998
1241.787,0.970337
1242.269,1.92926
1242.751,2.617493
1243.233,2.902771
1243.715,2.530151
1244.197,1.404297
1244.679,0.729919
1245.162,0.501892
1245.644,0.56189
1246.126,1.046082
1246.608,1.522217
1247.09,1.931885
1247.572,2.027649
1248.054,1.363037
1248.536,0.126587
1249.019,0.041687001
1249.501,1.476379
1249.983,2.83728
1250.465,3.325012
1250.947,3.22113
1251.429,2.146606
1251.911,0.933472
1252.393,0.308899
1252.875,0.247498
1253.358,0.499878
1253.84,1.039124
1254.322,1.757446
1254.804,3.147522
1255.286,3.947327
1255.768,3.199402
1256.25,2.235107
1256.732,2.238281
1257.214,3.030457
1257.697,3.651611
1258.179,4.070007
1258.661,4.129272
1259.143,3.24939
1259.625,2.814026
1260.107,3.387024
1260.589,3.976379
1261.071,3.459778
1261.554,2.309326
1262.036,2.362549
1262.518,3.270081
1263.0,3.897644
1263.482,3.530029
1263.964,3.387085
1264.446,3.643616
1264.928,3.879944
1265.411,3.574097
1265.893,3.072266
1266.375,3.215332
1266.857,2.894165
1267.339,2.643616
1267.821,2.788635
1268.303,2.193237
1268.785,2.296631
1269.267,2.461487
1269.75,1.636719
1270.232,0.921326
1270.714,0.935181
1271.196,1.337646
1271.678,1.567627
1272.16,1.830505
1272.642,2.235168
1273.124,2.708252
1273.606,3.03125
1274.089,2.864563
1274.571,2.660767
1275.053,3.151245
1275.535,3.768433
1276.017,3.343994
1276.499,1.632385
1276.981,1.322266
1277.463,2.388794
1277.946,3.233093
1278.428,2.40387
1278.91,1.595337
1279.392,2.111084
1279.874,1.530029
1280.356,2.867676
1280.838,1.848511
1281.32,1.997009
1281.802,3.152527
1282.285,3.686646
1282.767,1.871887
1283.249,0.357483
1283.731,0.019897001
1284.213,0.436951
1284.695,1.683228
1285.177,3.410889
1285.659,3.70874
1286.141,2.909424
1286.624,2.409058
1287.106,3.453674
1287.588,3.781799
1288.07,2.822876
1288.552,1.742737
1289.034,1.7005
1289.516,2.158264
1289.998,1.675293
1290.481,0.695251
1290.963,0.381348
1291.445,1.829712
1291.927,2.608704
1292.409,2.652283
1292.891,2.256226
1293.373,1.052856
1293.855,0.0087280003
1294.338,0.9729
1294.82,2.80957
1295.302,3.201782
1295.784,1.539856
1296.266,0.446716
1296.748,0.070618004
1297.23,0.13623
1297.712,0.362671
1298.194,1.057678
1298.677,1.864807
1299.159,2.528748
1299.641,2.614929
1300.123,2.071655
1300.605,2.432556
1301.087,3.604614
1301.569,4.041504
1302.051,2.360718
1302.533,0.72467
1303.016,0.0
