Raman Shift,Intensity 
400,5.998403101
401,5.981841434
402,5.980613377
403,6.013569888
404,6.000838122
405,5.989327585
406,5.967398922
407,6.013847656
408,6.03448495
409,5.99369504
410,5.9934718
411,6.020513298
412,6.018742696
413,5.973083991
414,6.008708107
415,5.991169405
416,6.037452245
417,5.976146202
418,6.035182119
419,5.978133988
420,5.953327518
421,6.008232553
422,5.992869574
423,5.971946852
424,5.997524791
425,5.992411922
426,5.961146854
427,5.986777254
428,6.002817382
429,5.986795838
430,6.03396893
431,6.017153991
432,6.0192849
433,5.985478029
434,6.016174851
435,5.97627129
436,5.9997894
437,6.014877149
438,6.013467269
439,6.037769005
440,5.998299752
441,6.029335283
442,6.004210192
443,5.990012466
444,6.002289119
445,6.01337196
446,6.036897842
447,6.03281829
448,6.048177707
449,6.01027506
450,6.030720707
451,6.038378664
452,6.023977788
453,6.040163979
454,6.059059369
455,6.085707212
456,6.149463136
457,6.078397078
458,6.06425668
459,6.031235321
460,6.134992865
461,6.116669775
462,6.080223755
463,6.113555842
464,6.150632379
465,6.139196014
466,6.162947355
467,6.157827346
468,6.187835798
469,6.192289545
470,6.191107054
471,6.221559813
472,6.227659371
473,6.19646748
474,6.233404131
475,6.256439385
476,6.253120309
477,6.279529541
478,6.309595815
479,6.305233108
480,6.300507122
481,6.331825577
482,6.344720632
483,6.355994434
484,6.311472054
485,6.369948842
486,6.398426003
487,6.386201261
488,6.410312582
489,6.404760897
490,6.424041421
491,6.410257177
492,6.370719557
493,6.428277325
494,6.440240691
495,6.36918977
496,6.369662127
497,6.41846215
498,6.390803984
499,6.384143605
500,6.36689131
501,6.391943567
502,6.382021814
503,6.347070989
504,6.343078211
505,6.326452789
506,6.34679916
507,6.311598555
508,6.274670705
509,6.315276715
510,6.288797175
511,6.298023576
512,6.274590259
513,6.2759414
514,6.220595232
515,6.220706437
516,6.227226584
517,6.204358344
518,6.204767973
519,6.16121985
520,6.144241335
521,6.152219285
522,6.159333779
523,6.142122634
524,6.10379648
525,6.162337485
526,6.09170243
527,6.085157359
528,6.098838473
529,6.082467508
530,6.044351551
531,6.096151148
532,6.067695151
533,6.03994122
534,6.078721048
535,6.089718316
536,6.072940671
537,5.993079075
538,6.038336393
539,5.999873863
540,6.027312159
541,6.037772781
542,6.035747756
543,5.998936802
544,6.026851045
545,6.01932152
546,6.000786983
547,5.980783419
548,5.996951689
549,6.005039872
550,5.999565499
551,5.998927619
552,6.004435822
553,5.980874528
554,6.022783231
555,6.017972046
556,6.01135354
557,6.017723264
558,6.004429578
559,5.975039888
560,5.997773272
561,5.997585366
562,5.976879483
563,6.002887005
564,5.998035271
565,6.024830414
566,5.992242364
567,6.006350749
568,6.011470523
569,5.99632127
570,6.021283522
571,6.028457721
572,5.988052525
573,6.012134815
574,6.004409703
575,6.008067655
576,6.008924332
577,5.99085008
578,5.997753479
579,5.969309433
580,6.012148828
581,6.013959293
582,5.992555429
583,5.993642502
584,5.998474771
585,6.010804882
586,6.012768946
587,5.987065814
588,6.0331863
589,6.001290736
590,6.008612791
591,6.029729361
592,5.997053309
593,6.015613173
594,5.965898069
595,5.978068709
596,5.989728979
597,6.004527484
598,5.954088906
599,6.01898763
600,5.996743495
601,6.025274397
602,6.016790048
603,6.001293312
604,5.993192961
605,6.0284368
606,6.007461213
607,5.999322821
608,6.007807966
609,5.956170544
610,5.985585535
611,5.997496825
612,5.97888687
613,6.008310274
614,5.974098814
615,6.017314284
616,6.037252091
617,5.991811062
618,6.021127505
619,5.999761475
620,6.023508203
621,6.012510689
622,5.987166947
623,5.968570226
624,5.957623264
625,6.022549829
626,6.01309535
627,5.954617677
628,6.000180917
629,6.025388625
630,5.988532699
631,6.019421432
632,6.006636728
633,6.024703352
634,6.009658552
635,6.005016861
636,6.013980839
637,6.00348515
638,6.029402247
639,6.002332651
640,5.987369136
641,6.014380073
642,6.005716601
643,5.977789642
644,5.98262658
645,5.997683777
646,5.988290115
647,6.019508528
648,6.021359515
649,6.032708128
650,6.020699132
651,5.945049793
652,6.008959789
653,6.012794069
654,6.020253513
655,5.999906939
656,6.014436968
657,6.009982351
658,6.016979673
659,6.007447142
660,6.02152901
661,6.009138699
662,6.001175775
663,6.012530474
664,6.014862554
665,5.980452744
666,5.987197511
667,5.981876229
668,5.969264517
669,5.988112616
670,6.016460027
671,5.984988487
672,5.986695232
673,6.024852515
674,6.036348827
675,6.008055627
676,5.987830296
677,6.00706702
678,6.017214488
679,6.008897099
680,6.01390291
681,5.999884654
682,5.997960585
683,6.020346836
684,6.025343551
685,6.000622074
686,6.001278495
687,5.964480871
688,5.972462338
689,5.99617214
690,5.973997303
691,6.023867106
692,5.980774729
693,6.011490125
694,6.015108395
695,5.997223126
696,6.014719458
697,6.002434766
698,5.999349762
699,6.000251395
700,5.985809381
701,6.025656937
702,5.982186873
703,5.981591097
704,5.995092179
705,5.98548916
706,5.996961284
707,5.990185392
708,6.005049253
709,6.027191724
710,5.990563714
711,5.973082654
712,6.00616415
713,5.974742032
714,6.0153932
715,5.989346294
716,6.0092689
717,5.964372871
718,6.017824437
719,5.997350523
720,6.010765166
721,5.987123589
722,6.036846781
723,6.03703237
724,5.996713158
725,6.02394113
726,5.981327614
727,6.021944931
728,6.003251751
729,5.976130407
730,5.984767038
731,6.008487609
732,6.015390438
733,5.97293329
734,6.022221978
735,6.008133554
736,6.001939127
737,5.994863602
738,5.98903138
739,5.995791627
740,5.960671626
741,6.005650649
742,6.037943865
743,5.984698907
744,6.012077816
745,6.016218383
746,5.994926428
747,6.004061634
748,5.986038433
749,5.982355753
750,6.019686785
751,6.020210936
752,6.018415419
753,6.002423628
754,5.991514088
755,6.000431199
756,6.013008287
757,6.029671587
758,6.010182236
759,5.996090562
760,6.03031368
761,6.038801379
762,5.984382259
763,6.010950312
764,5.9868463
765,5.957615009
766,5.988797017
767,6.025674822
768,6.006282682
769,5.986314513
770,5.982929942
771,6.01128543
772,5.993372115
773,5.983334405
774,6.019191656
775,5.977049336
776,6.032952776
777,5.959932693
778,6.004695422
779,6.006118032
780,5.994838071
781,6.033899865
782,5.973342953
783,5.978281154
784,5.998589085
785,6.007439297
786,6.016859925
787,6.007776122
788,5.985933891
789,5.984133475
790,5.987615518
791,5.993054072
792,6.024401866
793,6.013611804
794,5.997207543
795,6.000831754
796,6.003415627
797,6.008595764
798,5.992234328
799,5.987989729
800,5.996494152
801,5.991094119
802,6.002710021
803,6.025878953
804,6.003023757
805,6.008071467
806,6.020023515
807,6.034394534
808,5.98818989
809,5.990404468
810,5.990142386
811,5.984211838
812,5.967717976
813,6.006398438
814,6.003200179
815,6.023502519
816,6.00860677
817,6.033866568
818,5.974195906
819,6.031088409
820,6.007192643
821,5.969411555
822,5.996339458
823,5.995865705
824,6.029253924
825,6.000136974
826,5.986651297
827,6.018083324
828,5.986298924
829,5.979458966
830,6.011899863
831,5.979219157
832,6.014976916
833,5.986156323
834,5.997996332
835,6.011865474
836,5.991824181
837,6.033715907
838,5.9927872
839,6.03360877
840,5.993008434
841,5.976874174
842,6.000845633
843,6.02225974
844,6.015805849
845,5.980852708
846,5.983962348
847,6.010634717
848,5.989495441
849,6.009265845
850,5.997759037
851,6.017143703
852,6.007421077
853,6.03159434
854,5.981058062
855,6.002277496
856,5.968980232
857,6.009646416
858,6.020984667
859,6.02602626
860,5.986391533
861,5.993933855
862,5.982096162
863,5.974000969
864,6.014882436
865,5.99658883
866,6.02518813
867,5.981013673
868,6.003372308
869,5.997273306
870,5.98454971
871,5.986154068
872,6.016016648
873,6.009032442
874,5.956094932
875,6.038102027
876,5.989315932
877,6.010463741
878,5.998700289
879,6.001033777
880,5.989814799
881,6.003487593
882,6.007541949
883,6.015471953
884,5.990779834
885,6.012658864
886,5.978437314
887,6.004766457
888,5.979198005
889,5.99319059
890,5.978907035
891,5.996764804
892,6.017177981
893,5.988354578
894,6.042069475
895,6.011876128
896,6.007183678
897,5.990984263
898,6.022319242
899,5.985919194
900,5.968528734
901,5.997862599
902,6.003245312
903,6.004902716
904,6.013227028
905,5.956743616
906,5.987029508
907,6.018025586
908,6.025411726
909,6.041026605
910,6.035925402
911,6.014594579
912,6.024124486
913,5.985313681
914,6.049740152
915,5.980909524
916,6.024333509
917,6.021573746
918,5.982628721
919,5.982632917
920,6.01585841
921,6.004447153
922,6.000130839
923,6.021561765
924,5.992489505
925,6.033214155
926,6.026628038
927,5.976445623
928,6.01356006
929,6.008967998
930,6.019474853
931,5.969651119
932,6.001923791
933,5.99147046
934,6.028147658
935,5.99079774
936,5.975450372
937,6.019871747
938,6.023494229
939,6.038723364
940,6.023810121
941,5.984630251
942,5.962236858
943,5.99347814
944,6.003328662
945,5.979791483
946,5.984862843
947,6.006824731
948,6.024589733
949,5.969915834
950,5.988748397
951,6.019804788
952,5.98389156
953,6.011500432
954,5.994802243
955,6.006053229
956,6.019431767
957,6.023703106
958,5.991614214
959,5.991975399
960,6.009262646
961,5.952385281
962,5.994399557
963,5.988023403
964,5.999195434
965,5.98274256
966,6.001406525
967,5.998887577
968,6.016322638
969,5.99332755
970,6.012902615
971,6.012686847
972,5.96532108
973,6.033858009
974,6.023008225
975,5.947423838
976,6.020018445
977,5.993620684
978,6.007982698
979,5.977110566
980,6.024399446
981,5.996180966
982,6.018167162
983,5.982438978
984,5.990698937
985,5.982348128
986,5.943213756
987,5.995684953
988,5.97663388
989,6.002445175
990,6.048075661
991,6.013021138
992,6.019667683
993,5.969401732
994,5.951413851
995,5.993063273
996,6.000118765
997,5.979092402
998,6.014115125
999,5.987583228
1000,5.957160124
1001,5.998858881
1002,5.983532499
1003,6.02622917
1004,6.022430035
1005,5.938489665
1006,6.017867334
1007,5.993944134
1008,5.988286533
1009,6.001179646
1010,6.002606877
1011,6.009079602
1012,5.963622425
1013,5.990785403
1014,6.042450236
1015,6.007939177
1016,5.973336235
1017,5.973444178
1018,5.989634068
1019,6.005589737
1020,6.000365654
1021,6.008031804
1022,6.000102034
1023,5.973247059
1024,5.977986998
1025,5.969946455
1026,5.997888703
1027,5.977557618
1028,6.020208074
1029,6.024653318
1030,5.992822146
1031,6.019443257
1032,6.026340121
1033,5.99403872
1034,6.012172976
1035,6.015466149
1036,6.031767673
1037,6.007914681
1038,6.010014009
1039,6.021737503
1040,6.004799545
1041,6.002014158
1042,6.053788354
1043,6.027587771
1044,5.996242392
1045,6.015650564
1046,6.01979987
1047,6.02973096
1048,6.033482577
1049,6.037634979
1050,6.052675646
1051,6.059287812
1052,6.066421145
1053,6.078380117
1054,6.062316563
1055,6.085429896
1056,6.066183689
1057,6.097787523
1058,6.104309777
1059,6.104051111
1060,6.089865417
1061,6.09640486
1062,6.129376892
1063,6.122714684
1064,6.151332973
1065,6.18029594
1066,6.157484358
1067,6.165282407
1068,6.21406566
1069,6.225770417
1070,6.254901977
1071,6.245067415
1072,6.233670764
1073,6.286844943
1074,6.317960666
1075,6.297475741
1076,6.339104619
1077,6.329693715
1078,6.40555133
1079,6.413515496
1080,6.396469406
1081,6.411773217
1082,6.446492216
1083,6.491388643
1084,6.511118101
1085,6.556586829
1086,6.545115738
1087,6.593364199
1088,6.62388028
1089,6.640562238
1090,6.637894517
1091,6.682363127
1092,6.730501265
1093,6.714274557
1094,6.751517574
1095,6.767739983
1096,6.785743964
1097,6.776734677
1098,6.804046168
1099,6.858764486
1100,6.84787508
1101,6.886325629
1102,6.919473071
1103,6.93196675
1104,6.914387405
1105,6.939952016
1106,6.982296191
1107,6.981356679
1108,6.992754615
1109,6.988419544
1110,7.02995195
1111,7.017901712
1112,7.007132151
1113,6.968748871
1114,6.987579992
1115,6.997070033
1116,6.999563392
1117,6.983950593
1118,6.967911979
1119,6.992023523
1120,6.943029475
1121,6.939280276
1122,6.95411254
1123,6.925687872
1124,6.925126242
1125,6.897114049
1126,6.842503791
1127,6.827908786
1128,6.816127855
1129,6.827626569
1130,6.786632416
1131,6.742844888
1132,6.753926239
1133,6.749950938
1134,6.706639103
1135,6.690250399
1136,6.633151092
1137,6.629659275
1138,6.590167954
1139,6.537211314
1140,6.535951532
1141,6.519480366
1142,6.53205829
1143,6.483666346
1144,6.47741041
1145,6.455261219
1146,6.429789272
1147,6.385052254
1148,6.390310929
1149,6.318448455
1150,6.34130048
1151,6.320427392
1152,6.289892804
1153,6.300159837
1154,6.26119368
1155,6.232428194
1156,6.186385093
1157,6.204604011
1158,6.183261072
1159,6.170582252
1160,6.165775026
1161,6.14640686
1162,6.155858994
1163,6.141582274
1164,6.124036305
1165,6.123478579
1166,6.100982432
1167,6.124579543
1168,6.119032601
1169,6.0778883
1170,6.037534429
1171,6.056415848
1172,6.074705916
1173,6.061680582
1174,6.044206035
1175,6.045960635
1176,6.032709276
1177,6.07298746
1178,6.032447073
1179,6.022467321
1180,6.044793543
1181,6.035311933
1182,6.009870188
1183,6.0475395
1184,6.016837475
1185,6.038985576
1186,6.048568674
1187,5.96963163
1188,5.998436596
1189,6.017299136
1190,6.029908175
1191,6.00434215
1192,5.993507427
1193,5.971555712
1194,5.986455591
1195,6.00336432
1196,6.011237743
1197,5.97843679
1198,5.968153098
1199,6.002756806
1200,5.982105153
1201,5.99635949
1202,6.012969215
1203,6.032365594
1204,5.98854603
1205,6.020166161
1206,6.005013973
1207,6.009495819
1208,6.000598716
1209,5.979857099
1210,6.029639413
1211,6.006775324
1212,5.997088519
1213,6.040639649
1214,5.992207075
1215,5.993677105
1216,6.007497503
1217,5.975269685
1218,6.02680169
1219,5.99750827
1220,6.012829557
1221,6.01289541
1222,6.017523457
1223,5.991099311
1224,5.985161654
1225,5.980712878
1226,5.996813797
1227,5.968117921
1228,6.008724502
1229,5.975981878
1230,6.005797383
1231,6.033118337
1232,6.002339256
1233,6.005190713
1234,5.975758563
1235,6.004071924
1236,6.012335738
1237,6.021166175
1238,6.012831337
1239,5.994317044
1240,5.9819317
1241,6.01758215
1242,5.996607446
1243,6.001732609
1244,6.017111698
1245,6.014152466
1246,6.015046021
1247,6.003247609
1248,6.015108201
1249,5.981411866
1250,6.023829067
1251,6.00366628
1252,6.009905807
1253,6.001701475
1254,5.981621883
1255,6.00048547
1256,5.946347545
1257,6.007601787
1258,6.008897305
1259,5.981701818
1260,6.001352669
1261,5.989237113
1262,5.984428241
1263,5.962467573
1264,5.996694505
1265,5.976569138
1266,5.997454828
1267,5.965237356
1268,6.016331441
1269,6.020138838
1270,6.00499769
1271,5.997247388
1272,5.986602746
1273,5.985842697
1274,6.002335322
1275,6.04616491
1276,6.025136303
1277,5.994990728
1278,5.993299254
1279,6.005155231
1280,5.982757289
1281,5.979293711
1282,5.985657287
1283,5.987541876
1284,5.966309007
1285,6.002148296
1286,5.985692573
1287,6.017309402
1288,5.990399881
1289,5.981022452
1290,5.992992234
1291,6.009084875
1292,5.963160278
1293,6.009482928
1294,6.007337001
1295,6.021853858
1296,6.017185478
1297,6.013990111
1298,6.003646169
1299,6.023630393
1300,5.975992969
1301,5.982135413
1302,6.022644117
1303,6.020946022
1304,5.998452417
1305,5.997700612
1306,5.988813208
1307,6.018702449
1308,5.980549016
1309,5.998515247
1310,6.037328957
1311,5.953885697
1312,6.002819863
1313,5.998348066
1314,6.010074758
1315,6.022680474
1316,5.98836098
1317,6.02504339
1318,5.974815699
1319,6.025483287
1320,5.985136437
1321,5.999347157
1322,6.006166989
1323,6.019212588
1324,6.011359429
1325,5.959861949
1326,5.977137446
1327,6.02978826
1328,6.005384251
1329,6.017712728
1330,5.991903535
1331,6.016638582
1332,6.003914194
1333,6.055692178
1334,5.990175139
1335,6.024789676
1336,5.976192825
1337,5.986023419
1338,5.98575642
1339,5.991118493
1340,5.989419547
1341,5.977759446
1342,6.014048074
1343,6.037571292
1344,6.000953763
1345,6.040523488
1346,5.974139233
1347,6.034064371
1348,5.997941759
1349,5.999663435
1350,5.966046539
1351,5.999576507
1352,6.026881645
1353,5.997373047
1354,5.974802328
1355,5.994494749
1356,6.016949044
1357,5.995522123
1358,5.987676782
1359,5.971975442
1360,5.99659614
1361,6.003691441
1362,5.967484416
1363,5.985224587
1364,5.988940723
1365,5.981685365
1366,5.996490314
1367,5.977950122
1368,6.017279503
1369,6.000530987
1370,6.004397829
1371,6.030702252
1372,6.001107832
1373,6.010888896
1374,6.006806661
1375,6.041860863
1376,5.981602938
1377,5.959221546
1378,5.996223745
1379,6.016342445
1380,6.001222194
1381,6.040929208
1382,5.993094961
1383,5.989791712
1384,5.989604952
1385,5.978829468
1386,6.041746753
1387,6.040557054
1388,5.963744876
1389,6.013299308
1390,6.001135131
1391,6.03291772
1392,6.003706204
1393,6.0480133
1394,5.986179664
1395,5.991701593
1396,6.007588117
1397,6.019366939
1398,6.005391578
1399,6.02913059
1400,5.996838342
1401,6.004214711
1402,5.977330704
1403,6.013795168
1404,6.007954494
1405,5.992742714
1406,6.049822728
1407,6.024426316
1408,5.997586587
1409,6.017728412
1410,6.000690857
1411,6.042180147
1412,6.015460678
1413,5.964579178
1414,5.987700421
1415,6.032459631
1416,6.01549257
1417,6.010329393
1418,5.983373345
1419,6.00281344
1420,6.022444726
1421,6.000099219
1422,6.029470354
1423,6.057974705
1424,6.006879305
1425,6.007063647
1426,5.976481758
1427,6.015722086
1428,6.006537867
1429,6.013899432
1430,5.99808425
1431,5.982404366
1432,6.053134946
1433,6.004173487
1434,6.011703921
1435,6.000590655
1436,5.975464377
1437,6.011666004
1438,5.972309475
1439,5.983180281
1440,5.99505749
1441,5.955137502
1442,6.020076252
1443,6.012665451
1444,5.9743234
1445,6.001904956
1446,6.008488359
1447,5.992586318
1448,6.027516487
1449,6.005637187
1450,6.00989228
1451,6.021666687
1452,6.008559471
1453,6.009905912
1454,6.022038332
1455,6.021745748
1456,5.995892103
1457,6.031830686
1458,5.998813709
1459,5.986135822
1460,5.998496525
1461,5.986555451
1462,5.976634481
1463,6.017326781
1464,5.9994786
1465,6.022632667
1466,6.025803183
1467,6.010210638
1468,6.000066243
1469,6.019024521
1470,5.965754026
1471,5.998825036
1472,5.96106671
1473,6.021008748
1474,6.016120264
1475,5.984610903
1476,6.018354278
1477,5.992415769
1478,6.001313
1479,6.007673368
1480,5.99339966
1481,5.994013483
1482,6.013164805
1483,5.993253914
1484,6.01060014
1485,5.985830475
1486,6.014026607
1487,6.017248477
1488,6.024381876
1489,6.012760126
1490,6.010426228
1491,6.006877212
1492,6.0091374
1493,6.017986117
1494,5.96025157
1495,5.990710989
1496,5.968921057
1497,5.977994666
1498,6.006253167
1499,5.98946857
1500,6.000411936
1501,5.980667431
1502,6.015159727
1503,5.997546302
1504,6.000429172
1505,5.971079052
1506,6.009201125
1507,6.041238413
1508,5.994092816
1509,5.989906157
1510,6.010952478
1511,5.973234357
1512,6.004212603
1513,5.995339713
1514,5.990229761
1515,5.999381352
1516,5.987853464
1517,5.992649952
1518,6.019889363
1519,6.009840577
1520,5.973809259
1521,6.012350008
1522,5.998785329
1523,5.991187161
1524,5.959467738
1525,6.035080376
1526,6.021517317
1527,6.008972167
1528,6.003262399
1529,6.018485042
1530,5.972631737
1531,5.987945343
1532,5.996014974
1533,5.966421965
1534,5.994402228
1535,6.016500943
1536,6.038346729
1537,5.989110384
1538,5.992651146
1539,6.004457957
1540,6.002278414
1541,6.016179811
1542,6.017243827
1543,5.988001104
1544,5.98538847
1545,6.017914065
1546,5.99551757
1547,6.016402732
1548,5.973236948
1549,6.028400012
1550,5.955733644
1551,5.996861998
1552,6.014121731
1553,6.007010508
1554,6.03026944
1555,6.01749007
1556,5.993440028
1557,6.000288292
1558,5.963112401
1559,5.998866278
1560,6.011226298
1561,5.99421358
1562,6.027606761
1563,5.988839372
1564,6.044622286
1565,5.998108338
1566,5.989182318
1567,6.007848022
1568,5.976940198
1569,5.988208973
1570,5.964693597
1571,5.9826012
1572,5.984537207
1573,5.995218483
1574,5.987245095
1575,5.986184247
1576,5.987909363
1577,5.989495085
1578,5.984262228
1579,5.965833547
1580,6.02254093
1581,6.034061532
1582,5.997717201
1583,5.982638255
1584,6.005209289
1585,6.007605441
1586,6.020025918
1587,5.92192595
1588,5.971973018
1589,5.986595832
1590,6.001012475
1591,5.989847182
1592,5.984330057
1593,6.040162458
1594,6.006471201
1595,6.038569529
1596,5.994653955
1597,6.022767472
1598,6.002952395
1599,6.00606632
1600,6.004085888
1601,6.012165679
1602,6.016855089
1603,6.019005525
1604,5.985050368
1605,6.019768282
1606,6.020073343
1607,6.000471178
1608,5.995491331
1609,6.038047475
1610,6.009590756
1611,5.935246301
1612,5.954837113
1613,5.996110315
1614,6.012820954
1615,5.981844225
1616,5.985957222
1617,6.030127061
1618,6.016527183
1619,5.97586311
1620,5.982053997
1621,5.991750719
1622,6.006277118
1623,5.984626542
1624,6.009777473
1625,5.96540187
1626,6.036021046
1627,6.019176467
1628,6.023589889
1629,5.966728884
1630,6.008233886
1631,5.990038681
1632,5.980744876
1633,6.012718761
1634,5.994204616
1635,6.009499467
1636,6.000997693
1637,5.97057767
1638,6.017258414
1639,5.971036616
1640,6.002389384
1641,6.009764279
1642,5.992181743
1643,5.984267371
1644,5.97893654
1645,5.988973492
1646,6.027633597
1647,5.995636343
1648,6.007797484
1649,5.963096728
1650,6.011737858
1651,5.986765019
1652,5.982109527
1653,5.981264232
1654,5.996033005
1655,6.010844231
1656,6.016989474
1657,6.003020422
1658,6.007402636
1659,6.034216432
1660,5.997556166
1661,5.978438723
1662,5.992562897
1663,6.038971979
1664,5.994568288
1665,6.018461009
1666,6.013949495
1667,6.00571543
1668,6.009528499
1669,5.991834087
1670,6.007154428
1671,5.979571694
1672,5.997706996
1673,5.998427757
1674,6.003784248
1675,5.971128022
1676,5.999466255
1677,6.050411496
1678,5.996424801
1679,6.002534262
1680,6.003424829
1681,5.972128443
1682,5.994982657
1683,6.004189188
1684,6.008273507
1685,5.981484756
1686,5.971890086
1687,6.024073102
1688,6.002696194
1689,6.009142039
1690,5.981829336
1691,5.967580729
1692,6.004644965
1693,6.005480481
1694,6.010807308
1695,5.99101263
1696,5.990500917
1697,6.036291707
1698,6.01147023
1699,5.984352366
1700,5.990016643
1701,5.969396061
1702,5.988532161
1703,5.955700355
1704,5.99483594
1705,6.025994023
1706,6.000921151
1707,6.029335459
1708,6.03416533
1709,6.010303818
1710,6.026484714
1711,6.010221005
1712,6.032179958
1713,5.991571066
1714,5.999549408
1715,6.034918902
1716,5.979237464
1717,6.005377864
1718,5.999688905
1719,5.980260675
1720,6.023334089
1721,5.994249015
1722,6.025811075
1723,6.028290503
1724,6.007322381
1725,6.030269525
1726,5.99984178
1727,5.968542667
1728,5.99046394
1729,5.980228428
1730,6.022038776
1731,5.990530241
1732,6.009971957
1733,6.008762745
1734,6.001839623
1735,6.009219662
1736,6.034308494
1737,6.006802049
1738,6.041787266
1739,6.002696176
1740,6.001051466
1741,5.999496288
1742,5.990726331
1743,5.968560453
1744,6.009196056
1745,6.042092716
1746,6.036376265
1747,5.997551987
1748,6.022456923
1749,5.986805971
1750,6.007907388
1751,6.045548038
1752,5.985854997
1753,5.997627981
1754,6.020111656
1755,6.004453161
1756,5.994311722
1757,6.005022629
1758,5.989418381
1759,6.019574643
1760,5.982462768
1761,6.007946584
1762,6.010007219
1763,6.001258307
1764,5.97949603
1765,6.034299982
1766,6.023232282
1767,6.012318095
1768,5.959342848
1769,5.983287427
1770,5.98499475
1771,6.022230498
1772,6.020256139
1773,6.021516527
1774,6.024799011
1775,6.006454162
1776,6.01005945
1777,6.031592334
1778,6.012435377
1779,6.019226504
1780,5.962250942
1781,6.021419989
1782,5.998523453
1783,6.007122612
1784,5.986139348
1785,6.010862531
1786,6.019761159
1787,5.963611344
1788,5.97017048
1789,5.985514244
1790,5.986907096
1791,6.013494876
1792,6.000275295
1793,5.985997733
1794,6.019432488
1795,6.008726861
1796,6.022251878
1797,5.959262217
1798,6.032166781
1799,5.992669808
1800,6.007982075
1801,5.942313669
1802,5.994923615
1803,5.981561511
1804,6.040139901
1805,5.993721617
1806,5.979262866
1807,6.005168073
1808,6.01106529
1809,5.985137132
1810,6.006287227
1811,5.980538014
1812,5.993529114
1813,6.014625215
1814,6.003757759
1815,6.000689862
1816,5.998019196
1817,5.9884146
1818,6.05235016
1819,6.025697437
1820,5.97258841
1821,5.989036315
1822,5.99288428
1823,6.010395838
1824,6.026361377
1825,5.984347759
1826,6.0185673
1827,6.001871482
1828,5.978500203
1829,5.95186332
1830,6.004947703
1831,5.975729443
1832,6.000492405
1833,6.013341164
1834,6.076618897
1835,5.978252611
1836,6.000959749
1837,6.022414413
1838,6.005226614
1839,5.99445826
1840,6.008910168
1841,5.982985286
1842,6.004731588
1843,6.047477203
1844,5.994641735
1845,6.03575714
1846,5.969256189
1847,5.976667476
1848,5.986650895
1849,6.012479209
1850,6.009063022
1851,6.03076308
1852,5.956873541
1853,6.000454532
1854,6.021129099
1855,6.007682653
1856,5.992239006
1857,6.007268777
1858,6.012391472
1859,5.993220929
1860,5.968653501
1861,6.016288963
1862,6.012241124
1863,5.981770462
1864,6.005777439
1865,6.007698475
1866,6.003605893
1867,5.995642454
1868,6.031024241
1869,5.996732997
1870,6.007430795
1871,6.003395879
1872,6.034175496
1873,5.983961198
1874,5.999903513
1875,6.014549695
1876,6.018392531
1877,6.009971342
1878,5.984856406
1879,5.958578763
1880,6.011327648
1881,5.988454481
1882,6.015299294
1883,6.021414882
1884,5.999242642
1885,6.030299544
1886,5.990601618
1887,5.991636602
1888,6.019035065
1889,5.983930983
1890,5.999487916
1891,6.031618712
1892,5.983838311
1893,6.01337334
1894,6.007009227
1895,6.02260716
1896,6.012457679
1897,6.002324765
1898,5.984075479
1899,6.003423842
1900,5.98665175
1901,5.983396618
1902,5.944265578
1903,6.027037443
1904,6.013757729
1905,5.949927798
1906,5.994996752
1907,6.024358858
1908,5.983752738
1909,6.005627853
1910,5.991397382
1911,5.998291662
1912,6.000330655
1913,6.015408291
1914,6.029246065
1915,5.979361374
1916,6.001646233
1917,5.996481524
1918,6.033415617
1919,5.987119413
1920,6.014775868
1921,6.004900148
1922,6.007892618
1923,6.015457336
1924,5.982160259
1925,5.984527928
1926,5.996654777
1927,6.002787939
1928,5.998233969
1929,6.012361183
1930,6.013780008
1931,5.987920351
1932,5.976131781
1933,6.017846661
1934,6.011514432
1935,6.01405524
1936,6.009934457
1937,6.046726113
1938,6.002186128
1939,5.996809276
1940,6.044502169
1941,6.018236415
1942,6.01347044
1943,5.964505508
1944,6.010175323
1945,6.001148971
1946,6.002800847
1947,5.985699602
1948,5.983209107
1949,6.001157568
1950,5.993597439
1951,5.961538912
1952,6.00981959
1953,5.992123174
1954,5.976425939
1955,6.00073852
1956,5.998564176
1957,5.981357668
1958,6.007492611
1959,5.982133865
1960,5.970721837
1961,5.986262648
1962,5.98606749
1963,5.998777227
1964,5.999042182
1965,6.014091881
1966,6.00835781
1967,5.979999869
1968,6.032598254
1969,5.970898248
1970,6.004262437
1971,5.983551539
1972,5.998152985
1973,6.020927553
1974,6.017908608
1975,5.991931152
1976,5.974377592
1977,6.000264037
1978,5.985509815
1979,6.002572095
1980,5.987471075
1981,6.002166404
1982,6.011531143
1983,6.002950368
1984,6.006607807
1985,6.022291287
1986,5.985822967
1987,5.98598628
1988,5.99132135
1989,6.014982219
1990,6.00480753
1991,6.056130945
1992,5.980479389
1993,5.995818744
1994,5.969242625
1995,5.999674638
1996,5.999593844
1997,6.019457557
1998,6.005212314
1999,6.042586354
2000,6.005578582
2001,6.027637655
2002,5.992816582
2003,6.007885787
2004,6.005112153
2005,5.978203364
2006,5.997013716
2007,6.018359638
2008,5.978332781
2009,6.001563127
2010,6.014177056
2011,5.98127755
2012,5.977906614
2013,5.991247985
2014,5.989853709
2015,5.9971765
2016,5.999147955
2017,6.022588144
2018,6.003665311
2019,5.978021705
2020,5.990873234
2021,5.996904043
2022,5.983525522
2023,6.025380576
2024,6.022434695
2025,5.97202622
2026,5.97786068
2027,6.027623385
2028,5.991199998
2029,5.995443539
2030,6.015445873
2031,5.990762261
2032,5.976091271
2033,6.012785481
2034,5.996654598
2035,6.020183748
2036,6.007125544
2037,5.976854514
2038,5.987558092
2039,5.984775107
2040,6.014721257
2041,6.028774969
2042,6.023840448
2043,5.97663152
2044,5.990582465
2045,6.018660628
2046,6.006675724
2047,6.007855459
2048,5.993267004
2049,6.018121013
2050,5.982682026
2051,5.988405264
2052,6.006407063
2053,5.991580458
2054,5.978396733
2055,5.982218398
2056,6.013753108
2057,5.970941567
2058,6.037111575
2059,6.00232493
2060,5.968056641
2061,6.004068691
2062,5.997434156
2063,6.040278721
2064,5.992559628
2065,6.001890228
2066,6.033654857
2067,6.019143357
2068,6.006589654
2069,6.003254828
2070,6.009740096
2071,6.003824885
2072,6.00811291
2073,6.005071079
2074,5.992916416
2075,5.992407962
2076,6.01714131
2077,6.039339166
2078,5.930310306
2079,6.002886826
2080,6.01790855
2081,5.983546006
2082,5.974317999
2083,6.017067089
2084,6.013437885
2085,6.07360328
2086,6.010305704
2087,5.954714496
2088,6.028263291
2089,6.013898752
2090,5.993888115
2091,5.97568975
2092,5.979179509
2093,6.016471931
2094,5.996101605
2095,6.019689123
2096,6.031439173
2097,5.99390178
2098,5.990641284
2099,5.967571679
2100,6.033706154
2101,6.034682757
2102,5.987894985
2103,6.012713446
2104,5.992833085
2105,5.993010797
2106,6.006912353
2107,5.972889386
2108,6.02818307
2109,5.977614291
2110,6.012588231
2111,6.009421646
2112,6.000113755
2113,5.997988535
2114,6.011195043
2115,6.036657042
2116,5.986202511
2117,6.03669435
2118,6.007890552
2119,5.99785769
2120,5.988561262
2121,6.006086652
2122,5.994894782
2123,6.023465442
2124,6.015445946
2125,6.008172778
2126,5.949911507
2127,6.005875659
2128,5.996433379
2129,6.009773452
2130,6.000324355
2131,6.024062232
2132,6.017226761
2133,5.95108901
2134,6.003277851
2135,6.01267691
2136,6.022069841
2137,5.985799134
2138,5.977995276
2139,6.003892791
2140,5.995908263
2141,6.004525692
2142,5.992210622
2143,5.984299751
2144,5.974634527
2145,6.007737946
2146,5.997652222
2147,5.980492766
2148,6.013101087
2149,6.000101035
2150,5.964780297
2151,6.006173909
2152,5.985698103
2153,5.973171339
2154,5.965382204
2155,6.033623335
2156,5.999043884
2157,6.014954834
2158,6.015495725
2159,5.975274174
2160,6.026050876
2161,5.974453872
2162,6.015491228
2163,6.02163143
2164,6.018742436
2165,5.984095924
2166,6.04237204
2167,6.013934718
2168,6.012121346
2169,5.994974218
2170,5.976306714
2171,5.977175061
2172,5.976119509
2173,5.987691207
2174,5.998974521
2175,5.98625727
2176,6.010805914
2177,6.000731368
2178,6.007839329
2179,5.972693015
2180,6.003878768
2181,6.000183524
2182,5.995950912
2183,6.012201428
2184,5.992836739
2185,6.028080725
2186,5.99984842
2187,6.052441767
2188,5.990741038
2189,5.989035972
2190,5.978236224
2191,6.038874905
2192,6.017518323
2193,5.992498799
2194,5.984673386
2195,5.991180466
2196,6.003150083
2197,6.00757379
2198,6.033011876
2199,5.993370635
2200,6.029517006
2201,6.007773692
2202,5.99606757
2203,6.052456292
2204,6.031375194
2205,6.005636295
2206,6.004015623
2207,5.987117246
2208,5.995541678
2209,5.980863094
2210,5.981469038
2211,5.986573921
2212,5.955912327
2213,6.011609911
2214,5.984772589
2215,5.99625675
2216,5.995706486
2217,5.967997455
2218,5.975716977
2219,6.017998223
2220,5.976652761
2221,6.023521202
2222,5.987424746
2223,5.978470068
2224,5.976583083
2225,5.992463195
2226,5.986388359
2227,6.01826744
2228,5.991769086
2229,5.998358009
2230,6.023436614
2231,6.005438852
2232,6.025068208
2233,5.99546147
2234,5.997614045
2235,6.023534239
2236,5.997307437
2237,6.01008645
2238,5.973093932
2239,5.983702698
2240,6.004479684
2241,5.954550187
2242,5.977823216
2243,5.999844784
2244,5.961763285
2245,5.979116757
2246,5.98541767
2247,5.994178682
2248,5.985366401
2249,5.996224119
2250,6.002019798
2251,6.02044968
2252,5.987822836
2253,6.008079474
2254,5.997597939
2255,5.986620336
2256,6.004511169
2257,5.998399876
2258,6.017719613
2259,6.000379183
2260,5.996391739
2261,6.000030607
2262,6.013659215
2263,6.006438211
2264,5.988214535
2265,6.02047188
2266,5.997749533
2267,5.993357877
2268,6.01117129
2269,5.959896994
2270,5.972372264
2271,5.990347708
2272,6.005952692
2273,6.020436757
2274,6.004481842
2275,6.052861207
2276,5.979405857
2277,5.997077521
2278,6.005386895
2279,6.011678695
2280,6.006946052
2281,6.006298742
2282,6.003873005
2283,5.997414255
2284,6.013756046
2285,5.999118419
2286,5.991531396
2287,5.993497989
2288,5.9930487
2289,6.00983962
2290,5.980799423
2291,6.021354476
2292,5.998975685
2293,6.006050655
2294,6.015993369
2295,5.968636624
2296,5.986508363
2297,5.988546273
2298,6.024758
2299,5.985213767
2300,5.96556023
2301,5.986832946
2302,5.979268502
2303,6.017647579
2304,5.990179615
2305,6.021444939
2306,5.940496185
2307,5.988547444
2308,6.010681449
2309,5.993264256
2310,5.99084226
2311,5.959255168
2312,5.995144587
2313,6.025593517
2314,5.997678312
2315,6.006235903
2316,5.986272007
2317,5.99466659
2318,6.022498397
2319,6.009223091
2320,5.988080238
2321,5.96732769
2322,5.997971724
2323,6.024515173
2324,6.041389917
2325,6.001547276
2326,6.00477739
2327,5.988402458
2328,5.97966756
2329,5.992988977
2330,5.952146588
2331,5.986131163
2332,6.015015864
2333,6.003583184
2334,5.993078424
2335,5.996481902
2336,5.99533692
2337,5.999805429
2338,6.019173645
2339,6.012765379
2340,6.005453923
2341,5.988344187
2342,5.99490022
2343,5.992051031
2344,5.995341736
2345,5.969306557
2346,6.017623973
2347,5.99707167
2348,5.956483862
2349,5.986436268
2350,5.958755692
2351,6.013295879
2352,5.979314017
2353,5.993277047
2354,6.005226011
2355,5.997760611
2356,5.974907803
2357,5.974426683
2358,6.028071605
2359,6.010629912
2360,6.014704009
2361,5.985179106
2362,6.015008252
2363,6.003190269
2364,6.014448658
2365,5.99058598
2366,6.004807093
2367,5.984285703
2368,6.010997783
2369,6.013477698
2370,5.988855474
2371,6.007599795
2372,5.994358573
2373,5.999102288
2374,6.02948402
2375,6.002545727
2376,5.978227509
2377,6.007828191
2378,6.01396225
2379,6.017745938
2380,5.992451433
2381,5.997134561
2382,5.959195102
2383,6.014207917
2384,5.950473707
2385,5.99062787
2386,6.010061346
2387,6.007148216
2388,6.017092483
2389,5.991586671
2390,5.986978257
2391,5.97180794
2392,6.039860231
2393,5.99108607
2394,6.001942325
2395,6.009641336
2396,5.998613773
2397,6.038102464
2398,6.015117392
2399,6.024897181
2400,6.020000002
2401,5.98233737
2402,5.973378582
2403,6.00882024
2404,6.026613468
2405,6.022073512
2406,5.98635181
2407,6.023707903
2408,6.03416321
2409,6.031542175
2410,5.999078709
2411,6.00983544
2412,6.018182043
2413,5.983639252
2414,5.98923265
2415,5.969411735
2416,5.987844548
2417,5.997089319
2418,5.981913225
2419,6.019119042
2420,6.02332945
2421,5.985461951
2422,6.000705134
2423,5.983800901
2424,6.010213588
2425,5.996326914
2426,6.015963363
2427,6.005146657
2428,6.013009796
2429,6.018184065
2430,5.987691482
2431,6.006881249
2432,5.990978004
2433,6.004242118
2434,6.014845816
2435,6.001552387
2436,5.988873552
2437,5.993765381
2438,5.993291143
2439,5.997856606
2440,5.985434499
2441,5.9802625
2442,6.017269661
2443,6.02549324
2444,6.003104445
2445,6.00723802
2446,6.00204045
2447,6.004086808
2448,5.989077218
2449,5.994926129
2450,6.03711039
2451,5.995755962
2452,5.993010083
2453,5.990613898
2454,6.002623642
2455,5.975625028
2456,6.021290876
2457,6.026559305
2458,6.030949159
2459,5.997866981
2460,5.952101883
2461,6.003172774
2462,5.975805171
2463,5.958312076
2464,5.996762478
2465,5.973874975
2466,6.028382183
2467,6.029078454
2468,5.966446089
2469,6.044601698
2470,5.988536365
2471,6.016174447
2472,6.003679768
2473,6.011309562
2474,6.004685411
2475,5.996659252
2476,6.022511865
2477,5.978804968
2478,6.016457428
2479,6.005726947
2480,5.987620238
2481,6.006103871
2482,6.009260164
2483,5.998785952
2484,5.963755232
2485,5.97014978
2486,6.029783994
2487,5.979587094
2488,6.007058359
2489,6.007565724
2490,5.996501452
2491,6.025764762
2492,6.018469493
2493,6.003142044
2494,6.005823794
2495,6.020567996
2496,5.963370814
2497,6.001546387
2498,5.988219273
2499,6.015000712
2500,5.955277036
2501,5.985944215
2502,5.99310683
2503,5.974224142
2504,5.98552105
2505,6.009883254
2506,6.007018313
2507,5.982769461
2508,5.975314268
2509,5.989502209
2510,6.004971678
2511,5.978895942
2512,5.977111811
2513,6.006564668
2514,6.00685897
2515,6.030245223
2516,5.985176532
2517,5.981030355
2518,5.97615085
2519,5.954998079
2520,6.024218334
2521,5.984275803
2522,6.001818292
2523,5.98272016
2524,5.991236667
2525,6.002500861
2526,6.018990909
2527,6.013661303
2528,6.012265606
2529,6.001276386
2530,6.021792355
2531,5.998651265
2532,6.017420647
2533,6.027238514
2534,6.001565488
2535,5.969257966
2536,5.991144837
2537,6.023724218
2538,5.998079905
2539,6.007434279
2540,5.982828444
2541,5.995463341
2542,5.958624935
2543,5.999992896
2544,6.027993003
2545,6.016753745
2546,5.95108483
2547,5.994133654
2548,6.013335552
2549,6.038454634
2550,6.012234392
2551,5.975221352
2552,5.98792302
2553,5.996426119
2554,6.001449015
2555,5.978815469
2556,5.977702373
2557,6.019413887
2558,5.974623031
2559,5.998256215
2560,6.009241882
2561,6.018702059
2562,5.990234131
2563,5.998158294
2564,5.999541003
2565,5.996577489
2566,6.020172056
2567,6.01685755
2568,6.031780142
2569,6.002463953
2570,6.000410487
2571,6.004822162
2572,6.006325185
2573,5.971529349
2574,6.005659727
2575,6.021631442
2576,6.011554774
2577,6.020804321
2578,5.995046221
2579,6.011590984
2580,5.990818146
2581,6.041432034
2582,5.97212226
2583,5.973697977
2584,5.984156088
2585,6.024129361
2586,5.949549773
2587,6.017920055
2588,6.00009825
2589,6.02673124
2590,6.051136867
2591,5.987495792
2592,6.002611452
2593,6.000300629
2594,6.013981897
2595,5.967509792
2596,6.020376307
2597,6.027179372
2598,6.015854354
2599,5.994670762
2600,6.026447598
2601,6.032328683
2602,5.985947643
2603,6.032244918
2604,5.994607231
2605,5.994487501
2606,5.981069572
2607,5.99479565
2608,5.992233628
2609,5.985708045
2610,5.997457794
2611,6.020032458
2612,5.980107524
2613,6.027897022
2614,6.045650757
2615,5.999346963
2616,5.988341971
2617,6.020558562
2618,6.02439612
2619,5.977824324
2620,6.015187405
2621,6.024087903
2622,5.996480019
2623,5.980637567
2624,6.003182576
2625,5.995323486
2626,5.989065556
2627,5.981590465
2628,5.991303051
2629,5.992158436
2630,5.985949784
2631,6.03050959
2632,5.973419251
2633,5.995869379
2634,6.01359746
2635,6.020374028
2636,6.009407425
2637,5.996924014
2638,5.991055871
2639,5.983530695
2640,6.01900842
2641,6.018275373
2642,6.029613814
2643,6.008211592
2644,6.025721509
2645,5.958929612
2646,6.010509363
2647,5.994145844
2648,5.980085462
2649,5.999049275
2650,5.983549546
2651,6.021098804
2652,6.002940306
2653,6.012295314
2654,6.01618025
2655,6.002841624
2656,5.962071169
2657,6.006042872
2658,6.029998497
2659,6.014681948
2660,5.977194337
2661,6.0234895
2662,6.004418681
2663,6.03889047
2664,6.025988552
2665,5.989883579
2666,6.04859446
2667,5.966327866
2668,6.038453563
2669,6.010892373
2670,6.016919602
2671,6.019028933
2672,6.001761653
2673,5.978618895
2674,6.011078135
2675,5.997591545
2676,5.976060278
2677,6.007356054
2678,5.997655847
2679,6.008771963
2680,6.001940734
2681,5.998509749
2682,6.018218435
2683,6.007006461
2684,5.967053734
2685,6.00535527
2686,5.979585416
2687,5.979188186
2688,6.03599902
2689,5.997302427
2690,5.995966779
2691,5.974970125
2692,6.01676399
2693,5.984431153
2694,6.007894381
2695,5.993228572
2696,5.987863433
2697,5.991374392
2698,6.020650601
2699,5.995381096
2700,5.999974572
2701,5.982391374
2702,6.006135729
2703,6.016718031
2704,5.981393746
2705,5.992871308
2706,5.988333695
2707,6.021590316
2708,5.964694597
2709,6.024800014
2710,6.00655858
2711,5.993310766
2712,6.031186405
2713,5.982989914
2714,6.024130197
2715,6.030026208
2716,6.023173001
2717,6.00428927
2718,6.045039846
2719,5.987216677
2720,6.017454678
2721,6.005150882
2722,5.979389989
2723,6.024713621
2724,6.015093127
2725,5.986989429
2726,6.008161209
2727,5.967064854
2728,6.009749026
2729,6.003587064
2730,5.993838925
2731,5.98615296
2732,6.006989443
2733,5.970130798
2734,6.013208981
2735,5.997248549
2736,5.982313055
2737,5.990337231
2738,6.011391455
2739,5.997018183
2740,5.983783501
2741,6.021504974
2742,6.043096359
2743,5.993557833
2744,5.972833731
2745,5.996274781
2746,6.023591015
2747,5.97502507
2748,6.015753643
2749,6.019732715
2750,6.01476254
2751,5.988712334
2752,5.980523573
2753,6.017207043
2754,5.998351829
2755,6.017006539
2756,6.013727867
2757,5.964528624
2758,5.994990888
2759,5.9975889
2760,6.032472838
2761,5.988246545
2762,6.000003891
2763,6.023486649
2764,5.999568588
2765,5.999213027
2766,5.977151131
2767,6.040324481
2768,6.014950876
2769,6.008372359
2770,6.003238281
2771,6.006467614
2772,5.980669822
2773,5.989637718
2774,6.03284179
2775,5.962580087
2776,6.003947933
2777,5.986557847
2778,5.990246121
2779,5.986927787
2780,6.005139531
2781,5.986037105
2782,6.024165852
2783,5.967409669
2784,6.027402828
2785,5.998474696
2786,5.999889166
2787,5.993412542
2788,6.024992067
2789,6.0119771
2790,5.987421724
2791,5.973512663
2792,5.990833769
2793,6.014463255
2794,6.014332723
2795,6.007338226
2796,6.013192459
2797,5.997109911
2798,5.996480919
2799,6.005849739
2800,5.998897364
2801,5.962838268
2802,5.999419031
2803,6.003273673
2804,6.030900957
2805,6.004383555
2806,5.986154932
2807,6.000587331
2808,6.042857662
2809,6.009970397
2810,5.98363203
2811,5.993275814
2812,5.988193791
2813,6.00277024
2814,5.989264084
2815,6.003333133
2816,6.005115087
2817,5.990220472
2818,5.998193359
2819,5.95792945
2820,5.995779532
2821,5.975281909
2822,6.026973712
2823,6.028222678
2824,6.026776967
2825,5.989648947
2826,5.998226483
2827,6.017704912
2828,5.971769012
2829,6.008962552
2830,6.020201262
2831,6.020351928
2832,6.021015887
2833,5.970327162
2834,5.998335723
2835,5.975319433
2836,6.015305727
2837,6.022417315
2838,6.002308976
2839,5.984807118
2840,5.994117146
2841,6.038043853
2842,6.01775609
2843,5.974721805
2844,5.993766957
2845,6.012262946
2846,5.989623479
2847,5.974991604
2848,6.008816719
2849,6.026429396
2850,6.006779246
2851,5.990471358
2852,6.02552701
2853,5.981822943
2854,6.017047541
2855,6.000801423
2856,6.014337468
2857,5.981355609
2858,6.028566346
2859,5.983950168
2860,5.996737058
2861,6.035688825
2862,5.985779984
2863,5.977433672
2864,5.980455074
2865,5.983508661
2866,6.020448716
2867,5.976404629
2868,6.029349778
2869,5.989851065
2870,6.000301776
2871,6.013788073
2872,6.021969116
2873,5.99276023
2874,5.978125576
2875,5.970337964
2876,6.055948454
2877,6.004143367
2878,5.992338194
2879,6.03251725
2880,5.995998456
2881,5.990439131
2882,6.002642704
2883,6.020375592
2884,5.986209479
2885,5.987230904
2886,5.96994098
2887,6.015585442
2888,6.007763167
2889,5.99747338
2890,6.003847362
2891,5.981174157
2892,5.950121823
2893,6.032737992
2894,6.000780111
2895,6.002068926
2896,6.000988153
2897,5.992916476
2898,5.983439933
2899,5.979029388
2900,6.009130284
2901,6.009745557
2902,6.003500529
2903,5.99370558
2904,6.037167459
2905,5.984588654
2906,5.99864938
2907,6.018941364
2908,5.988593997
2909,6.004490097
2910,5.971079194
2911,5.995504914
2912,5.994111015
2913,5.994585683
2914,6.011079602
2915,6.03214155
2916,5.985242234
2917,6.017466919
2918,6.004264493
2919,5.975531598
2920,5.966853672
2921,5.942780094
2922,5.991466102
2923,5.975396851
2924,5.96997609
2925,5.999354353
2926,5.98115413
2927,5.987282402
2928,5.952832527
2929,5.988295313
2930,5.972111695
2931,5.993864597
2932,5.98592964
2933,5.995241245
2934,5.983195117
2935,6.012882642
2936,5.990992653
2937,5.964975065
2938,6.003774548
2939,5.988284393
2940,6.008859304
2941,6.002580193
2942,5.98351183
2943,5.971355546
2944,6.002620853
2945,6.012175083
2946,6.015428659
2947,6.017861127
2948,5.996490909
2949,5.971685424
2950,5.973567502
2951,6.028739523
2952,5.993515736
2953,6.026753005
2954,6.043444863
2955,5.976772859
2956,5.975267303
2957,6.023161463
2958,6.009143837
2959,6.01621448
2960,6.003987559
2961,6.011799947
2962,5.988866429
2963,6.005201386
2964,5.99832029
2965,5.99177893
2966,5.968632175
2967,5.983136239
2968,5.993153121
2969,5.975118665
2970,6.01999136
2971,6.032243939
2972,6.017945779
2973,5.999883387
2974,5.962724644
2975,5.974117572
2976,6.022391696
2977,5.970464188
2978,5.983907708
2979,5.994961598
2980,5.982601275
2981,6.022429267
2982,6.022028761
2983,5.983132645
2984,5.995390909
2985,5.988404223
2986,5.998187184
2987,6.007039925
2988,5.998812703
2989,5.957006698
2990,5.992383231
2991,6.000991873
2992,5.995524328
2993,6.02397846
2994,6.006567322
2995,6.006451947
2996,6.009043074
2997,6.022237098
2998,6.046163003
2999,6.002801331
3000,5.984185046
3001,6.009916686
3002,5.984215647
3003,6.016508323
3004,6.045210388
3005,5.98769157
3006,6.017504238
3007,6.005518966
3008,6.008548399
3009,6.017683324
3010,5.976830107
3011,6.005521126
3012,6.010308433
3013,5.988834163
3014,6.019314786
3015,6.032886478
3016,5.997282415
3017,6.032799662
3018,6.012832381
3019,6.004293524
3020,6.021176662
3021,5.984765239
3022,5.997539554
3023,5.956801885
3024,5.967089046
3025,6.024382149
3026,5.998357776
3027,5.978586724
3028,5.973429984
3029,5.993267951
3030,5.986861012
3031,5.95955621
3032,6.018694969
3033,5.980979085
3034,5.999736226
3035,5.988083461
3036,6.034477809
3037,5.950738922
3038,6.027490704
3039,5.988910291
3040,6.000502367
3041,6.039215209
3042,5.971124663
3043,6.002982209
3044,5.981052395
3045,6.003921753
3046,6.037177786
3047,5.993031152
3048,6.006550999
3049,6.019367544
3050,5.997093719
3051,6.021998529
3052,6.01417466
3053,5.998782696
3054,5.991273562
3055,6.003939294
3056,6.007758517
3057,6.020682312
3058,6.028141826
3059,6.011170878
3060,5.975056819
3061,6.027973615
3062,5.977750816
3063,5.962789927
3064,6.010675235
3065,6.028313643
3066,5.997513869
3067,5.979990759
3068,6.023075765
3069,6.011786437
3070,5.961759554
3071,5.986717393
3072,5.952766415
3073,5.983441127
3074,5.998780566
3075,6.004437541
3076,5.9916104
3077,6.006997733
3078,5.9889892
3079,5.955122727
3080,5.993910526
3081,6.019176684
3082,5.994065212
3083,6.027722616
3084,6.017378525
3085,5.991466781
3086,5.996879224
3087,5.986241752
3088,5.990375175
3089,5.965569207
3090,6.021046409
3091,6.005026303
3092,6.007245663
3093,5.99911796
3094,5.976305544
3095,6.032953627
3096,6.010929584
3097,5.968036368
3098,6.041296494
3099,5.970555145
3100,5.97442497
3101,6.004005376
3102,5.997356431
3103,6.004132489
3104,5.971922721
3105,5.991696245
3106,6.005791243
3107,5.994938772
3108,5.995758916
3109,5.942168017
3110,6.023686528
3111,6.012369195
3112,6.006620039
3113,5.999799745
3114,6.000245295
3115,5.99225882
3116,6.012916625
3117,5.99288505
3118,6.005698706
3119,5.960663289
3120,6.001213352
3121,5.969690017
3122,5.997157408
3123,6.00545684
3124,5.976918297
3125,6.022294937
3126,5.990805924
3127,6.000160217
3128,6.004730504
3129,5.982744467
3130,5.99235367
3131,5.988543536
3132,6.008802548
3133,6.025438879
3134,6.020889537
3135,5.967525511
3136,6.010007974
3137,6.006901018
3138,6.014750744
3139,5.972514733
3140,5.980301703
3141,6.053732856
3142,6.010380887
3143,6.006011263
3144,5.983338359
3145,6.045278739
3146,5.958375799
3147,6.003190366
3148,5.997368484
3149,5.97425969
3150,5.987876381
3151,5.996202146
3152,5.961636097
3153,6.026040129
3154,6.013258697
3155,5.967933407
3156,6.03056384
3157,5.998086388
3158,5.990991831
3159,6.038418415
3160,5.997887682
3161,6.017652276
3162,5.996745636
3163,6.016653892
3164,6.008101678
3165,5.970543291
3166,6.029479728
3167,5.994346232
3168,6.019537178
3169,6.052031856
3170,6.001517075
3171,6.031693242
3172,6.000716076
3173,5.993384682
3174,6.013035473
3175,5.979385743
3176,5.995086203
3177,6.0210787
3178,5.969391252
3179,5.985451796
3180,6.016999949
3181,6.030769252
3182,6.014067465
3183,5.989916843
3184,5.971575295
3185,5.985232362
3186,6.028861161
3187,6.03126046
3188,5.979842864
3189,6.005476779
3190,5.997733897
3191,5.984387174
3192,5.982607882
3193,5.971074596
3194,5.973771394
3195,6.017395957
3196,5.969797469
3197,5.981846363
3198,6.017443408
3199,6.019145404
3200,6.016071257
3201,6.002044414
3202,5.971014509
3203,6.014345377
3204,6.031098496
3205,5.983926008
3206,6.010752602
3207,6.00102062
3208,6.00694134
3209,6.009239485
3210,5.996094265
3211,5.986235558
3212,5.996320984
3213,5.988919686
3214,5.978413392
3215,6.00327524
3216,5.976773838
3217,6.008176659
3218,6.01020872
3219,6.028411382
3220,5.99868037
3221,6.016519749
3222,5.992153231
3223,6.023848605
3224,5.989267691
3225,6.023140232
3226,5.984546532
3227,6.01154351
3228,5.979367974
3229,5.984666735
3230,5.99145786
3231,6.005007757
3232,6.007061362
3233,5.995680603
3234,5.996288068
3235,5.988577469
3236,5.988935662
3237,5.98039481
3238,6.015555687
3239,6.01423608
3240,5.997170494
3241,6.006212574
3242,6.02431218
3243,5.97863515
3244,5.982387641
3245,5.99970043
3246,6.023308735
3247,6.042769356
3248,6.023562236
3249,5.983118459
3250,5.992604619
3251,5.993715967
3252,6.018604216
3253,5.982500064
3254,6.003759684
3255,5.997228559
3256,6.003483738
3257,6.016411546
3258,6.015477802
3259,5.973004225
3260,6.029777021
3261,5.988689685
3262,5.999777032
3263,5.985926819
3264,6.00880983
3265,6.014204559
3266,5.972651829
3267,5.991734212
3268,5.988603965
3269,6.010682779
3270,5.988960527
3271,6.022670691
3272,6.003201271
3273,5.977084917
3274,5.983949488
3275,6.013387771
3276,5.997527456
3277,6.007112947
3278,5.998008593
3279,6.002781346
3280,5.999805783
3281,5.992080232
3282,5.976010127
3283,5.980631617
3284,5.967987535
3285,6.023773538
3286,5.999750215
3287,6.041810146
3288,6.015013445
3289,6.037069317
3290,5.976616617
3291,6.015777739
3292,6.012510529
3293,6.006323083
3294,6.016105473
3295,5.988914581
3296,5.996964712
3297,6.03011473
3298,5.987871007
3299,5.996636518
3300,5.997735374
3301,5.983798182
3302,5.98554364
3303,5.988660671
3304,5.995194182
3305,6.006172874
3306,6.025662569
3307,6.013690801
3308,5.990901557
3309,6.000483719
3310,5.981435552
3311,6.007598228
3312,6.012210506
3313,6.033416549
3314,5.98590148
3315,5.975296078
3316,5.994748178
3317,6.008481511
3318,6.008862269
3319,6.011048902
3320,5.993723254
3321,5.992394917
3322,6.008359583
3323,6.00211834
3324,5.997253947
3325,6.011118531
3326,6.001147793
3327,5.953415896
3328,6.02622065
3329,6.025951773
3330,6.039694011
3331,5.974402103
3332,5.998182561
3333,6.009270692
3334,5.973263017
3335,6.029718627
3336,5.992529872
3337,5.982360664
3338,5.995681585
3339,5.983031998
3340,6.008814737
3341,6.002244042
3342,6.008743244
3343,6.003179419
3344,6.013405857
3345,6.018601291
3346,6.004125279
3347,6.000109852
3348,6.018342605
3349,6.003322234
3350,5.99738559
3351,6.017255985
3352,5.988547886
3353,5.990609128
3354,5.994411691
3355,6.02065794
3356,5.991065772
3357,5.989424866
3358,5.997369709
3359,6.00887661
3360,5.991294956
3361,5.997174134
3362,6.000269896
3363,6.002461703
3364,6.008252609
3365,6.02412704
3366,6.053363247
3367,6.025470804
3368,6.000437607
3369,6.015115163
3370,5.987144806
3371,5.972100613
3372,6.04586458
3373,5.99557832
3374,5.985791679
3375,5.984063716
3376,5.988933882
3377,6.015363213
3378,5.988773553
3379,6.031457333
3380,5.992258458
3381,5.97924089
3382,5.998269964
3383,5.998328228
3384,6.002037734
3385,6.018332159
3386,6.003470568
3387,6.043802757
3388,6.015821121
3389,5.99961648
3390,6.025613118
3391,6.000746445
3392,5.995484116
3393,5.989736593
3394,6.008350857
3395,6.020869761
3396,5.98267848
3397,5.976239082
3398,6.005216601
3399,5.982629611
3400,5.998649311
3401,5.988119257
3402,6.009225554
3403,5.982632234
3404,5.985811699
3405,6.00484186
3406,6.005590928
3407,5.985928554
3408,6.002365796
3409,6.006392788
3410,6.006438245
3411,5.996209023
3412,5.97308453
3413,6.037585898
3414,5.97132472
3415,6.011274037
3416,6.007613539
3417,6.032285912
3418,6.001320036
3419,5.997335065
3420,6.004840763
3421,6.012461996
3422,6.025068877
3423,6.03148963
3424,5.986912102
3425,6.001736651
3426,5.995449031
3427,5.984668358
3428,6.002739968
3429,5.995048602
3430,6.019455348
3431,5.991003571
3432,5.974517248
3433,6.020096026
3434,5.996001198
3435,6.01371135
3436,5.972567214
3437,5.986772224
3438,5.984432858
3439,6.032063683
3440,5.989448331
3441,6.039887116
3442,5.997228579
3443,6.030867861
3444,6.009583551
3445,5.996553167
3446,5.986587922
3447,5.984032014
3448,6.032168287
3449,5.992486596
3450,6.012917101
3451,5.990749987
3452,6.02230944
3453,6.016246975
3454,6.026113033
3455,5.985756176
3456,5.990799458
3457,6.008428108
3458,5.995693539
3459,5.985382108
3460,5.993298146
3461,6.014130673
3462,5.98119783
3463,6.05015723
3464,5.992049739
3465,6.007475268
3466,5.984121679
3467,5.996706623
3468,6.004411191
3469,5.990394418
3470,6.013647772
3471,5.971541828
3472,6.004896584
3473,5.981380665
3474,6.004983257
3475,6.003142549
3476,5.962594507
3477,5.967578079
3478,6.02036351
3479,6.007027284
3480,5.975453644
3481,6.043881404
3482,5.982760947
3483,6.002239886
3484,6.021843317
3485,6.023141462
3486,5.990727787
3487,6.024922432
3488,5.994001696
3489,6.014412404
3490,5.980272248
3491,6.005245805
3492,5.967415054
3493,6.000925583
3494,6.033363609
3495,6.007440568
3496,5.997283551
3497,6.020647548
3498,6.03691897
3499,5.981084993
3500,6.01170449
3501,5.995646868
3502,5.994836278
3503,5.986932575
3504,5.991027744
3505,6.027098719
3506,5.954866949
3507,6.0124124
3508,6.005194972
3509,5.988412208
3510,6.011118576
3511,5.990378529
3512,5.967702402
3513,5.97609355
3514,5.986481659
3515,6.005968734
3516,6.003935519
3517,6.008104026
3518,5.979748096
3519,6.026798175
3520,6.002898442
3521,5.989811773
3522,5.996604551
3523,5.997257539
3524,5.973992374
3525,6.025699862
3526,5.994150766
3527,6.002210058
3528,6.017465536
3529,5.987036251
3530,5.990322468
3531,6.024805834
3532,5.98417371
3533,5.987241761
3534,6.001988751
3535,5.975214495
3536,5.98138677
3537,6.00349269
3538,5.997359982
3539,6.0041352
3540,6.003132676
3541,6.013807016
3542,5.977495156
3543,6.020850844
3544,6.00652356
3545,6.017049258
3546,5.955849066
3547,6.034295454
3548,5.998540586
3549,5.99222454
3550,6.002956695
3551,6.007361566
3552,6.003345554
3553,6.005175538
3554,6.063429388
3555,6.007353381
3556,5.989031163
3557,5.977561466
3558,5.998021478
3559,5.950211772
3560,6.032246209
3561,6.028249454
3562,5.997040424
3563,6.000900411
3564,5.998399026
3565,6.011147799
3566,5.991940934
3567,5.982464048
3568,5.992217829
3569,6.006809789
3570,5.996471937
3571,5.999554723
3572,5.992312493
3573,6.022486211
3574,6.020774857
3575,5.999139597
3576,6.027799293
3577,6.029482667
3578,6.050408382
3579,5.993199779
3580,5.986910115
3581,5.996320502
3582,6.014542641
3583,6.007355815
3584,6.02773513
3585,6.00941324
3586,6.00315082
3587,6.018105469
3588,5.998650556
3589,6.01080871
3590,6.021322345
3591,6.006181348
3592,5.993248829
3593,5.990848723
3594,5.989761255
3595,5.98993858
3596,5.988013688
3597,5.981055462
3598,6.041806339
3599,5.995526941
3600,5.963151046
3601,6.006818532
3602,5.995673636
3603,5.995709466
3604,5.976170361
3605,5.986159157
3606,6.01326658
3607,6.004177119
3608,6.021495078
3609,6.04052696
3610,6.015166527
3611,5.997638448
3612,5.986753457
3613,6.018464334
3614,6.009244339
3615,5.974721175
3616,5.991537348
3617,5.993539641
3618,5.950148369
3619,6.000782998
3620,5.975284569
3621,5.974004797
3622,5.983319391
3623,6.012042521
3624,6.004194429
3625,5.991642534
3626,6.008411662
3627,5.9696466
3628,6.007112964
3629,5.982865846
3630,6.011276574
3631,6.004894138
3632,5.993676666
3633,5.985289635
3634,5.985195665
3635,5.995706826
3636,6.034733548
3637,5.994985802
3638,6.028663409
3639,5.965435876
3640,5.992704454
3641,5.974135491
3642,6.011527773
3643,6.010997157
3644,5.947219183
3645,6.007707222
3646,5.992794674
3647,5.983279359
3648,5.983181672
3649,6.020900827
3650,6.011621756
3651,5.977717574
3652,5.989760354
3653,6.018005405
3654,5.998740556
3655,5.964973621
3656,6.010190264
3657,5.963108506
3658,5.956875528
3659,6.007322396
3660,6.010388909
3661,5.984980793
3662,5.997417298
3663,5.992627963
3664,5.99439097
3665,6.010028861
3666,5.998350515
3667,6.016282372
3668,5.984469263
3669,6.011800011
3670,6.010672429
3671,5.973739189
3672,6.028270248
3673,6.030472715
3674,6.018779405
3675,5.966951516
3676,6.001585665
3677,5.973466464
3678,6.01815136
3679,6.004369851
3680,5.981982244
3681,6.008988296
3682,6.029919287
3683,5.995408998
3684,5.98994694
3685,6.04228819
3686,6.005514104
3687,5.999855591
3688,5.979037347
3689,6.041919131
3690,5.997490486
3691,5.978037604
3692,5.996453397
3693,6.011812551
3694,5.984399193
3695,5.992839654
3696,6.00652053
3697,6.003196417
3698,5.980858637
3699,6.040105539
3700,5.973491135
3701,5.979094904
3702,5.997413067
3703,5.991664708
3704,5.979687306
3705,5.998655157
3706,6.014435868
3707,5.999109544
3708,5.978714514
3709,5.973811777
3710,5.997267672
3711,5.997997838
3712,5.995055759
3713,6.013314603
3714,6.005632099
3715,6.021574335
3716,6.024705878
3717,6.014806466
3718,5.963466961
3719,5.993167524
3720,6.001608974
3721,6.013801824
3722,6.017592258
3723,6.016102266
3724,6.013433924
3725,6.011075958
3726,5.988581863
3727,5.980802874
3728,6.008186926
3729,5.995773856
3730,6.024400584
3731,5.999236252
3732,6.002919976
3733,6.001569483
3734,5.984874766
3735,6.03895989
3736,5.998464278
3737,5.994278634
3738,6.008655846
3739,5.989158401
3740,5.998280777
3741,6.019302329
3742,5.993299191
3743,6.015635812
3744,5.961471102
3745,5.989399907
3746,6.000697129
3747,6.011054717
3748,6.008687958
3749,5.974493679
3750,6.01226373
3751,5.982671338
3752,6.016605792
3753,6.01533686
3754,5.985105739
3755,6.011129215
3756,6.025887278
3757,5.99630259
3758,5.990498358
3759,6.001240182
3760,5.97943484
3761,6.00664285
3762,6.012630624
3763,6.023281368
3764,6.003486186
3765,5.980517581
3766,5.999357373
3767,6.023558791
3768,6.023806067
3769,5.971403506
3770,5.984512491
3771,5.995627028
3772,6.017422809
3773,6.032616807
3774,6.0085056
3775,6.007625796
3776,6.02723607
3777,5.98251888
3778,6.033296507
3779,5.996271826
3780,6.0099946
3781,6.051313438
3782,5.991353526
3783,6.021955617
3784,6.014539517
3785,6.003263479
3786,5.981771917
3787,5.995250375
3788,6.009800941
3789,6.002549848
3790,5.978495508
3791,5.993175622
3792,6.005511111
3793,5.977551595
3794,5.969823961
3795,6.038902815
3796,5.99145857
3797,5.999471253
3798,6.012137617
3799,5.996923815
3800,6.020432182
3801,6.023266909
3802,5.992521173
3803,6.020195585
3804,5.975165717
3805,6.002146559
3806,5.998035442
3807,5.98860086
3808,5.993133253
3809,6.022733809
3810,5.971328307
3811,5.995568742
3812,5.973505307
3813,6.010946595
3814,6.010248562
3815,5.987038523
3816,5.994120024
3817,5.978050121
3818,6.020558058
3819,5.973979523
3820,6.022760689
3821,5.998400308
3822,6.007846042
3823,6.018764345
3824,6.007495364
3825,5.999226618
3826,6.020664198
3827,6.026731504
3828,6.020148386
3829,6.002928192
3830,5.982960626
3831,6.013586325
3832,5.971365233
3833,5.970865929
3834,6.002996813
3835,5.991656468
3836,5.99650951
3837,6.006579992
3838,5.990624224
3839,6.004060534
3840,6.012998831
3841,5.962692708
3842,5.974488376
3843,6.010919752
3844,6.009057207
3845,6.001097656
3846,6.025221253
3847,5.98903024
3848,5.996701941
3849,6.007579765
3850,5.974608319
3851,6.006288572
3852,5.995848034
3853,5.983180333
3854,5.996761578
3855,6.004309648
3856,6.028053702
3857,6.001676752
3858,5.988861111
3859,5.959719047
3860,5.952176082
3861,6.008585797
3862,6.026067955
3863,6.006891308
3864,6.005870317
3865,5.976498165
3866,6.02699335
3867,5.955646291
3868,6.001239237
3869,5.976616103
3870,5.986246796
3871,5.98369008
3872,6.025739367
3873,5.986808655
3874,6.030508654
3875,6.004990234
3876,6.005193382
3877,6.007372333
3878,6.006602306
3879,6.006128057
3880,6.005168429
3881,5.980768388
3882,5.982133469
3883,6.025989355
3884,5.971316867
3885,5.995413202
3886,6.024321988
3887,5.963857343
3888,6.002204683
3889,6.006418153
3890,5.977990316
3891,6.011427346
3892,6.019115983
3893,5.980566679
3894,6.018824623
3895,6.002531615
3896,5.994104727
3897,6.017301312
3898,6.026185293
3899,6.019035366
3900,5.982943332
3901,6.002930049
3902,6.008806804
3903,6.032924298
3904,5.987561371
3905,5.991183806
3906,5.997771724
3907,5.962388175
3908,5.982430163
3909,6.005582414
3910,6.028572284
3911,5.993272749
3912,5.975406063
3913,5.998950131
3914,5.983123574
3915,6.001835111
3916,6.015844656
3917,6.022264042
3918,5.973527346
3919,6.018741265
3920,5.99619947
3921,6.011521036
3922,5.965622333
3923,6.008103442
3924,6.006750533
3925,6.029024919
3926,5.996833934
3927,6.031470767
3928,5.999536472
3929,6.015883947
3930,5.989872928
3931,6.014930498
3932,6.010292606
3933,5.961948225
3934,6.008349959
3935,6.017535393
3936,5.998437046
3937,5.998744839
3938,6.012310689
3939,5.988007685
3940,6.002951218
3941,5.987563223
3942,6.017167925
3943,6.019081979
3944,6.015426537
3945,5.980030604
3946,6.020479016
3947,6.028743617
3948,6.008762237
3949,6.015754872
3950,6.005943612
3951,5.990593056
3952,5.987278698
3953,5.979150823
3954,5.990784392
3955,5.994871273
3956,5.995510978
3957,5.98579261
3958,6.023897471
3959,5.99531151
3960,6.012683683
3961,5.96304906
3962,5.988168542
3963,6.009763102
3964,5.994330132
3965,6.012244202
3966,6.037419504
3967,6.011430524
3968,6.004469053
3969,5.96946988
3970,5.9963051
3971,5.998323748
3972,5.979197496
3973,6.023725312
3974,5.998826772
3975,5.981525854
3976,6.014282019
3977,5.991125347
3978,6.011057037
3979,5.973146677
3980,5.990586898
3981,5.987860123
3982,5.995933737
3983,6.027151417
3984,6.024379461
3985,5.98484826
3986,5.986456185
3987,5.965756983
3988,6.013493334
3989,5.963240144
3990,6.035231089
3991,6.007765495
3992,5.976500231
3993,5.990650499
3994,5.950492
3995,5.993036047
3996,6.005556368
3997,5.987531111
3998,6.009194729
3999,6.014293154
4000,6.004078275
