Raman Shift,Intensity
136.9925,4616.126
137.4746,4686.181
137.9567,4749.655
138.4389,4810.092
138.921,4859.634
139.4031,4882.827
139.8852,4868.015
140.3673,4869.797
140.8494,4908.644
141.3316,4992.872
141.8137,5057.625
142.2958,5097.548
142.7779,5125.284
143.26,5162.479
143.7421,5208.841
144.2243,5264.975
144.7064,5333.343
145.1885,5433.81
145.6706,5510.059
146.1527,5553.515
146.6348,5572.068
147.117,5598.155
147.5991,5639.4
148.0812,5680.992
148.5633,5713.817
149.0454,5719.439
149.5275,5738.173
150.0097,5782.059
150.4918,5851.603
150.9739,5900.034
151.456,5901.54
151.9381,5893.571
152.4202,5906.4
152.9024,5956.941
153.3845,6012.887
153.8666,6072.866
154.3487,6140.325
154.8308,6190.166
155.3129,6193.352
155.795,6182.721
156.2772,6203.149
156.7593,6305.982
157.2414,6407.833
157.7235,6471.112
158.2056,6468.578
158.6877,6475.963
159.1699,6517.134
159.652,6582.963
160.1341,6651.209
160.6162,6728.692
161.0983,6798.166
161.5804,6848.396
162.0626,6867.369
162.5447,6878.111
163.0268,6888.104
163.5089,6897.227
163.991,6904.413
164.4731,6910.198
164.9553,6913.391
165.4374,6912.805
165.9195,6904.561
166.4016,6894.849
166.8837,6889.431
167.3658,6888.252
167.848,6881.225
168.3301,6858.109
168.8122,6825.518
169.2943,6793.489
169.7764,6772.583
170.2585,6750.434
170.7407,6712.711
171.2228,6655.468
171.7049,6598.666
172.187,6556.808
172.6691,6527.418
173.1512,6505.046
173.6334,6496.5
174.1155,6489.675
174.5976,6465.281
175.0797,6413.756
175.5618,6361.72
176.0439,6338.422
176.526,6340.015
177.0082,6348.708
177.4903,6352.177
177.9724,6354.817
178.4545,6365.885
178.9366,6391.44
179.4187,6421.933
179.9009,6440.055
180.383,6447.129
180.8651,6458.599
181.3472,6486.329
181.8293,6528.868
182.3114,6581.058
182.7936,6646.299
183.2757,6718.215
183.7578,6787.581
184.2399,6853.742
184.722,6916.799
185.2041,6965.556
185.6863,7005.386
186.1684,7065.438
186.6505,7171.819
187.1326,7308.982
187.6147,7426.374
188.0968,7523.822
188.579,7604.768
189.0611,7674.664
189.5432,7733.027
190.0253,7780.04
190.5074,7813.379
190.9895,7834.218
191.4717,7853.636
191.9538,7872.756
192.4359,7890.724
192.918,7909.501
193.4001,7930.322
193.8822,7940.337
194.3644,7929.442
194.8465,7898.473
195.3286,7864.695
195.8107,7830.032
196.2928,7793.545
196.7749,7753.327
197.257,7709.831
197.7392,7660.732
198.2213,7601.058
198.7034,7529.257
199.1855,7464.751
199.6676,7409.034
200.1497,7362.301
200.6319,7329.562
201.114,7315.021
201.5961,7300.477
202.0782,7263.67
202.5603,7198.385
203.0424,7151.759
203.5246,7141.101
204.0067,7161.462
204.4888,7161.249
204.9709,7132.715
205.453,7099.499
205.9352,7093.34
206.4173,7124.75
206.8994,7139.492
207.3815,7111.613
207.8636,7039.522
208.3457,7012.407
208.8279,7043.549
209.31,7101.262
209.7921,7142.078
210.2742,7161.514
210.7563,7177.68
211.2384,7197.213
211.7206,7221.893
212.2027,7238.957
212.6848,7246.866
213.1669,7248.524
213.649,7251.256
214.1311,7260.929
214.6133,7258.013
215.0954,7233.313
215.5775,7183.58
216.0596,7124.526
216.5417,7053.557
217.0238,6974.681
217.5059,6899.513
217.9881,6840.946
218.4702,6762.003
218.9523,6635.556
219.4344,6433.794
219.9165,6266.881
220.3986,6149.993
220.8808,6068.805
221.3629,5967.444
221.845,5829.258
222.3271,5696.454
222.8092,5593.84
223.2913,5536.859
223.7735,5474.598
224.2556,5401.193
224.7377,5318.424
225.2198,5240.214
225.7019,5163.757
226.184,5094.216
226.6662,5033.75
227.1483,4981.622
227.6304,4941.136
228.1125,4914.961
228.5946,4901.954
229.0767,4886.22
229.5589,4862.963
230.041,4842.689
230.5231,4834.691
231.0052,4846.76
231.4873,4856.304
231.9694,4859.29
232.4516,4855.811
232.9337,4853.84
233.4158,4847.843
233.8979,4849.13
234.38,4869.65
234.8621,4918.185
235.3443,4970.107
235.8264,5021.669
236.3085,5072.946
236.7906,5121.646
237.2727,5157.803
237.7548,5199.966
238.2369,5270.828
238.7191,5385.946
239.2012,5502.385
239.6833,5606.031
240.1654,5693.221
240.6475,5801.669
241.1296,5940.436
241.6118,6093.323
242.0939,6236.855
242.576,6351.095
243.0581,6490.075
243.5402,6670.097
244.0223,6893.411
244.5045,7135.228
244.9866,7392.773
245.4687,7670.884
245.9508,7976.885
246.4329,8313.726
246.915,8673.508
247.3972,9051.299
247.8793,9435.61
248.3614,9872.662
248.8435,10370.49
249.3256,10919.02
249.8077,11491.95
250.2899,12086.18
250.772,12716.72
251.2541,13392.11
251.7362,14108.76
252.2183,14864.65
252.7004,15665.29
253.1826,16494.63
253.6647,17316.85
254.1468,18130.61
254.6289,18941.05
255.111,19758.69
255.5931,20598.58
256.0753,21413.46
256.5574,22222.97
257.0395,23009.94
257.5216,23732.51
258.0037,24411.24
258.4858,24997.98
258.968,25478.95
259.4501,25882.95
259.9322,26102.9
260.4143,26126.34
260.8964,25974.78
261.3785,25692.57
261.8607,25269.44
262.3428,24735.38
262.8249,24086.61
263.307,23308.19
263.7891,22480.64
264.2712,21606.54
264.7534,20695.42
265.2355,19794.75
265.7176,18884.1
266.1997,18013.38
266.6818,17201.07
267.1639,16463.5
267.6461,15730.11
268.1282,14984.5
268.6103,14253.78
269.0924,13595.96
269.5745,13028.6
270.0566,12497.87
270.5387,11968.38
271.0208,11435.56
271.503,10940.82
271.9851,10483.51
272.4672,10066.96
272.9493,9705.753
273.4314,9410.063
273.9135,9136.571
274.3957,8866.523
274.8778,8599.274
275.3599,8341.041
275.842,8089.688
276.3241,7850.323
276.8062,7636.784
277.2884,7451.82
277.7705,7280.078
278.2526,7112.031
278.7347,6947.147
279.2168,6798.79
279.6989,6668.14
280.1811,6551.729
280.6632,6440.635
281.1453,6335.722
281.6274,6228.626
282.1095,6110.127
282.5916,5980.618
283.0738,5863.272
283.5559,5760.073
284.038,5668.815
284.5201,5586.308
285.0022,5511.965
285.4843,5448.707
285.9665,5404.199
286.4486,5375.935
286.9307,5338.695
287.4128,5289.019
287.8949,5233.617
288.377,5182.812
288.8592,5136.529
289.3413,5097.844
289.8234,5081.183
290.3055,5077.791
290.7876,5037.146
291.2697,4943.482
291.7519,4839.75
292.234,4800.06
292.7161,4819.55
293.1982,4843.134
293.6803,4837.879
294.1624,4812.03
294.6446,4789.33
295.1267,4770.655
295.6088,4758.086
296.0909,4758.871
296.573,4770.325
297.0551,4778.775
297.5373,4772.641
298.0194,4758.629
298.5015,4751.658
298.9836,4754.687
299.4657,4758.373
299.9478,4747.397
300.43,4726.877
300.9121,4713.534
301.3942,4724.346
301.8763,4745.462
302.3584,4755.918
302.8405,4753.224
303.3227,4745.071
303.8048,4735.497
304.2869,4726.025
304.769,4719.813
305.2511,4718.395
305.7332,4721.201
306.2154,4729.217
306.6975,4743.227
307.1796,4756.505
307.6617,4766.562
308.1438,4771.725
308.6259,4769.249
309.1081,4742.157
309.5901,4716.769
310.0723,4718.84
310.5544,4752.673
311.0365,4786.06
311.5186,4800.835
312.0007,4802.401
312.4828,4798.921
312.965,4783.062
313.4471,4771.261
313.9292,4779.959
314.4113,4811.589
314.8934,4832.305
315.3755,4816.021
315.8577,4783.126
316.3398,4757.773
316.8219,4751.389
317.304,4750.731
317.7861,4752.699
318.2682,4757.125
318.7504,4757.666
319.2325,4747.306
319.7146,4734.112
320.1967,4725.771
320.6788,4726.571
321.1609,4729.794
321.6431,4735.0
322.1252,4741.974
322.6073,4746.521
323.0894,4752.534
323.5715,4753.166
324.0536,4743.306
324.5358,4706.101
325.0179,4675.943
325.5,4663.416
325.9821,4666.539
326.4642,4660.019
326.9464,4637.054
327.4285,4607.65
327.9106,4577.257
328.3927,4538.301
328.8748,4508.549
329.3569,4490.903
329.8391,4483.901
330.3212,4481.458
330.8033,4494.238
331.2854,4501.05
331.7675,4489.497
332.2496,4443.092
332.7318,4409.843
333.2139,4396.005
333.696,4395.493
334.1781,4387.808
334.6602,4364.301
335.1423,4348.085
335.6245,4352.688
336.1066,4388.354
336.5887,4411.349
337.0708,4415.89
337.5529,4411.822
338.035,4422.896
338.5172,4455.919
338.9993,4482.161
339.4814,4484.467
339.9635,4458.959
340.4456,4449.201
340.9277,4458.104
341.4099,4477.254
341.892,4495.18
342.3741,4511.67
342.8562,4527.037
343.3383,4541.955
343.8204,4555.951
344.3026,4564.768
344.7847,4567.165
345.2668,4568.876
345.7489,4576.08
346.231,4588.62
346.7131,4604.287
347.1953,4619.483
347.6774,4638.045
348.1595,4674.359
348.6416,4728.728
349.1237,4783.275
349.6058,4817.873
350.088,4838.317
350.57,4861.467
351.0522,4894.921
351.5343,4931.721
352.0164,4961.173
352.4985,4983.976
352.9806,5006.542
353.4627,5026.423
353.9449,5050.752
354.427,5092.7
354.9091,5166.622
355.3912,5242.465
355.8733,5289.438
356.3554,5313.102
356.8376,5337.234
357.3197,5374.086
357.8018,5417.787
358.2839,5463.702
358.766,5512.223
359.2481,5559.693
359.7303,5602.32
360.2124,5642.116
360.6945,5685.18
361.1766,5738.934
361.6587,5793.028
362.1408,5840.264
362.623,5877.708
363.1051,5917.374
363.5872,5957.632
364.0693,6003.862
364.5514,6063.107
365.0335,6157.857
365.5157,6247.02
365.9978,6315.108
366.4799,6356.808
366.962,6401.772
367.4441,6449.635
367.9262,6502.808
368.4084,6563.104
368.8905,6640.811
369.3726,6713.454
369.8547,6776.895
370.3368,6831.266
370.8189,6879.762
371.3011,6917.421
371.7832,6953.706
372.2653,6996.992
372.7474,7052.287
373.2295,7102.618
373.7116,7143.01
374.1938,7177.117
374.6759,7221.512
375.158,7280.335
375.6401,7339.968
376.1222,7392.789
376.6043,7437.524
377.0865,7479.955
377.5686,7519.986
378.0507,7558.39
378.5328,7594.01
379.0149,7626.384
379.497,7662.56
379.9792,7705.798
380.4613,7756.206
380.9434,7809.529
381.4255,7866.192
381.9076,7925.971
382.3897,7990.9
382.8719,8060.189
383.354,8126.101
383.8361,8186.415
384.3182,8241.265
384.8003,8288.642
385.2824,8328.217
385.7646,8370.207
386.2467,8422.487
386.7288,8484.157
387.2109,8554.19
387.693,8640.791
388.1751,8728.374
388.6573,8797.058
389.1394,8851.557
389.6215,8915.111
390.1036,9009.167
390.5857,9115.714
391.0678,9218.715
391.5499,9312.693
392.032,9404.896
392.5142,9490.341
392.9963,9575.509
393.4784,9676.754
393.9605,9812.121
394.4426,9955.356
394.9247,10092.68
395.4069,10220.32
395.889,10349.25
396.3711,10485.71
396.8532,10622.97
397.3353,10750.96
397.8174,10848.83
398.2996,10956.62
398.7817,11092.67
399.2638,11265.1
399.7459,11405.12
400.228,11481.45
400.7101,11547.27
401.1923,11649.92
401.6744,11812.04
402.1565,11968.56
402.6386,12117.63
403.1207,12255.81
403.6028,12359.09
404.085,12418.14
404.5671,12461.04
405.0492,12506.64
405.5313,12557.71
406.0134,12593.44
406.4955,12607.94
406.9777,12611.36
407.4598,12628.29
407.9419,12660.84
408.424,12682.15
408.9061,12680.25
409.3882,12656.19
409.8704,12615.11
410.3525,12556.42
410.8346,12482.14
411.3167,12393.68
411.7988,12289.85
412.2809,12171.4
412.7631,12032.27
413.2452,11879.56
413.7273,11727.17
414.2094,11573.94
414.6915,11411.87
415.1736,11237.66
415.6558,11050.21
416.1379,10852.04
416.62,10629.83
417.1021,10413.24
417.5842,10222.71
418.0663,10052.15
418.5485,9887.074
419.0306,9728.298
419.5127,9566.071
419.9948,9385.59
420.4769,9175.282
420.959,8987.251
421.4412,8854.304
421.9233,8747.457
422.4054,8623.506
422.8875,8455.311
423.3696,8288.815
423.8517,8136.658
424.3339,8002.45
424.816,7872.192
425.2981,7745.279
425.7802,7624.296
426.2623,7510.198
426.7444,7406.701
427.2266,7305.708
427.7087,7206.858
428.1908,7109.963
428.6729,7006.384
429.155,6890.793
429.6371,6781.828
430.1193,6692.333
430.6014,6624.362
431.0835,6558.453
431.5656,6494.921
432.0477,6431.278
432.5298,6362.548
433.0119,6288.661
433.494,6215.502
433.9762,6142.526
434.4583,6072.132
434.9404,6013.494
435.4225,5966.89
435.9046,5925.2
436.3867,5889.308
436.8689,5853.418
437.351,5804.033
437.8331,5732.655
438.3152,5652.949
438.7973,5573.483
439.2794,5496.327
439.7616,5429.225
440.2437,5383.505
440.7258,5346.67
441.2079,5309.207
441.69,5270.104
442.1721,5228.947
442.6543,5181.514
443.1364,5132.813
443.6185,5090.044
444.1006,5064.938
444.5827,5037.674
445.0648,4998.862
445.547,4947.309
446.0291,4901.629
446.5112,4864.646
446.9933,4833.978
447.4754,4807.906
447.9576,4795.365
448.4397,4773.687
448.9218,4736.99
449.4039,4690.55
449.886,4652.368
450.3681,4625.603
450.8503,4601.275
451.3324,4574.39
451.8145,4543.829
452.2966,4519.911
452.7787,4503.427
453.2608,4491.438
453.743,4478.82
454.2251,4465.738
454.7072,4458.881
455.1893,4465.213
455.6714,4477.374
456.1535,4472.517
456.6357,4451.152
457.1178,4428.896
457.5999,4420.477
458.082,4420.034
458.5641,4414.505
459.0462,4398.087
459.5284,4383.861
460.0105,4390.642
460.4926,4409.959
460.9747,4421.309
461.4568,4402.387
461.9389,4380.416
462.4211,4376.342
462.9032,4393.043
463.3853,4409.932
463.8674,4416.149
464.3495,4419.431
464.8316,4427.159
465.3138,4454.464
465.7959,4471.397
466.278,4466.729
466.7601,4444.343
467.2422,4428.094
467.7243,4432.946
468.2065,4429.687
468.6886,4401.883
469.1707,4330.555
469.6528,4290.3
470.1349,4291.565
470.617,4314.953
471.0992,4332.937
471.5813,4344.993
472.0634,4354.614
472.5455,4364.909
473.0276,4373.695
473.5097,4368.107
473.9918,4346.978
474.4739,4319.778
474.9561,4288.943
475.4382,4257.204
475.9203,4237.837
476.4024,4234.183
476.8845,4239.657
477.3666,4252.211
477.8488,4268.172
478.3309,4275.555
478.813,4263.698
479.2951,4242.697
479.7772,4218.281
480.2593,4190.524
480.7415,4172.541
481.2236,4180.499
481.7057,4198.126
482.1878,4209.426
482.6699,4218.703
483.152,4211.188
483.6342,4166.477
484.1163,4098.619
484.5984,4054.959
485.0805,4064.945
485.5626,4080.351
486.0447,4082.498
486.5269,4065.481
487.009,4055.525
487.4911,4059.563
487.9732,4064.84
488.4553,4054.751
488.9374,4022.683
489.4196,3997.219
489.9017,3986.457
490.3838,3986.2
490.8659,3976.825
491.348,3956.85
491.8301,3938.822
492.3123,3935.504
492.7944,3942.574
493.2765,3935.761
493.7586,3910.606
494.2407,3882.38
494.7228,3870.318
495.205,3870.311
495.6871,3871.295
496.1692,3872.88
496.6513,3870.547
497.1334,3855.709
497.6155,3830.532
498.0977,3810.291
498.5798,3811.084
499.0619,3816.36
499.544,3812.262
500.0261,3792.61
500.5082,3771.473
500.9904,3745.065
501.4725,3721.295
501.9546,3712.979
502.4367,3740.92
502.9188,3764.738
503.4009,3772.72
503.8831,3764.264
504.3652,3764.325
504.8473,3780.495
505.3294,3794.7
505.8115,3791.526
506.2936,3765.325
506.7758,3746.964
507.2579,3740.245
507.74,3740.458
508.2221,3740.302
508.7042,3739.846
509.1863,3736.259
509.6685,3727.455
510.1506,3714.953
510.6327,3702.565
511.1148,3690.409
511.5969,3678.192
512.079,3658.716
512.5612,3640.832
513.0433,3640.81
513.5254,3669.704
514.0075,3701.847
514.4896,3717.007
514.9717,3721.448
515.4539,3728.894
515.936,3757.076
516.4181,3778.599
516.9002,3774.102
517.3823,3739.448
517.8644,3718.871
518.3466,3725.544
518.8287,3745.114
519.3108,3767.818
519.7929,3802.029
520.275,3825.398
520.7571,3835.525
521.2393,3834.89
521.7214,3826.377
522.2035,3804.964
522.6856,3791.999
523.1677,3798.111
523.6498,3821.081
524.132,3841.681
524.6141,3860.12
525.0962,3875.423
525.5783,3882.687
526.0604,3885.537
526.5425,3898.649
527.0247,3927.993
527.5068,3960.109
527.9889,3981.59
528.471,3993.39
528.9531,3998.644
529.4352,3993.868
529.9174,3986.781
530.3995,3980.655
530.8816,3975.971
531.3637,3978.635
531.8458,3999.103
532.3279,4023.068
532.8101,4039.611
533.2922,4039.898
533.7743,4042.979
534.2564,4053.702
534.7385,4067.327
535.2206,4075.311
535.7027,4073.195
536.1848,4072.785
536.6669,4075.847
537.149,4082.596
537.6312,4102.171
538.1133,4139.747
538.5954,4172.434
539.0775,4175.346
539.5596,4152.537
540.0417,4146.066
540.5239,4164.596
541.006,4188.688
541.4881,4185.96
541.9702,4165.644
542.4523,4156.765
542.9344,4183.195
543.4166,4219.801
543.8987,4244.406
544.3808,4257.824
544.8629,4264.876
545.345,4263.964
545.8271,4260.472
546.3093,4258.362
546.7914,4259.189
547.2735,4259.277
547.7556,4255.014
548.2377,4250.558
548.7198,4251.548
549.202,4258.828
549.6841,4270.408
550.1662,4286.96
550.6483,4307.605
551.1304,4329.585
551.6125,4354.922
552.0947,4375.514
552.5768,4385.69
553.0589,4385.563
553.541,4382.828
554.0231,4376.839
554.5052,4371.51
554.9874,4370.224
555.4695,4373.179
555.9516,4381.852
556.4337,4399.911
556.9158,4419.437
557.3979,4430.382
557.8801,4435.552
558.3622,4443.606
558.8443,4463.458
559.3264,4484.522
559.8085,4500.946
560.2906,4512.586
560.7728,4518.0
561.2549,4513.067
561.737,4504.073
562.2191,4496.128
562.7012,4491.06
563.1833,4484.149
563.6655,4470.858
564.1476,4457.532
564.6297,4458.788
565.1118,4477.828
565.5939,4501.63
566.076,4531.385
566.5582,4562.68
567.0403,4567.017
567.5224,4542.347
568.0045,4516.43
568.4866,4511.94
568.9688,4523.403
569.4509,4540.335
569.933,4563.658
570.4151,4580.626
570.8972,4571.599
571.3793,4548.912
571.8615,4533.724
572.3436,4537.11
572.8257,4547.054
573.3078,4560.8
573.7899,4577.189
574.272,4590.208
574.7542,4590.569
575.2363,4594.393
575.7184,4613.057
576.2005,4656.252
576.6826,4672.865
577.1647,4648.836
577.6469,4614.508
578.129,4601.609
578.6111,4614.437
579.0932,4621.049
579.5753,4613.396
580.0574,4602.419
580.5396,4613.943
581.0217,4646.004
581.5038,4675.26
581.9859,4683.66
582.468,4684.686
582.9501,4703.752
583.4323,4739.291
583.9144,4770.154
584.3965,4779.717
584.8786,4779.064
585.3607,4777.389
585.8428,4774.657
586.325,4775.927
586.8071,4786.171
587.2892,4800.318
587.7713,4811.816
588.2534,4806.308
588.7355,4815.682
589.2177,4850.988
589.6998,4904.522
590.1819,4945.804
590.664,4971.932
591.1461,4993.861
591.6282,5017.409
592.1104,5042.064
592.5925,5055.376
593.0746,5054.935
593.5567,5059.494
594.0388,5089.996
594.5209,5139.341
595.0031,5192.822
595.4852,5252.458
595.9673,5299.868
596.4494,5306.869
596.9315,5290.322
597.4136,5282.626
597.8958,5295.788
598.3779,5321.68
598.86,5365.581
599.3421,5424.147
599.8242,5468.852
600.3063,5480.082
600.7885,5491.153
601.2706,5516.332
601.7527,5559.958
602.2348,5598.999
602.7169,5631.675
603.199,5661.991
603.6812,5693.453
604.1633,5725.668
604.6454,5758.807
605.1275,5791.898
605.6096,5826.668
606.0917,5868.249
606.5739,5914.664
607.056,5959.87
607.5381,6005.432
608.0202,6044.818
608.5023,6064.364
608.9844,6067.623
609.4666,6078.459
609.9487,6113.621
610.4308,6157.088
610.9129,6199.953
611.395,6243.534
611.8771,6280.879
612.3593,6310.453
612.8414,6334.859
613.3235,6355.1
613.8056,6367.948
614.2877,6387.29
614.7698,6420.342
615.252,6455.48
615.7341,6456.911
616.2162,6422.391
616.6983,6405.105
617.1804,6436.931
617.6625,6496.281
618.1446,6532.893
618.6267,6548.582
619.1088,6562.85
619.5909,6593.846
620.0731,6627.855
620.5552,6648.606
621.0373,6652.351
621.5194,6655.296
622.0015,6668.819
622.4836,6683.146
622.9658,6688.98
623.4479,6664.172
623.93,6658.653
624.4121,6691.447
624.8942,6739.466
625.3763,6752.547
625.8585,6715.949
626.3406,6688.514
626.8227,6689.91
627.3048,6713.924
627.7869,6735.887
628.269,6755.831
628.7512,6770.941
629.2333,6780.064
629.7154,6782.948
630.1975,6778.433
630.6796,6766.235
631.1617,6749.962
631.6439,6724.795
632.126,6700.344
632.6081,6689.584
633.0902,6715.865
633.5723,6722.314
634.0544,6678.818
634.5366,6608.756
635.0187,6553.38
635.5008,6525.612
635.9829,6493.755
636.465,6448.574
636.9471,6395.002
637.4293,6358.902
637.9114,6343.541
638.3935,6329.42
638.8756,6302.588
639.3577,6267.555
639.8398,6248.738
640.322,6246.71
640.8041,6235.63
641.2862,6180.325
641.7683,6107.321
642.2504,6056.302
642.7325,6040.601
643.2147,6025.262
643.6968,5991.003
644.1789,5946.91
644.661,5903.247
645.1431,5865.469
645.6252,5824.702
646.1074,5777.409
646.5895,5726.988
647.0716,5683.232
647.5537,5645.408
648.0358,5616.308
648.5179,5601.782
649.0001,5596.704
649.4822,5571.306
649.9643,5524.812
650.4464,5476.347
650.9285,5436.646
651.4106,5405.091
651.8928,5384.262
652.3749,5374.982
652.857,5365.692
653.3391,5350.902
653.8212,5330.712
654.3033,5304.799
654.7855,5267.333
655.2676,5232.766
655.7497,5200.96
656.2318,5175.407
656.7139,5162.52
657.196,5171.888
657.6782,5175.596
658.1603,5168.234
658.6424,5151.678
659.1245,5129.899
659.6066,5102.104
660.0887,5078.467
660.5709,5061.639
661.053,5052.939
661.5351,5060.116
662.0172,5082.179
662.4993,5103.611
662.9814,5117.868
663.4636,5123.324
663.9457,5115.142
664.4278,5088.65
664.9099,5068.41
665.392,5066.573
665.8741,5072.913
666.3563,5077.621
666.8384,5077.222
667.3205,5079.191
667.8026,5079.752
668.2847,5086.118
668.7668,5116.097
669.249,5173.571
669.7311,5220.38
670.2132,5242.495
670.6953,5250.693
671.1774,5264.796
671.6595,5284.58
672.1417,5309.201
672.6238,5337.29
673.1059,5370.375
673.588,5409.603
674.0701,5454.771
674.5522,5506.819
675.0344,5573.188
675.5165,5640.658
675.9986,5698.858
676.4807,5741.127
676.9628,5793.906
677.4449,5854.77
677.9271,5928.195
678.4092,6019.977
678.8913,6133.386
679.3734,6244.378
679.8555,6349.479
680.3376,6453.783
680.8198,6560.96
681.3019,6672.38
681.784,6787.945
682.2661,6904.552
682.7482,7031.942
683.2303,7185.998
683.7125,7359.716
684.1946,7540.005
684.6767,7723.766
685.1588,7908.803
685.6409,8092.752
686.123,8276.0
686.6052,8473.163
687.0873,8681.358
687.5694,8907.029
688.0515,9158.74
688.5336,9435.7
689.0157,9714.15
689.4979,9993.478
689.98,10271.49
690.4621,10533.53
690.9442,10788.79
691.4263,11073.59
691.9084,11392.98
692.3906,11727.54
692.8727,12074.1
693.3548,12420.56
693.8369,12758.4
694.319,13075.85
694.8011,13387.85
695.2833,13695.85
695.7654,14000.9
696.2475,14306.49
696.7296,14625.51
697.2117,14919.97
697.6938,15195.82
698.176,15438.46
698.6581,15589.02
699.1402,15647.78
699.6223,15695.63
700.1044,15797.57
700.5865,15899.66
701.0686,15902.02
701.5507,15811.33
702.0328,15674.04
702.515,15515.98
702.9971,15321.49
703.4792,15076.46
703.9613,14778.29
704.4434,14444.96
704.9255,14061.14
705.4077,13655.9
705.8898,13248.28
706.3719,12834.32
706.854,12418.06
707.3361,11992.03
707.8182,11576.13
708.3004,11205.11
708.7825,10868.49
709.2646,10493.56
709.7467,10050.9
710.2288,9630.328
710.7109,9353.68
711.1931,9166.169
711.6752,8966.571
712.1573,8698.253
712.6394,8434.149
713.1215,8193.698
713.6036,7976.752
714.0858,7782.528
714.5679,7619.662
715.05,7461.451
715.5321,7298.766
716.0142,7135.171
716.4963,6992.358
716.9785,6870.99
717.4606,6756.066
717.9427,6631.233
718.4248,6509.667
718.9069,6431.424
719.389,6392.815
719.8712,6350.382
720.3533,6263.139
720.8354,6167.459
721.3175,6098.607
721.7996,6062.473
722.2817,6024.394
722.7639,5961.562
723.246,5905.01
723.7281,5878.061
724.2102,5898.734
724.6923,5891.024
725.1744,5846.853
725.6566,5790.666
726.1387,5743.435
726.6208,5706.024
727.1029,5682.258
727.585,5671.658
728.0671,5679.186
728.5493,5735.109
729.0314,5808.033
729.5135,5843.669
729.9956,5793.269
730.4777,5743.54
730.9598,5729.867
731.442,5740.242
731.9241,5749.534
732.4062,5750.037
732.8883,5758.651
733.3704,5778.082
733.8525,5807.602
734.3347,5850.071
734.8168,5906.623
735.2989,5955.375
735.781,5979.165
736.2631,5993.081
736.7452,6029.948
737.2274,6085.774
737.7095,6139.738
738.1916,6177.726
738.6737,6211.239
739.1558,6249.985
739.6379,6294.319
740.1201,6331.361
740.6022,6344.94
741.0843,6364.439
741.5664,6405.606
742.0485,6472.413
742.5306,6526.946
743.0128,6567.915
743.4949,6602.018
743.977,6636.576
744.4591,6669.555
744.9412,6691.76
745.4233,6701.757
745.9055,6707.838
746.3876,6719.814
746.8697,6730.171
747.3518,6728.279
747.8339,6701.437
748.316,6684.415
748.7982,6710.138
749.2803,6735.831
749.7624,6711.008
750.2445,6606.681
750.7266,6534.666
751.2087,6514.329
751.6909,6516.883
752.173,6490.793
752.6551,6442.296
753.1372,6411.238
753.6193,6418.078
754.1014,6431.354
754.5836,6428.236
755.0657,6405.089
755.5478,6353.732
756.0299,6233.706
756.512,6126.922
756.9941,6068.616
757.4763,6045.835
757.9584,6010.373
758.4405,5956.467
758.9226,5902.105
759.4047,5851.851
759.8868,5805.614
760.369,5765.545
760.8511,5730.92
761.3332,5683.485
761.8153,5597.489
762.2974,5500.993
762.7795,5434.608
763.2617,5393.433
763.7438,5350.132
764.2259,5289.416
764.708,5224.627
765.1901,5160.828
765.6722,5098.599
766.1544,5039.299
766.6365,4981.868
767.1186,4929.166
767.6007,4886.458
768.0828,4852.504
768.5649,4803.884
769.0471,4739.172
769.5292,4683.125
770.0113,4668.173
770.4934,4669.964
770.9755,4651.458
771.4576,4607.649
771.9398,4557.947
772.4219,4504.986
772.904,4454.711
773.3861,4410.697
773.8682,4369.055
774.3503,4346.265
774.8325,4351.622
775.3146,4362.477
775.7967,4357.464
776.2788,4336.812
776.7609,4313.917
777.243,4288.648
777.7252,4268.241
778.2073,4262.298
778.6894,4266.359
779.1715,4275.842
779.6536,4297.294
780.1357,4304.587
780.6179,4271.942
781.1,4224.598
781.5821,4193.973
782.0642,4189.67
782.5463,4188.168
783.0284,4190.57
783.5105,4192.663
783.9926,4188.591
784.4747,4178.556
784.9568,4160.716
785.439,4129.903
785.9211,4102.739
786.4032,4105.338
786.8853,4125.953
787.3674,4141.869
787.8495,4135.319
788.3317,4133.39
788.8138,4153.466
789.2959,4183.373
789.778,4195.543
790.2601,4177.93
790.7422,4166.544
791.2244,4168.968
791.7065,4179.938
792.1886,4189.87
792.6707,4198.101
793.1528,4198.719
793.6349,4184.743
794.1171,4167.442
794.5992,4156.948
795.0813,4153.325
795.5634,4156.406
796.0455,4182.778
796.5276,4198.48
797.0098,4184.392
797.4919,4149.293
797.974,4125.276
798.4561,4115.192
798.9382,4107.955
799.4203,4101.025
799.9025,4093.914
800.3846,4083.222
800.8667,4069.809
801.3488,4059.996
801.8309,4059.373
802.313,4062.153
802.7952,4067.75
803.2773,4073.368
803.7594,4067.581
804.2415,4033.703
804.7236,4001.376
805.2057,3979.143
805.6879,3966.623
806.17,3964.171
806.6521,3975.726
807.1342,3979.957
807.6163,3959.82
808.0984,3927.082
808.5806,3916.565
809.0627,3925.666
809.5448,3937.122
810.0269,3945.528
810.509,3948.353
810.9911,3940.377
811.4733,3922.467
811.9554,3909.977
812.4375,3909.47
812.9196,3909.773
813.4017,3907.898
813.8839,3903.733
814.366,3892.671
814.8481,3873.578
815.3302,3861.763
815.8123,3874.461
816.2944,3897.864
816.7766,3903.817
817.2587,3894.92
817.7408,3893.204
818.2229,3918.034
818.705,3947.295
819.1871,3969.46
819.6693,3983.503
820.1514,3995.533
820.6335,4004.775
821.1156,4013.794
821.5977,4023.353
822.0798,4033.552
822.562,4046.862
823.0441,4062.902
823.5262,4076.043
824.0083,4083.643
824.4904,4084.887
824.9725,4076.203
825.4547,4057.996
825.9368,4041.485
826.4189,4030.833
826.901,4022.732
827.3831,4015.632
827.8652,4009.436
828.3474,4006.086
828.8295,4006.965
829.3116,4005.442
829.7937,3996.553
830.2758,3982.142
830.7579,3967.099
831.2401,3951.507
831.7222,3936.695
832.2043,3920.626
832.6864,3908.072
833.1685,3903.625
833.6506,3907.799
834.1328,3913.321
834.6149,3924.348
835.097,3929.917
835.5791,3924.677
836.0612,3909.25
836.5433,3886.664
837.0255,3856.476
837.5076,3836.117
837.9897,3848.827
838.4718,3872.279
838.9539,3872.679
839.436,3851.153
839.9182,3832.902
840.4003,3816.328
840.8824,3817.157
841.3645,3858.251
841.8466,3936.431
842.3287,3963.963
842.8109,3924.407
843.293,3884.141
843.7751,3882.149
844.2572,3906.195
844.7393,3916.705
845.2214,3914.76
845.7036,3909.323
846.1857,3904.419
846.6678,3899.535
847.1499,3894.536
847.632,3889.509
848.1141,3883.805
848.5963,3873.939
849.0784,3868.717
849.5605,3873.245
850.0426,3885.398
850.5247,3888.863
851.0068,3883.5
851.489,3883.756
851.9711,3905.599
852.4532,3932.769
852.9353,3940.129
853.4174,3932.598
853.8995,3931.77
854.3817,3952.013
854.8638,3975.139
855.3459,3998.985
855.828,4020.643
856.3101,4022.843
856.7922,3998.821
857.2744,3982.055
857.7565,3986.883
858.2386,4006.168
858.7207,4026.783
859.2028,4047.727
859.6849,4065.409
860.1671,4076.852
860.6492,4085.431
861.1313,4088.692
861.6134,4090.127
862.0955,4103.0
862.5776,4142.911
863.0598,4165.961
863.5419,4156.143
864.024,4129.05
864.5061,4123.792
864.9882,4138.696
865.4703,4158.581
865.9524,4182.761
866.4345,4202.201
866.9166,4196.788
867.3987,4181.569
867.8809,4185.414
868.363,4245.533
868.8451,4289.503
869.3272,4299.122
869.8093,4290.243
870.2914,4287.658
870.7736,4290.664
871.2557,4310.341
871.7378,4355.244
872.2199,4400.782
872.702,4407.593
873.1841,4391.478
873.6663,4385.133
874.1484,4406.919
874.6305,4424.433
875.1126,4419.378
875.5947,4406.664
876.0768,4405.359
876.559,4419.141
877.0411,4433.515
877.5232,4447.244
878.0053,4462.106
878.4874,4482.002
878.9695,4504.931
879.4517,4525.248
879.9338,4541.807
880.4159,4556.297
880.898,4569.356
881.3801,4581.087
881.8622,4591.315
882.3444,4598.032
882.8265,4606.741
883.3086,4612.167
883.7907,4628.725
884.2728,4680.793
884.7549,4759.991
885.2371,4800.193
885.7192,4796.667
886.2013,4788.119
886.6834,4805.276
887.1655,4832.142
887.6476,4854.132
888.1298,4869.0
888.6119,4886.121
889.094,4907.735
889.5761,4930.243
890.0582,4950.437
890.5403,4969.127
891.0225,4997.941
891.5046,5037.067
891.9867,5080.841
892.4688,5137.871
892.9509,5188.325
893.433,5191.939
893.9152,5159.35
894.3973,5161.048
894.8794,5266.628
895.3615,5360.25
895.8436,5399.672
896.3257,5396.133
896.8079,5401.728
897.29,5416.572
897.7721,5437.402
898.2542,5462.961
898.7363,5493.301
899.2184,5532.215
899.7006,5576.014
900.1827,5613.244
900.6648,5632.961
901.1469,5653.644
901.629,5681.866
902.1111,5714.934
902.5933,5749.474
903.0754,5788.448
903.5575,5815.226
904.0396,5823.216
904.5217,5826.814
905.0038,5853.276
905.486,5891.028
905.9681,5913.831
906.4502,5907.675
906.9323,5900.763
907.4144,5906.583
907.8965,5918.217
908.3787,5929.415
908.8608,5945.328
909.3429,5942.596
909.825,5915.386
910.3071,5885.297
910.7892,5879.118
911.2714,5887.342
911.7535,5883.343
912.2356,5863.398
912.7177,5845.728
913.1998,5855.886
913.6819,5861.358
914.1641,5831.379
914.6462,5756.789
915.1283,5713.137
915.6104,5713.516
916.0925,5711.125
916.5746,5673.169
917.0568,5610.893
917.5389,5569.518
918.021,5544.977
918.5031,5510.419
918.9852,5435.703
919.4673,5360.13
919.9495,5311.832
920.4316,5286.166
920.9137,5246.87
921.3958,5181.675
921.8779,5129.358
922.36,5105.502
922.8422,5096.158
923.3243,5068.506
923.8064,5026.022
924.2885,4983.432
924.7706,4947.122
925.2527,4911.777
925.7349,4882.559
926.217,4849.306
926.6991,4792.63
927.1812,4678.702
927.6633,4610.136
928.1454,4605.466
928.6276,4627.84
929.1097,4636.019
929.5918,4631.322
930.0739,4616.375
930.556,4590.64
931.0381,4565.272
931.5203,4544.738
932.0024,4531.077
932.4845,4529.808
932.9666,4550.038
933.4487,4547.591
933.9308,4514.645
934.413,4474.965
934.8951,4437.432
935.3772,4405.415
935.8593,4402.212
936.3414,4425.171
936.8235,4448.427
937.3057,4456.602
937.7878,4458.098
938.2699,4449.915
938.752,4436.854
939.2341,4452.232
939.7162,4518.031
940.1984,4561.836
940.6805,4555.128
941.1626,4521.932
941.6447,4520.777
942.1268,4544.461
942.6089,4564.247
943.0911,4562.081
943.5732,4563.67
944.0553,4594.482
944.5374,4635.464
945.0195,4653.813
945.5016,4628.496
945.9838,4628.589
946.4659,4663.89
946.948,4711.806
947.4301,4753.174
947.9122,4785.523
948.3943,4798.189
948.8764,4788.085
949.3585,4778.196
949.8406,4781.904
950.3228,4792.124
950.8049,4802.659
951.287,4812.158
951.7691,4835.75
952.2512,4880.315
952.7333,4916.587
953.2155,4921.439
953.6976,4907.381
954.1797,4903.647
954.6618,4909.254
955.1439,4919.859
955.626,4947.169
956.1082,4964.227
956.5903,4950.146
957.0724,4916.923
957.5545,4898.379
958.0366,4901.276
958.5187,4888.987
959.0009,4850.788
959.483,4800.747
959.9651,4749.11
960.4472,4704.383
960.9293,4685.048
961.4114,4709.803
961.8936,4726.026
962.3757,4709.57
962.8578,4678.867
963.3399,4647.509
963.822,4614.073
964.3041,4588.025
964.7863,4569.185
965.2684,4557.06
965.7505,4557.866
966.2326,4561.223
966.7147,4553.321
967.1968,4533.526
967.679,4505.505
968.1611,4451.086
968.6432,4411.626
969.1253,4406.419
969.6074,4426.003
970.0895,4430.016
970.5717,4418.629
971.0538,4404.274
971.5359,4392.593
972.018,4378.771
972.5001,4351.249
972.9822,4319.266
973.4644,4298.682
973.9465,4300.019
974.4286,4305.166
974.9107,4317.092
975.3928,4326.579
975.8749,4320.787
976.3571,4301.767
976.8392,4285.244
977.3213,4272.424
977.8034,4267.646
978.2855,4278.847
978.7676,4296.378
979.2498,4315.642
979.7319,4336.75
980.214,4340.433
980.6961,4319.094
981.1782,4296.441
981.6603,4281.299
982.1425,4272.679
982.6246,4270.146
983.1067,4271.93
983.5888,4270.579
984.0709,4254.43
984.553,4243.234
985.0352,4253.613
985.5173,4273.388
985.9994,4279.879
986.4815,4268.234
986.9636,4259.865
987.4457,4257.303
987.9279,4257.18
988.41,4257.572
988.8921,4256.824
989.3742,4250.138
989.8563,4235.771
990.3384,4225.436
990.8206,4225.188
991.3027,4228.902
991.7848,4233.349
992.2669,4238.41
992.749,4246.154
993.2311,4256.831
993.7133,4260.849
994.1954,4245.356
994.6775,4227.046
995.1596,4225.785
995.6417,4237.047
996.1238,4249.549
996.606,4264.161
997.0881,4274.728
997.5702,4280.96
998.0523,4282.576
998.5344,4276.519
999.0165,4264.563
999.4987,4256.774
999.9808,4254.356
1000.463,4258.935
1000.945,4282.161
1001.427,4305.436
1001.909,4311.362
1002.391,4295.598
1002.873,4286.176
1003.356,4285.937
1003.838,4283.685
1004.32,4271.561
1004.802,4254.824
1005.284,4240.979
1005.766,4233.015
1006.248,4240.95
1006.73,4291.559
1007.213,4333.205
1007.695,4339.419
1008.177,4329.171
1008.659,4330.655
1009.141,4346.162
1009.623,4348.688
1010.105,4332.444
1010.587,4317.661
1011.069,4332.399
1011.552,4357.265
1012.034,4366.847
1012.516,4355.77
1012.998,4350.593
1013.48,4363.732
1013.962,4371.656
1014.444,4361.717
1014.926,4339.485
1015.409,4330.857
1015.891,4333.829
1016.373,4334.969
1016.855,4325.346
1017.337,4315.128
1017.819,4302.875
1018.301,4297.19
1018.783,4315.679
1019.265,4374.633
1019.748,4410.229
1020.23,4414.755
1020.712,4406.063
1021.194,4395.835
1021.676,4388.49
1022.158,4398.659
1022.64,4427.324
1023.122,4441.076
1023.604,4413.661
1024.087,4380.277
1024.569,4352.263
1025.051,4330.83
1025.533,4322.468
1026.015,4326.911
1026.497,4336.488
1026.979,4353.926
1027.461,4365.822
1027.943,4353.469
1028.426,4329.542
1028.908,4312.827
1029.39,4319.565
1029.872,4308.976
1030.354,4273.285
1030.836,4237.762
1031.318,4231.443
1031.8,4243.208
1032.283,4235.589
1032.765,4209.226
1033.247,4190.278
1033.729,4205.795
1034.211,4218.988
1034.693,4208.286
1035.175,4182.194
1035.657,4164.385
1036.14,4155.111
1036.622,4154.972
1037.104,4169.499
1037.586,4177.835
1038.068,4141.89
1038.55,4090.853
1039.032,4064.282
1039.514,4077.466
1039.996,4094.07
1040.479,4113.182
1040.961,4132.353
1041.443,4151.043
1041.925,4168.731
1042.407,4184.704
1042.889,4198.227
1043.371,4203.79
1043.853,4187.336
1044.335,4174.157
1044.818,4174.576
1045.3,4187.434
1045.782,4211.924
1046.264,4249.169
1046.746,4291.683
1047.228,4342.243
1047.71,4379.996
1048.192,4362.758
1048.675,4330.387
1049.157,4336.806
1049.639,4393.412
1050.121,4436.12
1050.603,4449.97
1051.085,4460.739
1051.567,4474.813
1052.049,4495.74
1052.531,4551.754
1053.014,4628.182
1053.496,4664.382
1053.978,4599.757
1054.46,4543.392
1054.942,4557.014
1055.424,4602.218
1055.906,4634.076
1056.388,4649.973
1056.87,4667.548
1057.353,4687.147
1057.835,4708.136
1058.317,4727.299
1058.799,4748.915
1059.281,4783.641
1059.763,4827.819
1060.245,4854.753
1060.727,4849.253
1061.21,4844.954
1061.692,4846.968
1062.174,4856.1
1062.656,4876.996
1063.138,4906.231
1063.62,4937.015
1064.102,4972.094
1064.584,4989.556
1065.067,4956.498
1065.549,4922.811
1066.031,4923.758
1066.513,4958.224
1066.995,4985.886
1067.477,5006.813
1067.959,5022.513
1068.441,5031.719
1068.923,5038.178
1069.406,5045.507
1069.888,5052.621
1070.37,5057.228
1070.852,5058.429
1071.334,5058.198
1071.816,5056.373
1072.298,5053.569
1072.78,5044.127
1073.262,5036.181
1073.745,5052.03
1074.227,5090.875
1074.709,5124.26
1075.191,5139.147
1075.673,5146.728
1076.155,5150.841
1076.637,5151.062
1077.119,5146.275
1077.601,5136.511
1078.084,5118.21
1078.566,5085.376
1079.048,5063.388
1079.53,5089.408
1080.012,5124.125
1080.494,5124.267
1080.976,5083.85
1081.458,5062.301
1081.941,5061.122
1082.423,5071.671
1082.905,5102.871
1083.387,5131.089
1083.869,5107.408
1084.351,5055.239
1084.833,5026.755
1085.315,5065.187
1085.797,5087.85
1086.28,5086.408
1086.762,5072.88
1087.244,5056.868
1087.726,5039.766
1088.208,5024.067
1088.69,5010.577
1089.172,5007.543
1089.654,5036.729
1090.136,5058.139
1090.619,5044.695
1091.101,5013.717
1091.583,5013.692
1092.065,5044.113
1092.547,5064.515
1093.029,5064.426
1093.511,5058.507
1093.993,5060.214
1094.476,5063.105
1094.958,5059.115
1095.44,5046.146
1095.922,5040.362
1096.404,5039.809
1096.886,5056.092
1097.368,5104.869
1097.85,5162.256
1098.333,5188.509
1098.815,5193.842
1099.297,5199.224
1099.779,5211.995
1100.261,5223.018
1100.743,5229.164
1101.225,5236.829
1101.707,5250.525
1102.189,5270.49
1102.672,5301.598
1103.154,5341.993
1103.636,5375.301
1104.118,5388.617
1104.6,5398.472
1105.082,5412.204
1105.564,5426.935
1106.046,5436.391
1106.528,5440.893
1107.011,5447.463
1107.493,5457.088
1107.975,5470.455
1108.457,5492.903
1108.939,5515.747
1109.421,5533.888
1109.903,5546.276
1110.385,5546.898
1110.868,5532.8
1111.35,5521.136
1111.832,5518.46
1112.314,5518.445
1112.796,5510.714
1113.278,5500.282
1113.76,5494.866
1114.242,5497.528
1114.724,5502.247
1115.207,5513.547
1115.689,5515.909
1116.171,5495.761
1116.653,5461.395
1117.135,5435.547
1117.617,5415.573
1118.099,5392.957
1118.581,5355.228
1119.063,5327.038
1119.546,5320.281
1120.028,5318.329
1120.51,5309.509
1120.992,5291.967
1121.474,5238.438
1121.956,5150.762
1122.438,5079.54
1122.92,5077.359
1123.403,5079.912
1123.885,5048.213
1124.367,4996.24
1124.849,4953.611
1125.331,4920.897
1125.813,4886.484
1126.295,4849.229
1126.777,4804.174
1127.26,4733.29
1127.742,4662.838
1128.224,4620.864
1128.706,4609.65
1129.188,4589.333
1129.67,4558.957
1130.152,4521.128
1130.634,4470.974
1131.116,4424.779
1131.599,4412.847
1132.081,4416.437
1132.563,4406.987
1133.045,4375.027
1133.527,4340.108
1134.009,4303.86
1134.491,4263.098
1134.973,4208.244
1135.455,4151.9
1135.938,4135.473
1136.42,4144.662
1136.902,4140.858
1137.384,4096.591
1137.866,4055.169
1138.348,4025.012
1138.83,3997.858
1139.312,3965.979
1139.795,3930.527
1140.277,3897.142
1140.759,3865.448
1141.241,3828.478
1141.723,3769.011
1142.205,3719.887
1142.687,3695.245
1143.169,3687.855
1143.651,3695.063
1144.134,3715.145
1144.616,3711.179
1145.098,3678.199
1145.58,3641.412
1146.062,3613.513
1146.544,3593.743
1147.026,3588.288
1147.508,3590.726
1147.99,3575.13
1148.473,3539.905
1148.955,3507.375
1149.437,3481.966
1149.919,3465.794
1150.401,3461.033
1150.883,3467.048
1151.365,3488.706
1151.847,3527.46
1152.33,3547.096
1152.812,3545.377
1153.294,3533.18
1153.776,3509.119
1154.258,3486.678
1154.74,3490.393
1155.222,3504.751
1155.704,3507.022
1156.186,3487.097
1156.669,3467.443
1157.151,3446.414
1157.633,3431.156
1158.115,3427.267
1158.597,3431.341
1159.079,3441.626
1159.561,3454.273
1160.043,3460.031
1160.526,3447.069
1161.008,3441.235
1161.49,3448.163
1161.972,3453.502
1162.454,3439.327
1162.936,3415.134
1163.418,3405.674
1163.9,3409.533
1164.382,3415.883
1164.865,3429.465
1165.347,3430.695
1165.829,3408.29
1166.311,3383.864
1166.793,3396.189
1167.275,3430.506
1167.757,3427.049
1168.239,3383.321
1168.721,3349.119
1169.204,3352.333
1169.686,3366.725
1170.168,3385.825
1170.65,3406.153
1171.132,3422.699
1171.614,3434.132
1172.096,3431.159
1172.578,3410.165
1173.061,3397.152
1173.543,3424.338
1174.025,3444.979
1174.507,3427.155
1174.989,3385.918
1175.471,3377.103
1175.953,3397.323
1176.435,3420.745
1176.917,3444.317
1177.4,3453.309
1177.882,3424.203
1178.364,3387.651
1178.846,3364.06
1179.328,3353.836
1179.81,3366.19
1180.292,3399.646
1180.774,3421.641
1181.256,3413.978
1181.739,3401.789
1182.221,3406.888
1182.703,3415.177
1183.185,3409.432
1183.667,3387.164
1184.149,3383.621
1184.631,3398.919
1185.113,3414.439
1185.596,3421.61
1186.078,3422.573
1186.56,3411.298
1187.042,3398.563
1187.524,3403.443
1188.006,3435.652
1188.488,3435.754
1188.97,3400.646
1189.453,3369.063
1189.935,3374.931
1190.417,3389.617
1190.899,3386.3
1191.381,3373.611
1191.863,3372.156
1192.345,3385.603
1192.827,3398.637
1193.309,3411.088
1193.792,3416.847
1194.274,3403.32
1194.756,3387.026
1195.238,3384.735
1195.72,3393.763
1196.202,3400.698
1196.684,3403.428
1197.166,3413.024
1197.648,3433.451
1198.131,3444.918
1198.613,3409.382
1199.095,3368.164
1199.577,3371.348
1200.059,3414.819
1200.541,3438.847
1201.023,3435.529
1201.505,3440.452
1201.988,3464.152
1202.47,3481.658
1202.952,3447.011
1203.434,3402.498
1203.916,3403.183
1204.398,3452.389
1204.88,3471.431
1205.362,3451.42
1205.844,3429.399
1206.327,3412.983
1206.809,3405.629
1207.291,3418.389
1207.773,3438.99
1208.255,3452.913
1208.737,3457.673
1209.219,3461.418
1209.701,3463.911
1210.183,3467.363
1210.666,3473.808
1211.148,3478.741
1211.63,3474.219
1212.112,3465.632
1212.594,3460.701
1213.076,3462.379
1213.558,3455.908
1214.04,3438.765
1214.523,3424.503
1215.005,3418.287
1215.487,3419.081
1215.969,3429.732
1216.451,3444.591
1216.933,3456.761
1217.415,3467.354
1217.897,3462.708
1218.38,3438.346
1218.862,3421.546
1219.344,3429.739
1219.826,3448.0
1220.308,3462.741
1220.79,3472.396
1221.272,3472.696
1221.754,3457.519
1222.236,3454.633
1222.719,3466.198
1223.201,3477.263
1223.683,3478.754
1224.165,3474.727
1224.647,3468.965
1225.129,3461.314
1225.611,3450.174
1226.093,3429.194
1226.575,3427.029
1227.058,3446.139
1227.54,3465.774
1228.022,3466.803
1228.504,3465.206
1228.986,3485.97
1229.468,3513.659
1229.95,3514.568
1230.432,3477.705
1230.915,3453.908
1231.397,3444.891
1231.879,3446.542
1232.361,3466.779
1232.843,3486.253
1233.325,3481.612
1233.807,3464.717
1234.289,3461.9
1234.771,3476.006
1235.254,3494.953
1235.736,3519.049
1236.218,3532.074
1236.7,3505.947
1237.182,3478.132
1237.664,3483.802
1238.146,3508.403
1238.628,3515.487
1239.11,3502.865
1239.593,3492.003
1240.075,3484.355
1240.557,3481.53
1241.039,3482.06
1241.521,3490.174
1242.003,3523.215
1242.485,3560.506
1242.967,3553.194
1243.449,3500.085
1243.932,3480.76
1244.414,3503.592
1244.896,3531.588
1245.378,3543.739
1245.86,3547.17
1246.342,3542.931
1246.824,3534.394
1247.306,3523.758
1247.789,3511.973
1248.271,3514.197
1248.753,3532.07
1249.235,3549.056
1249.717,3554.719
1250.199,3556.354
1250.681,3555.229
1251.163,3554.106
1251.646,3560.903
1252.128,3572.896
1252.61,3574.876
1253.092,3564.851
1253.574,3554.747
1254.056,3550.062
1254.538,3547.276
1255.02,3542.767
1255.502,3541.67
1255.984,3557.589
1256.467,3584.889
1256.949,3608.233
1257.431,3625.521
1257.913,3630.066
1258.395,3605.866
1258.877,3584.917
1259.359,3573.28
1259.841,3572.08
1260.324,3589.763
1260.806,3617.373
1261.288,3639.23
1261.77,3653.21
1262.252,3646.738
1262.734,3602.752
1263.216,3564.137
1263.698,3537.531
1264.181,3530.264
1264.663,3574.486
1265.145,3635.367
1265.627,3650.832
1266.109,3613.433
1266.591,3600.39
