Raman shift,Intensity
754.74794,325.7739
756.35289,321.70659
757.95785,321.70659
759.5628,317.63928
761.16776,317.63928
762.77271,317.63928
764.37767,317.63928
765.98262,317.63928
767.58758,313.57196
767.58758,317.63928
769.19253,313.57196
770.79749,309.50465
770.79749,305.43733
770.79749,301.37002
770.79749,313.57196
772.40244,301.37002
772.40244,293.23539
772.40244,289.16808
772.40244,297.3027
774.0074,289.16808
775.61235,289.16808
777.21731,293.23539
778.82227,297.3027
780.42722,301.37002
782.03218,301.37002
783.63713,297.3027
785.24209,297.3027
786.84704,297.3027
788.452,293.23539
790.05695,289.16808
791.66191,293.23539
793.26686,293.23539
794.87182,289.16808
796.47677,289.16808
798.08173,289.16808
799.68668,289.16808
801.29164,289.16808
802.89659,289.16808
804.50155,285.10076
806.1065,281.03345
807.71146,281.03345
809.31642,285.10076
810.92137,285.10076
812.52633,285.10076
814.13128,285.10076
815.73624,281.03345
817.34119,276.96613
818.94615,272.89882
820.5511,268.83151
822.15606,272.89882
823.76101,268.83151
825.36597,272.89882
826.97092,272.89882
828.57588,272.89882
830.18083,276.96613
831.78579,281.03345
833.39074,285.10076
834.9957,281.03345
836.60066,285.10076
838.20561,289.16808
839.81057,285.10076
841.41552,281.03345
843.02048,276.96613
844.62543,281.03345
846.23039,285.10076
847.83534,285.10076
849.4403,281.03345
851.04525,281.03345
852.65021,285.10076
854.25516,285.10076
855.86012,285.10076
857.46507,285.10076
859.07003,285.10076
860.67498,285.10076
862.27994,285.10076
863.88489,285.10076
865.48985,285.10076
867.09481,285.10076
868.69976,285.10076
870.30472,289.16808
871.90967,293.23539
873.51463,297.3027
875.11958,301.37002
876.72454,305.43733
878.32949,305.43733
879.93445,301.37002
881.5394,301.37002
883.14436,301.37002
884.74931,301.37002
886.35427,297.3027
887.95922,297.3027
889.56418,293.23539
891.16913,289.16808
892.77409,289.16808
894.37904,289.16808
895.984,285.10076
897.58896,285.10076
899.19391,285.10076
900.79887,285.10076
902.40382,281.03345
904.00878,281.03345
905.61373,281.03345
907.21869,276.96613
908.82364,276.96613
910.4286,276.96613
912.03355,276.96613
913.63851,276.96613
915.24346,276.96613
916.84842,276.96613
918.45337,276.96613
920.05833,276.96613
921.66328,272.89882
923.26824,268.83151
924.87319,264.76419
926.47815,260.69688
928.08311,256.62956
929.68806,256.62956
931.29302,256.62956
932.89797,260.69688
934.50293,260.69688
936.10788,260.69688
937.71284,260.69688
939.31779,264.76419
940.92275,264.76419
942.5277,268.83151
944.13266,272.89882
945.73761,276.96613
947.34257,281.03345
948.94752,281.03345
950.55248,281.03345
952.15743,276.96613
953.76239,272.89882
955.36735,272.89882
956.9723,276.96613
958.57726,276.96613
960.18221,276.96613
961.78717,281.03345
963.39212,281.03345
964.99708,285.10076
966.60203,285.10076
968.20699,285.10076
969.81194,285.10076
971.4169,289.16808
973.02185,289.16808
974.62681,289.16808
976.23176,289.16808
977.83672,289.16808
979.44167,293.23539
981.04663,297.3027
982.65158,301.37002
984.25654,305.43733
985.8615,301.37002
987.46645,301.37002
989.07141,301.37002
990.67636,297.3027
992.28132,293.23539
993.88627,289.16808
995.49123,293.23539
997.09618,289.16808
998.70114,285.10076
1000.30609,285.10076
1001.91105,285.10076
1003.516,285.10076
1005.12096,285.10076
1006.72591,289.16808
1008.33087,285.10076
1009.93582,281.03345
1011.54078,285.10076
1013.14573,285.10076
1014.75069,285.10076
1016.35565,281.03345
1017.9606,276.96613
1019.56556,276.96613
1021.17051,276.96613
1022.77547,276.96613
1024.38042,276.96613
1025.98538,281.03345
1027.59033,281.03345
1029.19529,281.03345
1030.80024,281.03345
1032.4052,285.10076
1034.01015,289.16808
1034.01015,293.23539
1034.01015,297.3027
1034.01015,285.10076
1034.01015,305.43733
1034.01015,301.37002
1035.61511,305.43733
1035.61511,309.50465
1037.22006,313.57196
1037.22006,309.50465
1038.82502,313.57196
1040.42997,317.63928
1040.42997,313.57196
1042.03493,321.70659
1042.03493,317.63928
1043.63989,325.7739
1045.24484,329.84122
1045.24484,325.7739
1046.8498,329.84122
1048.45475,333.90853
1048.45475,329.84122
1050.05971,337.97585
1051.66466,337.97585
1051.66466,342.04316
1053.26962,346.11047
1053.26962,342.04316
1054.87457,350.17779
1056.47953,354.2451
1056.47953,350.17779
1058.08448,358.31242
1058.08448,354.2451
1059.68944,358.31242
1061.29439,362.37973
1061.29439,358.31242
1062.89935,366.44705
1062.89935,362.37973
1064.5043,366.44705
1066.10926,366.44705
1067.71421,370.51436
1069.31917,370.51436
1070.92412,366.44705
1072.52908,362.37973
1074.13404,358.31242
1075.73899,362.37973
1077.34395,366.44705
1078.9489,370.51436
1080.55386,370.51436
1082.15881,370.51436
1083.76377,366.44705
1083.76377,370.51436
1083.76377,358.31242
1083.76377,354.2451
1083.76377,350.17779
1083.76377,346.11047
1083.76377,362.37973
1085.36872,346.11047
1086.97368,342.04316
1086.97368,346.11047
1088.57863,337.97585
1088.57863,342.04316
1090.18359,337.97585
1091.78854,337.97585
1091.78854,333.90853
1093.3935,333.90853
1093.3935,329.84122
1094.99845,325.7739
1096.60341,321.70659
1096.60341,325.7739
1098.20836,321.70659
1099.81332,317.63928
1099.81332,321.70659
1101.41827,317.63928
1103.02323,317.63928
1103.02323,313.57196
1104.62819,309.50465
1104.62819,313.57196
1106.23314,305.43733
1106.23314,309.50465
1107.8381,305.43733
1109.44305,301.37002
1109.44305,305.43733
1111.04801,301.37002
1112.65296,301.37002
1114.25792,305.43733
1115.86287,309.50465
1117.46783,313.57196
1119.07278,313.57196
1120.67774,309.50465
1122.28269,309.50465
1123.88765,309.50465
1125.4926,309.50465
1127.09756,305.43733
1128.70251,305.43733
1130.30747,305.43733
1131.91242,305.43733
1133.51738,305.43733
1135.12234,305.43733
1136.72729,305.43733
1138.33225,305.43733
1139.9372,305.43733
1141.54216,301.37002
1143.14711,301.37002
1144.75207,305.43733
1146.35702,305.43733
1147.96198,305.43733
1149.56693,305.43733
1151.17189,301.37002
1152.77684,301.37002
1154.3818,301.37002
1155.98675,297.3027
1157.59171,301.37002
1159.19666,301.37002
1160.80162,297.3027
1162.40658,293.23539
1164.01153,297.3027
1165.61649,293.23539
1167.22144,289.16808
1168.8264,285.10076
1170.43135,281.03345
1172.03631,281.03345
1173.64126,276.96613
1175.24622,281.03345
1176.85117,285.10076
1178.45613,285.10076
1180.06108,285.10076
1181.66604,285.10076
1183.27099,285.10076
1184.87595,285.10076
1186.4809,281.03345
1188.08586,281.03345
1189.69081,285.10076
1191.29577,285.10076
1192.90073,281.03345
1194.50568,276.96613
1196.11064,272.89882
1197.71559,276.96613
1199.32055,281.03345
1200.9255,281.03345
1202.53046,276.96613
1204.13541,272.89882
1205.74037,268.83151
1207.34532,272.89882
1208.95028,276.96613
1210.55523,281.03345
1212.16019,276.96613
1213.76514,276.96613
1215.3701,281.03345
1216.97505,276.96613
1218.58001,281.03345
1220.18496,285.10076
1221.78992,289.16808
1223.39488,289.16808
1224.99983,289.16808
1226.60479,285.10076
1228.20974,281.03345
1229.8147,285.10076
1231.41965,281.03345
1233.02461,281.03345
1234.62956,281.03345
1236.23452,285.10076
1237.83947,289.16808
1239.44443,289.16808
1241.04938,285.10076
1242.65434,285.10076
1244.25929,285.10076
1245.86425,285.10076
1247.4692,285.10076
1249.07416,289.16808
1250.67912,289.16808
1252.28407,289.16808
1253.88903,289.16808
1255.49398,289.16808
1257.09894,289.16808
1258.70389,289.16808
1260.30885,289.16808
1261.9138,289.16808
1263.51876,289.16808
1265.12371,289.16808
1266.72867,289.16808
1268.33362,289.16808
1269.93858,293.23539
1271.54353,297.3027
1273.14849,301.37002
1274.75344,301.37002
1276.3584,301.37002
1277.96335,301.37002
1279.56831,301.37002
1281.17327,301.37002
1282.77822,301.37002
1284.38318,297.3027
1285.98813,293.23539
1287.59309,289.16808
1289.19804,289.16808
1290.803,289.16808
1292.40795,289.16808
1294.01291,289.16808
1295.61786,289.16808
1297.22282,289.16808
1298.82777,289.16808
1300.43273,289.16808
1302.03768,289.16808
1303.64264,289.16808
1305.24759,289.16808
1306.85255,289.16808
1308.4575,293.23539
1310.06246,293.23539
1311.66742,293.23539
1313.27237,293.23539
1314.87733,293.23539
1316.48228,293.23539
1318.08724,293.23539
1319.69219,293.23539
1321.29715,293.23539
1322.9021,293.23539
1324.50706,293.23539
1326.11201,297.3027
1327.71697,297.3027
1329.32192,297.3027
1330.92688,293.23539
1332.53183,289.16808
1334.13679,293.23539
1335.74174,293.23539
1337.3467,293.23539
1338.95165,293.23539
1340.55661,293.23539
1342.16157,293.23539
1343.76652,289.16808
1345.37148,285.10076
1346.97643,285.10076
1348.58139,285.10076
1350.18634,285.10076
1351.7913,285.10076
1353.39625,285.10076
1355.00121,285.10076
1356.60616,285.10076
1358.21112,285.10076
1359.81607,285.10076
1361.42103,285.10076
1363.02598,285.10076
1364.63094,285.10076
1366.23589,285.10076
1367.84085,285.10076
1369.44581,285.10076
1371.05076,285.10076
1372.65572,285.10076
1374.26067,285.10076
1375.86563,285.10076
1377.47058,285.10076
1379.07554,285.10076
1380.68049,285.10076
1382.28545,285.10076
1383.8904,285.10076
1385.49536,285.10076
1387.10031,285.10076
1388.70527,285.10076
1390.31022,285.10076
1391.91518,289.16808
1393.52013,289.16808
1395.12509,289.16808
1396.73004,289.16808
1398.335,289.16808
1399.93996,289.16808
1401.54491,289.16808
1403.14987,289.16808
1404.75482,289.16808
1406.35978,289.16808
1407.96473,293.23539
1409.56969,297.3027
1411.17464,301.37002
1412.7796,301.37002
1414.38455,301.37002
1415.98951,301.37002
1417.59446,301.37002
1419.19942,301.37002
1420.80437,301.37002
1422.40933,297.3027
1424.01428,293.23539
1425.61924,289.16808
1427.22419,289.16808
1428.82915,289.16808
1430.43411,289.16808
1432.03906,289.16808
1433.64402,289.16808
1435.24897,289.16808
1436.85393,289.16808
1438.45888,289.16808
1440.06384,293.23539
1441.66879,293.23539
1443.27375,293.23539
1444.8787,293.23539
1446.48366,293.23539
1448.08861,293.23539
1449.69357,293.23539
1451.29852,293.23539
1452.90348,293.23539
1454.50843,293.23539
1456.11339,297.3027
1457.71835,301.37002
1459.3233,305.43733
1460.92826,305.43733
1462.53321,305.43733
1464.13817,301.37002
1465.74312,297.3027
1467.34808,293.23539
1468.95303,293.23539
1470.55799,293.23539
1472.16294,293.23539
1473.7679,293.23539
1475.37285,293.23539
1476.97781,293.23539
1478.58276,289.16808
1480.18772,285.10076
1481.79267,285.10076
1483.39763,285.10076
1485.00258,285.10076
1486.60754,285.10076
1488.2125,285.10076
1489.81745,285.10076
1491.42241,285.10076
1493.02736,285.10076
1494.63232,289.16808
1496.23727,289.16808
1497.84223,289.16808
1499.44718,289.16808
1501.05214,289.16808
1502.65709,289.16808
1504.26205,289.16808
1505.867,289.16808
1507.47196,289.16808
1509.07691,289.16808
1510.68187,289.16808
1512.28682,289.16808
1513.89178,293.23539
1515.49673,297.3027
1517.10169,301.37002
1518.70665,305.43733
1520.3116,309.50465
1521.91656,305.43733
1523.52151,301.37002
1525.12647,297.3027
1526.73142,293.23539
1528.33638,293.23539
1529.94133,293.23539
1531.54629,297.3027
1533.15124,293.23539
1534.7562,297.3027
1536.36115,301.37002
1537.96611,301.37002
1539.57106,301.37002
1541.17602,301.37002
1542.78097,301.37002
1544.38593,305.43733
1545.99088,309.50465
1547.59584,309.50465
1549.2008,309.50465
1550.80575,309.50465
1552.41071,309.50465
1554.01566,309.50465
1555.62062,309.50465
1557.22557,313.57196
1558.83053,309.50465
1560.43548,313.57196
1562.04044,317.63928
1563.64539,313.57196
1565.25035,317.63928
1566.8553,317.63928
1568.46026,317.63928
1570.06521,321.70659
1571.67017,321.70659
1573.27512,321.70659
1574.88008,321.70659
1576.48504,321.70659
1578.08999,325.7739
1579.69495,325.7739
1581.2999,329.84122
1582.90486,329.84122
1584.50981,329.84122
1586.11477,333.90853
1587.71972,333.90853
1589.32468,333.90853
1590.92963,333.90853
1592.53459,337.97585
1594.13954,337.97585
1595.7445,342.04316
1597.34945,337.97585
1598.95441,337.97585
1600.55936,337.97585
1602.16432,337.97585
1603.76927,337.97585
1605.37423,342.04316
1606.97919,346.11047
1608.58414,350.17779
1610.1891,354.2451
1611.79405,354.2451
1613.39901,354.2451
1615.00396,354.2451
1616.60892,350.17779
1618.21387,350.17779
1619.81883,346.11047
1621.42378,346.11047
1623.02874,342.04316
1624.63369,342.04316
1626.23865,346.11047
1627.8436,346.11047
1629.44856,346.11047
1631.05351,346.11047
1632.65847,342.04316
1634.26342,342.04316
1635.86838,337.97585
1637.47334,333.90853
1639.07829,329.84122
1640.68325,325.7739
1642.2882,325.7739
1643.89316,325.7739
1645.49811,325.7739
1647.10307,329.84122
1648.70802,329.84122
1650.31298,329.84122
1651.91793,329.84122
1653.52289,329.84122
1655.12784,329.84122
1656.7328,329.84122
1658.33775,325.7739
1659.94271,321.70659
1661.54766,321.70659
1663.15262,321.70659
1664.75758,317.63928
1666.36253,321.70659
1667.96749,321.70659
1669.57244,317.63928
1671.1774,313.57196
1672.78235,309.50465
1674.38731,305.43733
1675.99226,309.50465
1677.59722,313.57196
1679.20217,313.57196
1680.80713,313.57196
1682.41208,309.50465
1684.01704,305.43733
1685.62199,301.37002
1687.22695,297.3027
1688.8319,301.37002
1690.43686,297.3027
1692.04181,293.23539
1693.64677,293.23539
1695.25173,297.3027
1696.85668,301.37002
1698.46164,297.3027
1700.06659,293.23539
1701.67155,293.23539
1703.2765,293.23539
1704.88146,297.3027
1706.48641,297.3027
1708.09137,293.23539
1709.69632,289.16808
1711.30128,289.16808
1712.90623,293.23539
1714.51119,293.23539
1716.11614,297.3027
1717.7211,293.23539
1719.32605,289.16808
1720.93101,289.16808
1722.53596,289.16808
1724.14092,289.16808
1725.74588,289.16808
1727.35083,293.23539
1728.95579,297.3027
1730.56074,301.37002
1732.1657,301.37002
1733.77065,301.37002
1735.37561,297.3027
1736.98056,293.23539
1738.58552,289.16808
1740.19047,289.16808
1741.79543,289.16808
1743.40038,289.16808
1745.00534,289.16808
1746.61029,289.16808
1748.21525,285.10076
1749.8202,285.10076
1751.42516,285.10076
1753.03011,285.10076
1754.63507,285.10076
1756.24003,285.10076
1757.84498,285.10076
1759.44994,285.10076
1761.05489,289.16808
1762.65985,289.16808
1764.2648,285.10076
1765.86976,281.03345
1767.47471,281.03345
1769.07967,285.10076
1770.68462,285.10076
1772.28958,285.10076
1773.89453,285.10076
1775.49949,281.03345
1777.10444,281.03345
1778.7094,281.03345
1780.31435,281.03345
1781.91931,281.03345
1783.52427,281.03345
1785.12922,281.03345
1786.73418,285.10076
1788.33913,289.16808
1789.94409,293.23539
1791.54904,293.23539
1793.154,293.23539
1794.75895,293.23539
1796.36391,293.23539
1797.96886,293.23539
1799.57382,289.16808
1801.17877,289.16808
1802.78373,289.16808
1804.38868,285.10076
1805.99364,281.03345
1807.59859,285.10076
1809.20355,281.03345
1810.8085,285.10076
1812.41346,289.16808
1814.01842,293.23539
1815.62337,289.16808
1817.22833,285.10076
1818.83328,281.03345
1820.43824,276.96613
1822.04319,276.96613
1823.64815,281.03345
1825.2531,285.10076
1826.85806,289.16808
1828.46301,293.23539
1830.06797,293.23539
1831.67292,293.23539
1833.27788,293.23539
1834.88283,289.16808
1836.48779,289.16808
1838.09274,293.23539
1839.6977,293.23539
1841.30265,293.23539
1842.90761,293.23539
1844.51257,293.23539
1846.11752,293.23539
1847.72248,293.23539
1849.32743,293.23539
1850.93239,289.16808
1852.53734,285.10076
1854.1423,281.03345
1855.74725,276.96613
1857.35221,272.89882
1858.95716,272.89882
1860.56212,272.89882
1862.16707,272.89882
1863.77203,272.89882
1865.37698,272.89882
1866.98194,272.89882
1868.58689,272.89882
1870.19185,272.89882
1871.7968,272.89882
1873.40176,272.89882
1875.00672,272.89882
1876.61167,272.89882
1878.21663,272.89882
1879.82158,272.89882
1881.42654,272.89882
1883.03149,272.89882
1884.63645,272.89882
1886.2414,272.89882
1887.84636,272.89882
1889.45131,272.89882
1891.05627,272.89882
1892.66122,272.89882
1894.26618,272.89882
1895.87113,272.89882
1897.47609,272.89882
1899.08104,272.89882
1900.686,272.89882
1902.29096,272.89882
1903.89591,272.89882
1905.50087,272.89882
1907.10582,272.89882
1908.71078,272.89882
1910.31573,272.89882
1911.92069,272.89882
1913.52564,272.89882
1915.1306,272.89882
1916.73555,272.89882
1918.34051,272.89882
1919.94546,272.89882
1921.55042,272.89882
1923.15537,272.89882
1924.76033,272.89882
1926.36528,272.89882
1927.97024,272.89882
1929.57519,272.89882
1931.18015,272.89882
1932.78511,272.89882
1934.39006,272.89882
1935.99502,272.89882
1937.59997,272.89882
1939.20493,272.89882
1940.80988,272.89882
1942.41484,272.89882
1944.01979,272.89882
1945.62475,272.89882
1947.2297,272.89882
1948.83466,272.89882
1950.43961,272.89882
1952.04457,272.89882
1953.64952,272.89882
1955.25448,272.89882
1956.85943,272.89882
1958.46439,272.89882
1960.06934,272.89882
1961.6743,272.89882
1963.27926,272.89882
1964.88421,272.89882
1966.48917,272.89882
1968.09412,272.89882
1969.69908,272.89882
1971.30403,272.89882
1972.90899,272.89882
1974.51394,272.89882
1976.1189,276.96613
1977.72385,276.96613
1979.32881,272.89882
1980.93376,272.89882
1982.53872,272.89882
1984.14367,272.89882
1985.74863,272.89882
1987.35358,272.89882
1988.95854,272.89882
1990.5635,272.89882
1992.16845,272.89882
1993.77341,272.89882
1995.37836,272.89882
1996.98332,272.89882
1998.58827,272.89882
2000.19323,272.89882
2001.79818,272.89882
2003.40314,272.89882
2005.00809,272.89882
2006.61305,272.89882
2008.218,272.89882
2009.82296,272.89882
2011.42791,272.89882
2013.03287,272.89882
2014.63782,272.89882
2016.24278,272.89882
2017.84773,272.89882
2019.45269,272.89882
2021.05765,272.89882
2022.6626,272.89882
2024.26756,272.89882
2025.87251,272.89882
2027.47747,272.89882
2029.08242,272.89882
2030.68738,272.89882
2032.29233,272.89882
2033.89729,272.89882
2035.50224,272.89882
2037.1072,272.89882
2038.71215,272.89882
2040.31711,272.89882
2041.92206,272.89882
2043.52702,272.89882
2045.13197,272.89882
2046.73693,272.89882
2048.34188,272.89882
2049.94684,272.89882
2051.5518,272.89882
2053.15675,272.89882
2054.76171,272.89882
2056.36666,272.89882
2057.97162,272.89882
2059.57657,272.89882
2061.18153,272.89882
2062.78648,272.89882
2064.39144,272.89882
2065.99639,272.89882
2067.60135,272.89882
2069.2063,272.89882
2070.81126,272.89882
2072.41621,272.89882
2074.02117,272.89882
2075.62612,272.89882
2077.23108,272.89882
2078.83603,272.89882
2080.44099,272.89882
2082.04595,272.89882
2083.6509,272.89882
2085.25586,272.89882
2086.86081,272.89882
2088.46577,272.89882
2090.07072,272.89882
2091.67568,272.89882
2093.28063,272.89882
2094.88559,272.89882
2096.49054,272.89882
2098.0955,276.96613
2099.70045,272.89882
2101.30541,272.89882
2102.91036,272.89882
2104.51532,272.89882
2106.12027,272.89882
2107.72523,272.89882
2109.33019,272.89882
2110.93514,276.96613
2112.5401,276.96613
2114.14505,276.96613
2115.75001,276.96613
2117.35496,276.96613
2118.95992,276.96613
2120.56487,276.96613
2122.16983,276.96613
2123.77478,276.96613
2125.37974,276.96613
2126.98469,276.96613
2128.58965,276.96613
2130.1946,276.96613
2131.79956,276.96613
2133.40451,276.96613
2135.00947,276.96613
2136.61442,276.96613
2138.21938,276.96613
2139.82434,276.96613
2141.42929,276.96613
2143.03425,276.96613
2144.6392,276.96613
2146.24416,276.96613
2147.84911,281.03345
2149.45407,285.10076
2151.05902,289.16808
2152.66398,289.16808
2154.26893,289.16808
2155.87389,289.16808
2157.47884,289.16808
2159.0838,289.16808
2160.68875,289.16808
2162.29371,285.10076
2163.89866,281.03345
2165.50362,276.96613
2167.10857,276.96613
2168.71353,276.96613
2170.31849,276.96613
2171.92344,276.96613
2173.5284,276.96613
2175.13335,276.96613
2176.73831,276.96613
2178.34326,281.03345
2179.94822,281.03345
2181.55317,281.03345
2183.15813,281.03345
2184.76308,281.03345
2186.36804,281.03345
2187.97299,281.03345
2189.57795,281.03345
2191.1829,285.10076
2192.78786,281.03345
2194.39281,281.03345
2195.99777,281.03345
2197.60273,276.96613
2199.20768,276.96613
2200.81264,276.96613
2202.41759,276.96613
2204.02255,276.96613
2205.6275,276.96613
2207.23246,276.96613
2208.83741,276.96613
2210.44237,276.96613
2212.04732,281.03345
2213.65228,281.03345
2215.25723,281.03345
2216.86219,281.03345
2218.46714,281.03345
2220.0721,281.03345
2221.67705,281.03345
2223.28201,281.03345
2224.88696,281.03345
2226.49192,281.03345
2228.09688,285.10076
2229.70183,289.16808
2231.30679,293.23539
2232.91174,293.23539
2234.5167,293.23539
2236.12165,293.23539
2237.72661,293.23539
2239.33156,293.23539
2240.93652,293.23539
2242.54147,293.23539
2244.14643,293.23539
2245.75138,293.23539
2247.35634,293.23539
2248.96129,289.16808
2250.56625,289.16808
2252.1712,289.16808
2253.77616,285.10076
2255.38111,281.03345
2256.98607,281.03345
2258.59103,281.03345
2260.19598,281.03345
2261.80094,281.03345
2263.40589,281.03345
2265.01085,276.96613
2266.6158,272.89882
2268.22076,272.89882
2269.82571,272.89882
2271.43067,272.89882
2273.03562,272.89882
2274.64058,272.89882
2276.24553,272.89882
2277.85049,272.89882
2279.45544,272.89882
2281.0604,272.89882
2282.66535,272.89882
2284.27031,272.89882
2285.87526,272.89882
2287.48022,272.89882
2289.08518,272.89882
2290.69013,272.89882
2292.29509,272.89882
2293.90004,272.89882
2295.505,272.89882
2297.10995,272.89882
2298.71491,272.89882
2300.31986,272.89882
2301.92482,272.89882
2303.52977,276.96613
2305.13473,276.96613
2306.73968,276.96613
2308.34464,276.96613
2309.94959,276.96613
2311.55455,276.96613
2313.1595,276.96613
2314.76446,276.96613
2316.36942,276.96613
2317.97437,276.96613
2319.57933,281.03345
2321.18428,285.10076
2322.78924,289.16808
2324.39419,289.16808
2325.99915,289.16808
2327.6041,285.10076
2329.20906,281.03345
2330.81401,281.03345
2332.41897,281.03345
2334.02392,281.03345
2335.62888,281.03345
2337.23383,285.10076
2338.83879,289.16808
2340.44374,293.23539
2342.0487,293.23539
2343.65365,293.23539
2345.25861,293.23539
2346.86357,289.16808
2348.46852,285.10076
2350.07348,289.16808
2351.67843,289.16808
2353.28339,289.16808
2354.88834,289.16808
2356.4933,289.16808
2358.09825,285.10076
2359.70321,281.03345
2361.30816,281.03345
2362.91312,281.03345
2364.51807,281.03345
2366.12303,281.03345
2367.72798,285.10076
2369.33294,281.03345
2370.93789,276.96613
2372.54285,276.96613
2374.1478,276.96613
2375.75276,276.96613
2377.35772,276.96613
2378.96267,276.96613
2380.56763,276.96613
2382.17258,281.03345
2383.77754,285.10076
2385.38249,281.03345
2386.98745,276.96613
2388.5924,272.89882
2390.19736,272.89882
2391.80231,276.96613
2393.40727,281.03345
2395.01222,285.10076
2396.61718,285.10076
2398.22213,285.10076
2399.82709,285.10076
2401.43204,285.10076
2403.037,285.10076
2404.64196,281.03345
2406.24691,285.10076
2407.85187,289.16808
2409.45682,289.16808
2411.06178,289.16808
2412.66673,289.16808
2414.27169,289.16808
2415.87664,289.16808
2417.4816,285.10076
2419.08655,281.03345
2420.69151,276.96613
2422.29646,281.03345
2423.90142,285.10076
2425.50637,289.16808
2427.11133,289.16808
2428.71628,285.10076
2430.32124,281.03345
2431.92619,276.96613
2433.53115,276.96613
2435.13611,276.96613
2436.74106,276.96613
2438.34602,281.03345
2439.95097,285.10076
2441.55593,289.16808
2443.16088,293.23539
2444.76584,293.23539
2446.37079,293.23539
2447.97575,293.23539
2449.5807,293.23539
2451.18566,293.23539
2452.79061,293.23539
2454.39557,289.16808
2456.00052,289.16808
2457.60548,285.10076
2459.21043,289.16808
2460.81539,285.10076
2462.42034,281.03345
2464.0253,281.03345
2465.63026,285.10076
2467.23521,285.10076
2468.84017,289.16808
2470.44512,293.23539
2472.05008,289.16808
2473.65503,289.16808
2475.25999,289.16808
2476.86494,289.16808
2478.4699,289.16808
2480.07485,289.16808
2481.67981,289.16808
2483.28476,285.10076
2484.88972,281.03345
2486.49467,276.96613
2488.09963,276.96613
2489.70458,276.96613
2491.30954,276.96613
2492.91449,276.96613
2494.51945,281.03345
2496.12441,281.03345
2497.72936,281.03345
2499.33432,281.03345
2500.93927,281.03345
2502.54423,281.03345
2504.14918,281.03345
2505.75414,281.03345
2507.35909,281.03345
2508.96405,281.03345
2510.569,285.10076
2512.17396,289.16808
2513.77891,293.23539
2515.38387,289.16808
2516.98882,285.10076
2518.59378,281.03345
2520.19873,276.96613
2521.80369,276.96613
2523.40865,281.03345
2525.0136,285.10076
2526.61856,289.16808
2528.22351,289.16808
2529.82847,289.16808
2531.43342,289.16808
2533.03838,289.16808
2534.64333,289.16808
2536.24829,289.16808
2537.85324,285.10076
2539.4582,281.03345
2541.06315,276.96613
2542.66811,276.96613
2544.27306,276.96613
2545.87802,276.96613
2547.48297,276.96613
2549.08793,276.96613
2550.69288,276.96613
2552.29784,276.96613
2553.9028,276.96613
2555.50775,281.03345
2557.11271,281.03345
2558.71766,281.03345
2560.32262,281.03345
2561.92757,281.03345
2563.53253,281.03345
2565.13748,281.03345
2566.74244,281.03345
2568.34739,281.03345
2569.95235,281.03345
2571.5573,285.10076
2573.16226,289.16808
2574.76721,293.23539
2576.37217,293.23539
2577.97712,289.16808
2579.58208,285.10076
2581.18703,281.03345
2582.79199,285.10076
2584.39695,289.16808
2586.0019,289.16808
2587.60686,289.16808
2589.21181,285.10076
2590.81677,281.03345
2592.42172,276.96613
2594.02668,276.96613
2595.63163,272.89882
2597.23659,272.89882
2598.84154,272.89882
2600.4465,272.89882
2602.05145,272.89882
2603.65641,272.89882
2605.26136,272.89882
2606.86632,272.89882
2608.47127,272.89882
2610.07623,272.89882
2611.68119,276.96613
2613.28614,276.96613
2614.8911,276.96613
2616.49605,276.96613
2618.10101,276.96613
2619.70596,276.96613
2621.31092,276.96613
2622.91587,276.96613
2624.52083,276.96613
2626.12578,276.96613
2627.73074,276.96613
2629.33569,276.96613
2630.94065,276.96613
2632.5456,276.96613
2634.15056,281.03345
2635.75551,285.10076
2637.36047,289.16808
2638.96542,289.16808
2640.57038,289.16808
2642.17534,289.16808
2643.78029,285.10076
2645.38525,281.03345
2646.9902,281.03345
2648.59516,281.03345
2650.20011,281.03345
2651.80507,281.03345
2653.41002,281.03345
2655.01498,281.03345
2656.61993,276.96613
2658.22489,272.89882
2659.82984,272.89882
2661.4348,272.89882
2663.03975,272.89882
2664.64471,272.89882
2666.24966,272.89882
2667.85462,272.89882
2669.45957,272.89882
2671.06453,272.89882
2672.66949,272.89882
2674.27444,272.89882
2675.8794,272.89882
2677.48435,272.89882
2679.08931,276.96613
2680.69426,276.96613
2682.29922,276.96613
2683.90417,276.96613
2685.50913,281.03345
2687.11408,281.03345
2688.71904,276.96613
2690.32399,276.96613
2691.92895,276.96613
2693.5339,276.96613
2695.13886,276.96613
2696.74381,276.96613
2698.34877,281.03345
2699.95372,285.10076
2701.55868,289.16808
2703.16364,289.16808
2704.76859,289.16808
2706.37355,285.10076
2707.9785,289.16808
2709.58346,293.23539
2711.18841,293.23539
2712.79337,293.23539
2714.39832,293.23539
2716.00328,289.16808
2717.60823,289.16808
2719.21319,289.16808
2720.81814,289.16808
2722.4231,293.23539
2724.02805,297.3027
2725.63301,293.23539
2727.23796,293.23539
2728.84292,293.23539
2730.44788,293.23539
2732.05283,293.23539
2733.65779,293.23539
2735.26274,293.23539
2736.8677,289.16808
2738.47265,285.10076
2740.07761,281.03345
2741.68256,281.03345
2743.28752,281.03345
2744.89247,281.03345
2746.49743,281.03345
2748.10238,281.03345
2749.70734,281.03345
2751.31229,281.03345
2752.91725,281.03345
2754.5222,281.03345
2756.12716,281.03345
2757.73211,281.03345
2759.33707,281.03345
2760.94203,285.10076
2762.54698,285.10076
2764.15194,285.10076
2765.75689,285.10076
2767.36185,285.10076
2768.9668,285.10076
2770.57176,289.16808
2772.17671,293.23539
2773.78167,297.3027
2775.38662,297.3027
2776.99158,297.3027
2778.59653,293.23539
2780.20149,297.3027
2781.80644,301.37002
2783.4114,301.37002
2785.01635,301.37002
2786.62131,301.37002
2788.22626,297.3027
2789.83122,297.3027
2791.43618,301.37002
2793.04113,305.43733
2794.64609,305.43733
2796.25104,301.37002
2797.856,301.37002
2799.46095,301.37002
2801.06591,305.43733
2802.67086,305.43733
2804.27582,305.43733
2805.88077,305.43733
2807.48573,305.43733
2809.09068,301.37002
2810.69564,305.43733
2812.30059,309.50465
2813.90555,305.43733
2815.5105,305.43733
2817.11546,309.50465
2818.72041,309.50465
2820.32537,305.43733
2821.93033,301.37002
2823.53528,297.3027
2825.14024,293.23539
2826.74519,293.23539
2828.35015,293.23539
2829.9551,297.3027
2831.56006,297.3027
2833.16501,297.3027
2834.76997,301.37002
2836.37492,305.43733
2837.97988,309.50465
2839.58483,309.50465
2841.18979,313.57196
2842.79474,317.63928
2844.3997,313.57196
2846.00465,309.50465
2847.60961,313.57196
2849.21457,317.63928
2850.81952,317.63928
2852.42448,313.57196
2854.02943,313.57196
2855.63439,313.57196
2857.23934,313.57196
2858.8443,309.50465
2860.44925,305.43733
2862.05421,309.50465
2863.65916,309.50465
2865.26412,309.50465
2866.86907,313.57196
2868.47403,317.63928
2870.07898,321.70659
2871.68394,317.63928
2873.28889,313.57196
2874.89385,313.57196
2876.4988,317.63928
2878.10376,313.57196
2879.70872,313.57196
2881.31367,317.63928
2882.91863,317.63928
2884.52358,317.63928
2886.12854,321.70659
2887.73349,325.7739
2889.33845,329.84122
2890.9434,329.84122
2892.54836,329.84122
2894.15331,329.84122
2895.75827,325.7739
2897.36322,321.70659
2898.96818,325.7739
2900.57313,329.84122
2902.17809,329.84122
2903.78304,329.84122
2905.388,329.84122
2906.99295,329.84122
2908.59791,333.90853
2910.20287,337.97585
2911.80782,337.97585
2913.41278,337.97585
2915.01773,337.97585
2916.62269,337.97585
2918.22764,337.97585
2919.8326,337.97585
2921.43755,337.97585
2923.04251,342.04316
2924.64746,342.04316
2926.25242,342.04316
2927.85737,346.11047
2929.46233,346.11047
2931.06728,346.11047
2932.67224,346.11047
2934.27719,350.17779
2935.88215,346.11047
2937.48711,346.11047
2939.09206,350.17779
2940.69702,350.17779
2942.30197,350.17779
2943.90693,354.2451
2945.51188,354.2451
2947.11684,354.2451
2948.72179,354.2451
2950.32675,358.31242
2951.9317,362.37973
2953.53666,362.37973
2955.14161,362.37973
2956.74657,362.37973
2958.35152,366.44705
2959.95648,366.44705
2961.56143,366.44705
2963.16639,366.44705
2964.77134,366.44705
2966.3763,366.44705
2967.98126,370.51436
2969.58621,370.51436
2971.19117,370.51436
2972.79612,374.58167
2974.40108,374.58167
2976.00603,378.64899
2977.61099,378.64899
2979.21594,382.7163
2980.8209,382.7163
2982.42585,386.78362
2984.03081,390.85093
2985.63576,390.85093
2987.24072,386.78362
2988.84567,390.85093
2990.45063,390.85093
2992.05558,394.91824
2993.66054,394.91824
2995.26549,394.91824
2996.87045,394.91824
2998.47541,403.05287
2998.47541,398.98556
2998.47541,407.12019
2998.47541,411.1875
3000.08036,415.25482
3000.08036,419.32213
3000.08036,423.38944
3000.08036,411.1875
3001.68532,423.38944
3003.29027,423.38944
3004.89523,423.38944
3006.50018,427.45676
3008.10514,431.52407
3009.71009,431.52407
3011.31505,435.59139
3012.92,435.59139
3014.52496,435.59139
3016.12991,439.6587
3017.73487,439.6587
3019.33982,439.6587
3020.94478,443.72601
3022.54973,443.72601
3024.15469,447.79333
3025.75964,447.79333
3027.3646,451.86064
3028.96956,451.86064
3030.57451,451.86064
3032.17947,451.86064
3033.78442,451.86064
3035.38938,451.86064
3036.99433,451.86064
3036.99433,455.92796
3038.59929,455.92796
3040.20424,455.92796
3040.20424,459.99527
3041.8092,464.06259
3043.41415,464.06259
3045.01911,464.06259
3046.62406,464.06259
3048.22902,468.1299
3048.22902,472.19721
3048.22902,476.26453
3048.22902,480.33184
3048.22902,464.06259
3049.83397,484.39916
3049.83397,488.46647
3049.83397,480.33184
3051.43893,488.46647
3053.04388,492.53378
3053.04388,488.46647
3054.64884,496.6011
3056.2538,496.6011
3057.85875,500.66841
3059.46371,504.73573
3059.46371,500.66841
3061.06866,508.80304
3062.67362,508.80304
3064.27857,508.80304
3064.27857,512.87036
3065.88353,516.93767
3065.88353,512.87036
3067.48848,521.00498
3067.48848,516.93767
3069.09344,521.00498
3069.09344,525.0723
3070.69839,529.13961
3070.69839,525.0723
3072.30335,533.20693
3072.30335,529.13961
3073.9083,533.20693
3075.51326,533.20693
3077.11821,533.20693
3078.72317,533.20693
3080.32812,533.20693
3081.93308,533.20693
3083.53803,537.27424
3083.53803,533.20693
3085.14299,541.34155
3085.14299,537.27424
3086.74795,545.40887
3086.74795,541.34155
3088.3529,545.40887
3088.3529,553.5435
3088.3529,549.47618
3089.95786,553.5435
3091.56281,561.67813
3091.56281,557.61081
3093.16777,565.74544
3093.16777,561.67813
3094.77272,565.74544
3096.37768,573.88007
3096.37768,569.81275
3097.98263,577.94738
3097.98263,582.0147
3097.98263,573.88007
3099.58759,586.08201
3099.58759,582.0147
3101.19254,586.08201
3102.7975,594.21664
3102.7975,598.28395
3102.7975,590.14932
3104.40245,602.35127
3104.40245,598.28395
3106.00741,606.41858
3106.00741,602.35127
3107.61236,610.4859
3107.61236,614.55321
3107.61236,606.41858
3109.21732,618.62052
3109.21732,622.68784
3109.21732,614.55321
3110.82227,626.75515
3110.82227,622.68784
3112.42723,630.82247
3112.42723,626.75515
3114.03218,638.95709
3114.03218,643.02441
3114.03218,634.88978
3115.63714,647.09172
3117.2421,651.15904
3117.2421,659.29367
3117.2421,663.36098
3117.2421,667.42829
3117.2421,655.22635
3118.84705,675.56292
3118.84705,671.49561
3118.84705,679.63024
3118.84705,683.69755
3120.45201,687.76486
3120.45201,683.69755
3122.05696,687.76486
3123.66192,687.76486
3123.66192,695.89949
3123.66192,691.83218
3123.66192,704.03412
3123.66192,699.96681
3125.26687,708.10144
3126.87183,708.10144
3128.47678,708.10144
3130.08174,708.10144
3131.68669,708.10144
3133.29165,712.16875
3133.29165,716.23606
3133.29165,720.30338
3133.29165,708.10144
3134.8966,720.30338
3136.50156,720.30338
3136.50156,724.37069
3136.50156,728.43801
3138.10651,728.43801
3139.71147,736.57263
3139.71147,740.63995
3139.71147,744.70726
3139.71147,732.50532
3141.31642,744.70726
3141.31642,748.77458
3142.92138,752.84189
3142.92138,748.77458
3144.52634,752.84189
3144.52634,760.97652
3144.52634,765.04383
3144.52634,756.9092
3146.13129,765.04383
3147.73625,765.04383
3147.73625,773.17846
3147.73625,769.11115
3149.3412,773.17846
3150.94616,781.31309
3150.94616,785.3804
3150.94616,789.44772
3150.94616,777.24578
3152.55111,793.51503
3152.55111,789.44772
3154.15607,797.58235
3154.15607,801.64966
3154.15607,805.71697
3154.15607,809.78429
3154.15607,793.51503
3155.76102,809.78429
3157.36598,809.78429
3158.97093,809.78429
3158.97093,813.8516
3160.57589,817.91892
3160.57589,821.98623
3160.57589,813.8516
3162.18084,826.05355
3162.18084,821.98623
3163.7858,830.12086
3163.7858,826.05355
3165.39075,834.18817
3165.39075,838.25549
3165.39075,842.3228
3165.39075,846.39012
3165.39075,850.45743
3165.39075,854.52474
3165.39075,858.59206
3165.39075,830.12086
3166.99571,858.59206
3168.60066,858.59206
3168.60066,862.65937
3170.20562,862.65937
3170.20562,866.72669
3171.81057,866.72669
3173.41553,870.794
3173.41553,866.72669
3175.02049,870.794
3176.62544,870.794
3178.2304,866.72669
3179.83535,862.65937
3181.44031,858.59206
3183.04526,862.65937
3184.65022,862.65937
3186.25517,862.65937
3187.86013,866.72669
3189.46508,866.72669
3191.07004,866.72669
3192.67499,866.72669
3194.27995,870.794
3195.8849,874.86132
3197.48986,874.86132
3199.09481,878.92863
3200.69977,882.99594
3202.30472,887.06326
3203.90968,882.99594
3205.51464,882.99594
3207.11959,882.99594
3208.72455,878.92863
3208.72455,882.99594
3208.72455,870.794
3208.72455,874.86132
3208.72455,862.65937
3208.72455,858.59206
3208.72455,866.72669
3210.3295,858.59206
3211.93446,858.59206
3211.93446,854.52474
3213.53941,854.52474
3215.14437,854.52474
3215.14437,850.45743
3216.74932,850.45743
3218.35428,846.39012
3218.35428,850.45743
3219.95923,842.3228
3219.95923,846.39012
3221.56419,842.3228
3223.16914,838.25549
3223.16914,842.3228
3224.7741,838.25549
3226.37905,838.25549
3227.98401,838.25549
3229.58896,838.25549
3231.19392,834.18817
3232.79887,830.12086
3234.40383,826.05355
3236.00879,817.91892
3236.00879,821.98623
3237.61374,817.91892
3239.2187,817.91892
3239.2187,813.8516
3240.82365,813.8516
3242.42861,813.8516
3244.03356,817.91892
3245.63852,821.98623
3247.24347,826.05355
3248.84843,826.05355
3250.45338,821.98623
3252.05834,821.98623
3253.66329,821.98623
3255.26825,821.98623
3256.8732,817.91892
3258.47816,817.91892
3260.08311,813.8516
3261.68807,813.8516
3263.29303,809.78429
3264.89798,809.78429
3266.50294,809.78429
3268.10789,809.78429
3269.71285,809.78429
3271.3178,809.78429
3272.92276,809.78429
3274.52771,809.78429
3276.13267,809.78429
3277.73762,809.78429
3279.34258,805.71697
3280.94753,809.78429
3282.55249,809.78429
3284.15744,809.78429
3285.7624,809.78429
3287.36735,805.71697
3288.97231,805.71697
3290.57726,805.71697
3292.18222,801.64966
3293.78718,797.58235
3293.78718,793.51503
3293.78718,789.44772
3293.78718,785.3804
3293.78718,781.31309
3293.78718,801.64966
3295.39213,781.31309
3296.99709,781.31309
3298.60204,777.24578
3300.207,777.24578
3300.207,773.17846
3300.207,781.31309
3301.81195,773.17846
3303.41691,769.11115
3305.02186,769.11115
3306.62682,765.04383
3306.62682,769.11115
3308.23177,765.04383
3309.83673,760.97652
3309.83673,765.04383
3311.44168,756.9092
3311.44168,760.97652
3313.04664,756.9092
3314.65159,752.84189
3314.65159,756.9092
3316.25655,752.84189
3316.25655,748.77458
3317.8615,748.77458
3319.46646,744.70726
3319.46646,748.77458
3321.07141,740.63995
3322.67637,736.57263
3322.67637,740.63995
3324.28133,736.57263
3324.28133,732.50532
3325.88628,728.43801
3327.49124,728.43801
3329.09619,724.37069
3329.09619,728.43801
3330.70115,720.30338
3332.3061,716.23606
3332.3061,720.30338
3333.91106,716.23606
3335.51601,716.23606
3337.12097,716.23606
3338.72592,716.23606
3340.33088,716.23606
3341.93583,716.23606
3343.54079,712.16875
3345.14574,708.10144
3345.14574,712.16875
3346.7507,704.03412
3346.7507,699.96681
3346.7507,695.89949
3346.7507,691.83218
3346.7507,687.76486
3346.7507,683.69755
3346.7507,679.63024
3346.7507,708.10144
3348.35565,675.56292
3348.35565,679.63024
3349.96061,671.49561
3351.56557,671.49561
3353.17052,671.49561
3354.77548,671.49561
3356.38043,671.49561
3357.98539,671.49561
3359.59034,667.42829
3359.59034,671.49561
3361.1953,663.36098
3361.1953,659.29367
3361.1953,667.42829
3362.80025,655.22635
3362.80025,659.29367
3364.40521,655.22635
3366.01016,651.15904
3367.61512,647.09172
3369.22007,647.09172
3369.22007,643.02441
3370.82503,638.95709
3370.82503,634.88978
3370.82503,643.02441
3372.42998,630.82247
3372.42998,634.88978
3374.03494,626.75515
3374.03494,630.82247
3375.63989,626.75515
3377.24485,618.62052
3377.24485,614.55321
3377.24485,610.4859
3377.24485,606.41858
3377.24485,622.68784
3377.24485,598.28395
3377.24485,602.35127
3378.8498,598.28395
3378.8498,594.21664
3380.45476,590.14932
3382.05972,590.14932
3383.66467,586.08201
3383.66467,590.14932
3385.26963,582.0147
3386.87458,573.88007
3386.87458,577.94738
3388.47954,569.81275
3390.08449,565.74544
3390.08449,569.81275
3391.68945,565.74544
3393.2944,565.74544
3394.89936,561.67813
3394.89936,557.61081
3394.89936,565.74544
3396.50431,557.61081
3398.10927,553.5435
3398.10927,557.61081
3399.71422,549.47618
3399.71422,553.5435
3401.31918,545.40887
3401.31918,549.47618
3402.92413,545.40887
3404.52909,541.34155
3404.52909,545.40887
3406.13404,541.34155
3407.739,537.27424
3407.739,541.34155
3409.34395,537.27424
3410.94891,533.20693
3410.94891,537.27424
3412.55387,529.13961
3412.55387,533.20693
3414.15882,529.13961
3415.76378,525.0723
3415.76378,529.13961
3417.36873,525.0723
3418.97369,521.00498
3418.97369,525.0723
3420.57864,516.93767
3420.57864,521.00498
3422.1836,516.93767
3423.78855,512.87036
3423.78855,516.93767
3425.39351,508.80304
3426.99846,508.80304
3428.60342,508.80304
3428.60342,504.73573
3430.20837,504.73573
3431.81333,500.66841
3431.81333,504.73573
3433.41828,496.6011
3433.41828,500.66841
3435.02324,496.6011
3436.62819,496.6011
3438.23315,496.6011
3439.8381,500.66841
3441.44306,504.73573
3443.04802,508.80304
3444.65297,504.73573
3446.25793,504.73573
3447.86288,504.73573
3449.46784,500.66841
3451.07279,500.66841
3452.67775,500.66841
3454.2827,500.66841
3455.88766,496.6011
3457.49261,496.6011
3459.09757,496.6011
3460.70252,496.6011
3462.30748,492.53378
3463.91243,492.53378
3465.51739,492.53378
3467.12234,492.53378
3468.7273,492.53378
3470.33226,496.6011
3471.93721,496.6011
3473.54217,496.6011
3475.14712,492.53378
3476.75208,488.46647
3478.35703,484.39916
3479.96199,480.33184
3481.56694,484.39916
3483.1719,488.46647
3484.77685,492.53378
3486.38181,492.53378
3487.98676,492.53378
3489.59172,488.46647
3491.19667,492.53378
3492.80163,488.46647
3494.40658,488.46647
3496.01154,492.53378
3497.61649,492.53378
3499.22145,492.53378
3500.82641,496.6011
3502.43136,500.66841
3504.03632,504.73573
3504.03632,508.80304
3504.03632,512.87036
3504.03632,516.93767
3504.03632,500.66841
3505.64127,516.93767
3507.24623,521.00498
3508.85118,521.00498
3510.45614,521.00498
3512.06109,525.0723
3513.66605,525.0723
3515.271,521.00498
3516.87596,516.93767
3518.48091,512.87036
3520.08587,512.87036
3521.69082,512.87036
3523.29578,512.87036
3524.90073,512.87036
3526.50569,516.93767
3528.11064,521.00498
3529.7156,525.0723
3531.32056,529.13961
3532.92551,529.13961
3534.53047,529.13961
3536.13542,525.0723
3537.74038,529.13961
3539.34533,525.0723
3540.95029,525.0723
3542.55524,521.00498
3544.1602,521.00498
3545.76515,521.00498
3547.37011,521.00498
3548.97506,516.93767
3550.58002,512.87036
3552.18497,508.80304
3553.78993,504.73573
3555.39488,504.73573
3556.99984,504.73573
3558.6048,504.73573
3560.20975,512.87036
3560.20975,516.93767
3560.20975,521.00498
3560.20975,525.0723
3560.20975,529.13961
3560.20975,533.20693
3560.20975,537.27424
3560.20975,508.80304
3561.81471,537.27424
3563.41966,537.27424
3565.02462,537.27424
3566.62957,537.27424
3566.62957,569.81275
3566.62957,565.74544
3568.23453,573.88007
3568.23453,537.27424
3568.23453,577.94738
3568.23453,561.67813
3568.23453,590.14932
3569.83948,594.21664
3569.83948,557.61081
3569.83948,545.40887
3569.83948,541.34155
3569.83948,537.27424
3569.83948,582.0147
3569.83948,586.08201
3569.83948,598.28395
3571.44444,553.5435
3571.44444,549.47618
3571.44444,602.35127
3571.44444,606.41858
3571.44444,545.40887
3573.04939,614.55321
3573.04939,610.4859
3573.04939,622.68784
3573.04939,618.62052
3574.65435,638.95709
3574.65435,626.75515
3574.65435,647.09172
3574.65435,643.02441
3576.2593,630.82247
3576.2593,651.15904
3576.2593,659.29367
3576.2593,634.88978
3577.86426,663.36098
3577.86426,667.42829
3577.86426,671.49561
3577.86426,675.56292
3577.86426,655.22635
3579.46921,683.69755
3579.46921,679.63024
3579.46921,691.83218
3579.46921,695.89949
3581.07417,687.76486
3581.07417,699.96681
3581.07417,704.03412
3581.07417,716.23606
3582.67912,708.10144
3582.67912,720.30338
3582.67912,712.16875
3582.67912,728.43801
3584.28408,724.37069
3584.28408,732.50532
3585.88903,756.9092
3585.88903,760.97652
3585.88903,736.57263
3585.88903,752.84189
3587.49399,748.77458
3587.49399,740.63995
3587.49399,765.04383
3587.49399,769.11115
3587.49399,773.17846
3587.49399,777.24578
3587.49399,781.31309
3587.49399,785.3804
3589.09895,789.44772
3589.09895,793.51503
3589.09895,744.70726
3590.7039,793.51503
3592.30886,793.51503
3593.91381,797.58235
3593.91381,801.64966
3593.91381,805.71697
3593.91381,809.78429
3593.91381,813.8516
3593.91381,817.91892
3593.91381,793.51503
3595.51877,817.91892
3595.51877,826.05355
3595.51877,821.98623
3597.12372,826.05355
3598.72868,834.18817
3598.72868,826.05355
3600.33363,842.3228
3600.33363,826.05355
3600.33363,830.12086
3600.33363,838.25549
3601.93859,838.25549
3601.93859,834.18817
3601.93859,830.12086
3601.93859,826.05355
3601.93859,842.3228
3603.54354,826.05355
3605.1485,826.05355
3606.75345,826.05355
3608.35841,813.8516
3608.35841,821.98623
3608.35841,817.91892
3608.35841,809.78429
3609.96336,809.78429
3611.56832,809.78429
3613.17327,765.04383
3613.17327,805.71697
3613.17327,801.64966
3614.77823,797.58235
3614.77823,789.44772
3614.77823,769.11115
3614.77823,785.3804
3614.77823,760.97652
3616.38318,793.51503
3616.38318,773.17846
3616.38318,777.24578
3616.38318,781.31309
3616.38318,756.9092
3617.98814,740.63995
3617.98814,752.84189
3617.98814,748.77458
3617.98814,744.70726
3619.5931,736.57263
3619.5931,728.43801
3621.19805,732.50532
3621.19805,708.10144
3621.19805,724.37069
3621.19805,720.30338
3622.80301,716.23606
3622.80301,712.16875
3622.80301,704.03412
3622.80301,695.89949
3622.80301,699.96681
3624.40796,671.49561
3624.40796,691.83218
3624.40796,667.42829
3624.40796,679.63024
3624.40796,675.56292
3626.01292,687.76486
3626.01292,647.09172
3626.01292,683.69755
3626.01292,663.36098
3626.01292,659.29367
3627.61787,655.22635
3627.61787,651.15904
3627.61787,622.68784
3627.61787,643.02441
3627.61787,638.95709
3627.61787,634.88978
3629.22283,614.55321
3629.22283,626.75515
3629.22283,630.82247
3629.22283,618.62052
3629.22283,610.4859
3630.82778,590.14932
3630.82778,606.41858
3630.82778,586.08201
3630.82778,582.0147
3630.82778,594.21664
3632.43274,573.88007
3632.43274,602.35127
3632.43274,598.28395
3632.43274,577.94738
3634.03769,557.61081
3634.03769,569.81275
3634.03769,553.5435
3635.64265,561.67813
3635.64265,508.80304
3635.64265,565.74544
3635.64265,549.47618
3635.64265,545.40887
3635.64265,529.13961
3635.64265,537.27424
3635.64265,533.20693
3635.64265,512.87036
3635.64265,525.0723
3635.64265,521.00498
3635.64265,516.93767
3637.2476,541.34155
3637.2476,504.73573
3638.85256,480.33184
3638.85256,500.66841
3638.85256,435.59139
3638.85256,431.52407
3640.45751,488.46647
3640.45751,484.39916
3640.45751,439.6587
3640.45751,476.26453
3640.45751,472.19721
3640.45751,496.6011
3640.45751,431.52407
3640.45751,492.53378
3642.06247,468.1299
3642.06247,415.25482
3642.06247,411.1875
3642.06247,443.72601
3642.06247,423.38944
3642.06247,431.52407
3642.06247,459.99527
3642.06247,464.06259
3642.06247,419.32213
3643.66742,455.92796
3643.66742,451.86064
3643.66742,427.45676
3643.66742,411.1875
3643.66742,447.79333
3643.66742,403.05287
3643.66742,407.12019
3645.27238,394.91824
3645.27238,403.05287
3645.27238,398.98556
3646.87733,386.78362
3646.87733,394.91824
3646.87733,390.85093
3648.48229,386.78362
3650.08725,386.78362
3651.6922,386.78362
3653.29716,386.78362
3654.90211,382.7163
3654.90211,386.78362
3656.50707,378.64899
3656.50707,382.7163
3658.11202,374.58167
3658.11202,378.64899
3659.71698,374.58167
3661.32193,370.51436
3661.32193,374.58167
3662.92689,366.44705
3662.92689,370.51436
3664.53184,362.37973
3664.53184,366.44705
3666.1368,362.37973
3667.74175,362.37973
3667.74175,358.31242
3669.34671,354.2451
3669.34671,358.31242
3669.34671,333.90853
3669.34671,350.17779
3669.34671,346.11047
3669.34671,342.04316
3669.34671,337.97585
3670.95166,333.90853
3672.55662,333.90853
3674.16157,333.90853
3675.76653,329.84122
3677.37149,329.84122
3678.97644,329.84122
3680.5814,329.84122
3680.5814,333.90853
3680.5814,325.7739
3682.18635,321.70659
3683.79131,321.70659
3685.39626,321.70659
3687.00122,317.63928
3688.60617,317.63928
3690.21113,321.70659
3691.81608,317.63928
3693.42104,317.63928
3695.02599,317.63928
3696.63095,313.57196
3698.2359,313.57196
3699.84086,309.50465
3701.44581,309.50465
3703.05077,305.43733
3704.65572,305.43733
3706.26068,305.43733
3707.86564,309.50465
3709.47059,305.43733
3711.07555,305.43733
3712.6805,305.43733
3714.28546,301.37002
3715.89041,301.37002
3717.49537,301.37002
3719.10032,305.43733
3720.70528,301.37002
3722.31023,297.3027
3723.91519,293.23539
3725.52014,293.23539
3727.1251,293.23539
3728.73005,293.23539
3730.33501,297.3027
3731.93996,293.23539
3733.54492,293.23539
3735.14987,293.23539
3736.75483,293.23539
3738.35979,297.3027
3739.96474,301.37002
3741.5697,301.37002
3743.17465,297.3027
3744.77961,301.37002
3746.38456,305.43733
3747.98952,309.50465
3749.59447,305.43733
3751.19943,305.43733
3752.80438,305.43733
3754.40934,301.37002
3756.01429,297.3027
3757.61925,301.37002
3759.2242,301.37002
3760.82916,297.3027
3762.43411,293.23539
3764.03907,297.3027
3765.64402,301.37002
3767.24898,297.3027
3768.85394,293.23539
3770.45889,297.3027
3772.06385,297.3027
3773.6688,293.23539
3775.27376,289.16808
3776.87871,285.10076
3778.48367,281.03345
3780.08862,281.03345
3781.69358,281.03345
3783.29853,281.03345
3784.90349,276.96613
3786.50844,276.96613
3788.1134,276.96613
3789.71835,281.03345
3791.32331,285.10076
3792.92826,289.16808
3794.53322,293.23539
3796.13818,289.16808
3797.74313,289.16808
3799.34809,289.16808
3800.95304,293.23539
3802.558,293.23539
3804.16295,293.23539
3805.76791,289.16808
3807.37286,289.16808
3808.97782,289.16808
3810.58277,289.16808
3812.18773,289.16808
3813.79268,289.16808
3815.39764,289.16808
3817.00259,289.16808
3818.60755,289.16808
3820.2125,289.16808
3821.81746,289.16808
3823.42241,289.16808
3825.02737,289.16808
3826.63233,285.10076
3828.23728,285.10076
3829.84224,285.10076
3831.44719,285.10076
3833.05215,285.10076
3834.6571,285.10076
3836.26206,285.10076
3837.86701,285.10076
3839.47197,281.03345
3841.07692,276.96613
3842.68188,272.89882
3844.28683,272.89882
3845.89179,272.89882
3847.49674,272.89882
3849.1017,272.89882
3850.70665,272.89882
3852.31161,272.89882
3853.91656,272.89882
3855.52152,272.89882
3857.12648,272.89882
3858.73143,272.89882
3860.33639,272.89882
3861.94134,272.89882
3863.5463,272.89882
3865.15125,272.89882
3866.75621,272.89882
3868.36116,272.89882
3869.96612,272.89882
3871.57107,272.89882
3873.17603,272.89882
3874.78098,276.96613
3876.38594,281.03345
3877.99089,285.10076
3879.59585,289.16808
3881.2008,289.16808
3882.80576,289.16808
3884.41072,289.16808
3886.01567,285.10076
3887.62063,281.03345
3889.22558,276.96613
3890.83054,276.96613
3892.43549,276.96613
3894.04045,276.96613
3895.6454,276.96613
3897.25036,276.96613
3898.85531,276.96613
3900.46027,272.89882
3902.06522,268.83151
3903.67018,268.83151
3905.27513,268.83151
3906.88009,268.83151
3908.48504,268.83151
3910.09,268.83151
3911.69495,268.83151
3913.29991,268.83151
3914.90487,268.83151
3916.50982,268.83151
3918.11478,268.83151
3919.71973,268.83151
3921.32469,268.83151
3922.92964,268.83151
3924.5346,268.83151
3926.13955,268.83151
3927.74451,268.83151
3929.34946,268.83151
3930.95442,268.83151
3932.55937,268.83151
3934.16433,268.83151
3935.76928,268.83151
3937.37424,268.83151
3938.97919,272.89882
3940.58415,272.89882
3942.1891,272.89882
3943.79406,272.89882
3945.39902,272.89882
3947.00397,272.89882
3948.60893,272.89882
3950.21388,272.89882
3951.81884,272.89882
3953.42379,272.89882
3955.02875,276.96613
3956.6337,281.03345
3958.23866,285.10076
3959.84361,285.10076
3961.44857,285.10076
3963.05352,285.10076
3964.65848,285.10076
3966.26343,285.10076
3967.86839,285.10076
3969.47334,285.10076
3971.0783,285.10076
3972.68325,281.03345
3974.28821,276.96613
3975.89317,272.89882
3977.49812,272.89882
3979.10308,272.89882
3980.70803,272.89882
3982.31299,268.83151
3983.91794,268.83151
3985.5229,272.89882
3987.12785,272.89882
3988.73281,272.89882
3990.33776,272.89882
3991.94272,272.89882
3993.54767,272.89882
3995.15263,272.89882
3996.75758,-44.35169
3996.75758,268.83151
3996.75758,264.76419
3996.75758,260.69688
3996.75758,256.62956
3996.75758,252.56225
3996.75758,248.49493
3996.75758,244.42762
3996.75758,240.36031
3996.75758,236.29299
3996.75758,232.22568
3996.75758,228.15836
3996.75758,224.09105
3996.75758,220.02374
3996.75758,215.95642
3996.75758,211.88911
3996.75758,207.82179
3996.75758,203.75448
3996.75758,199.68716
3996.75758,195.61985
3996.75758,191.55254
3996.75758,187.48522
3996.75758,183.41791
3996.75758,179.35059
3996.75758,175.28328
3996.75758,171.21597
3996.75758,167.14865
3996.75758,163.08134
3996.75758,159.01402
3996.75758,154.94671
3996.75758,150.87939
3996.75758,146.81208
3996.75758,142.74477
3996.75758,138.67745
3996.75758,134.61014
3996.75758,130.54282
3996.75758,126.47551
3996.75758,122.4082
3996.75758,118.34088
3996.75758,114.27357
3996.75758,110.20625
3996.75758,106.13894
3996.75758,102.07162
3996.75758,98.00431
3996.75758,93.937
3996.75758,89.86968
3996.75758,85.80237
3996.75758,81.73505
3996.75758,77.66774
3996.75758,73.60043
3996.75758,69.53311
3996.75758,65.4658
3996.75758,61.39848
3996.75758,57.33117
3996.75758,53.26385
3996.75758,49.19654
3996.75758,45.12923
3996.75758,41.06191
3996.75758,-68.75557
3996.75758,-48.419
3996.75758,-52.48631
3996.75758,-56.55363
3996.75758,-60.62094
3996.75758,-64.68826
3996.75758,-72.82288
3998.36254,36.9946
3998.36254,-76.8902
3998.36254,-80.95751
3998.36254,-85.02483
3998.36254,-97.22677
3998.36254,-101.29408
3998.36254,-93.15946
3998.36254,-40.28437
3998.36254,-89.09214
3998.36254,-109.42871
3998.36254,-105.3614
3999.96749,-36.21706
3999.96749,32.92728
3999.96749,-11.81317
3999.96749,-7.74586
4001.57245,-15.88049
4001.57245,-3.67854
4001.57245,0.38877
4001.57245,4.45608
4001.57245,8.5234
4001.57245,12.59071
4001.57245,16.65803
4001.57245,20.72534
4001.57245,24.79266
4001.57245,28.85997
4001.57245,-19.9478
4001.57245,-32.14974
4001.57245,-28.08243
4001.57245,-24.01511
