Raman Shift,Intensity 
400,10.81238016
401,10.7390118
402,10.72438674
403,10.77679901
404,10.75416363
405,10.76042983
406,10.85059115
407,10.76431797
408,10.82312874
409,10.76386157
410,10.75361296
411,10.84072182
412,10.87930341
413,10.78533199
414,10.73890364
415,10.73167071
416,10.79427279
417,10.88495213
418,10.8047422
419,10.82677551
420,10.76998086
421,10.70010118
422,10.77853553
423,10.77280809
424,10.85044881
425,10.77829887
426,10.86712914
427,10.87498448
428,10.89912045
429,10.7624355
430,10.79530881
431,10.77269162
432,10.83648111
433,10.86345457
434,10.77707437
435,10.81454176
436,10.75155328
437,10.76704371
438,10.82523484
439,10.80124729
440,10.82754637
441,10.86332421
442,10.78769114
443,10.82906428
444,10.87370524
445,10.80774352
446,10.8466744
447,10.78666667
448,10.8434698
449,10.80254466
450,10.77401511
451,10.83130082
452,10.78467571
453,10.84091085
454,10.76542786
455,10.75865932
456,10.75656542
457,10.81912363
458,10.84445456
459,10.76508
460,10.76929444
461,10.82099015
462,10.79528595
463,10.84480204
464,10.78794771
465,10.80072731
466,10.74112872
467,10.7892576
468,10.82880783
469,10.76450945
470,10.72226379
471,10.78553212
472,10.73459212
473,10.82931026
474,10.77319076
475,10.81499732
476,10.84317532
477,10.78727445
478,10.74177398
479,10.77058531
480,10.7868582
481,10.82265092
482,10.82668082
483,10.78359547
484,10.80698199
485,10.75692855
486,10.83038512
487,10.82059557
488,10.79886228
489,10.79777765
490,10.85563471
491,10.82817096
492,10.76389472
493,10.82166298
494,10.84303737
495,10.79066379
496,10.85971504
497,10.82539741
498,10.78509265
499,10.8122057
500,10.81813337
501,10.76638701
502,10.75551607
503,10.78586782
504,10.86309423
505,10.79894022
506,10.81677
507,10.81999637
508,10.76914809
509,10.76336947
510,10.78039512
511,10.79572343
512,10.85012013
513,10.83891464
514,10.81832155
515,10.81522876
516,10.84289899
517,10.81267898
518,10.79844703
519,10.84017904
520,10.80624057
521,10.74408371
522,10.84804522
523,10.85151632
524,10.77185775
525,10.80850391
526,10.73619192
527,10.85752052
528,10.75103116
529,10.78418715
530,10.7387055
531,10.81146993
532,10.81596001
533,10.79036595
534,10.8598959
535,10.81520948
536,10.76193584
537,10.75381048
538,10.90539432
539,10.80562745
540,10.81335173
541,10.77263717
542,10.78289131
543,10.7822459
544,10.75146669
545,10.85448398
546,10.85233198
547,10.88567728
548,10.79205919
549,10.75574397
550,10.84741235
551,10.82235327
552,10.82261706
553,10.77860285
554,10.77570124
555,10.80399384
556,10.8064662
557,10.73751904
558,10.747067
559,10.83627695
560,10.72909302
561,10.76105072
562,10.84150985
563,10.75966873
564,10.74139811
565,10.76600219
566,10.77332167
567,10.78331512
568,10.7985321
569,10.83804081
570,10.81673268
571,10.74270077
572,10.82922482
573,10.8129018
574,10.78903281
575,10.77437993
576,10.76323611
577,10.80824322
578,10.79431402
579,10.83896806
580,10.78530808
581,10.7767762
582,10.81597871
583,10.78878679
584,10.74211784
585,10.81710612
586,10.76388127
587,10.81996717
588,10.71697022
589,10.78306845
590,10.81625373
591,10.80039538
592,10.76523232
593,10.85858248
594,10.73416664
595,10.85324065
596,10.78355221
597,10.73860607
598,10.80623805
599,10.73234668
600,10.69290348
601,10.85577039
602,10.85511172
603,10.81065629
604,10.86996972
605,10.79290943
606,10.79844816
607,10.76202073
608,10.81388136
609,10.80941679
610,10.83636816
611,10.81687082
612,10.79317986
613,10.79824721
614,10.79434499
615,10.84975013
616,10.74384097
617,10.83981011
618,10.74179981
619,10.80335486
620,10.80055322
621,10.73973889
622,10.8277304
623,10.79530835
624,10.82677578
625,10.7771257
626,10.75174792
627,10.85202496
628,10.77742554
629,10.80990897
630,10.82411561
631,10.83860779
632,10.87525709
633,10.84877753
634,10.83484958
635,10.82679956
636,10.82473639
637,10.89957209
638,10.81777705
639,10.76051512
640,10.78291799
641,10.85083285
642,10.76915318
643,10.7782063
644,10.85941148
645,10.85050189
646,10.82087311
647,10.75197667
648,10.84408087
649,10.81260258
650,10.8088451
651,10.77742113
652,10.75964747
653,10.86722062
654,10.83400756
655,10.79357929
656,10.68411986
657,10.7736298
658,10.81111301
659,10.82547987
660,10.8196908
661,10.77023194
662,10.82382321
663,10.80444665
664,10.81837817
665,10.78548595
666,10.83773092
667,10.80049723
668,10.77777264
669,10.81811098
670,10.8011492
671,10.81629111
672,10.86615134
673,10.82298897
674,10.79854637
675,10.80534472
676,10.77152885
677,10.74083658
678,10.79718222
679,10.76155696
680,10.82367736
681,10.78605233
682,10.81921323
683,10.82485965
684,10.86355805
685,10.77457766
686,10.90259626
687,10.91021693
688,10.76771524
689,10.78312195
690,10.81183278
691,10.84658598
692,10.85518195
693,10.8050282
694,10.85794198
695,10.7577558
696,10.83129523
697,10.82992682
698,10.80237158
699,10.84400366
700,10.81170107
701,10.81922038
702,10.80510051
703,10.81876067
704,10.86962063
705,10.84586401
706,10.79261856
707,10.80617367
708,10.78768992
709,10.8480905
710,10.82865541
711,10.73029668
712,10.79839736
713,10.84776262
714,10.7880559
715,10.80074888
716,10.80177644
717,10.89864695
718,10.7838055
719,10.76196858
720,10.84294304
721,10.82651143
722,10.82266941
723,10.8353076
724,10.85344207
725,10.8020771
726,10.80844918
727,10.79352455
728,10.81624893
729,10.834205
730,10.76061248
731,10.78479722
732,10.82865492
733,10.86454569
734,10.71128991
735,10.78860502
736,10.79037527
737,10.76157244
738,10.81156541
739,10.8675051
740,10.86100227
741,10.79507867
742,10.80892868
743,10.80987009
744,10.80109801
745,10.8319162
746,10.76533805
747,10.75568128
748,10.82166467
749,10.78282566
750,10.82874408
751,10.7836038
752,10.78498273
753,10.77399185
754,10.83928635
755,10.77703807
756,10.77680184
757,10.81332515
758,10.79219889
759,10.73715553
760,10.81181883
761,10.81684457
762,10.84330372
763,10.78473772
764,10.85165558
765,10.72409946
766,10.79368221
767,10.79486602
768,10.7296125
769,10.81127682
770,10.87079629
771,10.72766526
772,10.90284594
773,10.81852593
774,10.79387293
775,10.8076761
776,10.78006598
777,10.82950797
778,10.76514725
779,10.76044713
780,10.76013675
781,10.82498576
782,10.81531549
783,10.8396368
784,10.73532873
785,10.77735943
786,10.83089571
787,10.80056607
788,10.88424982
789,10.73482749
790,10.81661448
791,10.89990665
792,10.91724257
793,10.82958065
794,10.8835881
795,10.82968106
796,10.82186747
797,10.76884657
798,10.83025538
799,10.81114325
800,10.73676393
801,10.79309526
802,10.73274537
803,10.85339743
804,10.8175476
805,10.75896539
806,10.85309346
807,10.8539855
808,10.80172059
809,10.83111416
810,10.81358849
811,10.73422751
812,10.75887771
813,10.80621095
814,10.84153615
815,10.7804091
816,10.77388982
817,10.78832995
818,10.79400395
819,10.8374454
820,10.75262308
821,10.80090993
822,10.77611293
823,10.84807607
824,10.79368463
825,10.80614681
826,10.80786838
827,10.74432445
828,10.81281083
829,10.79438065
830,10.83315398
831,10.7819266
832,10.84741996
833,10.78540974
834,10.83587208
835,10.76483569
836,10.79714968
837,10.83002578
838,10.77544683
839,10.80981388
840,10.79193897
841,10.81827114
842,10.81205041
843,10.79390817
844,10.85759816
845,10.73984874
846,10.83037823
847,10.81939285
848,10.85602197
849,10.84515009
850,10.77921976
851,10.83037764
852,10.76180045
853,10.84428875
854,10.79146375
855,10.8399248
856,10.81950529
857,10.77520675
858,10.7875291
859,10.76541452
860,10.85572341
861,10.71399857
862,10.77541301
863,10.77836723
864,10.73195292
865,10.80150325
866,10.84941585
867,10.74814136
868,10.79770068
869,10.74882863
870,10.79162136
871,10.81044789
872,10.75301092
873,10.83076647
874,10.82276816
875,10.8406855
876,10.82518985
877,10.82395293
878,10.78736202
879,10.81115079
880,10.79698
881,10.81262169
882,10.85568289
883,10.78424437
884,10.80916325
885,10.78895515
886,10.79859269
887,10.81579441
888,10.84720177
889,10.77263193
890,10.81813463
891,10.84154539
892,10.71579753
893,10.79696993
894,10.87016508
895,10.82750401
896,10.84694899
897,10.7573979
898,10.72032721
899,10.77132096
900,10.81371386
901,10.79666238
902,10.72967868
903,10.77910063
904,10.86533873
905,10.77840969
906,10.8469412
907,10.79409666
908,10.83808512
909,10.78776152
910,10.73006226
911,10.77272288
912,10.79273701
913,10.846201
914,10.79758285
915,10.76373264
916,10.77375768
917,10.80111287
918,10.82348117
919,10.84462055
920,10.7767567
921,10.79946015
922,10.78558964
923,10.76302029
924,10.82711976
925,10.7817268
926,10.73305536
927,10.82990349
928,10.8019776
929,10.70246338
930,10.81647532
931,10.82293889
932,10.80914261
933,10.77744899
934,10.77956567
935,10.72842145
936,10.78474997
937,10.83077085
938,10.80490292
939,10.80177044
940,10.78197574
941,10.7848709
942,10.74196363
943,10.87009519
944,10.74320677
945,10.79146387
946,10.79670277
947,10.79425184
948,10.80039943
949,10.89128791
950,10.89871358
951,10.81917998
952,10.84884111
953,10.79923827
954,10.88268228
955,10.72313568
956,10.78433711
957,10.72501678
958,10.78684044
959,10.83097081
960,10.7247667
961,10.78705817
962,10.80126701
963,10.81829399
964,10.79398288
965,10.77186067
966,10.80282729
967,10.88096856
968,10.79471125
969,10.82667177
970,10.79059659
971,10.86998368
972,10.78559669
973,10.79653806
974,10.81167053
975,10.76688962
976,10.80086405
977,10.80897925
978,10.8488568
979,10.80407262
980,10.83112637
981,10.74071004
982,10.80204233
983,10.79906894
984,10.84539529
985,10.73451085
986,10.84731746
987,10.87728855
988,10.7452779
989,10.8373831
990,10.87443181
991,10.83049643
992,10.80492718
993,10.80718947
994,10.68811355
995,10.78267649
996,10.7795441
997,10.74116465
998,10.75588412
999,10.80272607
1000,10.77822216
1001,10.77958884
1002,10.81168613
1003,10.85729839
1004,10.81807108
1005,10.83846964
1006,10.81822616
1007,10.79121286
1008,10.82591265
1009,10.80349388
1010,10.76357681
1011,10.77084375
1012,10.82612557
1013,10.73793089
1014,10.85623346
1015,10.82613558
1016,10.79952228
1017,10.81118372
1018,10.82234538
1019,10.80749538
1020,10.91017639
1021,10.80273229
1022,10.89538644
1023,10.86105196
1024,10.82352583
1025,10.7247785
1026,10.74202085
1027,10.82981785
1028,10.85417124
1029,10.83941751
1030,10.77246153
1031,10.79717721
1032,10.73619579
1033,10.85442856
1034,10.78643257
1035,10.78114337
1036,10.7892411
1037,10.73303418
1038,10.83381897
1039,10.7855431
1040,10.78424613
1041,10.85131486
1042,10.88781432
1043,10.88569291
1044,10.79718208
1045,10.77901186
1046,10.82929301
1047,10.85058925
1048,10.74030007
1049,10.81463942
1050,10.79614229
1051,10.82173266
1052,10.74462734
1053,10.85723633
1054,10.82386417
1055,10.84591093
1056,10.78441659
1057,10.85588299
1058,10.78100011
1059,10.76747705
1060,10.76031038
1061,10.84821251
1062,10.7926258
1063,10.82888342
1064,10.77757624
1065,10.77782406
1066,10.71909151
1067,10.81717116
1068,10.79809118
1069,10.78945384
1070,10.86739313
1071,10.81227568
1072,10.76742257
1073,10.80753634
1074,10.85790787
1075,10.82151316
1076,10.81371058
1077,10.8850062
1078,10.75889949
1079,10.86007144
1080,10.78777123
1081,10.81364977
1082,10.74628522
1083,10.73782358
1084,10.80607942
1085,10.89036196
1086,10.8061096
1087,10.7959097
1088,10.7771648
1089,10.72451074
1090,10.79754968
1091,10.80720233
1092,10.79100578
1093,10.77345587
1094,10.80255215
1095,10.77958357
1096,10.85160278
1097,10.87194387
1098,10.78124817
1099,10.81316077
1100,10.82547309
1101,10.79292233
1102,10.86505921
1103,10.73191339
1104,10.85196223
1105,10.74032836
1106,10.75484528
1107,10.871743
1108,10.86981688
1109,10.74820652
1110,10.83107024
1111,10.81487711
1112,10.81999717
1113,10.8175149
1114,10.83192655
1115,10.87616959
1116,10.78684775
1117,10.72310851
1118,10.76452573
1119,10.72860803
1120,10.7579455
1121,10.78743464
1122,10.8108803
1123,10.7562199
1124,10.80010201
1125,10.80857224
1126,10.7667413
1127,10.83695687
1128,10.82978186
1129,10.82803445
1130,10.73986931
1131,10.85647584
1132,10.72071875
1133,10.77333817
1134,10.81605897
1135,10.80856078
1136,10.77762831
1137,10.78517009
1138,10.75130795
1139,10.85914928
1140,10.76186161
1141,10.79945756
1142,10.77454666
1143,10.80536791
1144,10.78974265
1145,10.77338281
1146,10.87648433
1147,10.79983499
1148,10.84439129
1149,10.79315027
1150,10.7963024
1151,10.85279653
1152,10.87192782
1153,10.85024336
1154,10.79445548
1155,10.89946475
1156,10.70661131
1157,10.82443934
1158,10.86477491
1159,10.76993575
1160,10.73547526
1161,10.85654263
1162,10.81817825
1163,10.81765489
1164,10.7247186
1165,10.78170173
1166,10.77348738
1167,10.76464999
1168,10.86578297
1169,10.79888939
1170,10.81139335
1171,10.73667181
1172,10.78606302
1173,10.74690669
1174,10.71477315
1175,10.84225638
1176,10.86082242
1177,10.74629013
1178,10.80879805
1179,10.83264196
1180,10.76608329
1181,10.73980479
1182,10.76583327
1183,10.82888281
1184,10.78663619
1185,10.75705182
1186,10.69390805
1187,10.77714083
1188,10.86975585
1189,10.78956764
1190,10.83385749
1191,10.73128198
1192,10.82031797
1193,10.87606103
1194,10.85022926
1195,10.80411041
1196,10.75063699
1197,10.80657398
1198,10.77673899
1199,10.82687802
1200,10.79862096
1201,10.83180245
1202,10.82027084
1203,10.80682846
1204,10.81542794
1205,10.83740835
1206,10.88570567
1207,10.8697711
1208,10.79097521
1209,10.81569217
1210,10.7918315
1211,10.82422497
1212,10.74732136
1213,10.83323498
1214,10.79607418
1215,10.78040354
1216,10.75989391
1217,10.76350652
1218,10.83847176
1219,10.743152
1220,10.81179255
1221,10.76005233
1222,10.78938945
1223,10.77605519
1224,10.77941128
1225,10.79099929
1226,10.77267191
1227,10.74368755
1228,10.75570169
1229,10.80967624
1230,10.74895649
1231,10.77021996
1232,10.79451374
1233,10.84692381
1234,10.80092025
1235,10.79021276
1236,10.82025239
1237,10.80817927
1238,10.82263277
1239,10.83079116
1240,10.81999373
1241,10.78008931
1242,10.79186715
1243,10.76669718
1244,10.80145648
1245,10.81598354
1246,10.76296346
1247,10.76006243
1248,10.83145307
1249,10.76961215
1250,10.74058056
1251,10.78289697
1252,10.81967665
1253,10.82132609
1254,10.8107681
1255,10.80809769
1256,10.77837109
1257,10.82614073
1258,10.84873362
1259,10.77510132
1260,10.72406361
1261,10.74457302
1262,10.7753605
1263,10.86742323
1264,10.75412632
1265,10.77898038
1266,10.82295975
1267,10.8384638
1268,10.80986247
1269,10.80107798
1270,10.80413924
1271,10.83482267
1272,10.8739693
1273,10.79422719
1274,10.80470798
1275,10.79681351
1276,10.82695639
1277,10.8512123
1278,10.82085628
1279,10.81534875
1280,10.76980995
1281,10.88768639
1282,10.85864672
1283,10.82543467
1284,10.75206643
1285,10.77410751
1286,10.74952784
1287,10.87688725
1288,10.80084039
1289,10.80750021
1290,10.79410245
1291,10.78684709
1292,10.79271704
1293,10.77123844
1294,10.84648023
1295,10.79708545
1296,10.75807503
1297,10.81979848
1298,10.801716
1299,10.7863834
1300,10.76500713
1301,10.86597013
1302,10.83671108
1303,10.76503807
1304,10.85568054
1305,10.80309664
1306,10.78832889
1307,10.79609118
1308,10.8239433
1309,10.78570258
1310,10.75972244
1311,10.82020874
1312,10.81541324
1313,10.85551986
1314,10.77343886
1315,10.88107765
1316,10.84270174
1317,10.88333766
1318,10.80525707
1319,10.72240203
1320,10.75407824
1321,10.7651651
1322,10.76305683
1323,10.78189324
1324,10.81405772
1325,10.72806595
1326,10.77122024
1327,10.80484204
1328,10.76909814
1329,10.83555706
1330,10.78324933
1331,10.73952898
1332,10.8188669
1333,10.80072463
1334,10.81804513
1335,10.7579737
1336,10.86837711
1337,10.81276125
1338,10.77135976
1339,10.80584341
1340,10.72071904
1341,10.74234776
1342,10.7824439
1343,10.78873705
1344,10.78034939
1345,10.80289941
1346,10.81986386
1347,10.83868119
1348,10.85183284
1349,10.87212966
1350,10.79003486
1351,10.83990346
1352,10.82051668
1353,10.75094586
1354,10.83285712
1355,10.7873249
1356,10.75549405
1357,10.81848745
1358,10.84958133
1359,10.69576757
1360,10.77250374
1361,10.80845905
1362,10.88081764
1363,10.80382461
1364,10.83181884
1365,10.80852586
1366,10.77510718
1367,10.8496962
1368,10.79973965
1369,10.84859805
1370,10.77912893
1371,10.81695885
1372,10.87435602
1373,10.80216546
1374,10.75912137
1375,10.78601686
1376,10.76611536
1377,10.85085496
1378,10.78431921
1379,10.74952774
1380,10.72562608
1381,10.74016133
1382,10.78941196
1383,10.90171633
1384,10.82022957
1385,10.87460858
1386,10.74337947
1387,10.8328724
1388,10.82257051
1389,10.85900446
1390,10.72889905
1391,10.81211571
1392,10.85609018
1393,10.84445622
1394,10.82782086
1395,10.82802142
1396,10.8186231
1397,10.78358855
1398,10.88081181
1399,10.78157069
1400,10.86835737
1401,10.83038901
1402,10.74124675
1403,10.76882088
1404,10.87494485
1405,10.77986417
1406,10.81613736
1407,10.84679156
1408,10.86364145
1409,10.7807354
1410,10.68422421
1411,10.80802281
1412,10.81869473
1413,10.84962242
1414,10.76653805
1415,10.83520271
1416,10.8083875
1417,10.8259018
1418,10.80030184
1419,10.84475466
1420,10.78726628
1421,10.82546771
1422,10.83548513
1423,10.80938151
1424,10.80893978
1425,10.78056546
1426,10.8046919
1427,10.82300523
1428,10.85757734
1429,10.78153688
1430,10.84320973
1431,10.81300658
1432,10.78598522
1433,10.81139053
1434,10.79806694
1435,10.82241377
1436,10.81961918
1437,10.82750994
1438,10.86033312
1439,10.83985711
1440,10.88653398
1441,10.84404087
1442,10.9201085
1443,10.73882549
1444,10.83093508
1445,10.85317766
1446,10.820072
1447,10.83175861
1448,10.83331448
1449,10.78296905
1450,10.85157819
1451,10.90591725
1452,10.8463613
1453,10.77033146
1454,10.88172166
1455,10.76643786
1456,10.81397504
1457,10.82895082
1458,10.87352768
1459,10.858732
1460,10.87610386
1461,10.86440976
1462,10.91605077
1463,10.8472152
1464,10.84124484
1465,10.81031463
1466,10.81291039
1467,10.91057715
1468,10.8628957
1469,10.89838943
1470,10.90172917
1471,10.85830372
1472,10.85142608
1473,10.82320516
1474,10.8402113
1475,10.88575453
1476,10.8251679
1477,10.88624875
1478,10.82913433
1479,10.8839327
1480,10.88207345
1481,10.84856961
1482,10.90000297
1483,10.85016901
1484,10.88197433
1485,10.83074764
1486,10.81379773
1487,10.91480321
1488,10.8786463
1489,10.91125595
1490,10.87880391
1491,10.89617998
1492,10.92626695
1493,10.89462698
1494,10.83134362
1495,10.90615641
1496,10.8383915
1497,10.92548526
1498,10.90129061
1499,10.86797545
1500,10.91377519
1501,10.85007196
1502,10.90605987
1503,10.90699619
1504,10.9501431
1505,10.91262466
1506,10.87753493
1507,10.94916957
1508,10.83778012
1509,10.87273573
1510,10.89232865
1511,10.93888178
1512,10.8327546
1513,10.97406514
1514,10.92611081
1515,10.85681102
1516,10.88121305
1517,10.99028074
1518,10.91806648
1519,10.87853248
1520,10.90142905
1521,10.9212041
1522,11.01288733
1523,10.87430901
1524,11.00993714
1525,10.94099199
1526,10.97638995
1527,10.94342085
1528,10.98147062
1529,10.89190166
1530,10.94377633
1531,10.9604009
1532,10.96933158
1533,10.95128404
1534,10.94996495
1535,10.99116083
1536,10.97242593
1537,10.88504392
1538,10.95907406
1539,10.92599786
1540,10.93159985
1541,10.95033902
1542,10.91243431
1543,10.96615816
1544,10.91903148
1545,10.91440483
1546,10.97168451
1547,10.99801193
1548,11.01531573
1549,10.96840736
1550,11.01556271
1551,10.94321731
1552,10.95119255
1553,10.99203489
1554,10.95888499
1555,10.98077843
1556,10.89408358
1557,10.99243793
1558,10.99892498
1559,10.98693314
1560,11.0273559
1561,10.99892137
1562,10.97296606
1563,10.92694267
1564,11.08836521
1565,10.98678571
1566,10.9600814
1567,10.95483001
1568,11.08080332
1569,10.9609893
1570,10.94880315
1571,11.06012814
1572,10.97295219
1573,11.02947122
1574,11.03590641
1575,11.02435751
1576,11.02336653
1577,11.00721472
1578,10.98639266
1579,11.00931668
1580,10.99766352
1581,11.04862321
1582,11.01154704
1583,11.0464799
1584,10.97117813
1585,11.05125505
1586,11.05243116
1587,11.05421582
1588,11.05698947
1589,11.00109338
1590,11.02359406
1591,10.95310704
1592,11.02856192
1593,11.02764382
1594,10.95709576
1595,11.08337058
1596,10.95665117
1597,11.00438125
1598,11.01005171
1599,11.0089558
1600,10.98827477
1601,10.9674336
1602,11.05587165
1603,11.02256167
1604,10.98744862
1605,10.98385772
1606,11.00466522
1607,10.97515107
1608,11.05253086
1609,10.97556782
1610,11.02106545
1611,11.00784856
1612,11.03023927
1613,10.96319369
1614,11.06105364
1615,11.00060374
1616,11.00658423
1617,11.02289489
1618,10.99283451
1619,11.014732
1620,11.00231626
1621,11.01977337
1622,10.94708244
1623,10.93002922
1624,10.93443766
1625,10.99808822
1626,10.97791994
1627,10.99615901
1628,10.98740452
1629,10.97070038
1630,10.94148885
1631,11.0568881
1632,11.04428461
1633,11.03322599
1634,11.00563588
1635,10.90709939
1636,11.01113742
1637,10.97954922
1638,10.94827837
1639,11.00497313
1640,10.97985848
1641,10.94859555
1642,10.94206019
1643,10.93372395
1644,10.98487345
1645,10.89025152
1646,11.01329626
1647,10.91560121
1648,10.98995089
1649,10.97473498
1650,10.93651948
1651,10.98522065
1652,10.94829424
1653,11.00790592
1654,11.02810729
1655,11.00962887
1656,10.91301105
1657,10.97323428
1658,10.94409463
1659,10.99063881
1660,10.92275362
1661,10.93595677
1662,10.99209396
1663,11.0217931
1664,10.96669549
1665,10.98339089
1666,10.89281741
1667,10.86595889
1668,10.97039452
1669,10.92650256
1670,10.94074135
1671,10.97804506
1672,10.92482662
1673,10.91827598
1674,10.99513867
1675,10.94872498
1676,10.93713435
1677,10.8818756
1678,10.83290814
1679,10.91164785
1680,10.88716989
1681,10.88827
1682,10.95730657
1683,10.9319029
1684,10.91710847
1685,10.87884985
1686,10.86628081
1687,10.93249018
1688,10.88946374
1689,10.87445771
1690,10.96327659
1691,10.94229336
1692,10.9029128
1693,10.93636308
1694,10.86753904
1695,10.87417256
1696,10.89840216
1697,10.8478374
1698,10.86015236
1699,10.86448888
1700,10.86916323
1701,10.88317229
1702,10.92711138
1703,10.86895612
1704,10.90853493
1705,10.88777062
1706,10.9118421
1707,10.89574939
1708,10.93966079
1709,10.93956805
1710,10.95596058
1711,10.90181381
1712,10.85342552
1713,10.91151326
1714,10.91672694
1715,10.83062142
1716,10.87159072
1717,10.89536083
1718,10.84670776
1719,10.89539022
1720,10.89218948
1721,10.82505877
1722,10.81176313
1723,10.87265747
1724,10.90107778
1725,10.82903973
1726,10.90126535
1727,10.82478346
1728,10.8517408
1729,10.76661217
1730,10.78829046
1731,10.971175
1732,10.80802888
1733,10.86992303
1734,10.81718709
1735,10.85893427
1736,10.85847756
1737,10.84141727
1738,10.80484808
1739,10.80466335
1740,10.8451483
1741,10.79414551
1742,10.83936598
1743,10.86084742
1744,10.75896995
1745,10.92966087
1746,10.93667843
1747,10.92755116
1748,10.86631584
1749,10.86669105
1750,10.82672275
1751,10.82518323
1752,10.877911
1753,10.81857008
1754,10.83665815
1755,10.85659712
1756,10.88835334
1757,10.80155125
1758,10.82173059
1759,10.82621528
1760,10.8094018
1761,10.846488
1762,10.79070417
1763,10.81886557
1764,10.85233964
1765,10.79646045
1766,10.86847159
1767,10.75827519
1768,10.78228465
1769,10.80739607
1770,10.81490407
1771,10.87051245
1772,10.78294226
1773,10.8429118
1774,10.77850716
1775,10.81141792
1776,10.82860025
1777,10.85560184
1778,10.89217093
1779,10.8067684
1780,10.82447543
1781,10.85503948
1782,10.85487458
1783,10.76608494
1784,10.8196827
1785,10.8298935
1786,10.8548647
1787,10.78685129
1788,10.74527845
1789,10.72832845
1790,10.80957841
1791,10.86671921
1792,10.85417028
1793,10.85481986
1794,10.83184202
1795,10.80326959
1796,10.7926315
1797,10.85172314
1798,10.77360011
1799,10.8086714
1800,10.80377371
1801,10.80092868
1802,10.81604908
1803,10.80899193
1804,10.81880368
1805,10.80636724
1806,10.80740814
1807,10.78707796
1808,10.77221254
1809,10.83249739
1810,10.83982379
1811,10.90454898
1812,10.82136859
1813,10.71241781
1814,10.76556152
1815,10.8371132
1816,10.83520928
1817,10.79370735
1818,10.7777596
1819,10.84769954
1820,10.83997995
1821,10.80755602
1822,10.85379734
1823,10.80019189
1824,10.89419687
1825,10.82427784
1826,10.83901915
1827,10.77113331
1828,10.79624301
1829,10.86537767
1830,10.85751201
1831,10.75249086
1832,10.76380809
1833,10.79984529
1834,10.83992661
1835,10.71898769
1836,10.77305397
1837,10.78002172
1838,10.79065909
1839,10.81926045
1840,10.83146332
1841,10.84426913
1842,10.74968293
1843,10.79612906
1844,10.78651994
1845,10.79845099
1846,10.7636844
1847,10.7392928
1848,10.80399111
1849,10.77738076
1850,10.75429754
1851,10.80214625
1852,10.80553413
1853,10.82899017
1854,10.7645301
1855,10.73872044
1856,10.79168243
1857,10.83079887
1858,10.78794682
1859,10.82306925
1860,10.84247279
1861,10.84481222
1862,10.78382523
1863,10.82537727
1864,10.75001985
1865,10.80240224
1866,10.7466399
1867,10.77613054
1868,10.79522387
1869,10.70634659
1870,10.77422077
1871,10.71680973
1872,10.75575512
1873,10.82157073
1874,10.77977717
1875,10.84491824
1876,10.8024178
1877,10.77624541
1878,10.84241685
1879,10.83438753
1880,10.82361389
1881,10.79564246
1882,10.80550331
1883,10.81573371
1884,10.85500644
1885,10.74645917
1886,10.80639275
1887,10.82650274
1888,10.76908721
1889,10.83317238
1890,10.85346311
1891,10.79674749
1892,10.79209915
1893,10.7898217
1894,10.76413439
1895,10.79913572
1896,10.82923643
1897,10.83884715
1898,10.81452294
1899,10.75083506
1900,10.80641571
1901,10.77304587
1902,10.76298107
1903,10.73360428
1904,10.75390298
1905,10.79834742
1906,10.80249317
1907,10.79007258
1908,10.76794995
1909,10.78759851
1910,10.83842724
1911,10.79213055
1912,10.78904145
1913,10.77886409
1914,10.86488318
1915,10.86968814
1916,10.8333127
1917,10.75271657
1918,10.77453005
1919,10.8088677
1920,10.78861528
1921,10.8028997
1922,10.78423829
1923,10.76076838
1924,10.79830952
1925,10.77023842
1926,10.77314979
1927,10.85314785
1928,10.80211958
1929,10.87204226
1930,10.74762605
1931,10.80305214
1932,10.76973243
1933,10.74296031
1934,10.84537068
1935,10.80577994
1936,10.87365201
1937,10.82919382
1938,10.80038058
1939,10.80765102
1940,10.8630434
1941,10.76133884
1942,10.76760131
1943,10.87461305
1944,10.87253566
1945,10.80367818
1946,10.82224242
1947,10.81691681
1948,10.76005265
1949,10.80207976
1950,10.73308099
1951,10.83154892
1952,10.81608962
1953,10.76262678
1954,10.79329372
1955,10.7744496
1956,10.84939002
1957,10.78585054
1958,10.77070085
1959,10.83459252
1960,10.83901677
1961,10.80258744
1962,10.77430832
1963,10.80506196
1964,10.82796684
1965,10.7798278
1966,10.75500637
1967,10.77576517
1968,10.75190773
1969,10.85003701
1970,10.81563616
1971,10.78550549
1972,10.74495398
1973,10.89873375
1974,10.82748905
1975,10.75929833
1976,10.82838663
1977,10.79055953
1978,10.78611901
1979,10.84046168
1980,10.80808517
1981,10.73091652
1982,10.87775895
1983,10.74618945
1984,10.76634566
1985,10.84343365
1986,10.80254756
1987,10.76821809
1988,10.80933804
1989,10.75254257
1990,10.79140989
1991,10.80744407
1992,10.75441913
1993,10.81990774
1994,10.817319
1995,10.84032249
1996,10.81090138
1997,10.75954635
1998,10.8025836
1999,10.87884295
2000,10.79850329
2001,10.79879143
2002,10.82634119
2003,10.75725919
2004,10.84167379
2005,10.78800031
2006,10.89473412
2007,10.81835603
2008,10.76980348
2009,10.79721447
2010,10.83441165
2011,10.76444598
2012,10.82798715
2013,10.76700268
2014,10.83387913
2015,10.76105742
2016,10.7743387
2017,10.77877965
2018,10.74314608
2019,10.87811367
2020,10.77129879
2021,10.794448
2022,10.76827584
2023,10.78812427
2024,10.86677821
2025,10.85717766
2026,10.82298058
2027,10.80430669
2028,10.77763289
2029,10.81595254
2030,10.80335613
2031,10.81345033
2032,10.75949478
2033,10.78637612
2034,10.81503173
2035,10.79352907
2036,10.88337294
2037,10.77796621
2038,10.75691676
2039,10.81834694
2040,10.79142016
2041,10.88458432
2042,10.8379099
2043,10.77677681
2044,10.85218502
2045,10.83308492
2046,10.74862873
2047,10.81682522
2048,10.76205715
2049,10.8800591
2050,10.79209097
2051,10.80568422
2052,10.78234311
2053,10.7240078
2054,10.79509701
2055,10.79791253
2056,10.78951163
2057,10.73202526
2058,10.85890257
2059,10.76496272
2060,10.79847949
2061,10.78458001
2062,10.82275126
2063,10.74395269
2064,10.77957286
2065,10.79823824
2066,10.82333825
2067,10.79674021
2068,10.839325
2069,10.79680533
2070,10.83152533
2071,10.8079057
2072,10.76966893
2073,10.83363159
2074,10.78929657
2075,10.84309574
2076,10.81671719
2077,10.7513743
2078,10.80150938
2079,10.75123014
2080,10.81941108
2081,10.82718086
2082,10.80774062
2083,10.81544228
2084,10.84811032
2085,10.83206583
2086,10.78717398
2087,10.79937293
2088,10.7824471
2089,10.76972581
2090,10.79718743
2091,10.747619
2092,10.80346949
2093,10.76917518
2094,10.8134376
2095,10.79823899
2096,10.73701093
2097,10.82035365
2098,10.83775712
2099,10.78398948
2100,10.7774441
2101,10.74432756
2102,10.81715574
2103,10.76375535
2104,10.81816106
2105,10.77479341
2106,10.83309727
2107,10.79801355
2108,10.78322567
2109,10.86033715
2110,10.7686128
2111,10.83233994
2112,10.85735573
2113,10.80244048
2114,10.81133654
2115,10.7821766
2116,10.85201442
2117,10.75666531
2118,10.78837894
2119,10.78266639
2120,10.87165405
2121,10.83621672
2122,10.7962229
2123,10.80043239
2124,10.74016871
2125,10.79110166
2126,10.6994206
2127,10.80377129
2128,10.83609256
2129,10.79545896
2130,10.77902309
2131,10.74340422
2132,10.7512166
2133,10.78006115
2134,10.76267893
2135,10.81188572
2136,10.81541262
2137,10.8199269
2138,10.85099014
2139,10.8253465
2140,10.77524006
2141,10.78736661
2142,10.83818136
2143,10.78444649
2144,10.82801136
2145,10.7999496
2146,10.80985192
2147,10.74679047
2148,10.8266329
2149,10.76266637
2150,10.80545814
2151,10.77885881
2152,10.72930939
2153,10.82016239
2154,10.80493928
2155,10.78596604
2156,10.75013816
2157,10.79825543
2158,10.74526325
2159,10.75981268
2160,10.74079225
2161,10.82881343
2162,10.69571006
2163,10.844447
2164,10.77985079
2165,10.77931801
2166,10.78019855
2167,10.82192152
2168,10.78179276
2169,10.74886673
2170,10.83440183
2171,10.8090252
2172,10.84453088
2173,10.7673184
2174,10.80915251
2175,10.8133616
2176,10.82042321
2177,10.7695054
2178,10.84958237
2179,10.81411675
2180,10.78314091
2181,10.8363301
2182,10.74510186
2183,10.78500243
2184,10.77257093
2185,10.83105198
2186,10.81087574
2187,10.76627949
2188,10.80511879
2189,10.79188409
2190,10.77422472
2191,10.83538645
2192,10.83832332
2193,10.81486524
2194,10.83711002
2195,10.78195638
2196,10.86223338
2197,10.77514874
2198,10.86841739
2199,10.89721301
2200,10.75535995
2201,10.90233452
2202,10.85755399
2203,10.72670394
2204,10.82117386
2205,10.83912455
2206,10.7502954
2207,10.76670122
2208,10.70820407
2209,10.79334524
2210,10.82426453
2211,10.76698417
2212,10.82009772
2213,10.8058138
2214,10.71699914
2215,10.85181723
2216,10.80885937
2217,10.85917779
2218,10.74605096
2219,10.79741728
2220,10.83490712
2221,10.80645496
2222,10.84937518
2223,10.78142179
2224,10.79087691
2225,10.7658525
2226,10.82680483
2227,10.7857641
2228,10.80340911
2229,10.78658663
2230,10.79924819
2231,10.76946494
2232,10.77169897
2233,10.80882656
2234,10.84801419
2235,10.77578183
2236,10.87621786
2237,10.74356882
2238,10.82157665
2239,10.83052177
2240,10.8253558
2241,10.82779184
2242,10.77509776
2243,10.83960937
2244,10.75031876
2245,10.73814543
2246,10.76854853
2247,10.84740397
2248,10.77748767
2249,10.74685559
2250,10.8001921
2251,10.7822256
2252,10.83181124
2253,10.84150165
2254,10.79662135
2255,10.77698223
2256,10.83913866
2257,10.80344052
2258,10.7613965
2259,10.82000804
2260,10.87731065
2261,10.82637076
2262,10.83457303
2263,10.81321488
2264,10.79336077
2265,10.85174516
2266,10.82398948
2267,10.78434533
2268,10.7653014
2269,10.85815095
2270,10.74612075
2271,10.7885889
2272,10.83115633
2273,10.8038396
2274,10.8314823
2275,10.80022875
2276,10.79843776
2277,10.7486889
2278,10.83941971
2279,10.78615362
2280,10.86797586
2281,10.80934991
2282,10.79634805
2283,10.76490997
2284,10.81044319
2285,10.76344703
2286,10.75861898
2287,10.82247596
2288,10.81779553
2289,10.77625383
2290,10.80887203
2291,10.87374621
2292,10.78171987
2293,10.81313399
2294,10.82437225
2295,10.83035961
2296,10.83317675
2297,10.78392014
2298,10.8119621
2299,10.80273168
2300,10.75066668
2301,10.88921548
2302,10.8577204
2303,10.73912787
2304,10.78212235
2305,10.81738004
2306,10.79609734
2307,10.81141946
2308,10.83054968
2309,10.7891225
2310,10.83260309
2311,10.73698427
2312,10.7380867
2313,10.83348548
2314,10.82801925
2315,10.75011112
2316,10.82495055
2317,10.75252799
2318,10.84988588
2319,10.75137482
2320,10.85417698
2321,10.77231438
2322,10.7852385
2323,10.79062242
2324,10.82482832
2325,10.79729838
2326,10.75942796
2327,10.80695945
2328,10.77415884
2329,10.78424572
2330,10.78764103
2331,10.7771879
2332,10.75466736
2333,10.74894021
2334,10.75271622
2335,10.77155896
2336,10.81585774
2337,10.84384011
2338,10.79896738
2339,10.7898817
2340,10.81803066
2341,10.76290421
2342,10.78037153
2343,10.80100303
2344,10.82352128
2345,10.83514813
2346,10.80439647
2347,10.86139756
2348,10.75550398
2349,10.82383932
2350,10.79371502
2351,10.81185317
2352,10.72077997
2353,10.72740839
2354,10.7277399
2355,10.83186102
2356,10.83732817
2357,10.77145401
2358,10.76943723
2359,10.77546667
2360,10.78905493
2361,10.79421521
2362,10.80594365
2363,10.78751579
2364,10.84643171
2365,10.78286808
2366,10.80646776
2367,10.81017498
2368,10.80716369
2369,10.74124276
2370,10.80651708
2371,10.70839018
2372,10.82781161
2373,10.78537603
2374,10.81619537
2375,10.82379106
2376,10.83448134
2377,10.8176876
2378,10.8293588
2379,10.71893005
2380,10.81773968
2381,10.78697032
2382,10.83622039
2383,10.79406567
2384,10.812724
2385,10.85780501
2386,10.74474608
2387,10.82902705
2388,10.76742407
2389,10.8356198
2390,10.78745288
2391,10.74717682
2392,10.73536362
2393,10.87945214
2394,10.7750394
2395,10.87121901
2396,10.76489324
2397,10.77520327
2398,10.75100213
2399,10.85323276
2400,10.80836534
2401,10.73996905
2402,10.76104247
2403,10.74223659
2404,10.85065624
2405,10.79526301
2406,10.73287482
2407,10.82221544
2408,10.791575
2409,10.83246032
2410,10.8088264
2411,10.80325661
2412,10.79307841
2413,10.73244621
2414,10.83013711
2415,10.81015867
2416,10.81518157
2417,10.80870753
2418,10.80856672
2419,10.82285401
2420,10.69263481
2421,10.77017988
2422,10.78823923
2423,10.79767946
2424,10.82392242
2425,10.73780961
2426,10.77738156
2427,10.77879342
2428,10.80826258
2429,10.87304293
2430,10.76932795
2431,10.82659875
2432,10.81961776
2433,10.82218522
2434,10.88327874
2435,10.84709521
2436,10.85343246
2437,10.81734235
2438,10.77977224
2439,10.79064833
2440,10.80937829
2441,10.82272626
2442,10.88994152
2443,10.74837891
2444,10.82624834
2445,10.79165078
2446,10.7882028
2447,10.75339719
2448,10.79980584
2449,10.80239738
2450,10.8319998
2451,10.69790385
2452,10.85471232
2453,10.81755924
2454,10.80303431
2455,10.81880928
2456,10.7580754
2457,10.87068015
2458,10.77338717
2459,10.76025347
2460,10.81100876
2461,10.80376874
2462,10.80391232
2463,10.74516142
2464,10.79286926
2465,10.83330646
2466,10.77256098
2467,10.77213522
2468,10.77144394
2469,10.85664056
2470,10.8087426
2471,10.76837008
2472,10.71445239
2473,10.7627433
2474,10.76587969
2475,10.75501983
2476,10.77306088
2477,10.76577859
2478,10.81329853
2479,10.78888332
2480,10.78376305
2481,10.77430424
2482,10.81638561
2483,10.74329773
2484,10.79882288
2485,10.78973895
2486,10.73456841
2487,10.80223322
2488,10.7928267
2489,10.81887746
2490,10.75170113
2491,10.75024247
2492,10.76729378
2493,10.85458317
2494,10.79306676
2495,10.71659245
2496,10.75446549
2497,10.73610408
2498,10.81817977
2499,10.81517125
2500,10.7683234
2501,10.79380198
2502,10.76563891
2503,10.83801589
2504,10.79714356
2505,10.85359156
2506,10.77413802
2507,10.7775681
2508,10.83441793
2509,10.79039838
2510,10.78744633
2511,10.844937
2512,10.77299857
2513,10.79554969
2514,10.82864139
2515,10.69013874
2516,10.80997717
2517,10.81376852
2518,10.74346907
2519,10.86175608
2520,10.74432651
2521,10.76177881
2522,10.80334745
2523,10.81009539
2524,10.80617378
2525,10.72508247
2526,10.77665224
2527,10.7845266
2528,10.84741966
2529,10.8114356
2530,10.81580601
2531,10.83727528
2532,10.81123262
2533,10.77749828
2534,10.82193244
2535,10.73656091
2536,10.79905153
2537,10.82717331
2538,10.86409665
2539,10.82807464
2540,10.7966811
2541,10.75128054
2542,10.78604884
2543,10.88460959
2544,10.83854454
2545,10.7635914
2546,10.83317986
2547,10.78030351
2548,10.92692684
2549,10.81968268
2550,10.75450174
2551,10.88717938
2552,10.81400696
2553,10.71433891
2554,10.87206911
2555,10.7658629
2556,10.79197675
2557,10.80778664
2558,10.76197979
2559,10.86729865
2560,10.88385813
2561,10.7228179
2562,10.75936676
2563,10.79953261
2564,10.77305307
2565,10.87750115
2566,10.81627028
2567,10.81840473
2568,10.73302151
2569,10.85982724
2570,10.77600102
2571,10.79896496
2572,10.84160454
2573,10.81459581
2574,10.78823261
2575,10.74626214
2576,10.79565151
2577,10.78470011
2578,10.85250426
2579,10.76781032
2580,10.82553815
2581,10.8152103
2582,10.76137373
2583,10.79738911
2584,10.82542194
2585,10.72708675
2586,10.76943317
2587,10.77967821
2588,10.81269117
2589,10.82708665
2590,10.72678549
2591,10.85621086
2592,10.79902054
2593,10.70474916
2594,10.77339536
2595,10.85085383
2596,10.78502681
2597,10.78308457
2598,10.77386282
2599,10.82751572
2600,10.83669215
2601,10.82530616
2602,10.79914981
2603,10.83005725
2604,10.84625839
2605,10.77973808
2606,10.85178341
2607,10.85556922
2608,10.79552761
2609,10.80928904
2610,10.75111027
2611,10.83131159
2612,10.75028129
2613,10.81860108
2614,10.84692841
2615,10.8321818
2616,10.82654094
2617,10.81801286
2618,10.77535282
2619,10.82889802
2620,10.81949324
2621,10.88630498
2622,10.86667041
2623,10.82517695
2624,10.79491746
2625,10.81690861
2626,10.79444852
2627,10.80055672
2628,10.7565294
2629,10.82211109
2630,10.75035315
2631,10.81134852
2632,10.83027665
2633,10.74667279
2634,10.86420526
2635,10.78729386
2636,10.73370888
2637,10.79717594
2638,10.81161662
2639,10.73674584
2640,10.86252268
2641,10.81864476
2642,10.83981176
2643,10.83686127
2644,10.84278021
2645,10.7564313
2646,10.86304498
2647,10.80325088
2648,10.76035651
2649,10.84867471
2650,10.81824789
2651,10.80511058
2652,10.72529464
2653,10.86555822
2654,10.7880378
2655,10.80008524
2656,10.80741937
2657,10.69814934
2658,10.79090945
2659,10.74809296
2660,10.77221963
2661,10.81340975
2662,10.79614636
2663,10.82993616
2664,10.73904099
2665,10.78833761
2666,10.89338261
2667,10.7679658
2668,10.82362815
2669,10.8365332
2670,10.82641987
2671,10.84725265
2672,10.81150119
2673,10.79528398
2674,10.8293633
2675,10.78619211
2676,10.81403105
2677,10.72785833
2678,10.81359339
2679,10.82094739
2680,10.7786026
2681,10.77968127
2682,10.81328083
2683,10.78859684
2684,10.82706809
2685,10.75722961
2686,10.78907211
2687,10.84470482
2688,10.81698633
2689,10.75681967
2690,10.77636431
2691,10.78841344
2692,10.80614323
2693,10.78092573
2694,10.72917162
2695,10.81524021
2696,10.7741505
2697,10.79149666
2698,10.75026387
2699,10.85941537
2700,10.81963967
2701,10.80430865
2702,10.76793584
2703,10.78269844
2704,10.88696738
2705,10.75866295
2706,10.89092009
2707,10.7780604
2708,10.78906232
2709,10.89013298
2710,10.79901447
2711,10.72246917
2712,10.84632179
2713,10.77951042
2714,10.81846385
2715,10.82477717
2716,10.7875508
2717,10.75772211
2718,10.8385146
2719,10.83510044
2720,10.79212298
2721,10.83449012
2722,10.80199915
2723,10.81170737
2724,10.76207254
2725,10.90747567
2726,10.83295493
2727,10.81146106
2728,10.84937235
2729,10.77122759
2730,10.70838783
2731,10.83258067
2732,10.8193411
2733,10.81775443
2734,10.68718707
2735,10.83662336
2736,10.83943402
2737,10.73329157
2738,10.81814123
2739,10.80380666
2740,10.85553638
2741,10.73323369
2742,10.75297031
2743,10.83736875
2744,10.76833766
2745,10.77273744
2746,10.80187808
2747,10.77019196
2748,10.75088722
2749,10.77001997
2750,10.77367079
2751,10.88378071
2752,10.79737046
2753,10.77369855
2754,10.80538653
2755,10.73696905
2756,10.79777523
2757,10.7868228
2758,10.89440578
2759,10.77583662
2760,10.84883708
2761,10.79861297
2762,10.79905725
2763,10.73785857
2764,10.79464016
2765,10.8452909
2766,10.85960648
2767,10.79673955
2768,10.78989868
2769,10.79339958
2770,10.84810537
2771,10.72195776
2772,10.85130097
2773,10.70992062
2774,10.83112462
2775,10.84986686
2776,10.82709168
2777,10.79611095
2778,10.87663282
2779,10.80976718
2780,10.80160734
2781,10.76648443
2782,10.75088519
2783,10.72230401
2784,10.77128478
2785,10.68419647
2786,10.8977774
2787,10.7921875
2788,10.79489052
2789,10.79063655
2790,10.77863435
2791,10.78194759
2792,10.84450985
2793,10.79649414
2794,10.80846744
2795,10.87206527
2796,10.77706001
2797,10.74144064
2798,10.75053716
2799,10.84425102
2800,10.79013126
2801,10.7485202
2802,10.82966623
2803,10.84353466
2804,10.78228871
2805,10.7724361
2806,10.82870703
2807,10.80526283
2808,10.82010629
2809,10.77375227
2810,10.75539768
2811,10.87325765
2812,10.83764062
2813,10.79135832
2814,10.76082125
2815,10.84235949
2816,10.76763904
2817,10.80297356
2818,10.86068737
2819,10.74921241
2820,10.82334894
2821,10.85558604
2822,10.79282777
2823,10.69045736
2824,10.77907796
2825,10.79356012
2826,10.82454653
2827,10.76945421
2828,10.76205848
2829,10.74721816
2830,10.84252648
2831,10.88006545
2832,10.75836761
2833,10.74219326
2834,10.84038288
2835,10.84089212
2836,10.73900613
2837,10.81637738
2838,10.81371521
2839,10.81735692
2840,10.78539504
2841,10.85983163
2842,10.85152324
2843,10.86467701
2844,10.84558547
2845,10.84610472
2846,10.74350078
2847,10.86662324
2848,10.7318346
2849,10.74527076
2850,10.77250616
2851,10.8536943
2852,10.86015824
2853,10.82349018
2854,10.85344285
2855,10.84652777
2856,10.76474348
2857,10.8247757
2858,10.74681445
2859,10.85087816
2860,10.83427469
2861,10.85141661
2862,10.73699019
2863,10.78778868
2864,10.80228139
2865,10.79475937
2866,10.81556901
2867,10.7941102
2868,10.79049481
2869,10.84685121
2870,10.83036338
2871,10.7895312
2872,10.80174612
2873,10.8385156
2874,10.78073658
2875,10.79784627
2876,10.83186867
2877,10.78364404
2878,10.84788946
2879,10.79951275
2880,10.81820938
2881,10.82073019
2882,10.89493831
2883,10.88207439
2884,10.81830294
2885,10.81019715
2886,10.79216255
2887,10.7350418
2888,10.8090354
2889,10.75011689
2890,10.81166541
2891,10.81375473
2892,10.79096259
2893,10.8298265
2894,10.79885346
2895,10.79556988
2896,10.82599316
2897,10.75635309
2898,10.80215513
2899,10.78367076
2900,10.83287611
2901,10.84612816
2902,10.74800343
2903,10.76528684
2904,10.78282417
2905,10.79999131
2906,10.80755787
2907,10.90114316
2908,10.79745063
2909,10.82717564
2910,10.81364504
2911,10.78594899
2912,10.785746
2913,10.78122646
2914,10.82623222
2915,10.78315529
2916,10.77534508
2917,10.77067878
2918,10.79837197
2919,10.77005833
2920,10.8329429
2921,10.81671033
2922,10.8127764
2923,10.82036279
2924,10.91171008
2925,10.81626264
2926,10.81712495
2927,10.80492125
2928,10.80251096
2929,10.77290672
2930,10.81674236
2931,10.85754461
2932,10.77376606
2933,10.7401014
2934,10.81559422
2935,10.73328972
2936,10.78119132
2937,10.7452643
2938,10.78646691
2939,10.84706316
2940,10.81999923
2941,10.79147106
2942,10.76296795
2943,10.85024553
2944,10.76447236
2945,10.80830045
2946,10.77193134
2947,10.80031158
2948,10.76869637
2949,10.85459884
2950,10.74153866
2951,10.77749541
2952,10.73327516
2953,10.82009514
2954,10.81113862
2955,10.80967477
2956,10.82380314
2957,10.83972054
2958,10.74445942
2959,10.83929339
2960,10.78541452
2961,10.82864033
2962,10.72872338
2963,10.77668484
2964,10.81223572
2965,10.78695111
2966,10.80006966
2967,10.76245978
2968,10.79638975
2969,10.8581662
2970,10.82522201
2971,10.84245635
2972,10.81581736
2973,10.78120075
2974,10.77903798
2975,10.78876072
2976,10.7739826
2977,10.81191678
2978,10.81502383
2979,10.85562176
2980,10.83171691
2981,10.75078115
2982,10.77969398
2983,10.80513826
2984,10.78048928
2985,10.76815338
2986,10.79957431
2987,10.80291849
2988,10.78054883
2989,10.8751829
2990,10.82278882
2991,10.8186851
2992,10.79738381
2993,10.75421879
2994,10.7746744
2995,10.74062883
2996,10.81103254
2997,10.78163172
2998,10.83907446
2999,10.81945909
3000,10.83956306
3001,10.85524279
3002,10.70893413
3003,10.76143595
3004,10.82274637
3005,10.76764619
3006,10.86995379
3007,10.83263721
3008,10.83124332
3009,10.76852544
3010,10.79781154
3011,10.86219253
3012,10.77435664
3013,10.82029948
3014,10.79824814
3015,10.85652429
3016,10.78506484
3017,10.80096119
3018,10.7802567
3019,10.86851152
3020,10.87804531
3021,10.7956089
3022,10.77265611
3023,10.77280898
3024,10.73238347
3025,10.80015844
3026,10.80821563
3027,10.85700706
3028,10.76791694
3029,10.82040014
3030,10.74585845
3031,10.77636479
3032,10.82273908
3033,10.85785057
3034,10.7839478
3035,10.83678818
3036,10.87687263
3037,10.824881
3038,10.85342251
3039,10.78352158
3040,10.87923159
3041,10.86229213
3042,10.85467112
3043,10.85346123
3044,10.80159146
3045,10.81759682
3046,10.84135418
3047,10.8635403
3048,10.80563471
3049,10.81638701
3050,10.84490111
3051,10.81170725
3052,10.76442959
3053,10.77596184
3054,10.83333009
3055,10.80590652
3056,10.90151595
3057,10.85692194
3058,10.82987992
3059,10.8497664
3060,10.82197025
3061,10.78774388
3062,10.7300531
3063,10.74341093
3064,10.73696399
3065,10.73122701
3066,10.84882803
3067,10.74213303
3068,10.79941788
3069,10.80661021
3070,10.80327749
3071,10.79501412
3072,10.84885285
3073,10.85541956
3074,10.74199024
3075,10.81658881
3076,10.85434107
3077,10.91447264
3078,10.76627111
3079,10.7337472
3080,10.81715126
3081,10.81700948
3082,10.82752771
3083,10.79457227
3084,10.80598313
3085,10.73946708
3086,10.80360052
3087,10.84116184
3088,10.87706052
3089,10.77831804
3090,10.82976311
3091,10.77148236
3092,10.84521346
3093,10.7198227
3094,10.78065709
3095,10.75967592
3096,10.80003728
3097,10.85977038
3098,10.77765073
3099,10.76820803
3100,10.81935235
3101,10.76405656
3102,10.78853811
3103,10.78290307
3104,10.78617798
3105,10.82304085
3106,10.79444926
3107,10.81760772
3108,10.82447669
3109,10.80986244
3110,10.84651562
3111,10.81948682
3112,10.72717146
3113,10.72540884
3114,10.83795052
3115,10.79425466
3116,10.74560823
3117,10.74618576
3118,10.81727587
3119,10.80061815
3120,10.73687934
3121,10.79629377
3122,10.85763209
3123,10.81119664
3124,10.85209762
3125,10.83725753
3126,10.74101997
3127,10.71277458
3128,10.75028303
3129,10.79144225
3130,10.79395004
3131,10.80635805
3132,10.80981702
3133,10.79853149
3134,10.84707096
3135,10.80818522
3136,10.79731312
3137,10.83217798
3138,10.79146892
3139,10.73162575
3140,10.71745326
3141,10.81164941
3142,10.87022474
3143,10.81701774
3144,10.82502067
3145,10.77628033
3146,10.80968957
3147,10.80093835
3148,10.8196546
3149,10.81585879
3150,10.77888488
3151,10.73286122
3152,10.84043047
3153,10.81024189
3154,10.73896284
3155,10.75145729
3156,10.76867381
3157,10.78440509
3158,10.83541334
3159,10.84470267
3160,10.80073733
3161,10.81824903
3162,10.77258179
3163,10.73945489
3164,10.75525537
3165,10.74988924
3166,10.85316831
3167,10.809583
3168,10.77195328
3169,10.80399077
3170,10.8648934
3171,10.8066955
3172,10.72718433
3173,10.80735202
3174,10.83644805
3175,10.73098679
3176,10.83835921
3177,10.78387293
3178,10.82630486
3179,10.82374542
3180,10.7567906
3181,10.79005843
3182,10.77630738
3183,10.8103865
3184,10.75026756
3185,10.85240302
3186,10.77951943
3187,10.82317848
3188,10.84421549
3189,10.83507889
3190,10.78537171
3191,10.77090987
3192,10.84460838
3193,10.81061902
3194,10.81422285
3195,10.800158
3196,10.79744663
3197,10.79666564
3198,10.81102217
3199,10.7532077
3200,10.77065012
3201,10.73554841
3202,10.79085285
3203,10.76724261
3204,10.79987205
3205,10.82139266
3206,10.77603115
3207,10.82957576
3208,10.82888534
3209,10.73373168
3210,10.77323636
3211,10.74907758
3212,10.81083235
3213,10.83084655
3214,10.78344985
3215,10.80470074
3216,10.81846568
3217,10.81059925
3218,10.82733892
3219,10.77472668
3220,10.75908408
3221,10.8164606
3222,10.78017409
3223,10.79918693
3224,10.84875897
3225,10.79028191
3226,10.83659878
3227,10.8024188
3228,10.7564918
3229,10.80680103
3230,10.81620992
3231,10.77046219
3232,10.69786164
3233,10.77581976
3234,10.78331094
3235,10.69973886
3236,10.71374487
3237,10.78395855
3238,10.84308393
3239,10.76773334
3240,10.76554629
3241,10.78185248
3242,10.84194205
3243,10.77154876
3244,10.76839471
3245,10.81647163
3246,10.74759775
3247,10.78134141
3248,10.78804599
3249,10.78656624
3250,10.83101928
3251,10.84279127
3252,10.80566393
3253,10.82214981
3254,10.86768259
3255,10.82428727
3256,10.77768549
3257,10.77672626
3258,10.77325997
3259,10.75246057
3260,10.78301614
3261,10.85871459
3262,10.75092026
3263,10.7426966
3264,10.84746013
3265,10.83220002
3266,10.80254888
3267,10.75974617
3268,10.77360569
3269,10.78269772
3270,10.74485326
3271,10.9018041
3272,10.75244002
3273,10.84349451
3274,10.76913946
3275,10.81113535
3276,10.78554731
3277,10.83075813
3278,10.80139984
3279,10.8020445
3280,10.74049381
3281,10.78403854
3282,10.83500476
3283,10.73230871
3284,10.83059761
3285,10.82231152
3286,10.78772929
3287,10.77670898
3288,10.8725434
3289,10.77700965
3290,10.78992761
3291,10.74527862
3292,10.82656139
3293,10.85060709
3294,10.83672089
3295,10.83686797
3296,10.825509
3297,10.81614199
3298,10.76097116
3299,10.8024268
3300,10.79732339
3301,10.78574577
3302,10.8428459
3303,10.83150457
3304,10.81575661
3305,10.78406964
3306,10.85547362
3307,10.73209309
3308,10.76336605
3309,10.78474892
3310,10.76551702
3311,10.76600066
3312,10.77253628
3313,10.72943849
3314,10.78502676
3315,10.83690386
3316,10.81679526
3317,10.76529114
3318,10.78869139
3319,10.77571308
3320,10.81012455
3321,10.7474386
3322,10.7518017
3323,10.74326189
3324,10.7718221
3325,10.83645953
3326,10.82780625
3327,10.82002953
3328,10.77305209
3329,10.78348468
3330,10.81060786
3331,10.82629149
3332,10.76992615
3333,10.75013302
3334,10.89221992
3335,10.71751521
3336,10.80811695
3337,10.83848919
3338,10.80599679
3339,10.81266826
3340,10.76567848
3341,10.76564471
3342,10.74520625
3343,10.77226147
3344,10.85062059
3345,10.79856265
3346,10.79025243
3347,10.80802093
3348,10.78560979
3349,10.85369698
3350,10.88243407
3351,10.76680539
3352,10.85634315
3353,10.81994232
3354,10.75241338
3355,10.78836376
3356,10.73784298
3357,10.79062277
3358,10.83042233
3359,10.84328221
3360,10.85470198
3361,10.81401043
3362,10.83661952
3363,10.79332308
3364,10.77011185
3365,10.81788233
3366,10.77617823
3367,10.7688099
3368,10.82147745
3369,10.77560881
3370,10.78750441
3371,10.77060633
3372,10.79040325
3373,10.78918892
3374,10.77317889
3375,10.75767032
3376,10.80604267
3377,10.76160807
3378,10.82481263
3379,10.78120326
3380,10.79656984
3381,10.82736513
3382,10.78433437
3383,10.7156904
3384,10.83570851
3385,10.80007573
3386,10.83996966
3387,10.81868608
3388,10.75679639
3389,10.82715149
3390,10.7737518
3391,10.80307957
3392,10.79046083
3393,10.81853862
3394,10.73016163
3395,10.82005597
3396,10.81059359
3397,10.76407831
3398,10.80674803
3399,10.82174417
3400,10.80749968
3401,10.88239974
3402,10.7540374
3403,10.85017677
3404,10.85026986
3405,10.81572123
3406,10.86768337
3407,10.76228234
3408,10.84555825
3409,10.74683897
3410,10.80674984
3411,10.78240957
3412,10.84161533
3413,10.84999401
3414,10.83436747
3415,10.78286813
3416,10.7856405
3417,10.83379362
3418,10.80820512
3419,10.80910395
3420,10.77948003
3421,10.8001004
3422,10.79154092
3423,10.79641765
3424,10.84792158
3425,10.73908608
3426,10.80778867
3427,10.81262696
3428,10.72306231
3429,10.74803584
3430,10.82262521
3431,10.82929423
3432,10.73736507
3433,10.80633839
3434,10.82882844
3435,10.88390201
3436,10.78561289
3437,10.8325315
3438,10.71492216
3439,10.77149592
3440,10.78078776
3441,10.79190274
3442,10.7606572
3443,10.78573989
3444,10.84180602
3445,10.79580588
3446,10.76952244
3447,10.75692079
3448,10.79192117
3449,10.81256184
3450,10.740815
3451,10.84363809
3452,10.88392288
3453,10.85675396
3454,10.73522771
3455,10.81678231
3456,10.80231193
3457,10.82659375
3458,10.81699313
3459,10.81891387
3460,10.79683153
3461,10.81765907
3462,10.85406886
3463,10.77812795
3464,10.85127809
3465,10.76300316
3466,10.82401444
3467,10.86241442
3468,10.85738011
3469,10.77818559
3470,10.8326063
3471,10.78729661
3472,10.83828001
3473,10.83556977
3474,10.77504144
3475,10.80509166
3476,10.7742886
3477,10.81940704
3478,10.82046152
3479,10.76294244
3480,10.75333487
3481,10.73686779
3482,10.75302643
3483,10.76059923
3484,10.75747516
3485,10.72991293
3486,10.81204066
3487,10.78335225
3488,10.80382761
3489,10.82301418
3490,10.76554872
3491,10.82002609
3492,10.85874569
3493,10.74989682
3494,10.76288488
3495,10.82353311
3496,10.77480164
3497,10.81467517
3498,10.82353895
3499,10.80667628
3500,10.76303203
3501,10.8026389
3502,10.89116427
3503,10.82020807
3504,10.7708163
3505,10.80578188
3506,10.8094412
3507,10.75503443
3508,10.82240902
3509,10.76523001
3510,10.83322236
3511,10.80528225
3512,10.75934428
3513,10.77121812
3514,10.82588184
3515,10.75204616
3516,10.86481923
3517,10.83312744
3518,10.75073645
3519,10.80942653
3520,10.86365796
3521,10.76017237
3522,10.84517743
3523,10.75379876
3524,10.77844838
3525,10.68439846
3526,10.86239143
3527,10.786099
3528,10.7319551
3529,10.78656031
3530,10.83831503
3531,10.72429264
3532,10.83386536
3533,10.83063835
3534,10.78920166
3535,10.7662924
3536,10.81003073
3537,10.77021617
3538,10.81025442
3539,10.79154118
3540,10.82410959
3541,10.80558439
3542,10.74117475
3543,10.78661318
3544,10.78935989
3545,10.88600421
3546,10.83461164
3547,10.80354083
3548,10.80929494
3549,10.78097239
3550,10.83027586
3551,10.80063725
3552,10.79640788
3553,10.82683434
3554,10.75147676
3555,10.70502539
3556,10.84548919
3557,10.77189187
3558,10.85350123
3559,10.84105513
3560,10.85261152
3561,10.8017046
3562,10.90089038
3563,10.7972573
3564,10.77311191
3565,10.74467467
3566,10.82216094
3567,10.80800308
3568,10.81187433
3569,10.81821255
3570,10.8153208
3571,10.86447692
3572,10.85445925
3573,10.81572606
3574,10.85489005
3575,10.86676631
3576,10.76466522
3577,10.73086294
3578,10.79645107
3579,10.74969721
3580,10.83305501
3581,10.75654197
3582,10.85603241
3583,10.78644418
3584,10.68822553
3585,10.84998016
3586,10.82478677
3587,10.77063161
3588,10.82538411
3589,10.83072552
3590,10.81276655
3591,10.73983513
3592,10.79900306
3593,10.77553243
3594,10.78092577
3595,10.80147582
3596,10.84248615
3597,10.80531118
3598,10.82849904
3599,10.82148359
3600,10.89379207
3601,10.83024391
3602,10.82298532
3603,10.79108028
3604,10.78971196
3605,10.73369822
3606,10.81393514
3607,10.73935922
3608,10.77503693
3609,10.84628505
3610,10.81585062
3611,10.80447897
3612,10.78875543
3613,10.81743682
3614,10.88495505
3615,10.78447186
3616,10.80410923
3617,10.79930402
3618,10.82269831
3619,10.82228375
3620,10.79624007
3621,10.7877871
3622,10.77026454
3623,10.81957874
3624,10.85981249
3625,10.82073682
3626,10.82234209
3627,10.83355963
3628,10.81545859
3629,10.86915479
3630,10.7749909
3631,10.79061428
3632,10.81811571
3633,10.81897319
3634,10.803036
3635,10.82026377
3636,10.7823416
3637,10.77837885
3638,10.83408286
3639,10.79212925
3640,10.79677589
3641,10.81636682
3642,10.84000901
3643,10.8832676
3644,10.84823759
3645,10.85060079
3646,10.89947545
3647,10.8714022
3648,10.89755672
3649,10.95932842
3650,10.91944798
3651,10.89826702
3652,11.02123014
3653,11.05890548
3654,11.04295875
3655,10.99027895
3656,11.01893831
3657,11.12479109
3658,11.18784291
3659,11.16937647
3660,11.22465811
3661,11.22702908
3662,11.25022236
3663,11.23457845
3664,11.38564388
3665,11.44184542
3666,11.403626
3667,11.42330428
3668,11.51070081
3669,11.50583369
3670,11.51855587
3671,11.60315681
3672,11.69191444
3673,11.70709143
3674,11.63961215
3675,11.77640833
3676,11.75476579
3677,11.79079845
3678,11.78419662
3679,11.74911768
3680,11.86136547
3681,11.83757757
3682,11.75334625
3683,11.70031779
3684,11.6955063
3685,11.74419109
3686,11.69815605
3687,11.63271277
3688,11.67600039
3689,11.6370895
3690,11.59150609
3691,11.60379897
3692,11.48604144
3693,11.43179029
3694,11.55393612
3695,11.52321749
3696,11.43951912
3697,11.32967921
3698,11.28943962
3699,11.29081157
3700,11.17210856
3701,11.22650125
3702,11.20090564
3703,11.12070085
3704,11.05543896
3705,11.07096556
3706,11.05289189
3707,11.01182371
3708,10.97181341
3709,10.89536164
3710,10.90776008
3711,10.93944235
3712,10.84460595
3713,10.82005773
3714,10.9324568
3715,10.89907588
3716,10.85734444
3717,10.80642525
3718,10.80300376
3719,10.8833432
3720,10.80796519
3721,10.77441999
3722,10.78309483
3723,10.78616984
3724,10.77225389
3725,10.83613623
3726,10.8260272
3727,10.75711421
3728,10.76160451
3729,10.80220843
3730,10.82414236
3731,10.86761276
3732,10.76572429
3733,10.80124429
3734,10.77687538
3735,10.79787826
3736,10.76323202
3737,10.70852537
3738,10.76864254
3739,10.85846109
3740,10.8337422
3741,10.84037362
3742,10.79468774
3743,10.79350069
3744,10.78432083
3745,10.80434379
3746,10.74702427
3747,10.74217164
3748,10.74237905
3749,10.83641476
3750,10.81792984
3751,10.82179145
3752,10.76674917
3753,10.80572509
3754,10.72038732
3755,10.85828964
3756,10.794355
3757,10.86446316
3758,10.79204357
3759,10.85892443
3760,10.78204863
3761,10.83250395
3762,10.79409788
3763,10.83597471
3764,10.88675012
3765,10.87153237
3766,10.74912766
3767,10.82414188
3768,10.80716875
3769,10.74185317
3770,10.83838601
3771,10.76116254
3772,10.79420406
3773,10.87168844
3774,10.80192871
3775,10.74822479
3776,10.88480379
3777,10.84022776
3778,10.84657449
3779,10.84032911
3780,10.72760082
3781,10.82223899
3782,10.77884491
3783,10.74038404
3784,10.78488379
3785,10.82322684
3786,10.79462909
3787,10.72710779
3788,10.83031774
3789,10.76485423
3790,10.7843544
3791,10.78069916
3792,10.78773217
3793,10.79860913
3794,10.83326592
3795,10.79259237
3796,10.81778054
3797,10.73753875
3798,10.80886672
3799,10.79364836
3800,10.80253948
3801,10.7522238
3802,10.83505058
3803,10.7706407
3804,10.80957732
3805,10.81226307
3806,10.7722369
3807,10.74094298
3808,10.81679968
3809,10.8409505
3810,10.70596607
3811,10.81522855
3812,10.78216535
3813,10.8658715
3814,10.74901038
3815,10.74887023
3816,10.77822171
3817,10.79076559
3818,10.83513567
3819,10.85363526
3820,10.79195006
3821,10.8353454
3822,10.80918178
3823,10.85976257
3824,10.8384314
3825,10.83320546
3826,10.75816023
3827,10.80234957
3828,10.81468531
3829,10.82228768
3830,10.81284495
3831,10.70776273
3832,10.79340242
3833,10.91337372
3834,10.82951042
3835,10.83405131
3836,10.8261781
3837,10.8055273
3838,10.83479793
3839,10.75056312
3840,10.844044
3841,10.78034825
3842,10.80575386
3843,10.84511839
3844,10.77483056
3845,10.78054056
3846,10.77112124
3847,10.81900471
3848,10.79848429
3849,10.77402202
3850,10.80812476
3851,10.81061477
3852,10.75917357
3853,10.8322616
3854,10.84424168
3855,10.83105658
3856,10.76116854
3857,10.80218594
3858,10.80862228
3859,10.76547209
3860,10.75370281
3861,10.8209656
3862,10.78795094
3863,10.81724773
3864,10.85873663
3865,10.80905667
3866,10.82441453
3867,10.78677033
3868,10.80862153
3869,10.77907221
3870,10.85887672
3871,10.81083996
3872,10.76577847
3873,10.82940451
3874,10.83050576
3875,10.81114853
3876,10.84084123
3877,10.71213623
3878,10.81801689
3879,10.81774098
3880,10.83195022
3881,10.79241917
3882,10.82666562
3883,10.77742781
3884,10.86736715
3885,10.81009717
3886,10.78475236
3887,10.78933515
3888,10.75885679
3889,10.86526404
3890,10.73444486
3891,10.81447228
3892,10.80050168
3893,10.80703704
3894,10.76173432
3895,10.81576926
3896,10.78705855
3897,10.80359419
3898,10.74428541
3899,10.84178234
3900,10.78118647
3901,10.77299383
3902,10.86352018
3903,10.76683966
3904,10.73026652
3905,10.86082126
3906,10.90286213
3907,10.78748146
3908,10.74618277
3909,10.76517692
3910,10.75335741
3911,10.78821242
3912,10.78647282
3913,10.86941473
3914,10.86256508
3915,10.9312285
3916,10.75427209
3917,10.8359529
3918,10.75097219
3919,10.8260199
3920,10.81011848
3921,10.83107058
3922,10.82519701
3923,10.81653812
3924,10.81375759
3925,10.721721
3926,10.83610939
3927,10.83143971
3928,10.80812354
3929,10.83739834
3930,10.7751335
3931,10.85055748
3932,10.78978547
3933,10.77947106
3934,10.84754725
3935,10.83545466
3936,10.80665608
3937,10.8254395
3938,10.77615356
3939,10.73460602
3940,10.79361526
3941,10.82686467
3942,10.80642299
3943,10.81728012
3944,10.82358701
3945,10.77975371
3946,10.74057679
3947,10.73294228
3948,10.78541356
3949,10.78260003
3950,10.81249004
3951,10.82140311
3952,10.78667373
3953,10.84296972
3954,10.83182876
3955,10.82114939
3956,10.7482082
3957,10.78982725
3958,10.82215883
3959,10.93306835
3960,10.79881772
3961,10.83074376
3962,10.77911206
3963,10.80571701
3964,10.7609261
3965,10.75101014
3966,10.85255988
3967,10.81738644
3968,10.76941191
3969,10.83041188
3970,10.84216616
3971,10.74552416
3972,10.75179502
3973,10.76900553
3974,10.84319717
3975,10.75902787
3976,10.83004859
3977,10.76824461
3978,10.81693732
3979,10.82419705
3980,10.82988835
3981,10.81880716
3982,10.77393942
3983,10.83135518
3984,10.79265102
3985,10.78624619
3986,10.83788205
3987,10.74061115
3988,10.80389751
3989,10.84527665
3990,10.78234317
3991,10.84603096
3992,10.84852699
3993,10.78507423
3994,10.8311716
3995,10.78735594
3996,10.78639358
3997,10.78732457
3998,10.75944027
3999,10.76779382
4000,10.80612209
