Raman Shift,Intensity
92.04205,301.4507
92.52417,307.5308
93.00629,313.0795
93.4884,315.9425
93.97052,314.5793
94.45264,309.1196
94.93475,304.0511
95.41687,298.7238
95.89898,293.6185
96.3811,288.4338
96.86321,282.6522
97.34533,275.8358
97.82745,268.0318
98.30956,262.0087
98.79168,258.5388
99.2738,255.393
99.75591,252.2531
100.238,248.9849
100.7201,245.2444
101.2023,240.6034
101.6844,235.3361
102.1665,230.6907
102.6486,226.6095
103.1307,223.0851
103.6128,220.2422
104.095,218.1284
104.5771,216.2571
105.0592,214.0736
105.5413,211.8503
106.0234,210.1041
106.5055,209.3821
106.9877,209.3506
107.4698,208.6867
107.9519,207.4575
108.434,205.3413
108.9161,201.9721
109.3982,197.6436
109.8804,193.0489
110.3625,188.6413
110.8446,184.3139
111.3267,180.8559
111.8088,178.7733
112.2909,177.0464
112.7731,175.2414
113.2552,173.2891
113.7373,171.3485
114.2194,169.67
114.7015,168.3724
115.1836,167.1421
115.6658,166.1812
116.1479,165.1921
116.63,163.8625
117.1121,162.0701
117.5942,159.9597
118.0763,157.8125
118.5584,155.4327
119.0406,153.3775
119.5227,151.9326
120.0048,150.9588
120.4869,150.0287
120.969,148.836
121.4511,147.7185
121.9333,147.283
122.4154,147.8372
122.8975,148.5413
123.3796,148.7732
123.8617,148.534
124.3438,147.8192
124.826,146.1232
125.3081,144.1157
125.7902,142.3342
126.2723,140.9287
126.7544,139.9157
127.2365,139.4133
127.7187,139.7476
128.2008,140.0748
128.6829,140.0953
129.165,139.9618
129.6471,139.8874
130.1292,140.0219
130.6114,140.3447
131.0935,140.5429
131.5756,140.7163
132.0577,140.6585
132.5398,140.2034
133.0219,139.45
133.5041,138.6157
133.9862,137.869
134.4683,137.1958
134.9504,136.7483
135.4325,136.5939
135.9146,136.5589
136.3968,136.5423
136.8789,136.535
137.361,136.6101
137.8431,136.9131
138.3252,137.5426
138.8073,137.8042
139.2895,137.4561
139.7716,136.8009
140.2537,136.1943
140.7358,135.7318
141.2179,135.257
141.7,134.4819
142.1821,133.4318
142.6643,132.5259
143.1464,132.0734
143.6285,131.9367
144.1106,131.5849
144.5927,130.7355
145.0748,129.83
145.557,129.288
146.0391,129.1133
146.5212,128.9905
147.0033,128.5306
147.4854,127.657
147.9675,127.1962
148.4497,127.9089
148.9318,128.7094
149.4139,128.964
149.896,128.5507
150.3781,127.8523
150.8602,127.4002
151.3424,127.1849
151.8245,127.2759
152.3066,127.8072
152.7887,128.5038
153.2708,129.1761
153.7529,129.7463
154.2351,130.2408
154.7172,130.7236
155.1993,131.2278
155.6814,131.6709
156.1635,132.1607
156.6456,132.558
157.1278,132.6407
157.6099,132.2809
158.092,131.6122
158.5741,131.2082
159.0562,131.0736
159.5383,131.1445
160.0205,131.5875
160.5026,132.2436
160.9847,132.7248
161.4668,132.7534
161.9489,132.4651
162.431,132.4844
162.9131,133.1163
163.3953,133.739
163.8774,134.0069
164.3595,133.9394
164.8416,133.6977
165.3237,133.2495
165.8058,132.7247
166.288,132.4115
166.7701,132.3912
167.2522,132.5533
167.7343,132.8376
168.2164,133.288
168.6985,133.6494
169.1807,133.5336
169.6628,133.2895
170.1449,133.3838
170.627,134.1049
171.1091,135.2039
171.5912,136.1457
172.0734,136.9843
172.5555,137.5274
173.0376,137.4351
173.5197,137.1065
174.0018,137.143
174.4839,137.9877
174.9661,139.4752
175.4482,140.5805
175.9303,140.9839
176.4124,141.3276
176.8945,141.7382
177.3766,142.2166
177.8588,142.7192
178.3409,143.1957
178.823,143.6456
179.3051,144.3691
179.7872,145.5655
180.2693,146.8364
180.7515,148.1853
181.2336,149.5279
181.7157,150.672
182.1978,151.4155
182.6799,151.6822
183.162,152.3116
183.6441,153.4932
184.1263,154.7764
184.6084,155.9146
185.0905,156.9209
185.5726,157.9967
186.0547,159.3585
186.5368,161.0662
187.019,162.4898
187.5011,163.4482
187.9832,164.2555
188.4653,165.068
188.9474,165.9115
189.4296,166.893
189.9117,168.2076
190.3938,169.8362
190.8759,171.2508
191.358,172.3047
191.8401,173.1526
192.3223,173.95
192.8044,174.7092
193.2865,175.4504
193.7686,176.0541
194.2507,176.6077
194.7328,177.491
195.215,179.1597
195.6971,181.1851
196.1792,182.6507
196.6613,183.259
197.1434,183.7953
197.6255,184.9051
198.1077,186.4158
198.5898,187.8815
199.0719,188.9659
199.554,189.7953
200.0361,190.9029
200.5182,192.3817
201.0004,194.0673
201.4825,195.9937
201.9646,198.0411
202.4467,199.899
202.9288,201.2858
203.4109,202.2355
203.893,203.2746
204.3752,204.5271
204.8573,205.7393
205.3394,206.9986
205.8215,208.1601
206.3036,208.9098
206.7857,208.8797
207.2679,208.0163
207.75,207.4267
208.2321,207.525
208.7142,207.5314
209.1963,207.1251
209.6784,206.3959
210.1606,205.6326
210.6427,205.0844
211.1248,204.771
211.6069,204.5278
212.089,204.5735
212.5711,204.4831
213.0533,204.0406
213.5354,203.2917
214.0175,202.3835
214.4996,201.3837
214.9817,200.1791
215.4638,199.7869
215.946,200.7109
216.4281,201.8021
216.9102,202.5293
217.3923,202.8816
217.8744,203.1095
218.3565,203.4035
218.8387,203.7585
219.3208,204.383
219.8029,205.6318
220.285,206.8336
220.7671,207.5218
221.2492,207.7134
221.7314,207.7862
222.2135,208.0398
222.6956,208.4947
223.1777,209.0038
223.6598,209.5574
224.1419,210.1705
224.624,210.8147
225.1062,211.4976
225.5883,212.3427
226.0704,213.572
226.5525,215.0993
227.0346,216.2897
227.5167,216.8369
227.9989,217.1961
228.481,217.7243
228.9631,218.4366
229.4452,219.3184
229.9273,220.3957
230.4094,221.6407
230.8916,222.9795
231.3737,224.4931
231.8558,226.0408
232.3379,227.4388
232.82,228.6636
233.3021,229.8943
233.7843,231.1031
234.2664,232.4273
234.7485,234.1481
235.2306,236.5755
235.7127,239.2273
236.1948,241.4873
236.677,243.3353
237.1591,244.9194
237.6412,246.2411
238.1233,247.3715
238.6054,248.3671
239.0875,249.2372
239.5697,249.9913
240.0518,250.5767
240.5339,250.8946
241.016,251.3761
241.4981,252.2732
241.9802,253.3712
242.4624,254.573
242.9445,255.9204
243.4266,257.1105
243.9087,257.6214
244.3908,257.3646
244.8729,256.6234
245.355,255.3126
245.8372,253.6859
246.3193,251.9123
246.8014,250.04
247.2835,248.0992
247.7656,246.1887
248.2477,244.5558
248.7299,242.3194
249.212,238.9895
249.6941,235.2917
250.1762,231.7359
250.6583,228.4774
251.1404,225.4148
251.6226,222.4182
252.1047,219.7415
252.5868,216.5533
253.0689,212.5037
253.551,208.1919
254.0331,203.9654
254.5153,199.94
254.9974,196.0566
255.4795,192.2097
255.9616,188.4369
256.4437,184.647
256.9258,180.5974
257.408,176.7025
257.8901,173.2595
258.3722,170.3076
258.8543,167.6143
259.3364,164.8787
259.8185,162.0788
260.3007,159.2867
260.7828,156.4032
261.2649,153.5737
261.747,150.9167
262.2291,148.4213
262.7112,145.9913
263.1934,143.4548
263.6755,140.6238
264.1576,138.4351
264.6397,137.4885
265.1218,136.5587
265.6039,134.9218
266.0861,132.6057
266.5682,130.0922
267.0503,127.8168
267.5324,125.7788
268.0145,124.0936
268.4966,123.0144
268.9788,121.9806
269.4609,120.6058
269.943,118.9927
270.4251,117.6078
270.9072,116.8997
271.3893,116.9152
271.8715,116.313
272.3536,114.6433
272.8357,112.9416
273.3178,111.5852
273.7999,110.5569
274.282,109.7476
274.7642,109.1156
275.2463,108.6361
275.7284,108.0139
276.2105,107.3422
276.6926,106.4703
277.1747,105.0327
277.6568,103.3435
278.1389,102.1568
278.6211,101.9527
279.1032,102.4558
279.5853,102.472
280.0674,101.8459
280.5495,101.0336
281.0316,99.95371
281.5138,98.78561
281.9959,97.87791
282.478,97.40559
282.9601,97.19771
283.4422,96.81872
283.9243,96.11295
284.4065,95.55058
284.8886,95.36313
285.3707,95.3413
285.8528,95.15455
286.3349,94.68082
286.817,94.09666
287.2992,93.70202
287.7813,93.54472
288.2634,93.39617
288.7455,93.3305
289.2276,93.21289
289.7097,92.79818
290.1919,92.01778
290.674,91.21139
291.1561,90.83373
291.6382,90.95798
292.1203,90.95336
292.6024,90.54925
293.0846,90.10737
293.5667,90.06831
294.0488,90.47939
294.5309,90.88612
295.013,90.82542
295.4951,90.28751
295.9773,89.94017
296.4594,89.86301
296.9415,89.94251
297.4236,90.26191
297.9057,90.76639
298.3878,90.95144
298.87,90.30747
299.3521,89.00997
299.8342,88.26286
300.3163,88.50988
300.7984,88.89433
301.2805,88.82543
301.7627,88.42146
302.2448,88.29086
302.7269,88.88948
303.209,89.87541
303.6911,90.22773
304.1732,89.72092
304.6554,89.03691
305.1375,88.23409
305.6196,87.46774
306.1017,87.24307
306.5838,87.90292
307.0659,88.91039
307.5481,89.18072
308.0302,88.61134
308.5123,87.96706
308.9944,87.40095
309.4765,86.93772
309.9586,86.64713
310.4408,86.56271
310.9229,86.59042
311.405,86.66801
311.8871,86.8112
312.3692,86.7787
312.8513,86.32181
313.3335,85.75646
313.8156,85.54185
314.2977,85.75945
314.7798,85.92535
315.2619,85.47585
315.744,84.46834
316.2262,83.84348
316.7083,83.9197
317.1904,84.23421
317.6725,84.46403
318.1546,84.59123
318.6367,84.61965
319.1188,84.49918
319.601,84.28671
320.0831,84.23957
320.5652,84.5682
321.0473,84.84869
321.5294,84.76929
322.0115,84.42793
322.4937,84.19975
322.9758,84.31969
323.4579,84.58633
323.94,84.45398
324.4221,83.71883
324.9042,83.09977
325.3864,82.85265
325.8685,82.89223
326.3506,83.11472
326.8327,83.53185
327.3148,83.96037
327.7969,84.04464
328.2791,83.69939
328.7612,83.56269
329.2433,83.90169
329.7254,84.4409
330.2075,84.92567
330.6896,85.31236
331.1718,85.50243
331.6539,85.30434
332.136,84.68148
332.6181,84.37741
333.1002,84.59774
333.5823,85.00661
334.0645,85.41528
334.5466,85.79932
335.0287,86.14692
335.5108,86.4524
335.9929,86.7094
336.475,86.89186
336.9572,86.65749
337.4393,86.70947
337.9214,87.65254
338.4035,89.12034
338.8856,90.14058
339.3677,90.17114
339.8499,89.69554
340.332,90.09197
340.8141,91.95569
341.2962,93.47115
341.7783,94.03952
342.2604,94.16457
342.7426,94.4911
343.2247,95.20189
343.7068,96.06979
344.1889,96.79176
344.671,97.32888
345.1531,97.79186
345.6353,97.97253
346.1174,98.22047
346.5995,98.87048
347.0816,99.90687
347.5637,101.0419
348.0458,102.0365
348.528,102.8914
349.0101,103.5236
349.4922,103.7191
349.9743,103.9471
350.4564,104.395
350.9385,105.0302
351.4207,105.7544
351.9028,106.5098
352.3849,107.3039
352.867,108.1826
353.3491,109.3722
353.8312,110.3644
354.3134,110.9736
354.7955,111.4013
355.2776,111.9076
355.7597,112.5784
356.2418,113.2713
356.7239,113.7416
357.2061,113.8336
357.6882,114.0081
358.1703,114.2653
358.6524,114.595
359.1345,115.0432
359.6166,115.5806
360.0987,116.0934
360.5808,116.499
361.063,116.8213
361.5451,116.7807
362.0272,116.15
362.5093,115.4202
362.9914,114.6069
363.4735,113.8229
363.9557,113.3014
364.4378,113.2123
364.9199,113.4013
365.402,113.2108
365.8841,112.4868
366.3662,111.5488
366.8484,110.2811
367.3305,108.9131
367.8126,107.7032
368.2947,106.7269
368.7768,105.7889
369.2589,104.5733
369.7411,102.9975
370.2232,101.3621
370.7053,99.58881
371.1874,97.83254
371.6695,96.1694
372.1516,94.59945
372.6338,93.03227
373.1159,91.34583
373.598,89.55477
374.0801,88.084
374.5622,87.21194
375.0443,86.33145
375.5265,85.13574
376.0086,83.82066
376.4907,82.74235
376.9728,82.12032
377.4549,81.70274
377.937,80.86152
378.4192,79.37448
378.9013,78.09732
379.3834,77.51284
379.8655,77.07629
380.3476,76.32912
380.8297,75.1841
381.3119,73.98838
381.794,73.04115
382.2761,72.34007
382.7582,71.92351
383.2403,72.05997
383.7224,72.17188
384.2046,71.75673
384.6867,70.96445
385.1688,70.33447
385.6509,70.35124
386.133,70.70188
386.6151,70.58681
387.0973,69.84427
387.5794,69.22343
388.0615,69.46696
388.5436,70.01305
389.0257,70.01042
389.5078,69.08127
389.99,67.97028
390.4721,67.32203
390.9542,67.0881
391.4363,66.90327
391.9184,66.61899
392.4005,66.37716
392.8827,66.39259
393.3648,66.67728
393.8469,66.97725
394.329,67.27448
394.8111,67.50013
395.2932,67.50784
395.7754,67.26315
396.2575,66.94992
396.7396,66.71868
397.2217,66.56448
397.7038,66.39525
398.1859,66.0349
398.6681,65.80787
399.1501,66.03216
399.6323,66.59669
400.1144,67.09361
400.5965,67.31251
401.0786,67.34269
401.5607,67.43752
402.0428,67.66426
402.525,67.82761
403.0071,67.8256
403.4892,67.77341
403.9713,67.79514
404.4534,67.92041
404.9355,68.11755
405.4177,68.34962
405.8998,68.61035
406.3819,68.94501
406.864,69.50976
407.3461,69.99053
407.8282,70.11874
408.3104,70.03053
408.7925,70.07455
409.2746,70.47524
409.7567,71.16844
410.2388,71.87064
410.7209,72.84665
411.2031,73.46046
411.6852,73.38332
412.1673,73.08064
412.6494,72.95171
413.1315,73.1163
413.6136,73.50144
414.0958,74.06836
414.5779,74.92247
415.06,75.54282
415.5421,75.51675
416.0242,75.63614
416.5063,76.45694
416.9885,77.68783
417.4706,78.55654
417.9527,78.45101
418.4348,77.74128
418.9169,77.75622
419.399,78.83878
419.8812,79.89333
420.3633,80.53403
420.8454,81.01747
421.3275,81.56398
421.8096,82.22568
422.2917,82.92274
422.7739,83.55884
423.256,84.13833
423.7381,84.78625
424.2202,85.54276
424.7023,86.34225
425.1844,86.9866
425.6666,87.58739
426.1487,88.57973
426.6308,90.55552
427.1129,92.84468
427.595,94.30799
428.0771,94.8958
428.5593,95.60795
429.0414,97.0554
429.5235,98.92937
430.0056,100.4559
430.4877,101.4066
430.9698,102.5294
431.452,104.4502
431.9341,106.7592
432.4162,108.5118
432.8983,109.3935
433.3804,110.233
433.8625,112.1209
434.3447,115.2558
434.8268,117.7603
435.3089,118.953
435.791,120.0262
436.2731,121.7084
436.7552,123.9511
437.2374,126.4476
437.7195,129.0454
438.2016,131.7063
438.6837,134.2411
439.1658,136.4238
439.6479,138.7787
440.1301,141.4908
440.6122,144.2977
441.0943,146.9497
441.5764,149.3837
442.0585,151.7049
442.5406,154.0308
443.0227,156.4026
443.5049,158.5224
443.987,159.9124
444.4691,161.5418
444.9512,163.972
445.4333,166.7804
445.9154,169.3085
446.3976,171.1992
446.8797,172.6192
447.3618,173.8717
447.8439,174.8455
448.326,175.9807
448.8081,177.4194
449.2903,179.0099
449.7724,180.5733
450.2545,182.147
450.7366,184.0581
451.2187,186.8954
451.7008,190.3454
452.183,192.8335
452.6651,193.8758
453.1472,195.0686
453.6293,197.3876
454.1114,200.4468
454.5935,203.8219
455.0757,207.4924
455.5578,211.3012
456.0399,215.1308
456.522,218.9889
457.0041,222.9642
457.4862,227.0614
457.9684,231.342
458.4505,236.0507
458.9326,241.1901
459.4147,246.0064
459.8968,250.048
460.3789,253.9243
460.8611,258.1822
461.3432,262.7986
461.8253,267.5042
462.3074,272.2613
462.7895,276.8896
463.2716,280.7206
463.7538,283.779
464.2359,286.0814
464.718,287.7272
465.2001,288.5836
465.6822,288.6089
466.1643,287.7497
466.6465,285.7915
467.1286,282.457
467.6107,277.6283
468.0928,272.2495
468.5749,266.1555
469.057,259.6575
469.5392,252.7607
470.0213,245.5332
470.5034,238.0967
470.9855,230.4972
471.4676,222.7388
471.9497,214.7765
472.4319,206.5513
472.914,198.4333
473.3961,190.3433
473.8782,182.5455
474.3603,175.2033
474.8424,168.332
475.3246,161.7488
475.8067,155.4365
476.2888,149.3591
476.7709,143.256
477.253,137.0626
477.7351,131.4072
478.2173,126.6784
478.6994,122.656
479.1815,119.0113
479.6636,115.8252
480.1457,112.6955
480.6278,109.3028
481.11,105.8619
481.592,102.7758
482.0742,100.1215
482.5563,97.66891
483.0384,95.20196
483.5205,92.73646
484.0026,90.44465
484.4847,88.33949
484.9669,86.38544
485.449,84.61485
485.9311,82.9658
486.4132,81.26962
486.8953,79.46123
487.3774,77.79511
487.8596,76.75097
488.3417,76.6865
488.8238,76.24451
489.3059,75.21708
489.788,74.08015
490.2701,72.98561
490.7523,71.97507
491.2344,71.08053
491.7165,70.32851
492.1986,69.69551
492.6807,69.15044
493.1628,68.78059
493.645,68.26141
494.1271,67.25984
494.6092,66.28261
495.0913,65.73572
495.5734,65.60589
496.0555,65.48812
496.5377,65.16904
497.0198,64.64715
497.5019,63.84821
497.984,62.69782
498.4661,61.60891
498.9482,60.77174
499.4304,60.15501
499.9125,59.65754
500.3946,59.21059
500.8767,59.03441
501.3588,59.57854
501.8409,60.37657
502.3231,60.50557
502.8052,59.77007
503.2873,58.83188
503.7694,58.28536
504.2515,58.14429
504.7336,58.14931
505.2158,58.5281
505.6979,58.78267
506.18,58.65883
506.6621,58.32009
507.1442,57.98623
507.6263,57.743
508.1085,57.60752
508.5906,57.64815
509.0727,57.98774
509.5548,58.05706
510.0369,57.65275
510.519,57.17949
511.0012,56.64183
511.4833,56.16656
511.9654,56.00058
512.4475,56.32008
512.9296,56.83067
513.4117,56.95263
513.8939,56.6182
514.376,56.43544
514.8581,56.70609
515.3402,56.99524
515.8223,56.88042
516.3044,56.42455
516.7866,56.06503
517.2687,56.06021
517.7508,56.2071
518.2329,56.23506
518.715,56.15144
519.1971,56.13255
519.6793,56.30576
520.1614,56.54072
520.6435,56.4999
521.1256,56.06023
521.6077,55.76246
522.0898,55.8076
522.572,55.95396
523.0541,56.04034
523.5362,56.03008
524.0183,55.8702
524.5004,55.49014
524.9825,54.97422
525.4647,54.76562
525.9468,55.17632
526.4289,55.46018
526.911,55.37727
527.3931,55.26986
527.8752,55.45484
528.3574,55.94004
528.8395,56.48092
529.3216,56.94276
529.8037,57.28678
530.2858,57.17601
530.7679,56.30176
531.2501,55.69212
531.7322,56.04723
532.2143,56.77319
532.6964,57.30919
533.1785,57.5689
533.6606,57.66073
534.1428,57.504
534.6249,57.25975
535.107,57.32917
535.5891,57.78477
536.0712,58.26183
536.5533,58.47888
537.0355,58.47857
537.5176,58.54731
537.9997,58.70995
538.4818,58.90432
538.9639,59.17002
539.446,59.43255
539.9282,59.57395
540.4103,59.58243
540.8924,59.56897
541.3745,59.637
541.8566,59.78503
542.3387,60.07021
542.8209,60.70327
543.3029,61.22031
543.785,61.47361
544.2672,61.58918
544.7493,61.71889
545.2314,61.90152
545.7135,62.04408
546.1956,61.95
546.6777,61.6602
547.1599,61.72446
547.642,62.3657
548.1241,62.9481
548.6062,62.93838
549.0883,62.6359
549.5704,62.49995
550.0526,62.59459
550.5347,62.88939
551.0168,63.49493
551.4989,64.26523
551.981,64.91874
552.4631,65.39794
552.9453,65.71444
553.4274,65.84017
553.9095,65.77447
554.3916,65.85382
554.8737,66.22849
555.3558,66.54537
555.838,66.58439
556.3201,66.56913
556.8022,66.8089
557.2843,67.36641
557.7664,68.01476
558.2485,68.48985
558.7307,68.78079
559.2128,69.13008
559.6949,69.51552
560.177,69.99573
560.6591,70.73521
561.1412,71.50446
561.6234,72.00697
562.1055,72.1523
562.5876,72.1883
563.0697,72.26452
563.5518,72.40145
564.0339,72.71165
564.5161,73.25022
564.9982,73.74133
565.4803,73.90282
565.9624,73.85709
566.4445,74.13548
566.9266,74.92435
567.4088,75.76745
567.8909,76.59685
568.373,77.35275
568.8551,77.89567
569.3372,78.23433
569.8193,78.62882
570.3015,79.34392
570.7836,80.35487
571.2657,81.12563
571.7478,81.39169
572.2299,81.77122
572.712,82.42591
573.1942,83.19102
573.6763,83.84462
574.1584,84.38928
574.6405,85.11074
575.1226,86.39693
575.6047,88.08501
576.0869,89.57841
576.569,90.94971
577.0511,91.7731
577.5332,91.33119
578.0153,90.50694
578.4974,90.80617
578.9796,92.52446
579.4617,94.13388
579.9438,94.93562
580.4259,95.40102
580.908,96.06485
581.3901,96.94901
581.8723,97.78894
582.3544,98.37268
582.8365,98.87907
583.3186,99.936
583.8007,102.2342
584.2828,104.0392
584.765,105.014
585.2471,105.7859
585.7292,106.66
586.2113,107.7024
586.6934,108.9515
587.1755,110.4785
587.6577,112.1356
588.1398,113.5532
588.6219,114.6998
589.104,115.818
589.5861,116.8316
590.0682,117.9989
590.5504,119.6634
591.0325,121.7326
591.5146,123.587
591.9967,124.8141
592.4788,125.9357
592.9609,127.3755
593.4431,129.0615
593.9252,130.8096
594.4073,132.5583
594.8894,134.222
595.3715,135.6248
595.8536,136.5808
596.3358,138.1614
596.8179,141.2267
597.3,143.869
597.7821,145.1462
598.2642,145.6864
598.7463,146.3977
599.2285,147.5949
599.7106,148.9953
600.1927,150.2
600.6748,151.2316
601.1569,152.696
601.639,154.8933
602.1212,156.9247
602.6033,158.1067
603.0854,158.8388
603.5675,159.7311
604.0496,161.0143
604.5317,161.9957
605.0139,162.1614
605.496,161.8882
605.9781,161.6821
606.4602,161.6135
606.9423,161.6104
607.4244,161.6466
607.9066,161.6817
608.3887,161.5263
608.8708,161.0491
609.3529,160.5601
609.835,160.1979
610.3171,159.7278
610.7993,158.9048
611.2814,157.8075
611.7635,156.7716
612.2456,156.0928
612.7277,155.4633
613.2098,154.0791
613.692,151.8398
614.1741,149.9602
614.6562,148.8697
615.1383,148.0475
615.6204,146.993
616.1025,145.7383
616.5847,144.4664
617.0668,143.1289
617.5489,141.8704
618.031,140.904
618.5131,140.0628
618.9952,138.9027
619.4774,137.3108
619.9595,135.796
620.4416,135.032
620.9237,135.0985
621.4058,134.6534
621.8879,133.145
622.3701,131.7892
622.8522,130.9074
623.3343,130.2608
623.8164,129.6925
624.2985,129.1429
624.7806,128.4215
625.2628,127.1203
625.7448,125.5674
626.2269,124.8887
626.709,125.216
627.1912,124.9987
627.6733,123.2627
628.1554,120.8259
628.6375,119.3028
629.1196,118.9009
629.6017,118.2322
630.0839,116.7622
630.566,115.2538
631.0481,114.3127
631.5302,113.7564
632.0123,113.047
632.4944,111.9407
632.9766,110.6797
633.4587,109.7606
633.9408,109.3404
634.4229,108.4227
634.905,106.8099
635.3871,104.9231
635.8693,102.7228
636.3514,100.4724
636.8335,98.58892
637.3156,97.21796
637.7977,96.03628
638.2798,94.94304
638.762,93.85378
639.2441,92.57322
639.7262,91.08885
640.2083,89.53136
640.6904,87.97652
641.1725,86.42394
641.6547,84.85437
642.1368,83.11279
642.6189,81.60261
643.101,80.45234
643.5831,79.42018
644.0652,78.48056
644.5474,77.5197
645.0295,76.24547
645.5116,74.44618
645.9937,72.5742
646.4758,71.45443
646.9579,71.07991
647.4401,70.58579
647.9222,69.82104
648.4043,68.97572
648.8864,68.186
649.3685,67.43043
649.8506,66.67307
650.3328,66.01215
650.8149,65.19428
651.297,63.8603
651.7791,62.46093
652.2612,61.62292
652.7433,61.34929
653.2255,61.14857
653.7076,60.65855
654.1897,59.95678
654.6718,59.30651
655.1539,58.65736
655.636,58.18641
656.1182,58.31443
656.6003,58.28039
657.0824,57.47794
657.5645,56.1418
658.0466,55.02776
658.5287,54.43937
659.0109,54.13781
659.493,54.06959
659.9751,54.104
660.4572,53.80449
660.9393,53.06824
661.4214,52.30941
661.9036,51.89439
662.3857,51.79014
662.8678,51.64314
663.3499,51.28946
663.832,51.11471
664.3141,51.43895
664.7963,51.73486
665.2784,51.53283
665.7605,50.88879
666.2426,50.18312
666.7247,49.61361
667.2068,49.17273
667.689,48.85473
668.1711,48.65784
668.6532,48.53647
669.1353,48.51866
669.6174,48.48035
670.0995,48.24773
670.5817,47.85925
671.0638,47.69139
671.5459,48.0793
672.028,48.28231
672.5101,47.97003
672.9922,47.41133
673.4744,46.80343
673.9565,46.23488
674.4386,45.84
674.9207,45.73935
675.4028,45.85403
675.8849,45.95317
676.3671,46.06239
676.8492,46.03468
677.3313,45.75646
677.8134,45.42519
678.2955,45.18751
678.7776,45.02774
679.2598,44.89836
679.7419,44.88591
680.224,44.77671
680.7061,44.31313
681.1882,43.72247
681.6703,43.36197
682.1525,43.28883
682.6346,43.37154
683.1167,43.54139
683.5988,43.73141
684.0809,43.56821
684.563,42.76634
685.0452,42.23735
685.5273,42.21255
686.0094,42.40194
686.4915,42.75494
686.9736,43.1917
687.4557,43.53571
687.9379,43.76266
688.42,43.79784
688.9021,43.44239
689.3842,42.86507
689.8663,42.44864
690.3484,42.26142
690.8306,42.22395
691.3127,42.2929
691.7948,42.44347
692.2769,42.5551
692.759,42.67106
693.2411,42.67299
693.7233,42.54438
694.2054,42.32074
694.6875,41.88575
695.1696,41.3805
695.6517,41.17102
696.1339,41.5011
696.616,41.91687
697.0981,41.83899
697.5802,41.41948
698.0623,41.21938
698.5444,41.33526
699.0266,41.49115
699.5087,41.49541
699.9908,41.38941
700.4729,41.33199
700.955,41.41124
701.4371,41.40197
701.9193,41.14194
702.4014,40.93989
702.8835,41.10477
703.3656,41.458
703.8477,41.56895
704.3298,41.23138
704.812,40.799
705.2941,40.76297
705.7762,41.02763
706.2583,41.07636
706.7404,40.81946
707.2225,40.65601
707.7046,40.87157
708.1867,41.29654
708.6688,41.48524
709.1509,41.30967
709.6331,41.23835
710.1152,41.43295
710.5973,41.6116
711.0794,41.63995
711.5615,41.52359
712.0436,41.22169
712.5258,40.72821
713.0079,40.33139
713.49,40.48482
713.9721,41.05887
714.4542,41.30776
714.9363,41.16666
715.4185,40.96734
715.9006,40.82755
716.3827,40.74545
716.8648,40.71524
717.3469,40.72887
717.829,40.82999
718.3112,41.17785
718.7933,41.44804
719.2754,41.40624
719.7575,41.21543
720.2396,41.10947
720.7217,41.15053
721.2039,41.25734
721.686,41.39214
722.1681,41.51957
722.6502,41.46347
723.1323,41.19429
723.6144,40.9999
724.0966,41.0308
724.5787,41.0828
725.0608,40.85659
725.5429,40.36001
726.025,40.08791
726.5071,40.09591
726.9893,40.2959
727.4714,40.91094
727.9535,41.55151
728.4356,41.67139
728.9177,41.29873
729.3998,40.99461
729.882,41.21265
730.3641,41.68689
730.8462,41.77952
731.3283,41.47574
731.8104,41.1972
732.2925,41.02499
732.7747,40.88269
733.2568,40.61011
733.7389,40.30668
734.221,40.4535
734.7031,41.52947
735.1852,42.30945
735.6674,42.55171
736.1495,42.40089
736.6316,41.63065
737.1137,40.58564
737.5958,40.15973
738.0779,40.83807
738.5601,41.87547
739.0422,42.13691
739.5243,41.70575
740.0064,41.35303
740.4885,41.11683
740.9706,41.08501
741.4528,41.42405
741.9349,41.91664
742.417,42.04136
742.8991,41.65601
743.3812,41.43105
743.8633,41.55432
744.3455,41.71103
744.8276,41.72358
745.3097,41.66484
745.7918,41.66077
746.2739,41.74632
746.756,41.8684
747.2382,42.02668
747.7203,42.17299
748.2024,42.0877
748.6845,41.76152
749.1666,41.63151
749.6487,41.91279
750.1309,42.27275
750.613,42.30434
751.0951,41.98295
751.5772,41.77299
752.0593,41.73856
752.5414,41.7217
753.0236,41.6595
753.5057,41.61963
753.9878,41.74804
754.4699,41.97512
754.952,41.99434
755.4341,41.53507
755.9163,40.99187
756.3984,40.99944
756.8805,41.42171
757.3626,41.65397
757.8447,41.59184
758.3268,41.44939
758.809,41.36285
759.2911,41.32426
759.7732,41.30367
760.2553,41.26406
760.7374,41.31519
761.2195,41.57912
761.7017,41.79996
762.1838,41.84409
762.6659,41.77065
763.148,41.66825
763.6301,41.55933
764.1122,41.46914
764.5944,41.43519
765.0765,41.42189
765.5586,41.34718
766.0407,41.22972
766.5228,41.209
767.0049,41.34632
767.4871,41.49281
767.9692,41.43583
768.4513,41.16174
768.9334,41.01599
769.4155,41.08916
769.8976,41.14185
770.3798,41.23988
770.8619,41.20611
771.344,40.72739
771.8261,39.93383
772.3082,39.48192
772.7903,39.72283
773.2725,40.20657
773.7546,40.84697
774.2367,41.42927
774.7188,41.59429
775.2009,41.32258
775.683,40.77647
776.1652,40.01644
776.6473,39.26436
777.1294,39.09766
777.6115,39.60848
778.0936,40.08676
778.5757,40.4726
779.0579,40.85821
779.54,41.44934
780.0221,41.99921
780.5042,42.02134
780.9863,41.36396
781.4684,40.87528
781.9506,40.85699
782.4327,40.97217
782.9148,41.11123
783.3969,41.19487
783.879,41.02575
784.3611,40.60509
784.8433,40.32553
785.3254,40.66246
785.8075,41.34569
786.2896,41.50022
786.7717,41.11671
787.2538,40.83168
787.736,40.83608
788.2181,40.87476
788.7002,40.7028
789.1823,40.35047
789.6644,40.081
790.1465,39.81795
790.6286,39.74209
791.1107,40.09462
791.5928,40.42787
792.075,40.43364
792.5571,40.19668
793.0392,39.89415
793.5213,39.56571
794.0034,39.39804
794.4855,39.72009
794.9677,40.24658
795.4498,40.43428
795.9319,40.28588
796.414,39.99031
796.8961,39.60316
797.3782,39.34037
797.8604,39.55336
798.3425,40.27566
798.8246,40.65853
799.3067,40.45808
799.7888,40.36122
800.2709,40.82213
800.7531,41.21942
801.2352,40.90825
801.7173,40.06094
802.1994,39.5794
802.6815,39.98351
803.1636,40.38431
803.6458,40.19078
804.1279,39.82409
804.61,39.8291
805.0921,40.16137
805.5742,40.44325
806.0563,40.47105
806.5385,40.3323
807.0206,40.11193
807.5027,39.82378
807.9848,39.66629
808.4669,39.65213
808.949,39.7625
809.4312,40.0624
809.9133,40.38188
810.3954,40.4396
810.8775,40.17697
811.3596,40.03403
811.8417,40.10984
812.3239,40.17783
812.806,40.1425
813.2881,40.09669
813.7702,40.14928
814.2523,40.28381
814.7344,40.36499
815.2166,40.24125
815.6987,40.21749
816.1808,40.86562
816.6629,41.78893
817.145,42.0217
817.6271,41.51304
818.1093,40.88997
818.5914,40.4903
819.0735,40.29787
819.5556,40.31351
820.0377,40.58116
820.5198,40.76995
821.002,40.81027
821.4841,40.91037
821.9662,41.34209
822.4483,41.73074
822.9304,41.55702
823.4125,40.84362
823.8947,40.35608
824.3768,40.44837
824.8589,40.55398
825.341,40.37971
825.8231,40.12032
826.3052,40.07123
826.7874,40.17227
827.2695,40.01635
827.7516,39.29681
828.2337,38.59547
828.7158,38.97717
829.1979,40.11265
829.6801,40.53872
830.1622,40.12266
830.6443,39.68299
831.1264,39.62208
831.6085,39.75832
832.0906,39.79989
832.5728,39.73476
833.0549,39.65679
833.537,39.50425
834.0191,39.43031
834.5012,39.43049
834.9833,39.54692
835.4655,39.94849
835.9476,40.53302
836.4297,40.82233
836.9118,40.50276
837.3939,40.13197
837.876,40.02235
838.3582,40.01832
838.8403,39.92251
839.3224,39.75746
839.8045,39.68362
840.2866,39.77762
840.7687,39.90187
841.2509,39.81155
841.733,39.56979
842.2151,39.61253
842.6972,39.97345
843.1793,40.15546
843.6614,39.95234
844.1436,39.56654
844.6257,39.16463
845.1078,38.75429
845.5899,38.72009
846.072,38.67425
846.5541,39.61086
847.0363,42.87865
847.5184,45.93147
848.0005,47.01982
848.4826,46.69651
848.9647,46.37213
849.4468,46.41857
849.929,46.41272
850.4111,46.00879
850.8932,45.53493
851.3753,45.31993
851.8574,45.31169
852.3395,45.32109
852.8217,45.29963
853.3038,45.40662
853.7859,45.90825
854.268,46.56129
854.7501,46.53117
855.2322,45.81924
855.7144,45.08644
856.1965,44.48339
856.6786,43.77942
857.1607,42.73558
857.6428,41.51548
858.1249,40.65373
858.6071,40.38982
859.0892,39.96981
859.5713,39.02729
860.0534,38.3596
860.5355,38.38541
861.0176,38.75884
861.4998,39.1949
861.9819,39.62264
862.464,39.66511
862.9461,38.65862
863.4282,37.76866
863.9103,38.04124
864.3925,38.7942
864.8746,39.0417
865.3567,38.7446
865.8388,38.46194
866.3209,38.52879
866.803,38.69127
867.2852,38.51988
867.7673,38.08832
868.2494,37.82073
868.7315,37.74919
869.2136,37.53991
869.6957,36.98951
870.1779,36.47055
870.66,36.51577
871.1421,37.13076
871.6242,37.61973
872.1063,38.03825
872.5884,38.23209
873.0705,37.93306
873.5526,37.62411
874.0347,37.69621
874.5168,37.9682
874.999,37.97054
875.4811,37.55243
875.9632,37.09643
876.4453,36.63493
876.9274,36.28178
877.4095,36.17216
877.8917,36.21243
878.3738,36.2458
878.8559,36.23444
879.338,36.23745
879.8201,36.32117
880.3022,36.42165
880.7844,36.44553
881.2665,36.39584
881.7486,36.22783
882.2307,35.94976
882.7128,35.80742
883.1949,35.96511
883.6771,36.31868
884.1592,36.69028
884.6413,37.11401
885.1234,37.28695
885.6055,37.12374
886.0876,36.92242
886.5698,36.8249
887.0519,36.69171
887.534,36.25275
888.0161,35.55046
888.4982,35.22625
888.9803,35.6389
889.4625,35.94881
889.9446,35.84637
890.4267,35.75345
890.9088,36.15125
891.3909,36.72627
891.873,36.76694
892.3552,36.05707
892.8373,35.35786
893.3194,35.15086
893.8015,35.19949
894.2836,35.40623
894.7657,35.63039
895.2479,35.53843
895.73,35.10902
896.2121,34.68531
896.6942,34.52537
897.1763,34.52119
897.6584,34.4215
898.1406,34.25413
898.6227,34.36678
899.1048,34.82319
899.5869,35.14884
900.069,35.11483
900.5511,34.8467
901.0333,34.50033
901.5154,34.06629
901.9975,33.7661
902.4796,33.6162
902.9617,33.56727
903.4438,33.56958
903.926,33.71452
904.4081,34.27338
904.8902,34.99775
905.3723,35.19955
905.8544,34.59719
906.3365,34.07084
906.8187,33.84841
907.3008,33.74677
907.7829,33.72401
908.265,33.72194
908.7471,33.66315
909.2292,33.54483
909.7114,33.4485
910.1935,33.47681
910.6756,33.46034
911.1577,33.03898
911.6398,32.52607
912.1219,32.61367
912.6041,33.23804
913.0862,33.78065
913.5683,33.94893
914.0504,33.89476
914.5325,33.75115
915.0146,33.56107
915.4968,33.62968
915.9789,33.97145
916.461,34.13953
916.9431,34.00104
917.4252,33.7582
917.9073,33.55426
918.3895,33.39759
918.8716,33.32388
919.3537,33.37725
919.8358,33.3971
920.3179,33.33896
920.8,33.30999
921.2822,33.39252
921.7643,33.49878
922.2464,33.54949
922.7285,33.54115
923.2106,33.45128
923.6927,33.03136
924.1749,32.86107
924.657,33.35494
925.1391,33.93455
925.6212,34.20575
926.1033,34.18554
926.5854,33.90385
927.0676,33.35685
927.5497,33.02271
928.0318,33.40086
928.5139,33.98058
928.996,34.35495
929.4781,34.50385
929.9603,34.2898
930.4424,33.79588
930.9245,33.49583
931.4066,33.70464
931.8887,34.17815
932.3708,34.6031
932.853,34.96301
933.3351,35.15293
933.8172,35.17841
934.2993,35.2315
934.7814,35.38358
935.2635,35.58241
935.7457,35.79488
936.2278,35.98917
936.7099,35.93462
937.192,35.53227
937.6741,35.20069
938.1563,34.55547
938.6384,35.0444
939.1205,38.33592
939.6026,42.55938
940.0847,44.34444
940.5668,43.32442
941.049,42.02332
941.5311,39.94321
942.0132,38.26877
942.4953,37.1433
942.9774,36.56701
943.4595,36.86526
943.9417,37.66681
944.4238,37.97932
944.9059,37.38019
945.388,37.18476
945.8701,38.36146
946.3522,39.56016
946.8344,39.82595
947.3165,39.58906
947.7986,39.42221
948.2807,39.42832
948.7628,39.46029
949.2449,39.39785
949.7271,39.44456
950.2092,39.8443
950.6913,40.45035
951.1734,41.14005
951.6555,41.82454
952.1376,42.19933
952.6198,42.2043
953.1019,42.37467
953.584,43.3271
954.0661,44.6836
954.5482,45.52003
955.0303,45.90202
955.5124,46.17662
955.9945,46.39748
956.4766,46.87217
956.9587,47.77013
957.4409,49.00126
957.923,50.4404
958.4051,52.09434
958.8872,53.80937
959.3693,55.67147
959.8514,57.20118
960.3336,58.11185
960.8157,59.08039
961.2978,60.59293
961.7799,62.53416
962.262,64.59013
962.7441,66.76974
963.2263,69.02087
963.7084,70.96674
964.1905,73.49602
964.6726,76.85881
965.1547,80.85781
965.6368,85.32972
966.119,90.30595
966.6011,95.91712
967.0832,102.2081
967.5653,109.1041
968.0474,115.9135
968.5295,124.0691
969.0117,133.7048
969.4938,145.5508
969.9759,159.7833
970.458,176.8111
970.9401,198.5556
971.4222,226.6163
971.9044,258.2764
972.3865,294.2105
972.8686,331.025
973.3507,366.2582
973.8328,398.8162
974.3149,426.5801
974.7971,449.2264
975.2792,470.4311
975.7613,490.6938
976.2434,513.5699
976.7255,542.4999
977.2076,578.084
977.6898,621.8665
978.1719,674.132
978.654,733.2176
979.1361,798.6703
979.6182,872.7565
980.1003,956.2747
980.5825,1051.703
981.0646,1162.878
981.5467,1290.485
982.0288,1444.915
982.5109,1627.546
982.993,1832.105
983.4752,2059.76
983.9573,2279.044
984.4394,2443.044
984.9215,2552.18
985.4036,2529.241
985.8857,2361.207
986.3679,2125.61
986.85,1823.95
987.3321,1514.249
987.8142,1236.538
988.2963,993.2643
988.7784,792.6783
989.2606,639.5915
989.7427,515.8148
990.2248,427.2882
990.7069,356.9394
991.189,302.9408
991.6711,260.8404
992.1533,228.1519
992.6354,203.9289
993.1175,182.9763
993.5996,165.8352
994.0817,151.0654
994.5638,139.4838
995.046,129.1621
995.5281,119.2082
996.0102,110.2959
996.4923,103.5304
996.9744,98.67451
997.4565,93.9458
997.9387,88.73965
998.4208,84.12539
998.9029,80.51094
999.385,77.44527
999.8671,74.96606
1000.349,72.72582
1000.831,70.22655
1001.313,67.44952
1001.796,64.93998
1002.278,63.03199
1002.76,61.29014
1003.242,59.37932
1003.724,57.61755
1004.206,56.34491
1004.688,55.42878
1005.17,54.59884
1005.653,53.76738
1006.135,52.87043
1006.617,51.80465
1007.099,50.73216
1007.581,49.73885
1008.063,48.8791
1008.545,48.3466
1009.027,48.01225
1009.509,47.50517
1009.992,46.70092
1010.474,45.75291
1010.956,44.66974
1011.438,43.6682
1011.92,43.14856
1012.402,42.94891
1012.884,42.73209
1013.366,42.44501
1013.849,42.07543
1014.331,41.62032
1014.813,41.19484
1015.295,40.88235
1015.777,40.72957
1016.259,41.02494
1016.741,41.61282
1017.223,41.68715
1017.705,41.16985
1018.188,40.63625
1018.67,40.3857
1019.152,40.18224
1019.634,39.68104
1020.116,38.95195
1020.598,38.2424
1021.08,37.56774
1021.562,37.34885
1022.044,37.67976
1022.527,38.1118
1023.009,38.42437
1023.491,38.50708
1023.973,38.12098
1024.455,37.30381
1024.937,36.6907
1025.419,36.29179
1025.901,36.0513
1026.384,35.98857
1026.866,35.94472
1027.348,35.81214
1027.83,35.65609
1028.312,35.59457
1028.794,35.62867
1029.276,35.71674
1029.758,35.83336
1030.24,36.14025
1030.723,36.83439
1031.205,37.32004
1031.687,37.13017
1032.169,36.55884
1032.651,36.17953
1033.133,35.99449
1033.615,36.00725
1034.097,36.404
1034.579,36.56621
1035.062,36.1295
1035.544,35.82593
1036.026,36.36713
1036.508,37.23005
1036.99,37.21297
1037.472,36.04353
1037.954,35.53406
1038.436,36.22675
1038.919,36.71381
1039.401,36.64967
1039.883,36.42672
1040.365,36.18724
1040.847,35.99844
1041.329,36.03634
1041.811,36.36705
1042.293,36.57467
1042.776,36.5687
1043.258,36.5573
1043.74,36.56097
1044.222,36.58872
1044.704,36.618
1045.186,36.68467
1045.668,36.87719
1046.15,37.22414
1046.632,37.52523
1047.115,37.79194
1047.597,37.96502
1048.079,37.94196
1048.561,37.90508
1049.043,37.95171
1049.525,38.084
1050.007,38.32192
1050.489,38.68064
1050.971,38.96991
1051.454,39.04126
1051.936,39.18911
1052.418,39.61339
1052.9,40.03554
1053.382,40.24902
1053.864,40.31649
1054.346,40.33812
1054.828,40.32521
1055.311,40.42093
1055.793,40.82096
1056.275,41.12154
1056.757,41.01044
1057.239,40.91899
1057.721,41.18439
1058.203,41.69452
1058.685,42.23295
1059.167,42.76445
1059.65,43.33841
1060.132,44.1269
1060.614,44.75039
1061.096,44.9203
1061.578,45.01559
1062.06,45.26407
1062.542,45.6711
1063.024,46.23792
1063.506,46.95006
1063.989,47.65831
1064.471,48.35889
1064.953,48.97881
1065.435,49.38329
1065.917,49.79963
1066.399,50.44922
1066.881,51.20494
1067.363,51.80062
1067.846,52.23403
1068.328,52.85568
1068.81,53.95194
1069.292,54.98542
1069.774,55.60576
1070.256,56.18583
1070.738,57.00878
1071.22,57.97272
1071.703,59.01525
1072.185,60.05646
1072.667,60.80311
1073.149,61.01802
1073.631,61.22221
1074.113,61.52132
1074.595,62.04033
1075.077,63.04089
1075.559,64.20825
1076.042,65.17607
1076.524,65.90213
1077.006,66.45313
1077.488,66.743
1077.97,67.22013
1078.452,68.47197
1078.934,69.56979
1079.416,69.64189
1079.898,69.37763
1080.38,69.5857
1080.863,70.27493
1081.345,71.14326
1081.827,72.18372
1082.309,72.95286
1082.791,73.28511
1083.273,73.25079
1083.755,72.46587
1084.237,71.66413
1084.72,71.78284
1085.202,72.53983
1085.684,73.00742
1086.166,72.9286
1086.648,72.70555
1087.13,72.59884
1087.612,72.27752
1088.094,71.2924
1088.577,70.24915
1089.059,69.83855
1089.541,69.78455
1090.023,69.40792
1090.505,68.56471
1090.987,67.72541
1091.469,67.04062
1091.951,66.42458
1092.433,65.91172
1092.916,65.3848
1093.398,64.84328
1093.88,64.18704
1094.362,63.20382
1094.844,61.89558
1095.326,60.65123
1095.808,59.5075
1096.29,58.57899
1096.772,58.11943
1097.255,57.65532
1097.737,56.74752
1098.219,55.72832
1098.701,55.09629
1099.183,54.83791
1099.665,54.4917
1100.147,53.82549
1100.629,53.32988
1101.112,53.5532
1101.594,53.47601
1102.076,52.17575
1102.558,50.64034
1103.04,49.99749
1103.522,50.07663
1104.004,49.95309
1104.486,49.40241
1104.969,48.93499
1105.451,48.6665
1105.933,48.46254
1106.415,48.27937
1106.897,48.13856
1107.379,48.08426
1107.861,48.08043
1108.343,48.11102
1108.825,48.26489
1109.307,47.92737
1109.79,46.43784
1110.272,45.31718
1110.754,44.92929
1111.236,44.93293
1111.718,45.40493
1112.2,46.00222
1112.682,46.10601
1113.164,45.67767
1113.647,45.4556
1114.129,45.65775
1114.611,45.6996
1115.093,45.28569
1115.575,45.06051
1116.057,45.3985
1116.539,45.97014
1117.021,46.45349
1117.504,46.83879
1117.986,47.04194
1118.468,46.94404
1118.95,46.94554
1119.432,47.07973
1119.914,47.26026
1120.396,47.51223
1120.878,47.70739
1121.36,47.6733
1121.843,47.54126
1122.325,47.67499
1122.807,48.0527
1123.289,48.91282
1123.771,50.5214
1124.253,51.69688
1124.735,52.11855
1125.217,52.23642
1125.699,52.22558
1126.182,52.3209
1126.664,52.9665
1127.146,54.12761
1127.628,55.14311
1128.11,55.97301
1128.592,57.0332
1129.074,58.42818
1129.556,59.55816
1130.039,60.09099
1130.521,60.56865
1131.003,61.61091
1131.485,63.09192
1131.967,64.69817
1132.449,66.39328
1132.931,67.34624
1133.413,67.54855
1133.896,68.16375
1134.378,69.54841
1134.86,71.41631
1135.342,73.59739
1135.824,75.85683
1136.306,77.77225
1136.788,79.40115
1137.27,80.83897
1137.752,82.18233
1138.234,83.92509
1138.717,86.1125
1139.199,88.42248
1139.681,90.70327
1140.163,92.59583
1140.645,93.47694
1141.127,93.94505
1141.609,95.14734
1142.091,96.78085
1142.574,98.26924
1143.056,99.52882
1143.538,100.5236
1144.02,101.2774
1144.502,102.0529
1144.984,103.083
1145.466,104.1088
1145.948,105.1765
1146.431,105.8291
1146.913,105.1779
1147.395,103.8109
1147.877,102.8578
1148.359,102.3914
1148.841,101.7309
1149.323,100.5615
1149.805,99.325
1150.287,98.3792
1150.77,97.37276
1151.252,95.98145
1151.734,94.45261
1152.216,93.22566
1152.698,92.04557
1153.18,90.17526
1153.662,87.46623
1154.144,84.95187
1154.626,83.27705
1155.109,81.41045
1155.591,78.75932
1156.073,76.09427
1156.555,73.87036
1157.037,71.92104
1157.519,69.99429
1158.001,68.08224
1158.483,66.30529
1158.966,64.81416
1159.448,63.12705
1159.93,60.69831
1160.412,58.78167
1160.894,58.21595
1161.376,57.68252
1161.858,56.09562
1162.34,53.9254
1162.822,52.18943
1163.305,50.91767
1163.787,49.72115
1164.269,48.60168
1164.751,47.56021
1165.233,46.60465
1165.715,45.72352
1166.197,44.92219
1166.679,44.14156
1167.161,43.26237
1167.644,42.39305
1168.126,42.06132
1168.608,42.29445
1169.09,42.21799
1169.572,41.79229
1170.054,41.18319
1170.536,40.43743
1171.018,39.45017
1171.5,38.08491
1171.983,36.90601
1172.465,37.12441
1172.947,38.15192
1173.429,37.80155
1173.911,36.50855
1174.393,36.05092
1174.875,36.44887
1175.357,36.4485
1175.84,35.61194
1176.322,34.79766
1176.804,34.81512
1177.286,34.9671
1177.768,34.11679
1178.25,33.04737
1178.732,33.05087
1179.214,33.6766
1179.697,33.9961
1180.179,33.84563
1180.661,33.39121
1181.143,32.67138
1181.625,31.91221
1182.107,31.12675
1182.589,30.5015
1183.071,30.2846
1183.553,30.17767
1184.036,29.83978
1184.518,29.41819
1185.0,29.3042
1185.482,29.52206
1185.964,29.47412
1186.446,28.64668
1186.928,28.15763
1187.41,28.42927
1187.892,28.77935
1188.375,29.02804
1188.857,29.13477
1189.339,29.07353
1189.821,28.84632
1190.303,28.40973
1190.785,27.66308
1191.267,27.33157
1191.749,27.59713
1192.232,27.77462
1192.714,27.75952
1193.196,27.61694
1193.678,27.33385
1194.16,27.0775
1194.642,27.07815
1195.124,27.24705
1195.606,27.2343
1196.089,27.04531
1196.571,26.7054
1197.053,26.24782
1197.535,26.41684
1198.017,27.3504
1198.499,28.01521
1198.981,27.75461
1199.463,27.14633
1199.945,26.9371
1200.427,26.93555
1200.91,26.75895
1201.392,26.48561
1201.874,26.34898
1202.356,26.27228
1202.838,25.81976
1203.32,24.98404
1203.802,24.5927
1204.284,25.26489
1204.767,26.09905
1205.249,26.59558
1205.731,26.77382
1206.213,26.50017
1206.695,26.02427
1207.177,25.52472
1207.659,25.10401
1208.141,24.94198
1208.624,25.08599
1209.106,25.28012
1209.588,25.60759
1210.07,25.76225
1210.552,25.58182
1211.034,25.33242
1211.516,25.06226
1211.998,24.85921
1212.48,24.83147
1212.963,24.94118
1213.445,25.0756
1213.927,25.30966
1214.409,25.13309
1214.891,24.38196
1215.373,23.8771
1215.855,23.7903
1216.337,23.87647
1216.819,24.01315
1217.302,24.2452
1217.784,24.682
1218.266,25.16653
1218.748,25.16279
1219.23,24.75986
1219.712,24.31857
1220.194,23.90466
1220.676,23.73175
1221.159,23.82631
1221.641,24.06025
1222.123,24.3744
1222.605,24.56566
1223.087,24.28684
1223.569,23.92167
1224.051,23.98642
1224.533,24.17311
1225.016,23.97784
1225.498,23.62085
1225.98,23.7104
1226.462,24.22794
1226.944,24.38977
1227.426,23.76015
1227.908,23.24307
1228.39,23.34766
1228.872,23.36561
1229.354,22.65888
1229.837,22.08558
1230.319,22.54322
1230.801,23.48816
1231.283,23.96603
1231.765,23.98577
1232.247,23.77279
1232.729,23.13882
1233.211,22.87762
1233.694,23.1243
1234.176,23.39997
1234.658,23.58935
1235.14,23.623
1235.622,23.41436
1236.104,23.17999
1236.586,23.36991
1237.068,23.81177
1237.551,23.70906
1238.033,23.19779
1238.515,22.8454
1238.997,22.70294
1239.479,22.7209
1239.961,22.84805
1240.443,22.84866
1240.925,22.53362
1241.407,22.25473
1241.89,22.43684
1242.372,22.72755
1242.854,22.83777
1243.336,22.80673
1243.818,22.57716
1244.3,22.30345
1244.782,22.36574
1245.264,22.78074
1245.746,22.92374
1246.229,22.41285
1246.711,22.02799
1247.193,21.72773
1247.675,21.82127
1248.157,23.0109
1248.639,23.87451
1249.121,23.10318
1249.603,21.67191
1250.085,21.40783
1250.568,22.2217
1251.05,22.52645
1251.532,22.27938
1252.014,21.91086
1252.496,21.43829
1252.978,21.29493
1253.46,21.60919
1253.942,22.05953
1254.425,22.44225
1254.907,22.64642
1255.389,22.35266
1255.871,21.89342
1256.353,21.90905
1256.835,22.21801
1257.317,22.60523
1257.799,22.94704
1258.281,23.02689
1258.764,22.83386
1259.246,22.56657
1259.728,22.2506
1260.21,22.09736
1260.692,22.44482
1261.174,22.66265
1261.656,22.2276
1262.138,21.77693
1262.62,21.82431
1263.103,22.16951
1263.585,22.52739
1264.067,22.87371
1264.549,23.01432
1265.031,22.90791
1265.513,22.7351
1265.995,22.50019
1266.477,22.13675
1266.96,21.58148
1267.442,21.25818
1267.924,21.4202
1268.406,21.77226
1268.888,22.00151
1269.37,22.09519
1269.852,21.88179
1270.334,21.57252
1270.817,21.85257
1271.299,22.46946
1271.781,22.60984
1272.263,22.27253
1272.745,22.08925
1273.227,22.30149
1273.709,22.44439
1274.191,22.17292
1274.673,21.85767
1275.156,21.58853
1275.638,21.44406
1276.12,21.65256
1276.602,21.8732
1277.084,21.66098
1277.566,21.13921
1278.048,20.69175
1278.53,20.26008
1279.012,20.53709
1279.495,21.84923
1279.977,22.68553
1280.459,22.86695
1280.941,22.59985
1281.423,21.90104
1281.905,21.29199
1282.387,21.19089
1282.869,21.36812
1283.352,21.48605
1283.834,21.55723
1284.316,21.6063
1284.798,21.63433
