Raman Shift,Intensity
91.55994,539.7883
92.04205,543.6659
92.52417,549.3441
93.00629,555.8002
93.4884,559.6359
93.97052,556.9261
94.45264,545.824
94.93475,532.2668
95.41687,520.7083
95.89898,512.0776
96.3811,505.1128
96.86321,498.9021
97.34533,492.7267
97.82745,485.5117
98.30956,478.1292
98.79168,469.7293
99.2738,462.2926
99.75591,456.6324
100.238,452.214
100.7201,447.7642
101.2023,442.4039
101.6844,436.413
102.1665,431.0712
102.6486,426.549
103.1307,422.437
103.6128,418.2071
104.095,413.6516
104.5771,409.7787
105.0592,407.7716
105.5413,406.6988
106.0234,405.2339
106.5055,402.4589
106.9877,398.756
107.4698,395.7986
107.9519,394.3463
108.434,392.671
108.9161,390.1982
109.3982,386.9451
109.8804,383.0513
110.3625,378.3759
110.8446,372.5871
111.3267,367.8587
111.8088,364.6711
112.2909,362.0186
112.7731,359.5374
113.2552,357.1393
113.7373,354.8569
114.2194,352.7629
114.7015,350.8687
115.1836,349.1587
115.6658,347.8661
116.1479,346.6376
116.63,345.1426
117.1121,343.2589
117.5942,341.0598
118.0763,338.6579
118.5584,335.9024
119.0406,333.2839
119.5227,330.7812
120.0048,328.4973
120.4869,326.8061
120.969,326.2279
121.4511,326.0772
121.9333,324.8942
122.4154,322.1022
122.8975,319.2596
123.3796,318.015
123.8617,318.5858
124.3438,318.8549
124.826,317.6587
125.3081,315.683
125.7902,313.3393
126.2723,310.635
126.7544,307.828
127.2365,305.5143
127.7187,303.7354
128.2008,302.4619
128.6829,301.9121
129.165,301.714
129.6471,301.4062
130.1292,300.7149
130.6114,299.6507
131.0935,298.344
131.5756,296.191
132.0577,294.3634
132.5398,293.5146
133.0219,293.2999
133.5041,292.8602
133.9862,291.3873
134.4683,288.6344
134.9504,286.4153
135.4325,284.9531
135.9146,283.724
136.3968,282.4514
136.8789,281.1024
137.361,279.7887
137.8431,278.6378
138.3252,277.6554
138.8073,276.8858
139.2895,276.5572
139.7716,276.3525
140.2537,275.9545
140.7358,275.3241
141.2179,274.3829
141.7,272.8502
142.1821,270.7845
142.6643,268.8307
143.1464,267.2513
143.6285,265.9971
144.1106,264.8991
144.5927,264.0219
145.0748,263.1867
145.557,262.2345
146.0391,261.1649
146.5212,260.0409
147.0033,258.8539
147.4854,257.5763
147.9675,256.4894
148.4497,255.8248
148.9318,255.2536
149.4139,254.6084
149.896,253.8559
150.3781,253.056
150.8602,252.3431
151.3424,251.8787
151.8245,251.1087
152.3066,249.5492
152.7887,247.9606
153.2708,247.0621
153.7529,247.1059
154.2351,247.634
154.7172,247.4976
155.1993,245.8975
155.6814,244.5342
156.1635,243.5622
156.6456,242.8446
157.1278,242.2788
157.6099,241.8289
158.092,241.4151
158.5741,240.6754
159.0562,239.2915
159.5383,237.9864
160.0205,236.8493
160.5026,235.9144
160.9847,235.2898
161.4668,235.1096
161.9489,235.2585
162.431,235.1935
162.9131,235.0247
163.3953,234.5745
163.8774,233.5003
164.3595,231.8798
164.8416,230.5086
165.3237,229.963
165.8058,230.024
166.288,230.1306
166.7701,230.3848
167.2522,230.5367
167.7343,230.2109
168.2164,229.3028
168.6985,228.4175
169.1807,228.1603
169.6628,228.0865
170.1449,227.5683
170.627,226.0713
171.1091,224.164
171.5912,223.2752
172.0734,224.0547
172.5555,224.6837
173.0376,224.3683
173.5197,223.4971
174.0018,222.6134
174.4839,222.0523
174.9661,221.7406
175.4482,221.2227
175.9303,220.1739
176.4124,219.2843
176.8945,218.7702
177.3766,218.5407
177.8588,218.4652
178.3409,218.4988
178.823,218.6449
179.3051,218.3279
179.7872,216.7858
180.2693,215.5271
180.7515,215.1984
181.2336,215.5758
181.7157,216.0213
182.1978,215.9899
182.6799,215.4243
183.162,214.8999
183.6441,214.4561
184.1263,214.0071
184.6084,213.4682
185.0905,212.8636
185.5726,212.3187
186.0547,211.9581
186.5368,211.8127
187.019,211.6749
187.5011,211.6053
187.9832,211.5038
188.4653,211.332
188.9474,211.0811
189.4296,210.6751
189.9117,209.9341
190.3938,208.8796
190.8759,208.0949
191.358,207.7195
191.8401,207.6128
192.3223,207.715
192.8044,208.0751
193.2865,208.3511
193.7686,208.0937
194.2507,207.453
194.7328,206.8406
195.215,206.2827
195.6971,205.8499
196.1792,205.707
196.6613,205.938
197.1434,206.3147
197.6255,206.8542
198.1077,207.4325
198.5898,207.676
199.0719,207.1884
199.554,206.1552
200.0361,205.405
200.5182,205.1556
201.0004,204.9177
201.4825,204.3367
201.9646,203.5478
202.4467,202.8994
202.9288,202.7292
203.4109,202.9972
203.893,203.0067
204.3752,202.5291
204.8573,202.0101
205.3394,201.5087
205.8215,201.0939
206.3036,200.8936
206.7857,201.078
207.2679,201.6773
207.75,202.0747
208.2321,202.2326
208.7142,202.2059
209.1963,201.9182
209.6784,201.4372
210.1606,200.8969
210.6427,200.3806
211.1248,199.8565
211.6069,199.6775
212.089,200.2322
212.5711,200.736
213.0533,200.8621
213.5354,200.6438
214.0175,200.3007
214.4996,200.0271
214.9817,199.8357
215.4638,199.623
215.946,199.4008
216.4281,199.1531
216.9102,198.8182
217.3923,198.4294
217.8744,198.1
218.3565,197.9252
218.8387,197.9175
219.3208,198.0916
219.8029,198.804
220.285,199.3919
220.7671,199.3464
221.2492,198.7041
221.7314,197.9479
222.2135,197.4327
222.6956,197.1982
223.1777,197.2708
223.6598,198.0938
224.1419,198.8985
224.624,198.9795
225.1062,198.3344
225.5883,197.68
226.0704,197.6842
226.5525,198.2418
227.0346,198.4363
227.5167,197.8493
227.9989,197.1033
228.481,196.7973
228.9631,196.9693
229.4452,197.246
229.9273,197.4025
230.4094,197.4551
230.8916,197.4514
231.3737,197.3735
231.8558,197.2553
232.3379,197.0903
232.82,196.856
233.3021,196.7314
233.7843,196.9022
234.2664,197.2485
234.7485,197.6116
235.2306,198.0098
235.7127,198.3588
236.1948,198.5857
236.677,198.7221
237.1591,198.602
237.6412,197.6674
238.1233,196.5722
238.6054,196.1286
239.0875,196.7965
239.5697,197.9173
240.0518,198.3934
240.5339,198.0181
241.016,197.6631
241.4981,197.8219
241.9802,198.101
242.4624,198.0597
242.9445,197.4746
243.4266,196.7409
243.9087,196.6254
244.3908,197.439
244.8729,198.0179
245.355,197.9113
245.8372,197.5208
246.3193,197.1225
246.8014,196.7997
247.2835,196.6004
247.7656,196.6351
248.2477,197.0151
248.7299,197.3679
249.212,197.6836
249.6941,197.9186
250.1762,197.9843
250.6583,197.8624
251.1404,197.7031
251.6226,197.825
252.1047,198.5423
252.5868,198.8032
253.0689,198.1979
253.551,197.3902
254.0331,196.8059
254.5153,196.5675
254.9974,196.5662
255.4795,196.6781
255.9616,197.0578
256.4437,197.2024
256.9258,196.8685
257.408,196.5112
257.8901,196.4654
258.3722,196.7716
258.8543,197.1983
259.3364,197.4243
259.8185,197.3276
260.3007,197.3357
260.7828,197.5087
261.2649,197.7161
261.747,197.8687
262.2291,197.9632
262.7112,198.0662
263.1934,198.2729
263.6755,198.6635
264.1576,198.8473
264.6397,198.7783
265.1218,198.5861
265.6039,198.2043
266.0861,197.7173
266.5682,197.3958
267.0503,197.5327
267.5324,198.2209
268.0145,198.7912
268.4966,199.3692
268.9788,199.7484
269.4609,199.7544
269.943,199.4454
270.4251,199.0123
270.9072,198.5754
271.3893,198.1285
271.8715,197.9968
272.3536,198.3627
272.8357,198.7905
273.3178,199.1733
273.7999,199.4747
274.282,199.5864
274.7642,199.3681
275.2463,198.8897
275.7284,199.0636
276.2105,200.6694
276.6926,201.9283
277.1747,202.0066
277.6568,201.2822
278.1389,200.6265
278.6211,200.5211
279.1032,200.8296
279.5853,200.9714
280.0674,200.8348
280.5495,200.7014
281.0316,200.5016
281.5138,200.3682
281.9959,200.6349
282.478,201.5113
282.9601,202.657
283.4422,203.1347
283.9243,202.634
284.4065,202.1826
284.8886,201.8361
285.3707,201.7013
285.8528,202.0435
286.3349,202.9979
286.817,204.1605
287.2992,204.8374
287.7813,204.9189
288.2634,204.9419
288.7455,204.8627
289.2276,204.8154
289.7097,205.0814
290.1919,205.7425
290.674,206.3289
291.1561,206.1082
291.6382,204.9079
292.1203,204.3077
292.6024,204.9026
293.0846,205.9179
293.5667,206.6257
294.0488,206.9334
294.5309,207.1086
295.013,207.4223
295.4951,207.8644
295.9773,208.0563
296.4594,207.7424
296.9415,207.3476
297.4236,207.1186
297.9057,207.0841
298.3878,207.3414
298.87,208.0723
299.3521,209.1759
299.8342,209.9673
300.3163,210.2646
300.7984,210.4176
301.2805,210.6582
301.7627,210.9439
302.2448,211.0621
302.7269,210.8525
303.209,210.4314
303.6911,210.1356
304.1732,209.843
304.6554,209.8388
305.1375,210.5802
305.6196,211.7323
306.1017,212.3554
306.5838,211.9824
307.0659,211.1311
307.5481,210.7842
308.0302,210.9602
308.5123,211.3523
308.9944,212.0257
309.4765,212.819
309.9586,213.4871
310.4408,213.9875
310.9229,214.2547
311.405,214.0226
311.8871,213.2547
312.3692,212.852
312.8513,213.2447
313.3335,213.9765
313.8156,214.538
314.2977,214.8541
314.7798,215.0319
315.2619,215.0661
315.744,214.9923
316.2262,215.2417
316.7083,216.2795
317.1904,217.3488
317.6725,217.7571
318.1546,217.5204
318.6367,217.1544
319.1188,216.9016
319.601,216.8237
320.0831,217.0639
320.5652,218.0012
321.0473,218.8725
321.5294,219.1817
322.0115,219.0562
322.4937,218.9561
322.9758,219.1119
323.4579,219.4025
323.94,219.479
324.4221,219.1482
324.9042,219.047
325.3864,219.6683
325.8685,220.636
326.3506,221.2149
326.8327,221.1411
327.3148,220.7403
327.7969,220.4336
328.2791,220.1663
328.7612,220.2192
329.2433,220.9996
329.7254,221.9652
330.2075,222.4202
330.6896,222.2445
331.1718,221.9197
331.6539,221.8999
332.136,222.2169
332.6181,222.6047
333.1002,223.0205
333.5823,223.5284
334.0645,224.3029
334.5466,225.2826
335.0287,226.0796
335.5108,226.3793
335.9929,226.2512
336.475,226.272
336.9572,226.431
337.4393,226.7252
337.9214,227.2871
338.4035,227.9881
338.8856,228.4835
339.3677,228.5746
339.8499,228.4517
340.332,228.6517
340.8141,229.3774
341.2962,230.003
341.7783,230.4567
342.2604,230.7297
342.7426,230.7055
343.2247,230.3501
343.7068,229.9868
344.1889,230.1015
344.671,230.9702
345.1531,231.5227
345.6353,231.3095
346.1174,231.0839
346.5995,231.5994
347.0816,232.8136
347.5637,233.965
348.0458,234.3355
348.528,233.8761
349.0101,233.6101
349.4922,233.6809
349.9743,233.7667
350.4564,233.6465
350.9385,233.4319
351.4207,233.4013
351.9028,233.7292
352.3849,234.3385
352.867,234.9082
353.3491,235.586
353.8312,236.0419
354.3134,235.9786
354.7955,235.7732
355.2776,235.9123
355.7597,236.5572
356.2418,237.423
356.7239,238.0202
357.2061,238.1073
357.6882,238.4175
358.1703,239.3661
358.6524,240.2085
359.1345,240.2554
359.6166,239.5711
360.0987,238.8608
360.5808,238.8393
361.063,239.5985
361.5451,240.1535
362.0272,240.3112
362.5093,240.4772
362.9914,240.8285
363.4735,241.2858
363.9557,241.6835
364.4378,241.9238
364.9199,242.0242
365.402,242.0404
365.8841,241.6998
366.3662,241.6732
366.8484,242.2643
367.3305,243.0743
367.8126,243.7511
368.2947,244.1709
368.7768,244.3919
369.2589,244.4787
369.7411,244.3731
370.2232,244.289
370.7053,244.0396
371.1874,243.9701
371.6695,244.4895
372.1516,245.4437
372.6338,246.1976
373.1159,246.093
373.598,245.1641
374.0801,244.5628
374.5622,244.4522
375.0443,244.4997
375.5265,244.6005
376.0086,244.7715
376.4907,245.0766
376.9728,245.5863
377.4549,246.1572
377.937,246.4404
378.4192,246.3227
378.9013,246.2384
379.3834,246.4289
379.8655,246.6263
380.3476,246.5315
380.8297,246.0926
381.3119,245.7249
381.794,245.9709
382.2761,246.8142
382.7582,247.3786
383.2403,247.4005
383.7224,247.2879
384.2046,247.3476
384.6867,247.5277
385.1688,247.6322
385.6509,247.484
386.133,247.1988
386.6151,247.0712
387.0973,247.161
387.5794,247.1853
388.0615,246.6664
388.5436,246.0684
389.0257,246.1952
389.5078,247.6411
389.99,249.0273
390.4721,248.8441
390.9542,247.3151
391.4363,246.2397
391.9184,246.3464
392.4005,246.9924
392.8827,247.2763
393.3648,247.1788
393.8469,247.0868
394.329,247.3653
394.8111,247.6759
395.2932,247.2877
395.7754,246.0188
396.2575,244.8807
396.7396,244.8836
397.2217,245.9375
397.7038,246.6528
398.1859,246.8659
398.6681,246.8248
399.1501,246.625
399.6323,246.2958
400.1144,245.8969
400.5965,245.4328
401.0786,244.958
401.5607,244.6506
402.0428,244.5818
402.525,244.5213
403.0071,244.3797
403.4892,244.2468
403.9713,244.2394
404.4534,244.3798
404.9355,244.5986
405.4177,244.8515
405.8998,245.2053
406.3819,245.1956
406.864,244.3589
407.3461,243.6472
407.8282,243.7055
408.3104,244.2867
408.7925,244.6925
409.2746,244.4705
409.7567,243.7758
410.2388,243.3255
410.7209,243.4281
411.2031,243.3838
411.6852,242.887
412.1673,242.3547
412.6494,242.3332
413.1315,242.8996
413.6136,243.4802
414.0958,243.1852
414.5779,241.6432
415.06,240.7173
415.5421,240.9412
416.0242,241.3079
416.5063,241.5198
416.9885,241.5646
417.4706,241.4968
417.9527,241.3276
418.4348,241.0948
418.9169,240.935
419.399,240.8996
419.8812,240.825
420.3633,240.5636
420.8454,240.2945
421.3275,240.219
421.8096,240.3899
422.2917,240.5972
422.7739,240.637
423.256,240.513
423.7381,240.2982
424.2202,239.8607
424.7023,239.5359
425.1844,239.7616
425.6666,240.3481
426.1487,240.5937
426.6308,239.9801
427.1129,238.9574
427.595,238.1068
428.0771,237.4196
428.5593,237.065
429.0414,237.3678
429.5235,237.9515
430.0056,237.9542
430.4877,237.1003
430.9698,236.2912
431.452,236.1162
431.9341,236.2817
432.4162,236.1443
432.8983,235.5145
433.3804,234.7955
433.8625,234.4637
434.3447,234.5802
434.8268,234.661
435.3089,234.755
435.791,234.7531
436.2731,234.516
436.7552,234.1056
437.2374,233.7651
437.7195,233.6676
438.2016,233.6825
438.6837,233.3092
439.1658,231.872
439.6479,230.9132
440.1301,230.9305
440.6122,231.2497
441.0943,231.2729
441.5764,230.8675
442.0585,230.2153
442.5406,229.4691
443.0227,228.5629
443.5049,228.0427
443.987,228.3956
444.4691,228.6365
444.9512,228.3762
445.4333,227.8175
445.9154,227.3269
446.3976,227.1028
446.8797,227.0038
447.3618,226.6848
447.8439,226.0285
448.326,225.5019
448.8081,225.4436
449.2903,225.3521
449.7724,224.8046
450.2545,223.8312
450.7366,222.9177
451.2187,222.5237
451.7008,222.5143
452.183,222.3334
452.6651,221.9539
453.1472,221.4461
453.6293,220.7112
454.1114,219.9061
454.5935,219.2785
455.0757,218.9613
455.5578,218.6779
456.0399,218.1571
456.522,217.4612
457.0041,216.8753
457.4862,216.5204
457.9684,216.2153
458.4505,215.7339
458.9326,215.089
459.4147,214.3294
459.8968,213.2724
460.3789,212.2462
460.8611,211.6712
461.3432,211.4616
461.8253,211.0481
462.3074,210.0257
462.7895,208.5857
463.2716,207.5005
463.7538,207.2515
464.2359,206.7043
464.718,205.3815
465.2001,203.882
465.6822,202.9374
466.1643,202.6229
466.6465,202.3262
467.1286,201.3233
467.6107,199.4872
468.0928,198.0864
468.5749,197.4508
469.057,196.9052
469.5392,196.3557
470.0213,195.7625
470.5034,195.1371
470.9855,194.4919
471.4676,193.6986
471.9497,192.467
472.4319,190.682
472.914,188.9745
473.3961,187.389
473.8782,185.9616
474.3603,184.7968
474.8424,183.8405
475.3246,182.8501
475.8067,181.6554
476.2888,180.3483
476.7709,179.0812
477.253,177.8432
477.7351,176.7591
478.2173,176.017
478.6994,175.3954
479.1815,174.5395
479.6636,173.3822
480.1457,172.1916
480.6278,171.1081
481.11,170.0794
481.592,168.9667
482.0742,167.7379
482.5563,166.6
483.0384,165.7833
483.5205,165.28
484.0026,164.5501
484.4847,163.5076
484.9669,162.3499
485.449,161.0771
485.9311,159.754
486.4132,158.4753
486.8953,157.2727
487.3774,156.1598
487.8596,155.2091
488.3417,154.6404
488.8238,153.5885
489.3059,151.8092
489.788,149.8708
490.2701,147.9358
490.7523,146.0755
491.2344,144.4161
491.7165,143.0823
492.1986,141.88
492.6807,140.2232
493.1628,137.9099
493.645,135.7137
494.1271,133.829
494.6092,132.1084
495.0913,130.5787
495.5734,129.19
496.0555,127.6276
496.5377,125.5318
497.0198,123.1206
497.5019,121.0078
497.984,119.2369
498.4661,117.6061
498.9482,115.9981
499.4304,114.4533
499.9125,113.0632
500.3946,111.894
500.8767,110.7173
501.3588,109.344
501.8409,107.8987
502.3231,106.5907
502.8052,105.4671
503.2873,104.4277
503.7694,103.3765
504.2515,102.3051
504.7336,101.3494
505.2158,100.7719
505.6979,100.0061
506.18,98.63832
506.6621,97.01452
507.1442,95.68174
507.6263,94.83177
508.1085,94.23416
508.5906,93.55372
509.0727,92.77523
509.5548,91.96473
510.0369,91.0055
510.519,90.13285
511.0012,89.45358
511.4833,88.92252
511.9654,88.46902
512.4475,88.08138
512.9296,87.6737
513.4117,87.06519
513.8939,86.22521
514.376,85.39864
514.8581,84.5981
515.3402,83.86785
515.8223,83.23328
516.3044,82.69392
516.7866,82.24369
517.2687,82.01629
517.7508,81.79662
518.2329,81.21618
518.715,80.30662
519.1971,79.55081
519.6793,79.22082
520.1614,79.12695
520.6435,78.83524
521.1256,78.26372
521.6077,77.77376
522.0898,77.54414
522.572,77.33907
523.0541,76.85733
523.5362,76.15997
524.0183,75.64057
524.5004,75.61966
524.9825,75.96572
525.4647,75.98731
525.9468,75.39089
526.4289,74.87632
526.911,74.55115
527.3931,74.29366
527.8752,74.03105
528.3574,73.7397
528.8395,73.39915
529.3216,72.96481
529.8037,72.4621
530.2858,72.03743
530.7679,71.69263
531.2501,71.42563
531.7322,71.32073
532.2143,71.25365
532.6964,71.06625
533.1785,70.71143
533.6606,70.40636
534.1428,70.3605
534.6249,70.45177
535.107,70.41966
535.5891,70.22818
536.0712,69.94777
536.5533,69.60616
537.0355,69.2178
537.5176,68.88076
537.9997,68.34145
538.4818,68.15293
538.9639,68.95657
539.446,69.97414
539.9282,70.11758
540.4103,69.22555
540.8924,68.07235
541.3745,67.47427
541.8566,67.45016
542.3387,67.32407
542.8209,66.9846
543.3029,66.67327
543.785,66.50485
544.2672,66.35786
544.7493,66.06722
545.2314,65.59637
545.7135,65.10617
546.1956,64.7727
546.6777,64.58589
547.1599,64.45824
547.642,64.42965
548.1241,64.36612
548.6062,64.08647
549.0883,63.73764
549.5704,63.58281
550.0526,63.76127
550.5347,63.93447
551.0168,63.88617
551.4989,63.68062
551.981,63.40606
552.4631,63.0767
552.9453,62.8408
553.4274,62.884
553.9095,63.20757
554.3916,63.25816
554.8737,62.87148
555.3558,62.45259
555.838,62.05878
556.3201,61.71645
556.8022,61.48791
557.2843,61.37248
557.7664,61.26045
558.2485,61.01271
558.7307,60.6244
559.2128,60.2746
559.6949,59.93344
560.177,59.68538
560.6591,59.63774
561.1412,59.65098
561.6234,59.53799
562.1055,59.24248
562.5876,58.92869
563.0697,58.7611
563.5518,58.69219
564.0339,58.56022
564.5161,58.33968
564.9982,58.08512
565.4803,57.81183
565.9624,57.53748
566.4445,57.32874
566.9266,57.23019
567.4088,57.13312
567.8909,56.98593
568.373,56.82682
568.8551,56.73793
569.3372,56.71593
569.8193,56.62266
570.3015,56.30904
570.7836,55.79236
571.2657,55.43438
571.7478,55.38661
572.2299,55.29747
572.712,55.07515
573.1942,54.81195
573.6763,54.57885
574.1584,54.39317
574.6405,54.25903
575.1226,54.22839
575.6047,54.25811
576.0869,54.1299
576.569,53.78579
577.0511,53.54015
577.5332,53.7005
578.0153,53.95235
578.4974,53.74498
578.9796,52.94456
579.4617,52.25304
579.9438,51.9585
580.4259,51.89719
580.908,51.95986
581.3901,52.0971
581.8723,52.13668
582.3544,51.94921
582.8365,51.62399
583.3186,51.47118
583.8007,51.7682
584.2828,51.80918
584.765,51.3437
585.2471,50.8358
585.7292,50.63549
586.2113,50.67753
586.6934,50.65199
587.1755,50.33575
587.6577,49.88688
588.1398,49.70152
588.6219,49.8275
589.104,49.88727
589.5861,49.77629
590.0682,49.5817
590.5504,49.35912
591.0325,49.11861
591.5146,48.93188
591.9967,48.862
592.4788,48.82008
592.9609,48.7443
593.4431,48.63575
593.9252,48.49727
594.4073,48.3291
594.8894,48.14172
595.3715,47.94226
595.8536,47.71407
596.3358,47.55153
596.8179,47.47284
597.3,47.42918
597.7821,47.45128
598.2642,47.48005
598.7463,47.42514
599.2285,47.25776
599.7106,47.05289
600.1927,46.88285
600.6748,46.74809
601.1569,46.69878
601.639,46.79384
602.1212,46.8534
602.6033,46.73529
603.0854,46.52708
603.5675,46.36908
604.0496,46.30814
604.5317,46.20496
605.0139,45.93083
605.496,45.5961
605.9781,45.34881
606.4602,45.21011
606.9423,45.17219
607.4244,45.25054
607.9066,45.40417
608.3887,45.44643
608.8708,45.30534
609.3529,45.14901
609.835,44.95799
610.3171,44.77578
610.7993,44.62531
611.2814,44.51127
611.7635,44.44731
612.2456,44.47322
612.7277,44.50247
613.2098,44.30789
613.692,43.86101
614.1741,43.5152
614.6562,43.37859
615.1383,43.34018
615.6204,43.28002
616.1025,43.2099
616.5847,43.22127
617.0668,43.44447
617.5489,43.64373
618.031,43.64412
618.5131,43.51515
618.9952,43.42483
619.4774,43.41888
619.9595,43.35187
620.4416,43.01498
620.9237,42.37069
621.4058,42.01378
621.8879,42.16903
622.3701,42.34956
622.8522,42.4573
623.3343,42.54015
623.8164,42.67945
624.2985,42.87907
624.7806,43.01064
625.2628,42.95646
625.7448,42.75647
626.2269,42.47683
626.709,42.10514
627.1912,41.82013
627.6733,41.70949
628.1554,41.725
628.6375,41.82319
629.1196,42.06113
629.6017,42.11451
630.0839,41.70528
630.566,41.30197
631.0481,41.31288
631.5302,41.589
632.0123,41.72069
632.4944,41.51946
632.9766,41.16821
633.4587,40.98021
633.9408,40.99141
634.4229,40.97283
634.905,40.84855
635.3871,40.79356
635.8693,40.97102
636.3514,41.23034
636.8335,41.33395
637.3156,41.20687
637.7977,41.00756
638.2798,40.78474
638.762,40.58762
639.2441,40.52694
639.7262,40.61183
640.2083,40.73739
640.6904,40.84732
641.1725,40.93436
641.6547,40.97498
642.1368,40.97805
642.6189,40.91431
643.101,40.72176
643.5831,40.5179
644.0652,40.33204
644.5474,40.19955
645.0295,40.19894
645.5116,40.3899
645.9937,40.64278
646.4758,40.73906
646.9579,40.68005
647.4401,40.63308
647.9222,40.64345
648.4043,40.62539
648.8864,40.49255
649.3685,40.27785
649.8506,40.08211
650.3328,39.85806
650.8149,39.73918
651.297,39.86768
651.7791,40.08145
652.2612,40.20033
652.7433,40.19894
653.2255,40.11702
653.7076,39.97216
654.1897,39.7951
654.6718,39.70662
655.1539,39.7487
655.636,39.77755
656.1182,39.74722
656.6003,39.7214
657.0824,39.73434
657.5645,39.78098
658.0466,39.84146
658.5287,39.91257
659.0109,39.98758
659.493,40.09708
659.9751,40.20415
660.4572,40.18664
660.9393,40.01539
661.4214,39.80338
661.9036,39.63353
662.3857,39.5103
662.8678,39.48242
663.3499,39.714
663.832,39.8236
664.3141,39.67216
664.7963,39.46924
665.2784,39.39481
665.7605,39.43318
666.2426,39.43781
666.7247,39.28902
667.2068,39.10461
667.689,39.14072
668.1711,39.38853
668.6532,39.51533
669.1353,39.39696
669.6174,39.26568
670.0995,39.4089
670.5817,39.77399
671.0638,39.84964
671.5459,39.25044
672.028,38.82568
672.5101,39.01744
672.9922,39.41766
673.4744,39.60004
673.9565,39.50994
674.4386,39.30162
674.9207,39.06657
675.4028,38.843
675.8849,38.76463
676.3671,38.85693
676.8492,38.99092
677.3313,39.23186
677.8134,39.40387
678.2955,39.33421
678.7776,39.08085
679.2598,38.84519
679.7419,38.61729
680.224,38.4893
680.7061,38.61021
681.1882,38.83001
681.6703,38.90089
682.1525,38.7891
682.6346,38.6288
683.1167,38.52271
683.5988,38.46766
684.0809,38.45049
684.563,38.49126
685.0452,38.52618
685.5273,38.56663
686.0094,38.58097
686.4915,38.52098
686.9736,38.41747
687.4557,38.36261
687.9379,38.40995
688.42,38.48277
688.9021,38.51394
689.3842,38.51819
689.8663,38.54177
690.3484,38.59143
690.8306,38.60301
691.3127,38.51822
691.7948,38.35984
692.2769,38.23983
692.759,38.15579
693.2411,38.11796
693.7233,38.16986
694.2054,38.22615
694.6875,38.25793
695.1696,38.25035
695.6517,38.16151
696.1339,37.93776
696.616,37.73838
697.0981,37.80561
697.5802,38.04975
698.0623,38.11996
698.5444,37.95044
699.0266,37.80489
699.5087,37.88356
699.9908,38.1189
700.4729,38.25183
700.955,38.13608
701.4371,38.14135
701.9193,38.48265
702.4014,38.75093
702.8835,38.59389
703.3656,38.18201
703.8477,37.93147
704.3298,38.0376
704.812,38.20918
705.2941,38.00963
705.7762,37.54467
706.2583,37.35347
706.7404,37.51273
707.2225,37.77758
707.7046,38.06881
708.1867,38.32502
708.6688,38.3652
709.1509,38.0593
709.6331,37.88151
710.1152,37.94249
710.5973,38.06109
711.0794,38.19329
711.5615,38.28859
712.0436,38.25098
712.5258,38.04919
713.0079,37.82533
713.49,37.74068
713.9721,37.77785
714.4542,37.83725
714.9363,37.91187
715.4185,38.05499
715.9006,38.38609
716.3827,38.69957
716.8648,38.53567
717.3469,37.74846
717.829,37.40489
718.3112,38.00264
718.7933,38.62784
719.2754,38.88936
719.7575,38.86506
720.2396,38.62805
720.7217,38.23576
721.2039,37.88565
721.686,37.78676
722.1681,37.88256
722.6502,37.95267
723.1323,37.99198
723.6144,38.05746
724.0966,38.1883
724.5787,38.3206
725.0608,38.37025
725.5429,38.33958
726.025,38.32347
726.5071,38.3461
726.9893,38.36162
727.4714,38.3554
727.9535,38.33259
728.4356,38.26122
728.9177,38.16673
729.3998,38.17693
729.882,38.42691
730.3641,38.76606
730.8462,38.83161
731.3283,38.61457
731.8104,38.35337
732.2925,38.06499
732.7747,37.80289
733.2568,37.57518
733.7389,37.41023
734.221,37.4272
734.7031,37.79136
735.1852,38.07925
735.6674,38.10093
736.1495,38.0982
736.6316,38.35785
737.1137,38.7706
737.5958,38.97203
738.0779,38.76875
738.5601,38.41881
739.0422,38.31898
739.5243,38.439
740.0064,38.4697
740.4885,38.36245
740.9706,38.28259
741.4528,38.34289
741.9349,38.47434
742.417,38.51329
742.8991,38.41683
743.3812,38.38508
743.8633,38.46631
744.3455,38.58277
744.8276,38.74184
745.3097,38.89083
745.7918,38.93298
746.2739,38.85158
746.756,38.76869
747.2382,38.81096
747.7203,38.94214
748.2024,39.0659
748.6845,39.1834
749.1666,39.24992
749.6487,39.24684
750.1309,39.1942
750.613,39.096
751.0951,38.94647
751.5772,38.87909
752.0593,38.95385
752.5414,39.02478
753.0236,38.97167
753.5057,38.96437
753.9878,39.24574
754.4699,39.74141
754.952,40.10026
755.4341,40.08818
755.9163,39.92273
756.3984,39.89085
756.8805,39.9692
757.3626,40.0742
757.8447,40.19681
758.3268,40.27618
758.809,40.26115
759.2911,40.17871
759.7732,40.11399
760.2553,40.00402
760.7374,40.03316
761.2195,40.35849
761.7017,40.64857
762.1838,40.73407
762.6659,40.68617
763.148,40.59753
763.6301,40.48832
764.1122,40.46804
764.5944,40.66809
765.0765,40.98201
765.5586,41.23995
766.0407,41.44977
766.5228,41.69896
767.0049,42.02523
767.4871,42.36047
767.9692,42.60731
768.4513,42.76213
768.9334,42.9513
769.4155,43.13683
769.8976,43.42198
770.3798,43.94272
770.8619,44.47778
771.344,44.83763
771.8261,45.04197
772.3082,45.24218
772.7903,45.46159
773.2725,45.73149
773.7546,46.08352
774.2367,46.49496
774.7188,46.93684
775.2009,47.40211
775.683,47.89583
776.1652,48.43047
776.6473,48.9652
777.1294,49.37189
777.6115,49.61254
778.0936,49.99636
778.5757,50.60759
779.0579,51.24771
779.54,51.8807
780.0221,52.44207
780.5042,52.78834
780.9863,52.86415
781.4684,52.99779
781.9506,53.38682
782.4327,53.73925
782.9148,53.80169
783.3969,53.72216
783.879,53.7481
784.3611,53.94586
784.8433,54.23712
785.3254,54.60099
785.8075,54.97186
786.2896,55.1042
786.7717,54.99309
787.2538,54.94475
787.736,55.02965
788.2181,55.21651
788.7002,55.50679
789.1823,55.88196
789.6644,56.17389
790.1465,56.47776
790.6286,56.56763
791.1107,56.242
791.5928,55.8683
792.075,55.66571
792.5571,55.60549
793.0392,55.58233
793.5213,55.55961
794.0034,55.56378
794.4855,55.6969
794.9677,55.8404
795.4498,55.68357
795.9319,55.27402
796.414,55.05286
796.8961,55.21275
797.3782,55.51886
797.8604,55.6572
798.3425,55.62326
798.8246,55.52321
799.3067,55.31034
799.7888,55.1144
800.2709,54.95943
800.7531,54.83965
801.2352,54.76885
801.7173,54.73578
802.1994,54.69448
802.6815,54.68501
803.1636,54.58952
803.6458,54.22713
804.1279,53.82149
804.61,53.69063
805.0921,53.78626
805.5742,53.79705
806.0563,53.54776
806.5385,53.24181
807.0206,53.25175
807.5027,53.54634
807.9848,53.68349
808.4669,53.62847
808.949,53.49143
809.4312,53.27052
809.9133,53.06386
810.3954,53.06213
810.8775,53.33153
811.3596,53.35142
811.8417,52.84482
812.3239,52.44548
812.806,52.42131
813.2881,52.51275
813.7702,52.48502
814.2523,52.32928
814.7344,52.16021
815.2166,52.05019
815.6987,51.91686
816.1808,51.5904
816.6629,51.19885
817.145,51.04659
817.6271,51.15271
818.1093,51.37886
818.5914,51.67418
819.0735,51.87262
819.5556,51.55782
820.0377,50.56576
820.5198,50.13803
821.002,50.62307
821.4841,51.00573
821.9662,50.78732
822.4483,50.36426
822.9304,50.17202
823.4125,50.20813
823.8947,50.23598
824.3768,50.31378
824.8589,50.25012
825.341,49.84286
825.8231,49.32839
826.3052,48.95699
826.7874,48.74437
827.2695,48.59481
827.7516,48.46218
828.2337,48.33002
828.7158,48.14358
829.1979,47.93388
829.6801,47.89192
830.1622,48.03621
830.6443,48.00668
831.1264,47.59115
831.6085,47.00512
832.0906,46.59792
832.5728,46.39583
833.0549,46.19204
833.537,45.97019
834.0191,45.77214
834.5012,45.66866
834.9833,45.54399
835.4655,45.27133
835.9476,44.88031
836.4297,44.52969
836.9118,44.23804
837.3939,44.04325
837.876,44.08332
838.3582,44.15276
838.8403,44.02722
839.3224,43.70227
839.8045,43.21133
840.2866,42.56896
840.7687,41.96706
841.2509,41.74779
841.733,41.82585
842.2151,41.6698
842.6972,41.25285
843.1793,40.94185
843.6614,40.90882
844.1436,40.91884
844.6257,40.68689
845.1078,40.21973
845.5899,39.83978
846.072,39.57617
846.5541,39.3621
847.0363,39.24841
847.5184,39.12619
848.0005,38.87289
848.4826,38.56729
848.9647,38.39611
849.4468,38.42702
849.929,38.50238
850.4111,38.62779
850.8932,38.6838
851.3753,38.45394
851.8574,38.07212
852.3395,37.8756
852.8217,37.95449
853.3038,38.09603
853.7859,38.10701
854.268,38.00794
854.7501,37.82047
855.2322,37.54446
855.7144,37.41444
856.1965,37.51478
856.6786,37.59782
857.1607,37.45776
857.6428,37.17585
858.1249,37.01587
858.6071,37.05291
859.0892,37.04982
859.5713,36.98727
860.0534,36.90797
860.5355,36.8406
861.0176,36.75612
861.4998,36.60598
861.9819,36.38893
862.464,36.18436
862.9461,35.96544
863.4282,35.82996
863.9103,35.94192
864.3925,36.12765
864.8746,36.11756
865.3567,35.91762
865.8388,35.72732
866.3209,35.66239
866.803,35.66475
867.2852,35.60274
867.7673,35.51971
868.2494,35.76155
868.7315,36.36555
869.2136,36.61541
869.6957,36.14434
870.1779,35.43726
870.66,35.15412
871.1421,35.2989
871.6242,35.30003
872.1063,35.05529
872.5884,34.8467
873.0705,34.69242
873.5526,34.61503
874.0347,34.70348
874.5168,34.87104
874.999,34.89165
875.4811,34.66114
875.9632,34.49261
876.4453,34.52162
876.9274,34.62654
877.4095,34.81553
877.8917,34.97913
878.3738,34.89944
878.8559,34.56145
879.338,34.24071
879.8201,34.16022
880.3022,34.21044
880.7844,34.25615
881.2665,34.27828
881.7486,34.17615
882.2307,33.94291
882.7128,33.73074
883.1949,33.63385
883.6771,33.62854
884.1592,33.68443
884.6413,33.82022
885.1234,33.87315
885.6055,33.82232
886.0876,33.73448
886.5698,33.5909
887.0519,33.46348
887.534,33.48234
888.0161,33.62824
888.4982,33.60361
888.9803,33.20505
889.4625,32.91141
889.9446,32.81231
890.4267,32.83537
890.9088,33.02132
891.3909,33.26625
891.873,33.36953
892.3552,33.27171
892.8373,33.1657
893.3194,33.19016
893.8015,33.25499
894.2836,33.25901
894.7657,33.23
895.2479,33.23252
895.73,33.27827
896.2121,33.35315
896.6942,33.46625
897.1763,33.53308
897.6584,33.32592
898.1406,32.88097
898.6227,32.55881
899.1048,32.39727
899.5869,32.29174
900.069,32.18471
900.5511,32.13363
901.0333,32.24038
901.5154,32.51521
901.9975,32.7206
902.4796,32.88879
902.9617,32.92742
903.4438,32.73751
903.926,32.49124
904.4081,32.25876
904.8902,32.06585
905.3723,31.99454
905.8544,32.11098
906.3365,32.18527
906.8187,32.10629
907.3008,32.02818
907.7829,32.06059
908.265,32.14193
908.7471,32.16843
909.2292,32.1349
909.7114,32.14068
910.1935,32.27692
910.6756,32.42418
911.1577,32.47311
911.6398,32.44122
912.1219,32.3337
912.6041,32.17253
913.0862,32.01326
913.5683,31.88219
914.0504,31.83509
914.5325,31.97716
915.0146,32.27177
915.4968,32.5439
915.9789,32.79868
916.461,32.87495
916.9431,32.71151
917.4252,32.44971
917.9073,32.17688
918.3895,31.92172
918.8716,31.78996
919.3537,31.81145
919.8358,31.88226
920.3179,32.0626
920.8,32.20398
921.2822,32.2087
921.7643,32.16991
922.2464,32.21151
922.7285,32.32738
923.2106,32.34599
923.6927,32.12202
924.1749,31.96247
924.657,32.02371
925.1391,32.11856
925.6212,32.0518
926.1033,31.91439
926.5854,31.94926
927.0676,32.2336
927.5497,32.46743
928.0318,32.37994
928.5139,32.2118
928.996,32.22821
929.4781,32.34037
929.9603,32.33043
930.4424,32.1962
930.9245,32.17231
931.4066,32.43203
931.8887,32.73806
932.3708,32.62552
932.853,32.23055
933.3351,32.16268
933.8172,32.43407
934.2993,32.66882
934.7814,32.72567
935.2635,32.7091
935.7457,32.72351
936.2278,32.76929
936.7099,32.85604
937.192,32.99664
937.6741,33.11681
938.1563,33.18737
938.6384,33.28706
939.1205,33.49075
939.6026,33.72678
940.0847,33.8775
940.5668,33.94554
941.049,33.91185
941.5311,33.55241
942.0132,33.40124
942.4953,33.7855
942.9774,34.20718
943.4595,34.2369
943.9417,34.01808
944.4238,33.96762
944.9059,34.207
945.388,34.45818
945.8701,34.71867
946.3522,34.85911
946.8344,34.62207
947.3165,34.3061
947.7986,34.4056
948.2807,34.88704
948.7628,35.20114
949.2449,34.9951
949.7271,34.67643
950.2092,34.5654
950.6913,34.63265
951.1734,34.92209
951.6555,35.34609
952.1376,35.64876
952.6198,35.74672
953.1019,35.76472
953.584,35.83401
954.0661,35.89421
954.5482,35.74713
955.0303,35.43648
955.5124,35.2422
955.9945,35.20345
956.4766,35.3127
956.9587,35.58829
957.4409,35.88372
957.923,35.94622
958.4051,35.78155
958.8872,35.71487
959.3693,35.77963
959.8514,35.79362
960.3336,35.70078
960.8157,35.58768
961.2978,35.51786
961.7799,35.47633
962.262,35.41119
962.7441,35.26891
963.2263,35.27272
963.7084,35.66553
964.1905,35.87313
964.6726,35.54634
965.1547,35.13868
965.6368,35.09845
966.119,35.33402
966.6011,35.38165
967.0832,35.08795
967.5653,34.80138
968.0474,34.64848
968.5295,34.46476
969.0117,34.07519
969.4938,33.6442
969.9759,33.40151
970.458,33.36198
970.9401,33.37308
971.4222,33.41354
971.9044,33.41445
972.3865,33.39006
972.8686,33.2592
973.3507,32.80227
973.8328,32.19678
974.3149,31.86894
974.7971,31.92656
975.2792,32.04461
975.7613,32.00634
976.2434,31.84465
976.7255,31.53829
977.2076,31.16363
977.6898,30.90221
978.1719,30.74859
978.654,30.55835
979.1361,30.26175
979.6182,29.93456
980.1003,29.63791
980.5825,29.39683
981.0646,29.3718
981.5467,29.52123
982.0288,29.49233
982.5109,29.21599
982.993,28.83012
983.4752,28.40237
983.9573,28.02851
984.4394,27.9378
984.9215,28.13356
985.4036,28.12284
985.8857,27.86847
986.3679,27.61826
986.85,27.42486
987.3321,27.29203
987.8142,27.24445
988.2963,27.23937
988.7784,27.12527
989.2606,26.82381
989.7427,26.71143
990.2248,26.95922
990.7069,27.05841
991.189,26.7443
991.6711,26.33459
992.1533,26.11514
992.6354,26.06509
993.1175,26.06675
993.5996,26.17559
994.0817,26.23621
994.5638,26.19628
995.046,26.16833
995.5281,26.2707
996.0102,26.35467
996.4923,26.20009
996.9744,25.84599
997.4565,25.63457
997.9387,25.72655
998.4208,25.80468
998.9029,25.80064
999.385,25.74738
999.8671,25.61152
1000.349,25.46783
1000.831,25.44021
1001.313,25.52912
1001.796,25.5812
1002.278,25.48985
1002.76,25.41353
1003.242,25.46746
1003.724,25.55044
1004.206,25.56018
1004.688,25.5271
1005.17,25.53601
1005.653,25.60166
1006.135,25.64834
1006.617,25.65837
1007.099,25.58891
1007.581,25.27237
1008.063,24.93107
1008.545,24.98026
1009.027,25.29094
1009.509,25.36355
1009.992,25.04482
1010.474,24.7442
1010.956,24.87501
1011.438,25.17352
1011.92,25.22221
1012.402,25.13322
1012.884,25.20244
1013.366,25.41801
1013.849,25.53348
1014.331,25.44332
1014.813,25.29688
1015.295,25.27148
1015.777,25.30625
1016.259,25.22098
1016.741,25.05239
1017.223,24.97573
1017.705,25.01389
1018.188,25.11983
1018.67,25.27449
1019.152,25.39534
1019.634,25.35015
1020.116,25.17812
1020.598,25.05338
1021.08,24.97747
1021.562,24.99639
1022.044,25.12258
1022.527,25.2561
1023.009,25.33426
1023.491,25.41802
1023.973,25.63731
1024.455,25.97243
1024.937,26.05658
1025.419,25.85364
1025.901,25.70667
1026.384,25.68621
1026.866,25.69163
1027.348,25.65971
1027.83,25.61663
1028.312,25.61057
1028.794,25.64254
1029.276,25.69262
1029.758,25.77284
1030.24,25.83477
1030.723,25.88623
1031.205,25.86652
1031.687,25.67557
1032.169,25.4558
1032.651,25.52527
1033.133,25.93977
1033.615,26.16396
1034.097,26.10198
1034.579,26.05684
1035.062,26.08245
1035.544,26.14112
1036.026,26.21271
1036.508,26.29778
1036.99,26.40809
1037.472,26.56255
1037.954,26.62939
1038.436,26.44283
1038.919,26.43969
1039.401,26.94886
1039.883,27.38377
1040.365,27.23653
1040.847,26.79129
1041.329,26.65332
1041.811,26.87834
1042.293,27.11053
1042.776,27.46618
1043.258,27.65715
1043.74,27.42459
1044.222,27.21735
1044.704,27.4562
1045.186,27.88182
1045.668,27.92824
1046.15,27.47886
1046.632,27.23661
1047.115,27.45004
1047.597,27.63782
1048.079,27.64795
1048.561,27.62855
1049.043,27.66794
1049.525,27.75754
1050.007,27.9009
1050.489,28.11173
1050.971,28.20035
1051.454,27.91028
1051.936,27.79271
1052.418,28.21191
1052.9,28.66598
1053.382,28.75051
1053.864,28.62245
1054.346,28.62485
1054.828,28.81144
1055.311,28.88547
1055.793,28.59243
1056.275,28.4137
1056.757,28.64684
1057.239,28.92495
1057.721,28.95308
1058.203,28.83694
1058.685,28.76439
1059.167,28.76851
1059.65,28.87579
1060.132,29.2581
1060.614,29.52486
1061.096,29.49208
1061.578,29.32455
1062.06,29.02844
1062.542,28.74129
1063.024,28.68659
1063.506,28.88541
1063.989,29.11482
1064.471,29.4148
1064.953,29.55999
1065.435,29.30672
1065.917,29.01304
1066.399,28.98293
1066.881,29.08278
1067.363,29.06344
1067.846,28.9057
1068.328,28.8076
1068.81,28.84939
1069.292,28.95253
1069.774,29.19559
1070.256,29.37186
1070.738,29.25173
1071.22,29.0084
1071.703,28.93453
1072.185,29.02407
1072.667,28.95971
1073.149,28.48241
1073.631,28.16573
1074.113,28.47451
1074.595,28.83298
1075.077,28.7974
1075.559,28.57273
1076.042,28.43258
1076.524,28.40605
1077.006,28.41951
1077.488,28.48345
1077.97,28.4692
1078.452,28.24655
1078.934,28.00241
1079.416,27.83106
1079.898,27.73195
1080.38,27.7323
1080.863,27.79458
1081.345,27.80328
1081.827,27.71394
1082.309,27.61533
1082.791,27.61232
1083.273,27.53591
1083.755,27.13997
1084.237,26.72729
1084.72,26.71926
1085.202,26.9657
1085.684,26.96923
1086.166,26.57444
1086.648,26.20162
1087.13,25.96353
1087.612,25.87234
1088.094,26.10068
1088.577,26.33283
1089.059,26.23275
1089.541,25.91615
1090.023,25.64979
1090.505,25.4872
1090.987,25.41988
1091.469,25.58663
1091.951,25.65831
1092.433,25.39754
1092.916,25.08161
1093.398,24.91861
1093.88,24.86255
1094.362,24.83085
1094.844,24.80424
1095.326,24.7329
1095.808,24.55697
1096.29,24.39994
1096.772,24.27385
1097.255,24.20966
1097.737,24.29262
1098.219,24.40812
1098.701,24.3902
1099.183,24.24491
1099.665,24.13268
1100.147,24.15542
1100.629,24.07559
1101.112,23.65665
1101.594,23.33002
1102.076,23.43046
1102.558,23.63569
1103.04,23.57075
1103.522,23.29678
1104.004,23.13602
1104.486,23.16629
1104.969,23.20888
1105.451,23.28901
1105.933,23.30306
1106.415,23.13963
1106.897,22.96538
1107.379,22.95302
1107.861,23.02575
1108.343,22.96279
1108.825,22.70208
1109.307,22.57294
1109.79,22.65712
1110.272,22.79947
1110.754,23.08044
1111.236,23.29359
1111.718,23.30344
1112.2,23.17301
1112.682,22.96066
1113.164,22.65672
1113.647,22.52024
1114.129,22.78726
1114.611,22.82384
1115.093,22.31612
1115.575,21.94626
1116.057,22.09434
1116.539,22.43976
1117.021,22.62931
1117.504,22.68254
1117.986,22.74933
1118.468,22.88813
1118.95,22.89429
1119.432,22.70119
1119.914,22.49887
1120.396,22.30829
1120.878,22.19055
1121.36,22.20835
1121.843,22.33168
1122.325,22.48059
1122.807,22.66823
1123.289,22.79705
1123.771,22.84948
1124.253,22.90511
1124.735,22.98277
1125.217,23.06077
1125.699,23.12492
1126.182,23.18499
1126.664,23.27172
1127.146,23.37679
1127.628,23.32012
1128.11,23.07502
1128.592,22.90574
1129.074,22.84609
1129.556,22.88793
1130.039,23.04438
1130.521,23.20725
1131.003,23.2605
1131.485,23.2088
1131.967,23.00673
1132.449,22.67481
1132.931,22.6221
1133.413,22.86358
1133.896,23.06178
1134.378,23.11359
1134.86,23.15672
1135.342,23.30272
1135.824,23.47861
1136.306,23.55878
1136.788,23.55478
1137.27,23.45429
1137.752,23.30368
1138.234,23.37545
1138.717,23.6767
1139.199,23.86639
1139.681,23.76995
1140.163,23.60074
1140.645,23.63128
1141.127,23.71599
1141.609,23.52646
1142.091,23.20744
1142.574,23.0747
1143.056,23.12592
1143.538,23.24362
1144.02,23.37753
1144.502,23.47363
1144.984,23.48716
1145.466,23.46396
1145.948,23.45623
1146.431,23.43622
1146.913,23.32781
1147.395,23.19895
1147.877,23.20553
1148.359,23.331
1148.841,23.38354
1149.323,23.26481
1149.805,23.17509
1150.287,23.25065
1150.77,23.38912
1151.252,23.59161
1151.734,23.75694
1152.216,23.73145
1152.698,23.59411
1153.18,23.54165
1153.662,23.61519
1154.144,23.70238
1154.626,23.78809
1155.109,23.85013
1155.591,23.90414
1156.073,23.90746
1156.555,23.78988
1157.037,23.63447
1157.519,23.53572
1158.001,23.49921
1158.483,23.51359
1158.966,23.61098
1159.448,23.68745
1159.93,23.68925
1160.412,23.73613
1160.894,23.92247
1161.376,24.09528
1161.858,24.15251
1162.34,24.10917
1162.822,23.97805
1163.305,23.7408
1163.787,23.60947
1164.269,23.59512
1164.751,23.66922
1165.233,23.86948
1165.715,24.03393
1166.197,24.07904
1166.679,24.07303
1167.161,24.09285
1167.644,24.13314
1168.126,24.18449
1168.608,24.24951
1169.09,24.21636
1169.572,24.07566
1170.054,24.0279
1170.536,24.12938
1171.018,24.27346
1171.5,24.3997
1171.983,24.43222
1172.465,24.15188
1172.947,23.7152
1173.429,23.70251
1173.911,23.99873
1174.393,24.15987
1174.875,24.15992
1175.357,24.21687
1175.84,24.40774
1176.322,24.5994
1176.804,24.70465
1177.286,24.70718
1177.768,24.47883
1178.25,24.21423
1178.732,24.21696
1179.214,24.40001
1179.697,24.61713
1180.179,24.7996
1180.661,24.81508
1181.143,24.58662
1181.625,24.37406
1182.107,24.33709
1182.589,24.36651
1183.071,24.42544
1183.553,24.4865
1184.036,24.5137
1184.518,24.52994
1185.0,24.59375
1185.482,24.70828
1185.964,24.77747
1186.446,24.7128
1186.928,24.71025
1187.41,24.902
1187.892,25.03817
1188.375,24.96671
1188.857,24.83405
1189.339,24.78297
1189.821,24.77707
1190.303,24.70759
1190.785,24.55814
1191.267,24.43056
1191.749,24.26832
1192.232,24.3111
1192.714,24.67531
1193.196,25.01804
1193.678,25.16903
1194.16,25.21826
1194.642,25.28528
1195.124,25.32814
1195.606,25.12898
1196.089,24.70291
1196.571,24.46386
1197.053,24.42807
1197.535,24.54031
1198.017,24.77307
1198.499,24.8874
1198.981,24.72556
1199.463,24.51255
1199.945,24.58478
1200.427,24.7868
1200.91,24.80976
1201.392,24.71713
1201.874,24.5869
1202.356,24.48371
1202.838,24.60308
1203.32,24.95086
1203.802,25.17495
1204.284,25.01749
1204.767,24.83927
1205.249,24.97563
1205.731,25.13767
1206.213,25.03204
1206.695,24.85155
1207.177,24.85882
1207.659,25.00054
1208.141,25.07802
1208.624,25.05139
1209.106,24.97958
1209.588,24.83195
1210.07,24.70791
1210.552,24.55295
1211.034,24.51478
1211.516,24.81442
1211.998,25.1383
1212.48,25.14907
1212.963,24.92696
1213.445,24.77223
1213.927,24.68956
1214.409,24.6663
1214.891,24.74488
1215.373,24.68575
1215.855,24.39919
1216.337,24.20481
1216.819,24.28971
1217.302,24.4502
1217.784,24.43108
1218.266,24.30096
1218.748,24.27493
1219.23,24.33146
1219.712,24.37742
1220.194,24.40024
1220.676,24.33237
1221.159,24.18712
1221.641,24.17508
1222.123,24.41821
1222.605,24.61004
1223.087,24.27854
1223.569,23.89789
1224.051,24.15511
1224.533,24.58333
1225.016,24.48902
1225.498,24.1044
1225.98,24.0397
1226.462,24.32565
1226.944,24.4052
1227.426,23.96621
1227.908,23.66284
1228.39,23.87756
1228.872,24.06496
1229.354,23.94387
1229.837,23.7584
1230.319,23.69257
1230.801,23.70263
1231.283,23.72071
1231.765,23.74399
1232.247,23.65953
1232.729,23.40868
1233.211,23.23403
1233.694,23.16163
1234.176,23.10785
1234.658,23.04741
1235.14,23.0052
1235.622,23.00458
1236.104,23.00922
1236.586,22.94981
1237.068,22.8459
1237.551,22.78917
1238.033,22.76273
1238.515,22.68616
1238.997,22.55968
1239.479,22.41498
1239.961,22.26905
1240.443,22.15051
1240.925,22.06891
1241.407,22.06745
1241.89,22.27988
1242.372,22.49579
1242.854,22.50681
1243.336,22.40152
1243.818,22.23901
1244.3,22.0775
1244.782,22.04525
1245.264,22.14288
1245.746,22.10703
1246.229,21.71608
1246.711,21.47243
1247.193,21.57084
1247.675,21.67944
1248.157,21.67056
1248.639,21.65516
1249.121,21.72821
1249.603,21.83196
1250.085,21.8847
1250.568,21.87699
1251.05,21.57387
1251.532,20.91161
1252.014,20.7221
1252.496,21.08751
1252.978,21.32539
1253.46,21.23159
1253.942,21.12724
1254.425,21.23694
1254.907,21.40648
1255.389,21.41873
1255.871,21.34493
1256.353,21.29928
1256.835,21.27803
1257.317,21.30701
1257.799,21.3453
1258.281,21.27848
1258.764,21.1061
1259.246,20.96387
1259.728,20.90375
1260.21,20.90335
1260.692,21.011
1261.174,21.09868
1261.656,21.11716
1262.138,21.08104
1262.62,20.98624
1263.103,20.8531
1263.585,20.67554
1264.067,20.4755
1264.549,20.46044
1265.031,20.72579
1265.513,20.83468
1265.995,20.73566
1266.477,20.71679
1266.96,20.86203
1267.442,20.93853
1267.924,20.80669
1268.406,20.6414
1268.888,20.66649
1269.37,20.77787
1269.852,20.71133
1270.334,20.54832
1270.817,20.46936
1271.299,20.48303
1271.781,20.62392
1272.263,20.84406
1272.745,20.94813
1273.227,20.86109
1273.709,20.815
1274.191,21.03573
1274.673,21.21079
1275.156,21.12367
1275.638,21.00773
1276.12,21.06823
1276.602,21.14537
1277.084,21.00931
1277.566,20.73465
1278.048,20.57871
1278.53,20.54384
1279.012,20.62515
1279.495,20.87068
1279.977,21.06335
1280.459,21.19129
1280.941,21.19126
1281.423,21.02525
1281.905,20.86674
1282.387,20.85988
1282.869,20.89769
1283.352,20.77796
1283.834,20.5754
1284.316,20.44864
1284.798,20.39865
