Raman Shift,Intensity
55.666,623.0
57.065,665.0
58.464,721.0
59.863,783.0
61.262,847.358
62.661,863.0
64.059,1012.0
65.458,1129.0
66.856,1258.0
68.253,1498.0
69.651,1761.0
71.048,2138.0
72.445,2530.0
73.842,3138.0
75.239,3849.0
76.635,4618.0
78.031,5754.0
79.427,7085.0
80.823,8893.0
82.218,11078.0
83.614,13504.0
85.009,16249.0
86.404,18951.0
87.798,22597.0
89.193,24936.0
90.587,26757.0
91.981,28256.0
93.375,30585.0
94.768,29771.0
96.161,30637.0
97.554,30931.0
98.947,29566.0
100.34,26333.0
101.732,22154.0
103.124,18235.0
104.516,15196.0
105.908,13028.0
107.3,11506.0
108.691,10461.0
110.082,9755.0
111.473,9282.0
112.864,8782.0
114.254,8687.0
115.644,8394.0
117.034,8260.0
118.424,7879.0
119.813,7738.0
121.203,7858.0
122.592,7802.0
123.981,7840.0
125.369,8027.0
126.758,8132.0
128.146,8384.0
129.534,8479.0
130.922,8741.0
132.309,8835.0
133.696,8794.0
135.083,8658.0
136.47,8721.0
137.857,8536.0
139.243,8426.0
140.63,8184.0
142.016,8086.0
143.401,7998.0
144.787,8026.0
146.172,8129.0
147.557,8077.0
148.942,8243.0
150.327,8346.0
151.711,8422.0
153.096,8550.0
154.48,8708.0
155.863,8884.0
157.247,9293.0
158.63,9708.0
160.013,10383.0
161.396,11050.0
162.779,11610.0
164.161,12158.0
165.544,12604.0
166.926,12842.0
168.308,12622.0
169.689,12138.0
171.07,11515.0
172.452,10935.0
173.833,10232.0
175.213,9543.0
176.594,8932.0
177.974,8394.0
179.354,8162.0
180.734,7958.0
182.114,7902.0
183.493,8036.0
184.872,8214.0
186.251,8480.0
187.63,8614.0
189.008,8595.0
190.387,8701.0
191.765,8579.0
193.143,8704.0
194.52,8841.0
195.898,9049.0
197.275,9517.0
198.652,9958.0
200.029,10609.0
201.405,11059.0
202.782,11392.0
204.158,11606.0
205.534,11884.0
206.909,11762.0
208.285,11388.0
209.66,11129.0
211.035,10982.0
212.41,10945.445
213.784,10966.0
215.159,11246.0
216.533,11564.0
217.907,12073.0
219.281,12732.0
220.654,13551.0
222.027,14339.0
223.4,15225.0
224.773,16243.0
226.146,16989.0
227.518,17478.0
228.891,17630.0
230.263,17451.0
231.634,16957.0
233.006,15905.0
234.377,14984.0
235.748,14452.0
237.119,14064.0
238.49,14000.0
239.86,14464.0
241.231,14781.0
242.601,15328.0
243.97,15752.0
245.34,15832.0
246.709,15641.0
248.079,15101.0
249.448,14744.0
250.816,13991.0
252.185,13660.0
253.553,13221.0
254.921,12808.0
256.289,12732.0
257.657,12378.0
259.024,12256.0
260.391,12063.0
261.758,12099.0
263.125,12386.0
264.492,13008.0
265.858,14068.0
267.224,15556.0
268.59,17985.0
269.956,20770.0
271.321,24275.0
272.687,27931.0
274.052,30885.0
275.416,32569.0
276.781,32656.0
278.146,29920.0
279.51,26272.0
280.874,23058.0
282.237,20062.0
283.601,17859.0
284.964,15946.0
286.327,14899.0
287.69,14370.0
289.053,13796.0
290.416,13525.0
291.778,13678.0
293.14,13749.0
294.502,14161.0
295.863,14503.0
297.225,14867.0
298.586,15207.0
299.947,15525.0
301.308,15294.0
302.668,14986.0
304.029,14468.0
305.389,14069.0
306.749,13588.0
308.108,13058.0
309.468,13136.0
310.827,12978.0
312.186,13239.0
313.545,12839.0
314.903,12798.0
316.262,12348.0
317.62,11784.0
318.978,11394.0
320.336,10922.0
321.693,10610.0
323.051,10536.0
324.408,10499.0
325.765,10396.0
327.121,10252.904
328.478,10112.0
329.834,9844.0
331.19,9556.0
332.546,9188.0
333.902,8756.0
335.257,8369.0
336.612,8014.0
337.967,7745.0
339.322,7444.0
340.677,7288.0
342.031,7274.0
343.385,7278.0
344.739,7533.0
346.093,7745.0
347.446,7822.0
348.799,8002.0
350.153,8158.0
351.505,8210.0
352.858,8128.0
354.21,8093.0
355.563,8034.0
356.915,7964.0
358.267,8070.0
359.618,8199.0
360.969,8174.0
362.321,8382.0
363.672,8502.0
365.022,8737.0
366.373,8928.0
367.723,8884.0
369.073,8897.0
370.423,8842.0
371.773,8716.0
373.122,8591.0
374.471,8469.0
375.821,8425.0
377.169,8247.0
378.518,8527.0
379.866,8606.0
381.215,8934.0
382.563,9386.0
383.91,9968.0
385.258,10654.0
386.605,11697.0
387.952,12446.0
389.299,12966.0
390.646,13407.0
391.992,13085.0
393.339,12571.0
394.685,11936.0
396.031,11250.0
397.376,10894.0
398.722,10374.0
400.067,10152.0
401.412,9930.0
402.757,9718.0
404.101,9932.0
405.446,9982.0
406.79,10170.0
408.134,10668.0
409.478,11159.0
410.821,11979.0
412.165,12976.0
413.508,14252.0
414.851,16333.0
416.193,18992.0
417.536,22442.0
418.878,27153.0
420.22,33240.0
421.562,39085.0
422.904,44324.0
424.245,49097.0
425.586,51338.0
426.927,49750.0
428.268,47227.0
429.609,42419.0
430.949,38582.0
432.289,35656.0
433.629,33449.0
434.969,31086.0
436.309,30197.0
437.648,28915.0
438.987,28601.0
440.326,28416.0
441.665,28531.0
443.003,29506.0
444.342,31822.0
445.68,34395.0
447.018,38000.0
448.355,42124.0
449.693,45598.0
451.03,49008.0
452.367,51538.0
453.704,54840.0
455.041,55280.0
456.377,57068.0
457.713,55848.0
459.049,55043.0
460.385,51478.0
461.721,48194.0
463.056,44184.0
464.391,39176.0
465.726,34838.0
467.061,31426.0
468.395,27716.0
469.73,24880.0
471.064,22836.0
472.398,20452.0
473.731,19118.0
475.065,17348.0
476.398,16267.0
477.731,15408.0
479.064,14760.0
480.397,14223.0
481.729,14007.0
483.062,13784.0
484.394,13758.0
485.725,13756.0
487.057,13809.0
488.389,13943.0
489.72,14086.0
491.051,14261.422
492.382,14337.0
493.712,14738.0
495.043,15077.0
496.373,15443.0
497.703,15994.0
499.032,16899.0
500.362,17696.0
501.691,18454.0
503.02,19245.0
504.349,19667.0
505.678,20178.0
507.007,20219.0
508.335,20372.0
509.663,20241.0
510.991,19741.0
512.319,19372.0
513.646,18605.0
514.973,18694.0
516.3,18778.0
517.627,20004.0
518.954,21552.0
520.28,23116.0
521.607,25487.0
522.933,26903.0
524.259,27092.0
525.584,25733.0
526.91,23006.0
528.235,20763.0
529.56,17942.0
530.885,15962.0
532.209,14194.0
533.534,12955.0
534.858,12378.0
536.182,11787.0
537.506,11337.0
538.829,11226.0
540.152,11139.0
541.476,11072.0
542.799,11112.0
544.121,11211.146
545.444,11407.0
546.766,11670.0
548.088,11988.0
549.41,12500.0
550.732,13099.0
552.053,13696.0
553.375,14752.0
554.696,15718.0
556.017,17257.0
557.337,19696.0
558.658,22869.0
559.978,27635.0
561.298,33713.0
562.618,42010.0
563.938,49774.0
565.257,55709.0
566.576,58189.0
567.895,53270.0
569.214,46108.0
570.533,38014.0
571.851,31013.0
573.17,25500.0
574.488,22301.0
575.805,19809.0
577.123,18548.0
578.44,17898.0
579.758,17735.0
581.075,18194.0
582.391,18528.0
583.708,19678.0
585.024,20570.0
586.341,21763.0
587.657,23539.0
588.972,24773.0
590.288,26671.0
591.603,28200.0
592.918,30291.0
594.233,33486.0
595.548,37104.0
596.863,40224.0
598.177,42691.0
599.491,43777.0
600.805,44246.0
602.119,42288.0
603.432,40008.0
604.746,37239.0
606.059,34700.0
607.372,32090.0
608.685,29848.0
609.997,28336.0
611.309,26702.0
612.621,25412.0
613.933,24014.0
615.245,22484.0
616.557,20805.0
617.868,19329.0
619.179,17565.0
620.49,16247.0
621.801,14910.0
623.111,13998.0
624.421,12908.0
625.731,12322.0
627.041,11601.0
628.351,11399.0
629.66,10631.0
630.97,10319.0
632.279,10146.0
633.588,9644.0
634.896,9421.0
636.205,9018.0
637.513,8963.0
638.821,8697.0
640.129,8537.0
641.437,8465.0
642.744,8265.0
644.051,8165.0
645.358,7991.0
646.665,7935.596
647.972,7877.0
649.278,7855.0
650.584,7826.0
651.89,7802.0
653.196,7941.0
654.502,7934.0
655.807,8098.0
657.113,7985.0
658.418,8147.0
659.722,8357.0
661.027,8314.0
662.331,8462.0
663.636,8572.0
664.94,8460.0
666.244,8373.0
667.547,8357.0
668.851,8306.0
670.154,8399.0
671.457,8350.0
672.76,8267.0
674.062,8444.0
675.365,8478.0
676.667,8577.0
677.969,8698.0
679.271,8767.0
680.572,8935.0
681.874,9035.0
683.175,9293.0
684.476,9592.0
685.777,9567.0
687.077,9802.0
688.378,9623.0
689.678,9767.0
690.978,9420.0
692.278,9029.0
693.577,8425.0
694.877,8390.0
696.176,7893.0
697.475,7785.0
698.774,7440.0
700.072,7334.0
701.371,7186.0
702.669,6988.0
703.967,6848.0
705.265,6882.0
706.562,6868.0
707.86,6735.0
709.157,6546.0
710.454,6658.0
711.751,6414.0
713.047,6542.0
714.344,6455.0
715.64,6475.0
716.936,6322.0
718.232,6298.0
719.527,6351.0
720.823,6346.0
722.118,6292.0
723.413,6242.0
724.708,6256.0
726.002,6229.0
727.297,6262.0
728.591,6263.258
729.885,6245.561
731.179,6284.0
732.472,6220.0
733.766,6211.0
735.059,6212.0
736.352,6237.0
737.645,6214.0
738.937,6203.0
740.23,6208.0
741.522,6185.728
742.814,6191.183
744.106,6166.0
745.397,6177.0
746.689,6186.0
747.98,6146.0
749.271,6159.0
750.562,6129.0
751.853,6191.0
753.143,6215.0
754.433,6195.0
755.723,6224.0
757.013,6208.0
758.303,6214.0
759.592,6212.0
760.881,6222.0
762.17,6189.0
763.459,6221.0
764.748,6284.0
766.036,6184.0
767.325,6381.0
768.613,6259.0
769.901,6294.0
771.188,6335.0
772.476,6309.0
773.763,6384.0
775.05,6284.0
776.337,6412.0
777.624,6440.0
778.91,6327.0
780.196,6377.0
781.482,6444.0
782.768,6414.0
784.054,6381.0
785.339,6487.0
786.625,6514.0
787.91,6515.0
789.195,6543.0
790.479,6638.0
791.764,6544.0
793.048,6683.0
794.332,6646.0
795.616,6815.0
796.9,6794.0
798.183,6892.0
799.467,6815.0
800.75,6867.0
802.033,6947.0
803.316,6930.0
804.598,7071.0
805.88,7103.0
807.163,7192.0
808.445,7187.0
809.726,7290.0
811.008,7374.0
812.289,7490.0
813.57,7538.0
814.851,7780.0
816.132,7897.0
817.413,8165.0
818.693,8270.0
819.973,8520.0
821.253,8889.0
822.533,9206.0
823.813,9772.0
825.092,10042.0
826.371,10481.0
827.65,10919.0
828.929,11300.0
830.208,11483.98
831.486,11636.121
832.764,11619.0
834.042,11617.0
835.32,11404.0
836.598,11199.0
837.875,11081.0
839.152,10825.0
840.429,10644.0
841.706,10744.0
842.983,10534.0
844.259,10546.0
845.536,10580.765
846.812,10642.0
848.088,10733.0
849.363,10952.0
850.639,11178.0
851.914,11500.0
853.189,11816.14
854.464,12067.0
855.739,12555.0
857.013,13102.0
858.288,13504.0
859.562,13903.0
860.836,14594.0
862.11,15205.0
863.383,15543.0
864.656,16508.0
865.93,16842.0
867.203,17567.0
868.475,18181.0
869.748,18249.0
871.02,18238.0
872.292,18611.0
873.564,18363.0
874.836,18178.0
876.108,17940.0
877.379,17664.0
878.65,17772.0
879.922,17574.0
881.192,17671.0
882.463,17998.0
883.733,18582.0
885.004,19034.0
886.274,19859.0
887.544,20298.0
888.813,21044.0
890.083,21022.0
891.352,21105.0
892.621,21147.0
893.89,20865.0
895.159,20899.0
896.427,21051.0
897.695,21382.0
898.964,22368.0
900.232,23232.0
901.499,24384.0
902.767,26002.0
904.034,28080.0
905.301,29937.0
906.568,32328.0
907.835,35360.0
909.102,37842.0
910.368,40468.0
911.634,43286.0
912.9,46000.0
914.166,47552.0
915.432,49736.0
916.697,49808.0
917.962,48840.0
919.227,47835.0
920.492,44782.0
921.757,41318.0
923.021,37785.0
924.285,34560.0
925.55,31435.0
926.813,28481.0
928.077,25852.0
929.341,23776.0
930.604,21726.0
931.867,20312.0
933.13,18912.0
934.393,17787.414
935.655,17028.0
936.918,16091.0
938.18,15512.815
939.442,15118.0
940.703,14602.0
941.965,14336.0
943.226,14088.0
944.488,13719.0
945.749,13568.0
947.009,13667.0
948.27,13561.0
949.53,13549.0
950.791,13486.0
952.051,13776.0
953.311,13828.0
954.57,14062.0
955.83,14423.0
957.089,14673.0
958.348,14939.0
959.607,14859.0
960.866,14904.0
962.124,14635.0
963.383,14356.0
964.641,14415.0
965.899,14009.0
967.156,13936.0
968.414,13892.0
969.671,13897.0
970.928,14374.0
972.185,14914.0
973.442,15818.0
974.699,16897.0
975.955,18646.0
977.211,20432.0
978.468,22298.0
979.723,24384.0
980.979,25545.0
982.234,25864.0
983.49,25612.0
984.745,23166.0
986.0,21612.0
987.254,19507.0
988.509,17434.0
989.763,16153.0
991.017,14733.0
992.271,13640.0
993.525,12889.0
994.779,12259.0
996.032,11825.0
997.285,11249.0
998.538,10837.0
999.791,10342.0
1001.044,10193.0
1002.296,9847.0
1003.548,9724.0
1004.8,9473.0
1006.052,9404.0
1007.304,9170.0
1008.555,9114.0
1009.807,8988.0
1011.058,9026.0
1012.309,9091.0
1013.559,9124.0
1014.81,9172.0
1016.06,9201.0
1017.31,9317.0
1018.56,9552.0
1019.81,9626.0
1021.06,9952.0
1022.309,10113.0
1023.558,10098.0
1024.807,10291.0
1026.056,10335.0
1027.305,10675.0
1028.553,10835.0
1029.801,11189.0
1031.049,11665.0
1032.297,12132.0
1033.545,12816.0
1034.793,13861.0
1036.04,14796.0
1037.287,15809.0
1038.534,17022.0
1039.781,18193.0
1041.027,19384.0
1042.274,19876.0
1043.52,20224.0
1044.766,20560.0
1046.012,19916.0
1047.257,19288.0
1048.503,18516.0
1049.748,17953.0
1050.993,16934.0
1052.238,16493.0
1053.483,15934.0
1054.727,15520.0
1055.971,15642.0
1057.216,15763.0
1058.459,16033.0
1059.703,16628.0
1060.947,16560.0
1062.19,16668.0
1063.433,16458.0
1064.676,15918.0
1065.919,15476.0
1067.162,15094.0
1068.404,15050.0
1069.646,14767.0
1070.888,15043.0
1072.13,15669.0
1073.372,16518.0
1074.613,17667.0
1075.855,19354.0
1077.096,20958.0
1078.337,23084.0
1079.578,25796.0
1080.818,28408.0
1082.059,31918.0
1083.299,35540.0
1084.539,40208.0
1085.779,43642.0
1087.018,46478.0
1088.258,46266.0
1089.497,44213.0
1090.736,39603.0
1091.975,34337.0
1093.213,28604.0
1094.452,23677.0
1095.69,20093.0
1096.928,16854.0
1098.166,14736.0
1099.404,13122.0
1100.642,12142.0
1101.879,11242.0
1103.116,10658.0
1104.353,10119.0
1105.59,9874.0
1106.827,9480.0
1108.063,9375.0
1109.299,9036.0
1110.536,8855.0
1111.771,8746.0
1113.007,8629.0
1114.243,8626.0
1115.478,8521.0
1116.713,8375.0
1117.948,8293.0
1119.183,8390.0
1120.418,8172.0
1121.652,8264.0
1122.886,8283.0
1124.12,8185.0
1125.354,8135.0
1126.588,8030.0
1127.821,8092.0
1129.055,7998.0
1130.288,8140.0
1131.521,7982.0
1132.753,7854.0
1133.986,7883.0
1135.218,7794.0
1136.45,7933.0
1137.682,7656.0
1138.914,7873.0
1140.146,7612.0
1141.377,7619.0
1142.609,7550.0
1143.84,7507.0
1145.071,7503.0
1146.301,7466.0
1147.532,7474.0
1148.762,7336.0
1149.992,7315.0
1151.222,7286.0
1152.452,7290.0
1153.682,7247.0
1154.911,7191.0
1156.14,7200.541
1157.369,7241.0
1158.598,7201.0
1159.827,7178.0
1161.055,7196.0
1162.284,7168.0
1163.512,7098.0
1164.74,7100.0
1165.967,7201.0
1167.195,7080.0
1168.422,7135.0
1169.65,7189.0
1170.877,7076.0
1172.103,6980.0
1173.33,7073.0
1174.557,7031.0
1175.783,7125.0
1177.009,7071.0
1178.235,7041.0
1179.461,7006.0
1180.686,6994.0
1181.912,7057.0
1183.137,7036.0
1184.362,7068.0
1185.587,6993.0
1186.811,6972.0
1188.036,7018.0
1189.26,6978.0
1190.484,6983.0
1191.708,7000.0
1192.932,6968.0
1194.155,6996.0
1195.378,6943.0
1196.602,6926.0
1197.825,7066.0
1199.047,6944.0
1200.27,7043.0
1201.492,7005.0
1202.715,6996.0
1203.937,6956.0
1205.159,7012.0
1206.38,6995.0
1207.602,7049.0
1208.823,6955.0
1210.044,6905.0
1211.265,7009.0
1212.486,6957.0
1213.707,7038.0
1214.927,6965.0
1216.147,6973.0
1217.367,7001.0
1218.587,7064.0
1219.807,6970.0
1221.027,7005.0
1222.246,6961.0
1223.465,7015.0
1224.684,7042.0
1225.903,7081.0
1227.121,7030.0
1228.34,6985.0
1229.558,7063.0
1230.776,7000.0
1231.994,7069.0
1233.212,6949.0
1234.429,7078.0
1235.646,7059.0
1236.864,7019.0
1238.081,7090.0
1239.297,6942.0
1240.514,6997.0
1241.73,7045.0
1242.947,7003.0
1244.163,7012.0
1245.378,6930.0
1246.594,7119.0
1247.81,7101.0
1249.025,6912.0
1250.24,7159.0
1251.455,7069.0
1252.67,7052.0
1253.885,7086.0
1255.099,6994.0
1256.313,7024.0
1257.527,6987.0
1258.741,7104.0
1259.955,7012.0
1261.168,7041.0
1262.382,7010.0
1263.595,7073.0
1264.808,7004.0
1266.021,7079.0
1267.233,7066.0
1268.446,7079.0
1269.658,7051.0
1270.87,7085.0
1272.082,7070.851
1273.294,7064.899
1274.505,7083.0
1275.716,7027.0
1276.928,7068.0
1278.139,7007.0
1279.349,7060.0
1280.56,7075.0
1281.77,7138.0
1282.981,7084.0
1284.191,7071.0
1285.401,7074.0
1286.61,7042.125
1287.82,7106.0
1289.029,7032.0
1290.239,7087.0
1291.448,7129.0
1292.656,7013.0
1293.865,7025.0
1295.073,7065.0
1296.282,7105.0
1297.49,7017.0
1298.698,7134.0
1299.906,7063.0
1301.113,7149.0
1302.32,7014.0
1303.528,7065.0
1304.735,7107.0
1305.942,7055.0
1307.148,7054.0
1308.355,7098.0
1309.561,7104.0
1310.767,7171.0
1311.973,7086.0
1313.179,7097.0
1314.384,7017.0
1315.59,7158.0
1316.795,7067.0
1318.0,7111.0
1319.205,7145.0
1320.41,7057.0
1321.614,7075.0
1322.819,7004.0
1324.023,7124.0
1325.227,7143.0
1326.431,7170.0
1327.634,7168.0
1328.838,7104.0
1330.041,7124.0
1331.244,7157.0
1332.447,7226.0
1333.65,7156.0
1334.852,7228.0
1336.055,7246.0
1337.257,7200.0
1338.459,7236.0
1339.661,7182.0
1340.862,7242.0
1342.064,7204.0
1343.265,7246.0
1344.466,7233.0
1345.667,7294.0
1346.868,7297.0
1348.068,7330.516
1349.269,7272.0
1350.469,7395.0
1351.669,7393.0
1352.869,7418.0
1354.069,7482.0
1355.268,7458.0
1356.468,7474.0
1357.667,7582.0
1358.866,7565.0
1360.065,7505.0
1361.263,7603.0
1362.462,7513.0
1363.66,7610.0
1364.858,7596.0
1366.056,7598.0
1367.254,7582.0
1368.451,7625.0
1369.649,7616.0
1370.846,7619.0
1372.043,7623.28
1373.24,7602.0
1374.436,7624.0
1375.633,7610.0
1376.829,7641.0
1378.025,7605.0
1379.221,7541.0
1380.417,7659.0
1381.613,7622.0
1382.808,7564.0
1384.003,7645.0
1385.199,7587.0
1386.393,7585.0
1387.588,7506.0
1388.783,7613.0
1389.977,7607.0
1391.171,7575.0
1392.365,7541.0
1393.559,7537.0
1394.753,7577.0
1395.946,7531.0
1397.14,7606.0
1398.333,7555.0
1399.526,7543.0
1400.719,7634.0
1401.911,7617.0
1403.104,7587.0
1404.296,7623.0
1405.488,7604.021
1406.68,7622.0
1407.872,7612.0
1409.063,7634.0
1410.255,7646.0
1411.446,7546.0
1412.637,7670.0
1413.828,7562.0
1415.018,7677.0
1416.209,7607.0
1417.399,7646.0
1418.589,7673.0
1419.779,7755.0
1420.969,7657.0
1422.159,7700.0
1423.348,7610.0
1424.537,7733.0
1425.726,7692.0
1426.915,7700.0
1428.104,7684.0
1429.293,7724.0
1430.481,7721.0
1431.669,7650.291
1432.857,7759.878
1434.045,7825.7
1435.233,7850.108
1436.42,7709.057
1437.608,7781.659
1438.795,7768.634
1439.982,7798.0
1441.169,7808.0
1442.355,7801.0
1443.542,7830.0
1444.728,7821.0
1445.914,7852.0
1447.1,7847.0
1448.286,7912.0
1449.472,7884.0
1450.657,7803.0
1451.842,7952.0
1453.027,7879.0
1454.212,7974.0
1455.397,8021.0
1456.581,7971.0
1457.766,7990.0
1458.95,7991.0
1460.134,7908.0
1461.318,7960.0
1462.501,7890.0
1463.685,7937.0
1464.868,7946.0
1466.051,7910.0
1467.234,8023.0
1468.417,7938.0
1469.6,7980.0
1470.782,7924.0
1471.965,7985.0
1473.147,7948.0
1474.329,8011.0
1475.51,8025.0
1476.692,7926.0
1477.873,7939.0
1479.055,8062.0
1480.236,7996.0
1481.416,8159.0
1482.597,8009.0
1483.778,8093.0
1484.958,8113.0
1486.138,8054.0
1487.318,8054.0
1488.498,8154.0
1489.678,8071.0
1490.857,8077.0
1492.037,8000.0
1493.216,8103.0
1494.395,8072.0
1495.574,8049.0
1496.752,8155.0
1497.931,7973.0
1499.109,8057.0
1500.287,8006.0
1501.465,8159.0
1502.643,7997.0
1503.82,8041.0
1504.998,8172.0
1506.175,8123.0
1507.352,8198.0
1508.529,8103.0
1509.706,8178.0
1510.882,8172.0
1512.059,8166.0
1513.235,8118.0
1514.411,8183.0
1515.587,8117.0
1516.762,8204.0
1517.938,8208.0
