Raman Shift,Intensity 
400,8.422837817
401,8.37505351
402,8.396072217
403,8.377017168
404,8.477325806
405,8.403017619
406,8.365095402
407,8.377871921
408,8.389028898
409,8.441895593
410,8.481322419
411,8.421803388
412,8.362082479
413,8.36537464
414,8.353582512
415,8.417116887
416,8.497062383
417,8.395416308
418,8.347367232
419,8.477484078
420,8.388385526
421,8.388926574
422,8.319852552
423,8.28300811
424,8.407032194
425,8.388766592
426,8.425054963
427,8.403231854
428,8.415650851
429,8.471079048
430,8.360454147
431,8.37560093
432,8.376582863
433,8.329138491
434,8.386292921
435,8.400262731
436,8.439824377
437,8.437964783
438,8.386587756
439,8.482057811
440,8.390321541
441,8.385677723
442,8.406276202
443,8.483258836
444,8.385348769
445,8.438026453
446,8.408663461
447,8.436053556
448,8.447268207
449,8.494989469
450,8.333129206
451,8.458854814
452,8.314897235
453,8.479326834
454,8.412952573
455,8.316743656
456,8.439826197
457,8.319453635
458,8.497425748
459,8.409689222
460,8.391236501
461,8.404712625
462,8.422803708
463,8.507670826
464,8.383498525
465,8.41719909
466,8.374791167
467,8.407218639
468,8.357941216
469,8.371258507
470,8.39672922
471,8.390538381
472,8.436382184
473,8.413606094
474,8.320500918
475,8.432484419
476,8.455407234
477,8.388300238
478,8.517299986
479,8.419844457
480,8.427907388
481,8.372434693
482,8.429188251
483,8.410195092
484,8.431294274
485,8.396260143
486,8.366465396
487,8.448362745
488,8.338331876
489,8.4169438
490,8.502904695
491,8.45703356
492,8.448866698
493,8.43332486
494,8.478346719
495,8.339480522
496,8.494559538
497,8.352827756
498,8.360139503
499,8.518552099
500,8.369480447
501,8.433554079
502,8.336068716
503,8.43212591
504,8.424269914
505,8.367153118
506,8.338730325
507,8.423836876
508,8.443800632
509,8.392331178
510,8.458294708
511,8.369152777
512,8.368951993
513,8.454762812
514,8.377490718
515,8.392879107
516,8.4565681
517,8.379674522
518,8.418947541
519,8.357512372
520,8.533518674
521,8.370252303
522,8.307855145
523,8.427926837
524,8.441559579
525,8.369311967
526,8.361892363
527,8.250389831
528,8.40569069
529,8.372653564
530,8.457569084
531,8.430257873
532,8.423301552
533,8.342909471
534,8.418844146
535,8.467121896
536,8.359296305
537,8.457629554
538,8.510313717
539,8.442254428
540,8.390196161
541,8.530565508
542,8.401263249
543,8.400668681
544,8.384392044
545,8.471345739
546,8.309031997
547,8.378628677
548,8.350776191
549,8.431280877
550,8.399052079
551,8.445017574
552,8.367036401
553,8.382726061
554,8.393166796
555,8.332480368
556,8.315155961
557,8.319031271
558,8.425693627
559,8.429851352
560,8.367571587
561,8.373999158
562,8.386650406
563,8.362697447
564,8.343826712
565,8.386135585
566,8.441476791
567,8.360032457
568,8.371186559
569,8.416591855
570,8.439803187
571,8.399354532
572,8.460811043
573,8.286708165
574,8.413278017
575,8.429205486
576,8.404529832
577,8.405064315
578,8.422469192
579,8.391291592
580,8.363063295
581,8.390636247
582,8.414830611
583,8.349422663
584,8.434999262
585,8.383163257
586,8.422692499
587,8.379121557
588,8.322833624
589,8.374008199
590,8.362221468
591,8.403231377
592,8.474021837
593,8.350479717
594,8.446515832
595,8.386134372
596,8.47550868
597,8.301039416
598,8.408391942
599,8.327415354
600,8.436804391
601,8.404154457
602,8.438056
603,8.365001881
604,8.352832021
605,8.389168275
606,8.407116215
607,8.379552591
608,8.335337048
609,8.405511655
610,8.454192517
611,8.34257474
612,8.301764536
613,8.486991968
614,8.434683348
615,8.397016124
616,8.386379367
617,8.37164317
618,8.416319426
619,8.342235969
620,8.436262068
621,8.334067468
622,8.415437057
623,8.353134355
624,8.391641213
625,8.382973331
626,8.346967125
627,8.532047019
628,8.422475461
629,8.364647357
630,8.45582519
631,8.327866374
632,8.414231758
633,8.363368721
634,8.392953903
635,8.352100004
636,8.482988807
637,8.462531941
638,8.370725386
639,8.353664074
640,8.370332708
641,8.377186023
642,8.32531514
643,8.367615564
644,8.38984125
645,8.432699042
646,8.298051546
647,8.464218932
648,8.404280878
649,8.485471384
650,8.348223738
651,8.43035984
652,8.382049461
653,8.410609222
654,8.32222036
655,8.396287838
656,8.390294195
657,8.301534043
658,8.438571534
659,8.392850535
660,8.331407743
661,8.368165619
662,8.38097046
663,8.448144045
664,8.490012974
665,8.480840749
666,8.404935545
667,8.330509462
668,8.341818497
669,8.388215719
670,8.39237344
671,8.383312467
672,8.347312874
673,8.390484478
674,8.310960683
675,8.392871456
676,8.407884939
677,8.450564178
678,8.437988113
679,8.329654778
680,8.366385488
681,8.389726535
682,8.445069529
683,8.442391693
684,8.38547302
685,8.368285904
686,8.452184532
687,8.408230162
688,8.439324952
689,8.400725257
690,8.414077958
691,8.492112953
692,8.358648811
693,8.358236405
694,8.440379017
695,8.330788632
696,8.24405273
697,8.429928439
698,8.261320257
699,8.419130276
700,8.37169442
701,8.408713049
702,8.378917201
703,8.363356043
704,8.408505812
705,8.295576451
706,8.493600586
707,8.362733817
708,8.365716399
709,8.434742722
710,8.377943575
711,8.438488128
712,8.445032053
713,8.422290986
714,8.442282066
715,8.404013909
716,8.413003261
717,8.356120626
718,8.414627998
719,8.424253108
720,8.411718327
721,8.390104001
722,8.382077048
723,8.348348447
724,8.466664742
725,8.315957305
726,8.481705569
727,8.410551555
728,8.313816722
729,8.343925434
730,8.390363781
731,8.255045569
732,8.370914723
733,8.423685663
734,8.417935156
735,8.390509659
736,8.431350742
737,8.422497264
738,8.348839553
739,8.40916859
740,8.429044304
741,8.357915875
742,8.282032582
743,8.445350073
744,8.450383467
745,8.432704387
746,8.326625646
747,8.397747452
748,8.44440055
749,8.450188045
750,8.378171432
751,8.351975289
752,8.480396935
753,8.413168383
754,8.474873517
755,8.445459229
756,8.530668397
757,8.448670921
758,8.437811711
759,8.397464618
760,8.423684048
761,8.35248105
762,8.462618049
763,8.416909458
764,8.403130849
765,8.336284047
766,8.414673516
767,8.406457735
768,8.422535269
769,8.4151121
770,8.405467027
771,8.365490939
772,8.373374187
773,8.302545451
774,8.395610198
775,8.396393329
776,8.372086383
777,8.424881003
778,8.390714038
779,8.350235279
780,8.399879703
781,8.463720737
782,8.391500153
783,8.401961118
784,8.383698434
785,8.320873498
786,8.431597595
787,8.377772324
788,8.410826201
789,8.359732924
790,8.397960841
791,8.392385106
792,8.488864855
793,8.437966918
794,8.415461573
795,8.409202181
796,8.428391577
797,8.496728801
798,8.449310709
799,8.462589486
800,8.310022493
801,8.369567279
802,8.415297823
803,8.396573966
804,8.489787215
805,8.445489803
806,8.392541393
807,8.376159985
808,8.348450983
809,8.404019988
810,8.413912653
811,8.451569388
812,8.453866751
813,8.371301076
814,8.471495698
815,8.390433071
816,8.463815049
817,8.392342654
818,8.410527227
819,8.422680137
820,8.428013043
821,8.413990878
822,8.467331601
823,8.371362212
824,8.38116524
825,8.392404891
826,8.33954862
827,8.447073662
828,8.393785172
829,8.437805812
830,8.356775725
831,8.435521117
832,8.464562026
833,8.483846281
834,8.348013358
835,8.387941358
836,8.428502447
837,8.433623126
838,8.391776955
839,8.44699171
840,8.317346345
841,8.36160712
842,8.45057984
843,8.421415766
844,8.464410848
845,8.440767098
846,8.39883689
847,8.409111966
848,8.477917017
849,8.372481197
850,8.37293418
851,8.39466455
852,8.341624901
853,8.437388362
854,8.361676885
855,8.350393882
856,8.445589413
857,8.410150385
858,8.415117506
859,8.377365842
860,8.408705224
861,8.395144832
862,8.397773837
863,8.409728313
864,8.455960203
865,8.493272133
866,8.400198112
867,8.385487551
868,8.395315246
869,8.440728281
870,8.405830741
871,8.38752318
872,8.452757733
873,8.395892143
874,8.352358685
875,8.370053747
876,8.411954631
877,8.412785196
878,8.449430771
879,8.489799937
880,8.357381688
881,8.356109166
882,8.378518147
883,8.35345158
884,8.386755629
885,8.420667974
886,8.435685111
887,8.362103698
888,8.405965933
889,8.375723404
890,8.378549832
891,8.48065578
892,8.444480691
893,8.392244493
894,8.355133505
895,8.380681936
896,8.384931044
897,8.358788893
898,8.419819394
899,8.408957122
900,8.419994767
901,8.415560563
902,8.409020254
903,8.341014706
904,8.398155251
905,8.36235853
906,8.394112317
907,8.360853285
908,8.367576994
909,8.406620862
910,8.365474066
911,8.313383604
912,8.413497929
913,8.425367378
914,8.346263672
915,8.440273124
916,8.387139476
917,8.443525697
918,8.343476547
919,8.387405238
920,8.331851211
921,8.434738049
922,8.368992113
923,8.264741828
924,8.425719583
925,8.343737608
926,8.384663165
927,8.36798236
928,8.46907478
929,8.365213493
930,8.367836315
931,8.448785349
932,8.462914806
933,8.46270777
934,8.460092441
935,8.317069527
936,8.468901664
937,8.452067252
938,8.455959436
939,8.497557017
940,8.422582602
941,8.350872433
942,8.280095839
943,8.436972419
944,8.377452494
945,8.388764126
946,8.395226151
947,8.371367898
948,8.374824249
949,8.410144619
950,8.454866772
951,8.38223889
952,8.374753718
953,8.340760383
954,8.364921631
955,8.401007825
956,8.36360762
957,8.418266308
958,8.335803985
959,8.402396692
960,8.392676258
961,8.312889422
962,8.444793239
963,8.419408259
964,8.337153922
965,8.426244928
966,8.4639017
967,8.401179545
968,8.324345972
969,8.390792898
970,8.419220948
971,8.362847371
972,8.415889643
973,8.405741812
974,8.304462253
975,8.353203032
976,8.430422103
977,8.547635957
978,8.396660424
979,8.376941753
980,8.400010483
981,8.373621163
982,8.387669235
983,8.438167734
984,8.437542822
985,8.392102508
986,8.470444029
987,8.418082411
988,8.452187
989,8.281796719
990,8.476700736
991,8.425828084
992,8.336935663
993,8.400930163
994,8.294264641
995,8.447867994
996,8.370470881
997,8.408939816
998,8.326749364
999,8.36139531
1000,8.350559976
1001,8.360350682
1002,8.34237873
1003,8.423531055
1004,8.427690508
1005,8.393552208
1006,8.400547495
1007,8.391405791
1008,8.442319278
1009,8.391762841
1010,8.394779148
1011,8.423008495
1012,8.408990413
1013,8.401348002
1014,8.409066215
1015,8.39328199
1016,8.410508179
1017,8.481931074
1018,8.318484787
1019,8.343855279
1020,8.399014823
1021,8.361336008
1022,8.463001644
1023,8.389423596
1024,8.465095091
1025,8.33301128
1026,8.391850895
1027,8.40984329
1028,8.285756168
1029,8.399539767
1030,8.391047788
1031,8.452481015
1032,8.511528956
1033,8.33720611
1034,8.380582831
1035,8.361631591
1036,8.406042787
1037,8.399201831
1038,8.372081683
1039,8.405592201
1040,8.436079978
1041,8.40331912
1042,8.478123659
1043,8.458675417
1044,8.359929119
1045,8.367048766
1046,8.458134012
1047,8.382743153
1048,8.341569429
1049,8.388967202
1050,8.412068437
1051,8.336274939
1052,8.339213344
1053,8.422487786
1054,8.375819061
1055,8.323135864
1056,8.334420531
1057,8.38547105
1058,8.506912295
1059,8.47834326
1060,8.364345072
1061,8.36111551
1062,8.39724129
1063,8.393636134
1064,8.440929634
1065,8.41281582
1066,8.405911758
1067,8.406196181
1068,8.393143992
1069,8.488194017
1070,8.453315599
1071,8.370313384
1072,8.34109321
1073,8.513361871
1074,8.410325321
1075,8.390037107
1076,8.327485556
1077,8.399647765
1078,8.2769241
1079,8.402724213
1080,8.388386602
1081,8.48217207
1082,8.344959235
1083,8.383120894
1084,8.418102078
1085,8.441529252
1086,8.354899303
1087,8.367823588
1088,8.415693095
1089,8.407214919
1090,8.419693819
1091,8.452595583
1092,8.528456842
1093,8.354637053
1094,8.37249654
1095,8.439278591
1096,8.338337883
1097,8.374563399
1098,8.427788598
1099,8.351171298
1100,8.366136337
1101,8.49129277
1102,8.326533688
1103,8.388703705
1104,8.366423839
1105,8.414172738
1106,8.385578741
1107,8.431682888
1108,8.395812319
1109,8.388703251
1110,8.35405005
1111,8.372767336
1112,8.337061186
1113,8.468994296
1114,8.416002205
1115,8.416237443
1116,8.380294257
1117,8.433338312
1118,8.38532326
1119,8.365278951
1120,8.34672272
1121,8.411882233
1122,8.488401418
1123,8.337083429
1124,8.341617618
1125,8.37257444
1126,8.397432332
1127,8.417844824
1128,8.420226047
1129,8.429800087
1130,8.384222401
1131,8.32722444
1132,8.375122188
1133,8.422951724
1134,8.434389929
1135,8.377358219
1136,8.296406976
1137,8.426760674
1138,8.504836078
1139,8.451753355
1140,8.416255664
1141,8.375577317
1142,8.459439041
1143,8.472328465
1144,8.472347059
1145,8.442715968
1146,8.351558115
1147,8.381771671
1148,8.43822361
1149,8.454102747
1150,8.397068939
1151,8.414002358
1152,8.378991014
1153,8.484681786
1154,8.431721307
1155,8.413570218
1156,8.370689286
1157,8.400791109
1158,8.395731768
1159,8.435897668
1160,8.425589435
1161,8.381646009
1162,8.425772642
1163,8.370629033
1164,8.52185977
1165,8.407089196
1166,8.472699343
1167,8.410288147
1168,8.395075219
1169,8.396937449
1170,8.433530717
1171,8.404932807
1172,8.407620894
1173,8.38229065
1174,8.362215147
1175,8.34278297
1176,8.433524462
1177,8.42260407
1178,8.451304889
1179,8.44865069
1180,8.387214066
1181,8.462206308
1182,8.346885998
1183,8.380846661
1184,8.3088545
1185,8.427627646
1186,8.427177557
1187,8.421651996
1188,8.437280499
1189,8.497619005
1190,8.423234325
1191,8.361055543
1192,8.448387323
1193,8.302994652
1194,8.446641236
1195,8.42862389
1196,8.41711925
1197,8.273700177
1198,8.300299322
1199,8.365848793
1200,8.42802336
1201,8.353637919
1202,8.288846811
1203,8.417622901
1204,8.468528711
1205,8.435313399
1206,8.35056366
1207,8.423978279
1208,8.481601546
1209,8.376115577
1210,8.354795307
1211,8.443086846
1212,8.472125519
1213,8.325171949
1214,8.41334025
1215,8.355224525
1216,8.447265973
1217,8.401239134
1218,8.404053642
1219,8.322877458
1220,8.37688664
1221,8.397543238
1222,8.363668518
1223,8.350301169
1224,8.450669499
1225,8.326893552
1226,8.374700132
1227,8.35847815
1228,8.372881717
1229,8.377488688
1230,8.390995843
1231,8.328472476
1232,8.293290257
1233,8.464446741
1234,8.346164275
1235,8.418478187
1236,8.432477293
1237,8.512299321
1238,8.395011619
1239,8.436609191
1240,8.418430004
1241,8.391538304
1242,8.433616924
1243,8.415193184
1244,8.413312466
1245,8.45251526
1246,8.404995573
1247,8.340473397
1248,8.484297963
1249,8.377262897
1250,8.497908786
1251,8.435094874
1252,8.444046542
1253,8.373426961
1254,8.286131322
1255,8.415238096
1256,8.451476307
1257,8.414380551
1258,8.426639832
1259,8.404083679
1260,8.460922149
1261,8.461961874
1262,8.322257655
1263,8.368186453
1264,8.42703716
1265,8.3310199
1266,8.470615884
1267,8.462694165
1268,8.411690695
1269,8.380739436
1270,8.451285548
1271,8.467735933
1272,8.374755062
1273,8.345756352
1274,8.3759413
1275,8.493030408
1276,8.315923816
1277,8.467248913
1278,8.391388364
1279,8.371384667
1280,8.414988183
1281,8.381301684
1282,8.402736933
1283,8.354347255
1284,8.346970442
1285,8.451802271
1286,8.371475382
1287,8.475074264
1288,8.413152291
1289,8.408551762
1290,8.443495802
1291,8.480310601
1292,8.385092538
1293,8.423832107
1294,8.33465333
1295,8.424792465
1296,8.365829375
1297,8.309877303
1298,8.467913257
1299,8.424318768
1300,8.376649869
1301,8.319772986
1302,8.338458172
1303,8.30547753
1304,8.382893912
1305,8.40683694
1306,8.388875501
1307,8.443251632
1308,8.293648902
1309,8.424954678
1310,8.460031521
1311,8.359148122
1312,8.352901604
1313,8.379269999
1314,8.446932781
1315,8.473743254
1316,8.347384886
1317,8.322333514
1318,8.399793423
1319,8.398609549
1320,8.440800865
1321,8.409213629
1322,8.459738793
1323,8.429771021
1324,8.390194534
1325,8.403978442
1326,8.425407576
1327,8.46054551
1328,8.361917389
1329,8.437997336
1330,8.411032732
1331,8.432579866
1332,8.389231449
1333,8.408837211
1334,8.473663583
1335,8.349160795
1336,8.411719917
1337,8.354754831
1338,8.475070136
1339,8.399147906
1340,8.428086941
1341,8.3862097
1342,8.412069935
1343,8.401678101
1344,8.272651433
1345,8.433045729
1346,8.407816467
1347,8.371975635
1348,8.416858402
1349,8.3639246
1350,8.377085281
1351,8.40715495
1352,8.377028672
1353,8.417029846
1354,8.431829562
1355,8.372201174
1356,8.375969206
1357,8.428294797
1358,8.376059503
1359,8.37853274
1360,8.378810323
1361,8.428827985
1362,8.357163119
1363,8.411729375
1364,8.381711696
1365,8.380569454
1366,8.456360672
1367,8.372762891
1368,8.369999703
1369,8.425095758
1370,8.410520668
1371,8.313799057
1372,8.367009098
1373,8.401760832
1374,8.404139732
1375,8.40497001
1376,8.412912273
1377,8.328324349
1378,8.324734354
1379,8.384662132
1380,8.438471415
1381,8.382804884
1382,8.398869653
1383,8.381985119
1384,8.360575566
1385,8.459693993
1386,8.441239041
1387,8.486019614
1388,8.383711489
1389,8.385783421
1390,8.412448323
1391,8.384205193
1392,8.465844553
1393,8.328671196
1394,8.503206946
1395,8.44085733
1396,8.433481005
1397,8.422736457
1398,8.359012421
1399,8.34297856
1400,8.419470595
1401,8.425440641
1402,8.405799179
1403,8.473785999
1404,8.407938275
1405,8.414026011
1406,8.410791185
1407,8.387842974
1408,8.349633896
1409,8.404416849
1410,8.378639344
1411,8.393242819
1412,8.410205281
1413,8.369344372
1414,8.370666514
1415,8.375093605
1416,8.366769192
1417,8.452030749
1418,8.333714601
1419,8.329104764
1420,8.437983948
1421,8.376121733
1422,8.374830608
1423,8.48949135
1424,8.45365923
1425,8.309341461
1426,8.421490145
1427,8.421559752
1428,8.417657971
1429,8.402643101
1430,8.380127822
1431,8.389632382
1432,8.39669434
1433,8.39825667
1434,8.340836349
1435,8.369278091
1436,8.409926731
1437,8.372337722
1438,8.343869421
1439,8.410916556
1440,8.331275811
1441,8.39409808
1442,8.40193713
1443,8.382093413
1444,8.362430105
1445,8.353165828
1446,8.501696959
1447,8.372591735
1448,8.409535806
1449,8.421312318
1450,8.39999679
1451,8.430568993
1452,8.366378115
1453,8.448791257
1454,8.415064229
1455,8.407464294
1456,8.446127168
1457,8.463661467
1458,8.411162901
1459,8.390268108
1460,8.439620921
1461,8.446354473
1462,8.39110437
1463,8.496980478
1464,8.345590459
1465,8.390659246
1466,8.479074162
1467,8.317220957
1468,8.45585192
1469,8.440373217
1470,8.317413992
1471,8.370640955
1472,8.45596144
1473,8.441226505
1474,8.380365816
1475,8.348344097
1476,8.426632415
1477,8.395150523
1478,8.41491384
1479,8.358267075
1480,8.405620973
1481,8.332768629
1482,8.452577328
1483,8.413212037
1484,8.479550028
1485,8.427610124
1486,8.461226807
1487,8.416198577
1488,8.395560584
1489,8.405867308
1490,8.341128658
1491,8.479459574
1492,8.41049159
1493,8.319172125
1494,8.404564299
1495,8.437832417
1496,8.41061918
1497,8.364327381
1498,8.414786037
1499,8.413666397
1500,8.290925119
1501,8.355926384
1502,8.443253903
1503,8.385234317
1504,8.525450337
1505,8.441753873
1506,8.377408972
1507,8.392897521
1508,8.420186552
1509,8.354234633
1510,8.396126756
1511,8.446348021
1512,8.415487805
1513,8.401188004
1514,8.405595337
1515,8.298507249
1516,8.381608805
1517,8.424349207
1518,8.401830029
1519,8.44430539
1520,8.224267109
1521,8.377756726
1522,8.456277531
1523,8.368304441
1524,8.413061284
1525,8.372228695
1526,8.426083394
1527,8.405513901
1528,8.384255115
1529,8.397414572
1530,8.478562413
1531,8.495866154
1532,8.33177001
1533,8.35873292
1534,8.422073253
1535,8.36859512
1536,8.444251496
1537,8.302946313
1538,8.338735122
1539,8.357022881
1540,8.397538585
1541,8.374077926
1542,8.354007615
1543,8.350915598
1544,8.497623964
1545,8.434035754
1546,8.371261988
1547,8.429415315
1548,8.379200674
1549,8.432511959
1550,8.39748328
1551,8.370562069
1552,8.404492603
1553,8.429278097
1554,8.347532574
1555,8.419316996
1556,8.468581669
1557,8.338560628
1558,8.390157171
1559,8.346432891
1560,8.440428394
1561,8.441725459
1562,8.47295869
1563,8.445719436
1564,8.41028085
1565,8.352368727
1566,8.425687092
1567,8.404961974
1568,8.445881598
1569,8.443163198
1570,8.375800523
1571,8.395714107
1572,8.430919353
1573,8.425426625
1574,8.455125772
1575,8.329613783
1576,8.325315364
1577,8.384072535
1578,8.420722845
1579,8.410020157
1580,8.380516493
1581,8.378119006
1582,8.460581355
1583,8.334258869
1584,8.362899931
1585,8.328635331
1586,8.329390052
1587,8.370127314
1588,8.400454028
1589,8.361549715
1590,8.31340081
1591,8.328628504
1592,8.338329428
1593,8.341168782
1594,8.351440764
1595,8.418371536
1596,8.414063725
1597,8.366322936
1598,8.3961355
1599,8.362561343
1600,8.386106606
1601,8.520616335
1602,8.325407851
1603,8.35615714
1604,8.46393036
1605,8.310035504
1606,8.402909772
1607,8.427653968
1608,8.410529933
1609,8.381582797
1610,8.402043687
1611,8.341856924
1612,8.424085489
1613,8.429733847
1614,8.430516731
1615,8.426158397
1616,8.456872757
1617,8.44069655
1618,8.386187889
1619,8.351694661
1620,8.342512428
1621,8.357846199
1622,8.365422452
1623,8.347773681
1624,8.350860949
1625,8.436141873
1626,8.359501674
1627,8.484936
1628,8.452995054
1629,8.311369464
1630,8.373084624
1631,8.331148373
1632,8.399754989
1633,8.344317434
1634,8.374983402
1635,8.433890405
1636,8.320504741
1637,8.487281407
1638,8.412802664
1639,8.373981165
1640,8.370403406
1641,8.381464657
1642,8.426729822
1643,8.40041349
1644,8.348797791
1645,8.365106456
1646,8.447649
1647,8.466314886
1648,8.422733231
1649,8.422911466
1650,8.36394208
1651,8.393766181
1652,8.490180933
1653,8.389284466
1654,8.420348861
1655,8.364119968
1656,8.345369572
1657,8.418820236
1658,8.485138037
1659,8.394623192
1660,8.478521209
1661,8.466274621
1662,8.421131001
1663,8.327212676
1664,8.445730836
1665,8.418111315
1666,8.421115266
1667,8.317011191
1668,8.465008955
1669,8.422073922
1670,8.389192411
1671,8.410293346
1672,8.425181392
1673,8.399359788
1674,8.426293265
1675,8.461105815
1676,8.4142746
1677,8.415785343
1678,8.376741425
1679,8.330984736
1680,8.403122306
1681,8.374359989
1682,8.404143424
1683,8.354535602
1684,8.323849473
1685,8.412717969
1686,8.429720891
1687,8.525665488
1688,8.312688956
1689,8.418660899
1690,8.381781232
1691,8.42005901
1692,8.435481343
1693,8.44578238
1694,8.352889474
1695,8.393271755
1696,8.411690163
1697,8.43810594
1698,8.359689254
1699,8.430450907
1700,8.345322481
1701,8.340311102
1702,8.489260827
1703,8.397645754
1704,8.4895472
1705,8.438743052
1706,8.431970888
1707,8.422807269
1708,8.44908888
1709,8.425019024
1710,8.474977306
1711,8.410525286
1712,8.37466089
1713,8.424053082
1714,8.438892472
1715,8.401717112
1716,8.370799588
1717,8.446035597
1718,8.37608596
1719,8.359753686
1720,8.368080123
1721,8.443205044
1722,8.392035784
1723,8.414716845
1724,8.431600167
1725,8.399026951
1726,8.416953015
1727,8.392761725
1728,8.363105664
1729,8.413830184
1730,8.428154908
1731,8.413692465
1732,8.392783779
1733,8.419758056
1734,8.381444696
1735,8.456472282
1736,8.437601354
1737,8.356595305
1738,8.469079075
1739,8.377056092
1740,8.395268277
1741,8.45842991
1742,8.390783703
1743,8.377120685
1744,8.444264404
1745,8.384397149
1746,8.370279654
1747,8.422162057
1748,8.385996715
1749,8.340624678
1750,8.435168407
1751,8.445299456
1752,8.349542268
1753,8.426528804
1754,8.415565349
1755,8.458120369
1756,8.364729851
1757,8.453172637
1758,8.405626244
1759,8.318084581
1760,8.433436473
1761,8.407029514
1762,8.435872903
1763,8.318279038
1764,8.469468296
1765,8.437208877
1766,8.382664927
1767,8.354308044
1768,8.371882173
1769,8.394742929
1770,8.380571668
1771,8.437755927
1772,8.389081758
1773,8.431694075
1774,8.506238055
1775,8.489606751
1776,8.435681411
1777,8.407940524
1778,8.443043517
1779,8.475946124
1780,8.385623486
1781,8.475093796
1782,8.50279572
1783,8.345360201
1784,8.357881995
1785,8.427188955
1786,8.386482396
1787,8.434496764
1788,8.384995082
1789,8.514207056
1790,8.411224982
1791,8.358560611
1792,8.376777448
1793,8.418495592
1794,8.402922533
1795,8.393561039
1796,8.37366527
1797,8.379332098
1798,8.330700483
1799,8.400132122
1800,8.344077753
1801,8.450053737
1802,8.294776046
1803,8.414158578
1804,8.399052488
1805,8.391012097
1806,8.521642547
1807,8.449116498
1808,8.388205452
1809,8.438064652
1810,8.349416879
1811,8.37884133
1812,8.484059438
1813,8.273296459
1814,8.420954371
1815,8.427030326
1816,8.448620863
1817,8.429833146
1818,8.310401078
1819,8.469024473
1820,8.3347366
1821,8.408213799
1822,8.357072157
1823,8.436475777
1824,8.442310881
1825,8.403818011
1826,8.431137742
1827,8.425413006
1828,8.373764931
1829,8.397686802
1830,8.481153879
1831,8.445995976
1832,8.397099722
1833,8.421609995
1834,8.401362088
1835,8.412925783
1836,8.4550996
1837,8.427723662
1838,8.404506451
1839,8.391865347
1840,8.408738635
1841,8.424771053
1842,8.382166223
1843,8.369810932
1844,8.40248812
1845,8.409251054
1846,8.396100385
1847,8.510979041
1848,8.38149119
1849,8.438300784
1850,8.471391777
1851,8.460912376
1852,8.380929212
1853,8.392252868
1854,8.45287134
1855,8.467223488
1856,8.297965466
1857,8.406778694
1858,8.394392261
1859,8.441978477
1860,8.396279351
1861,8.288060696
1862,8.47925508
1863,8.397400089
1864,8.525856196
1865,8.399489407
1866,8.412255092
1867,8.418213657
1868,8.43437036
1869,8.52833486
1870,8.360622442
1871,8.452165286
1872,8.393569358
1873,8.477757508
1874,8.412026524
1875,8.365323941
1876,8.379936466
1877,8.371308406
1878,8.384456434
1879,8.451727042
1880,8.483718775
1881,8.360256297
1882,8.418027472
1883,8.430499039
1884,8.418969037
1885,8.487119414
1886,8.376060086
1887,8.407140033
1888,8.391297545
1889,8.411987149
1890,8.38728025
1891,8.38397232
1892,8.347616215
1893,8.326765805
1894,8.470690521
1895,8.406000077
1896,8.404696843
1897,8.445734728
1898,8.36503304
1899,8.359042571
1900,8.442647097
1901,8.327958211
1902,8.497061516
1903,8.385458047
1904,8.376938125
1905,8.390090801
1906,8.507660017
1907,8.416167543
1908,8.446930448
1909,8.390820097
1910,8.431816793
1911,8.363565847
1912,8.420051137
1913,8.447303853
1914,8.369463741
1915,8.392024266
1916,8.337078158
1917,8.39707881
1918,8.35765489
1919,8.45159722
1920,8.30066631
1921,8.369320127
1922,8.37457142
1923,8.35906627
1924,8.46454838
1925,8.45266254
1926,8.386874397
1927,8.36483129
1928,8.358586997
1929,8.464902743
1930,8.35006909
1931,8.437427051
1932,8.451516572
1933,8.470727136
1934,8.312156714
1935,8.307747659
1936,8.259968413
1937,8.352754044
1938,8.396498214
1939,8.415888369
1940,8.337887344
1941,8.313559763
1942,8.348321787
1943,8.386933762
1944,8.441253689
1945,8.358039391
1946,8.420806498
1947,8.4139481
1948,8.48654124
1949,8.454630219
1950,8.408567171
1951,8.480795328
1952,8.432306457
1953,8.36583076
1954,8.427120979
1955,8.381443875
1956,8.388254389
1957,8.377654718
1958,8.404981302
1959,8.462015063
1960,8.413180643
1961,8.407335672
1962,8.334155273
1963,8.316321473
1964,8.389514694
1965,8.35251194
1966,8.392308463
1967,8.453768647
1968,8.454224526
1969,8.473786423
1970,8.467015028
1971,8.421888168
1972,8.369230407
1973,8.353070191
1974,8.333974089
1975,8.411571833
1976,8.465360442
1977,8.367598312
1978,8.46199154
1979,8.372708221
1980,8.429618301
1981,8.430744268
1982,8.360283248
1983,8.346118156
1984,8.376716354
1985,8.415298961
1986,8.431305288
1987,8.407574454
1988,8.43949903
1989,8.451667825
1990,8.42591319
1991,8.382614319
1992,8.412498939
1993,8.288047962
1994,8.389875826
1995,8.457957452
1996,8.313244003
1997,8.367718838
1998,8.407278522
1999,8.333846085
2000,8.343802022
2001,8.454681438
2002,8.466375125
2003,8.304943366
2004,8.399705901
2005,8.434507311
2006,8.450042439
2007,8.384884553
2008,8.47315917
2009,8.405916454
2010,8.36513815
2011,8.359019275
2012,8.394882901
2013,8.420366309
2014,8.418789869
2015,8.444007496
2016,8.361499717
2017,8.32547094
2018,8.419780218
2019,8.385506014
2020,8.407395822
2021,8.410351833
2022,8.354491491
2023,8.401285838
2024,8.487533378
2025,8.391701003
2026,8.483692034
2027,8.409846806
2028,8.430301835
2029,8.325457998
2030,8.429486788
2031,8.409470223
2032,8.381905139
2033,8.479635898
2034,8.411911457
2035,8.353908209
2036,8.397835005
2037,8.370291557
2038,8.473303086
2039,8.436012309
2040,8.34662565
2041,8.341633548
2042,8.392616337
2043,8.472284027
2044,8.467632859
2045,8.422409044
2046,8.460779415
2047,8.451188883
2048,8.427030726
2049,8.331638004
2050,8.349773189
2051,8.450228592
2052,8.347153883
2053,8.441683778
2054,8.441308229
2055,8.358318426
2056,8.451469707
2057,8.474250596
2058,8.410788083
2059,8.368598624
2060,8.411814834
2061,8.386511694
2062,8.466110366
2063,8.415293615
2064,8.490724944
2065,8.490964957
2066,8.51413956
2067,8.409479052
2068,8.436198399
2069,8.326670832
2070,8.465784601
2071,8.439145222
2072,8.394419677
2073,8.365936167
2074,8.416297918
2075,8.409497212
2076,8.363832891
2077,8.421432772
2078,8.28946554
2079,8.450225518
2080,8.429857969
2081,8.336934753
2082,8.385400968
2083,8.444121927
2084,8.399729038
2085,8.380892128
2086,8.315922535
2087,8.458485899
2088,8.375882242
2089,8.398861006
2090,8.422783312
2091,8.380914275
2092,8.424259507
2093,8.394475821
2094,8.409328588
2095,8.47430822
2096,8.402956901
2097,8.392997859
2098,8.401082401
2099,8.459630421
2100,8.397860628
2101,8.429488382
2102,8.378728685
2103,8.352344404
2104,8.45064225
2105,8.341809033
2106,8.42553357
2107,8.436510448
2108,8.450281284
2109,8.452894342
2110,8.47230471
2111,8.411038146
2112,8.389167393
2113,8.394161957
2114,8.473447169
2115,8.374101247
2116,8.502034779
2117,8.397415529
2118,8.442931311
2119,8.421943868
2120,8.392311252
2121,8.43212572
2122,8.321804918
2123,8.377466216
2124,8.445456597
2125,8.372898872
2126,8.393240564
2127,8.387229348
2128,8.407127514
2129,8.426148669
2130,8.546157379
2131,8.338196697
2132,8.470518689
2133,8.368742397
2134,8.360897272
2135,8.309428245
2136,8.373623884
2137,8.334654446
2138,8.39991629
2139,8.473843686
2140,8.421539134
2141,8.464110534
2142,8.359623573
2143,8.290009246
2144,8.386088038
2145,8.366338354
2146,8.446701232
2147,8.512833588
2148,8.376969142
2149,8.341093911
2150,8.358824915
2151,8.445614823
2152,8.314987831
2153,8.334945195
2154,8.508600347
2155,8.423789758
2156,8.457530907
2157,8.411644159
2158,8.42435658
2159,8.361141039
2160,8.420140422
2161,8.307798571
2162,8.454644448
2163,8.358297903
2164,8.414140129
2165,8.432961762
2166,8.303279144
2167,8.38366926
2168,8.413291888
2169,8.436667298
2170,8.469942457
2171,8.468199525
2172,8.394922625
2173,8.398020873
2174,8.32462974
2175,8.352056402
2176,8.44723172
2177,8.374744196
2178,8.415407053
2179,8.390716465
2180,8.414863018
2181,8.408381018
2182,8.426553836
2183,8.389620291
2184,8.355034945
2185,8.412557702
2186,8.380230982
2187,8.380323529
2188,8.37591672
2189,8.427791943
2190,8.46576559
2191,8.368138306
2192,8.423487225
2193,8.446931408
2194,8.43328663
2195,8.372484013
2196,8.421961011
2197,8.379861581
2198,8.450103099
2199,8.383299089
2200,8.432024788
2201,8.336236891
2202,8.444107498
2203,8.395994031
2204,8.384006216
2205,8.344939893
2206,8.415522226
2207,8.472676806
2208,8.346610478
2209,8.429835159
2210,8.387627139
2211,8.436723295
2212,8.453196799
2213,8.383416462
2214,8.42580413
2215,8.341640873
2216,8.443438572
2217,8.433620304
2218,8.306794786
2219,8.394566861
2220,8.369801327
2221,8.393817661
2222,8.523189634
2223,8.343340537
2224,8.328166435
2225,8.345607447
2226,8.408112675
2227,8.373985217
2228,8.402009891
2229,8.361443618
2230,8.372363944
2231,8.382994887
2232,8.497502147
2233,8.383035739
2234,8.367297567
2235,8.306812794
2236,8.428171811
2237,8.377578048
2238,8.521855346
2239,8.398634304
2240,8.361522357
2241,8.43375411
2242,8.462752432
2243,8.481522091
2244,8.432053101
2245,8.328311528
2246,8.402464828
2247,8.396440652
2248,8.380989281
2249,8.511498106
2250,8.411064962
2251,8.347189194
2252,8.406096769
2253,8.562720915
2254,8.377991173
2255,8.458603266
2256,8.450132925
2257,8.383095642
2258,8.446004217
2259,8.368407077
2260,8.390505519
2261,8.406684579
2262,8.399929577
2263,8.457261016
2264,8.40595678
2265,8.382909054
2266,8.343222479
2267,8.416060346
2268,8.367349037
2269,8.40601779
2270,8.413768646
2271,8.390109188
2272,8.481996479
2273,8.421456511
2274,8.386301029
2275,8.418237112
2276,8.420777999
2277,8.425676487
2278,8.40139719
2279,8.493361343
2280,8.411824712
2281,8.50482203
2282,8.374143181
2283,8.306607993
2284,8.388041644
2285,8.395762387
2286,8.330511129
2287,8.545803634
2288,8.417193812
2289,8.382480097
2290,8.376707476
2291,8.430505563
2292,8.412208806
2293,8.33986629
2294,8.399298301
2295,8.443627619
2296,8.363377152
2297,8.398903379
2298,8.367746701
2299,8.411375546
2300,8.383387508
2301,8.321549485
2302,8.392474115
2303,8.449734458
2304,8.390839983
2305,8.25995963
2306,8.415331335
2307,8.474265862
2308,8.356348548
2309,8.430773347
2310,8.342246555
2311,8.308471516
2312,8.385427779
2313,8.400492187
2314,8.364998849
2315,8.322219013
2316,8.358929244
2317,8.449530356
2318,8.341560487
2319,8.410050837
2320,8.48151547
2321,8.412714042
2322,8.37482091
2323,8.398797756
2324,8.353347096
2325,8.394405888
2326,8.368096057
2327,8.363969008
2328,8.352043447
2329,8.401129148
2330,8.458076178
2331,8.403024108
2332,8.395885094
2333,8.430070467
2334,8.487239951
2335,8.430968453
2336,8.338550343
2337,8.457348442
2338,8.287204855
2339,8.364654251
2340,8.405177346
2341,8.430196345
2342,8.332829233
2343,8.462066126
2344,8.403299454
2345,8.37287733
2346,8.280948405
2347,8.385285819
2348,8.401527574
2349,8.443557278
2350,8.39342281
2351,8.426501216
2352,8.37950553
2353,8.412324572
2354,8.401205717
2355,8.359862082
2356,8.471184732
2357,8.432646078
2358,8.407100391
2359,8.420738787
2360,8.376853919
2361,8.384591568
2362,8.473940127
2363,8.355119377
2364,8.469890021
2365,8.375575299
2366,8.402235067
2367,8.39078525
2368,8.39892352
2369,8.364863051
2370,8.425446873
2371,8.443447153
2372,8.46353521
2373,8.495164366
2374,8.378095607
2375,8.389590424
2376,8.37390323
2377,8.414975195
2378,8.437074068
2379,8.329690634
2380,8.439982702
2381,8.457972959
2382,8.441975203
2383,8.436284029
2384,8.442039236
2385,8.349182539
2386,8.36021174
2387,8.475453849
2388,8.349699256
2389,8.394348615
2390,8.460125197
2391,8.407304363
2392,8.45047977
2393,8.373766103
2394,8.366275953
2395,8.392537072
2396,8.430906226
2397,8.388668545
2398,8.418875493
2399,8.372326086
2400,8.450983979
2401,8.412531994
2402,8.353121894
2403,8.325766805
2404,8.34558081
2405,8.431347866
2406,8.301258019
2407,8.410022584
2408,8.428116864
2409,8.441775279
2410,8.426558938
2411,8.432756949
2412,8.411499814
2413,8.438029242
2414,8.392970656
2415,8.508729114
2416,8.414476111
2417,8.344348622
2418,8.255155908
2419,8.334441393
2420,8.319090903
2421,8.402572898
2422,8.36959321
2423,8.352335299
2424,8.346191669
2425,8.31838012
2426,8.40822227
2427,8.349792657
2428,8.436629272
2429,8.436593178
2430,8.374056476
2431,8.40835511
2432,8.437959429
2433,8.387722155
2434,8.390101037
2435,8.449649021
2436,8.319190186
2437,8.372109452
2438,8.393121869
2439,8.463266588
2440,8.445338963
2441,8.363960372
2442,8.38264135
2443,8.336251128
2444,8.341330802
2445,8.400805573
2446,8.470947306
2447,8.437758682
2448,8.47041094
2449,8.479986377
2450,8.423793516
2451,8.366480388
2452,8.331330305
2453,8.483356366
2454,8.386609568
2455,8.357743994
2456,8.349538379
2457,8.317942635
2458,8.498112692
2459,8.347002912
2460,8.389520834
2461,8.37314756
2462,8.408222118
2463,8.34302785
2464,8.304751537
2465,8.415530244
2466,8.437074751
2467,8.442150434
2468,8.374326964
2469,8.392728301
2470,8.373833463
2471,8.396344843
2472,8.41222855
2473,8.402810985
2474,8.353795526
2475,8.40499
2476,8.389361808
2477,8.442739873
2478,8.36697934
2479,8.345985388
2480,8.413408383
2481,8.349459731
2482,8.393485841
2483,8.430756856
2484,8.377989155
2485,8.349668123
2486,8.36273062
2487,8.481478283
2488,8.417633367
2489,8.363695619
2490,8.434434606
2491,8.505433997
2492,8.458168443
2493,8.34004386
2494,8.419428032
2495,8.514232339
2496,8.30082363
2497,8.325878029
2498,8.317565731
2499,8.419209822
2500,8.355039844
2501,8.397942867
2502,8.500833072
2503,8.396057288
2504,8.334384813
2505,8.415861743
2506,8.424721707
2507,8.492505864
2508,8.372143327
2509,8.380216753
2510,8.440454922
2511,8.41738371
2512,8.349337686
2513,8.377191187
2514,8.415856098
2515,8.470155103
2516,8.437676517
2517,8.331247947
2518,8.444431886
2519,8.419903517
2520,8.455615246
2521,8.392375666
2522,8.481736579
2523,8.406016663
2524,8.378332474
2525,8.367888694
2526,8.331423907
2527,8.392819221
2528,8.394794256
2529,8.425585477
2530,8.472899459
2531,8.352253782
2532,8.425159533
2533,8.396330957
2534,8.361750431
2535,8.360769565
2536,8.352485873
2537,8.473434534
2538,8.372818708
2539,8.356270881
2540,8.447071748
2541,8.379830607
2542,8.409237272
2543,8.436035925
2544,8.443675495
2545,8.498553348
2546,8.396163306
2547,8.490840645
2548,8.532817054
2549,8.391432013
2550,8.398773152
2551,8.391668568
2552,8.380139993
2553,8.333234024
2554,8.510099737
2555,8.315408819
2556,8.378971785
2557,8.402939905
2558,8.396527931
2559,8.426193695
2560,8.468883831
2561,8.320037588
2562,8.413287828
2563,8.335094475
2564,8.420548042
2565,8.314454357
2566,8.363987658
2567,8.348661316
2568,8.44575315
2569,8.3611542
2570,8.431105375
2571,8.40169494
2572,8.374064274
2573,8.415822768
2574,8.457089114
2575,8.372300061
2576,8.462478609
2577,8.393898346
2578,8.459796494
2579,8.409039866
2580,8.473084928
2581,8.407988358
2582,8.414945492
2583,8.383827364
2584,8.36983411
2585,8.337377558
2586,8.416156488
2587,8.306347065
2588,8.36994046
2589,8.403670828
2590,8.339747635
2591,8.395983812
2592,8.391547601
2593,8.403420755
2594,8.443561966
2595,8.440941959
2596,8.379480387
2597,8.437206299
2598,8.472080645
2599,8.378079173
2600,8.41282544
2601,8.489998547
2602,8.39156728
2603,8.443025203
2604,8.369709009
2605,8.411223302
2606,8.407175519
2607,8.436101052
2608,8.398099729
2609,8.392394796
2610,8.364631534
2611,8.373323009
2612,8.374643374
2613,8.437104421
2614,8.341554655
2615,8.447272706
2616,8.381702702
2617,8.354256415
2618,8.335339532
2619,8.405562262
2620,8.49862696
2621,8.416676033
2622,8.359299371
2623,8.396959798
2624,8.3826845
2625,8.336681437
2626,8.358846628
2627,8.453447472
2628,8.395738409
2629,8.443168836
2630,8.343443877
2631,8.433989085
2632,8.442819628
2633,8.415180735
2634,8.330117775
2635,8.360833989
2636,8.430798869
2637,8.312592245
2638,8.381039032
2639,8.456720323
2640,8.283145526
2641,8.373824731
2642,8.404758461
2643,8.369271455
2644,8.40338973
2645,8.32982723
2646,8.365547618
2647,8.354897452
2648,8.3398702
2649,8.40303988
2650,8.392074636
2651,8.342827155
2652,8.451696785
2653,8.253645531
2654,8.476218303
2655,8.39915233
2656,8.444123026
2657,8.367328651
2658,8.37358495
2659,8.399907807
2660,8.394684505
2661,8.386478045
2662,8.398388039
2663,8.415570125
2664,8.404972033
2665,8.389041746
2666,8.425728558
2667,8.354353984
2668,8.445586981
2669,8.369134602
2670,8.370600739
2671,8.361060833
2672,8.457831056
2673,8.436106864
2674,8.315591972
2675,8.399024875
2676,8.466577132
2677,8.476112454
2678,8.361192967
2679,8.423649042
2680,8.402217051
2681,8.226209435
2682,8.375170802
2683,8.400176224
2684,8.411756305
2685,8.413982002
2686,8.337844859
2687,8.383961785
2688,8.424379129
2689,8.442740148
2690,8.307576628
2691,8.374666807
2692,8.352523987
2693,8.358739284
2694,8.372462934
2695,8.404807235
2696,8.354790737
2697,8.38250384
2698,8.304554873
2699,8.332437839
2700,8.422312594
2701,8.476411565
2702,8.342748897
2703,8.395263849
2704,8.370829181
2705,8.376602982
2706,8.455973554
2707,8.391473477
2708,8.399913965
2709,8.448697349
2710,8.364528992
2711,8.326998643
2712,8.391968621
2713,8.408717467
2714,8.40171328
2715,8.401181737
2716,8.412218242
2717,8.396770572
2718,8.386463331
2719,8.359000332
2720,8.384471883
2721,8.375089274
2722,8.367614967
2723,8.368962449
2724,8.343110932
2725,8.387537845
2726,8.387533587
2727,8.421886335
2728,8.302479259
2729,8.30101222
2730,8.343223362
2731,8.451602941
2732,8.40136143
2733,8.33708299
2734,8.454076032
2735,8.511960061
2736,8.377844108
2737,8.480481261
2738,8.319439505
2739,8.406897329
2740,8.406457996
2741,8.450745209
2742,8.457946442
2743,8.37806364
2744,8.474568245
2745,8.396388402
2746,8.37215439
2747,8.496404779
2748,8.450175882
2749,8.469317681
2750,8.372652889
2751,8.397920971
2752,8.290804338
2753,8.417152544
2754,8.399292945
2755,8.272057843
2756,8.450176287
2757,8.368040892
2758,8.443915358
2759,8.377089303
2760,8.345075536
2761,8.349310829
2762,8.370353333
2763,8.380453203
2764,8.388282024
2765,8.438120919
2766,8.343668883
2767,8.386358868
2768,8.343428262
2769,8.249971757
2770,8.443833722
2771,8.379134553
2772,8.405046081
2773,8.419905968
2774,8.493298911
2775,8.384049296
2776,8.43374946
2777,8.44269906
2778,8.366901563
2779,8.431583518
2780,8.30914395
2781,8.494254094
2782,8.40115938
2783,8.423043909
2784,8.421751268
2785,8.346138768
2786,8.401580073
2787,8.342443921
2788,8.393120789
2789,8.353908278
2790,8.375362092
2791,8.329421132
2792,8.461043495
2793,8.307913166
2794,8.40597787
2795,8.425062514
2796,8.436234626
2797,8.247227689
2798,8.322861849
2799,8.414467405
2800,8.346594388
2801,8.325507916
2802,8.446006589
2803,8.41677113
2804,8.433339784
2805,8.416881469
2806,8.430491675
2807,8.43162569
2808,8.42022319
2809,8.391817457
2810,8.422939736
2811,8.429595943
2812,8.382487921
2813,8.40225713
2814,8.450461913
2815,8.481384046
2816,8.384717564
2817,8.398333563
2818,8.413774391
2819,8.459810841
2820,8.376738208
2821,8.404589665
2822,8.453356487
2823,8.348241573
2824,8.353050004
2825,8.389541667
2826,8.350383894
2827,8.373011886
2828,8.422590107
2829,8.426291909
2830,8.425542341
2831,8.315451366
2832,8.388413195
2833,8.431836085
2834,8.445779914
2835,8.34574235
2836,8.472756887
2837,8.332567407
2838,8.403323743
2839,8.329578221
2840,8.422509634
2841,8.444012345
2842,8.333373857
2843,8.447375816
2844,8.427052826
2845,8.422022138
2846,8.434869359
2847,8.433742983
2848,8.476238719
2849,8.384889535
2850,8.4466504
2851,8.361476705
2852,8.443833733
2853,8.404073869
2854,8.330305168
2855,8.357331424
2856,8.324275268
2857,8.360645835
2858,8.315905554
2859,8.383272634
2860,8.467306513
2861,8.380767764
2862,8.426560152
2863,8.477337956
2864,8.35409657
2865,8.432282772
2866,8.413912249
2867,8.38259758
2868,8.398913415
2869,8.443611374
2870,8.316703953
2871,8.295551947
2872,8.399568045
2873,8.416923264
2874,8.448298528
2875,8.421197958
2876,8.426097045
2877,8.361596016
2878,8.408523484
2879,8.476491821
2880,8.336143344
2881,8.339593188
2882,8.418128101
2883,8.456683959
2884,8.446283664
2885,8.333011487
2886,8.397395622
2887,8.363360836
2888,8.339892593
2889,8.30889093
2890,8.318997019
2891,8.406789134
2892,8.422365825
2893,8.370061229
2894,8.418093494
2895,8.464870836
2896,8.415956842
2897,8.406454532
2898,8.394356677
2899,8.380920049
2900,8.40740831
2901,8.44888328
2902,8.387991227
2903,8.398926743
2904,8.393857604
2905,8.439492797
2906,8.408917893
2907,8.373897459
2908,8.365273097
2909,8.437137663
2910,8.39951421
2911,8.439970232
2912,8.364565393
2913,8.4636062
2914,8.435133116
2915,8.416240322
2916,8.382768462
2917,8.43444393
2918,8.406917695
2919,8.436791291
2920,8.375496117
2921,8.437973414
2922,8.438052906
2923,8.44806629
2924,8.51277338
2925,8.314075019
2926,8.367107731
2927,8.412791528
2928,8.428420408
2929,8.372202136
2930,8.442380586
2931,8.435462739
2932,8.38684377
2933,8.456042842
2934,8.312340586
2935,8.23474999
2936,8.401293594
2937,8.485497535
2938,8.452226646
2939,8.455297155
2940,8.318454234
2941,8.409538007
2942,8.421154497
2943,8.431118416
2944,8.32122282
2945,8.263218397
2946,8.37540198
2947,8.332954835
2948,8.343490276
2949,8.332188037
2950,8.397083636
2951,8.379445753
2952,8.319590403
2953,8.444502169
2954,8.391956839
2955,8.417337753
2956,8.45886218
2957,8.467401155
2958,8.398309874
2959,8.292494348
2960,8.357021747
2961,8.396668917
2962,8.466895906
2963,8.440435798
2964,8.462627391
2965,8.394647576
2966,8.322985834
2967,8.487422598
2968,8.401371835
2969,8.371310987
2970,8.495967074
2971,8.442709173
2972,8.51500069
2973,8.377487173
2974,8.432834613
2975,8.378940251
2976,8.402014733
2977,8.415682539
2978,8.402716395
2979,8.457351439
2980,8.3984252
2981,8.371653317
2982,8.366803525
2983,8.279969298
2984,8.377419876
2985,8.264382416
2986,8.376636348
2987,8.473048536
2988,8.393987131
2989,8.376516976
2990,8.366239784
2991,8.392729573
2992,8.349705035
2993,8.406780341
2994,8.34186924
2995,8.324006729
2996,8.366537896
2997,8.401531637
2998,8.347815919
2999,8.312295358
3000,8.453730713
3001,8.347743977
3002,8.379811397
3003,8.474032816
3004,8.371288558
3005,8.29957099
3006,8.339747596
3007,8.492905784
3008,8.446292603
3009,8.442840185
3010,8.475944366
3011,8.460670113
3012,8.418281503
3013,8.469470286
3014,8.364367646
3015,8.349556026
3016,8.487754435
3017,8.429503923
3018,8.350110133
3019,8.488117347
3020,8.39772684
3021,8.330702046
3022,8.414039826
3023,8.384963604
3024,8.450747095
3025,8.396190079
3026,8.424350476
3027,8.456645165
3028,8.371262917
3029,8.473957967
3030,8.39109181
3031,8.391998668
3032,8.357585586
3033,8.315377108
3034,8.354868042
3035,8.32536051
3036,8.391563458
3037,8.38592257
3038,8.322746902
3039,8.429647794
3040,8.428572759
3041,8.496330343
3042,8.434466657
3043,8.355920999
3044,8.380099422
3045,8.476775723
3046,8.31173366
3047,8.489824007
3048,8.381424512
3049,8.410222268
3050,8.398889294
3051,8.517296731
3052,8.401275752
3053,8.409223427
3054,8.402029332
3055,8.367405123
3056,8.336989541
3057,8.365088153
3058,8.417014358
3059,8.431759942
3060,8.373637307
3061,8.401828123
3062,8.351439586
3063,8.446023817
3064,8.396784974
3065,8.445431065
3066,8.404725961
3067,8.24416179
3068,8.402584279
3069,8.376187334
3070,8.464898863
3071,8.410767407
3072,8.419328116
3073,8.322385917
3074,8.415168573
3075,8.342784793
3076,8.311655599
3077,8.483859597
3078,8.442650797
3079,8.348533017
3080,8.466084658
3081,8.402791832
3082,8.411016478
3083,8.385610993
3084,8.390657187
3085,8.410297578
3086,8.469019972
3087,8.436454175
3088,8.34373586
3089,8.417842068
3090,8.410312462
3091,8.33968941
3092,8.363754046
3093,8.512945519
3094,8.369478179
3095,8.32069061
3096,8.376955131
3097,8.383303967
3098,8.420071169
3099,8.335296864
3100,8.452091272
3101,8.446059698
3102,8.377084192
3103,8.393306446
3104,8.366710066
3105,8.394525885
3106,8.396350975
3107,8.32191276
3108,8.393786545
3109,8.417463805
3110,8.419199848
3111,8.452030814
3112,8.386170817
3113,8.371328884
3114,8.366418488
3115,8.422432568
3116,8.389222381
3117,8.41513657
3118,8.466063992
3119,8.483532717
3120,8.453219644
3121,8.44056701
3122,8.415921722
3123,8.468525445
3124,8.488519169
3125,8.505020269
3126,8.385884379
3127,8.470511175
3128,8.396873324
3129,8.377552714
3130,8.390767941
3131,8.278644698
3132,8.397805481
3133,8.333467477
3134,8.343662663
3135,8.446697083
3136,8.380968838
3137,8.417625826
3138,8.441768292
3139,8.434628914
3140,8.444022212
3141,8.442635437
3142,8.449140197
3143,8.405240698
3144,8.403535305
3145,8.356843839
3146,8.43532689
3147,8.382090868
3148,8.373753919
3149,8.400966762
3150,8.315208793
3151,8.428172706
3152,8.407696353
3153,8.426818378
3154,8.490897194
3155,8.343402857
3156,8.379863986
3157,8.312241658
3158,8.448950763
3159,8.34810934
3160,8.336677715
3161,8.447714303
3162,8.334234777
3163,8.383502746
3164,8.41382145
3165,8.371796867
3166,8.451512083
3167,8.425269417
3168,8.416419768
3169,8.392175185
3170,8.397541273
3171,8.354351904
3172,8.310482254
3173,8.40175452
3174,8.446754641
3175,8.3746519
3176,8.415102005
3177,8.425690789
3178,8.344709221
3179,8.336346252
3180,8.348800998
3181,8.44700553
3182,8.420913236
3183,8.303154518
3184,8.427948028
3185,8.300505591
3186,8.450289455
3187,8.402841411
3188,8.33657568
3189,8.37491324
3190,8.417331445
3191,8.345862957
3192,8.437451925
3193,8.356719665
3194,8.419279771
3195,8.442988776
3196,8.398191259
3197,8.495178569
3198,8.399597869
3199,8.462849156
3200,8.446637378
3201,8.339795443
3202,8.328104237
3203,8.408954647
3204,8.334853133
3205,8.411124342
3206,8.353323422
3207,8.46472425
3208,8.451672654
3209,8.434751749
3210,8.391659
3211,8.405488156
3212,8.403144989
3213,8.368422533
3214,8.380910818
3215,8.420378201
3216,8.412342441
3217,8.399684305
3218,8.403250316
3219,8.442932613
3220,8.364957545
3221,8.375756737
3222,8.390250594
3223,8.435684379
3224,8.364886168
3225,8.393322945
3226,8.373872536
3227,8.410688016
3228,8.367345055
3229,8.432187143
3230,8.422961385
3231,8.360373456
3232,8.391038453
3233,8.482971459
3234,8.385505654
3235,8.364040163
3236,8.326947631
3237,8.463622361
3238,8.436718018
3239,8.388561353
3240,8.400804564
3241,8.360067044
3242,8.423999217
3243,8.422614351
3244,8.467146854
3245,8.388398876
3246,8.388747676
3247,8.414962523
3248,8.477320424
3249,8.384170786
3250,8.419606006
3251,8.416596458
3252,8.376747557
3253,8.363437118
3254,8.385785278
3255,8.414134928
3256,8.382935516
3257,8.395751952
3258,8.317176151
3259,8.379235502
3260,8.475860594
3261,8.438596465
3262,8.416804168
3263,8.362657403
3264,8.392162492
3265,8.49279011
3266,8.395133365
3267,8.435860519
3268,8.364483391
3269,8.32454363
3270,8.413149735
3271,8.438929809
3272,8.390930183
3273,8.365128989
3274,8.40343088
3275,8.321543273
3276,8.394192349
3277,8.460540593
3278,8.331165607
3279,8.367066629
3280,8.382309129
3281,8.361804412
3282,8.36439461
3283,8.407458905
3284,8.360031719
3285,8.403468728
3286,8.39442533
3287,8.430331283
3288,8.421217465
3289,8.374271653
3290,8.480895844
3291,8.41935427
3292,8.344912996
3293,8.340882481
3294,8.442521752
3295,8.447778263
3296,8.376725849
3297,8.334803755
3298,8.391782212
3299,8.382457304
3300,8.431845778
3301,8.407610155
3302,8.362799402
3303,8.382842029
3304,8.449410993
3305,8.464624461
3306,8.401245075
3307,8.357377861
3308,8.451046139
3309,8.390695547
3310,8.354222637
3311,8.393723379
3312,8.333330793
3313,8.429304396
3314,8.392128657
3315,8.355516756
3316,8.30918148
3317,8.386131229
3318,8.382252559
3319,8.392232054
3320,8.425264207
3321,8.354466137
3322,8.390563139
3323,8.358778677
3324,8.4971564
3325,8.422586159
3326,8.467148112
3327,8.368521836
3328,8.475324246
3329,8.381903302
3330,8.460440558
3331,8.396803144
3332,8.347959184
3333,8.423333406
3334,8.41168912
3335,8.463881862
3336,8.376043433
3337,8.335657278
3338,8.479435862
3339,8.455522201
3340,8.44768138
3341,8.324700355
3342,8.401214968
3343,8.400536032
3344,8.435594854
3345,8.356216337
3346,8.334032843
3347,8.35132344
3348,8.380644435
3349,8.409398826
3350,8.401169941
3351,8.348536505
3352,8.36963768
3353,8.390981975
3354,8.463725424
3355,8.427793189
3356,8.399509893
3357,8.439155196
3358,8.450999439
3359,8.357195646
3360,8.419311378
3361,8.329584248
3362,8.391409995
3363,8.387542451
3364,8.363329221
3365,8.414802948
3366,8.372805568
3367,8.33771805
3368,8.306214109
3369,8.340240628
3370,8.385627155
3371,8.351542806
3372,8.411133526
3373,8.348497271
3374,8.443557418
3375,8.386949053
3376,8.34659835
3377,8.351939588
3378,8.268693663
3379,8.433037404
3380,8.298860228
3381,8.371298099
3382,8.332572049
3383,8.439177266
3384,8.355518689
3385,8.318992179
3386,8.435813373
3387,8.374699301
3388,8.38741671
3389,8.422409569
3390,8.403858434
3391,8.453902795
3392,8.411554186
3393,8.415517248
3394,8.393322796
3395,8.408846291
3396,8.433415617
3397,8.337089918
3398,8.408394727
3399,8.375926744
3400,8.37536634
3401,8.373801735
3402,8.462263643
3403,8.364496124
3404,8.371323522
3405,8.453360227
3406,8.426630858
3407,8.373780094
3408,8.331433273
3409,8.423302992
3410,8.335692723
3411,8.474272418
3412,8.427062325
3413,8.441179854
3414,8.361518336
3415,8.339322198
3416,8.416330612
3417,8.410287926
3418,8.403121443
3419,8.426649032
3420,8.395954386
3421,8.465599369
3422,8.401452181
3423,8.384484899
3424,8.350021183
3425,8.433309947
3426,8.333963389
3427,8.493949592
3428,8.28161575
3429,8.314144919
3430,8.478340138
3431,8.423328884
3432,8.406192042
3433,8.438204073
3434,8.469117992
3435,8.491299387
3436,8.327394234
3437,8.422412302
3438,8.429406214
3439,8.445461603
3440,8.398228234
3441,8.327852123
3442,8.449007149
3443,8.369705672
3444,8.406386699
3445,8.403625464
3446,8.453192971
3447,8.360232486
3448,8.460703603
3449,8.309081048
3450,8.405789461
3451,8.373386808
3452,8.446214445
3453,8.300413746
3454,8.366940993
3455,8.405415419
3456,8.403020775
3457,8.285674703
3458,8.48868844
3459,8.398719035
3460,8.413323103
3461,8.438627202
3462,8.377087018
3463,8.233806011
3464,8.476902189
3465,8.43586045
3466,8.407186512
3467,8.487295598
3468,8.428582796
3469,8.310015419
3470,8.35410582
3471,8.409769397
3472,8.38286727
3473,8.423954114
3474,8.393686476
3475,8.454356925
3476,8.366343563
3477,8.4154391
3478,8.450809922
3479,8.269587906
3480,8.414886662
3481,8.38875228
3482,8.41149686
3483,8.380712382
3484,8.327110952
3485,8.430778661
3486,8.476086345
3487,8.338352699
3488,8.456997361
3489,8.354613992
3490,8.429129493
3491,8.499893569
3492,8.488102679
3493,8.345308586
3494,8.347584453
3495,8.375227298
3496,8.321685214
3497,8.358131909
3498,8.519273191
3499,8.432720685
3500,8.369663109
3501,8.392671282
3502,8.411284182
3503,8.336291932
3504,8.356788372
3505,8.338587373
3506,8.386725814
3507,8.362113547
3508,8.368275228
3509,8.334346654
3510,8.447067917
3511,8.385040816
3512,8.368482515
3513,8.440436613
3514,8.471974735
3515,8.305759083
3516,8.378203173
3517,8.336374001
3518,8.402784147
3519,8.338439695
3520,8.315867765
3521,8.382436919
3522,8.316663738
3523,8.341449664
3524,8.324975207
3525,8.443535919
3526,8.454489514
3527,8.424379406
3528,8.357692043
3529,8.383670114
3530,8.408954043
3531,8.400480033
3532,8.410576655
3533,8.396748909
3534,8.328188879
3535,8.360966389
3536,8.433155629
3537,8.425023181
3538,8.443343127
3539,8.527207361
3540,8.390199633
3541,8.346855239
3542,8.412224514
3543,8.499597709
3544,8.391792682
3545,8.319793596
3546,8.317766959
3547,8.38915251
3548,8.344288318
3549,8.349285051
3550,8.397036388
3551,8.388900695
3552,8.320636215
3553,8.396855313
3554,8.392014296
3555,8.355934255
3556,8.404068146
3557,8.383883384
3558,8.3544494
3559,8.389146865
3560,8.342951511
3561,8.381417741
3562,8.457061331
3563,8.396367603
3564,8.408553664
3565,8.398770919
3566,8.404904482
3567,8.361521338
3568,8.348780404
3569,8.495840378
3570,8.421449437
3571,8.510307722
3572,8.438328271
3573,8.342110209
3574,8.360613206
3575,8.448749785
3576,8.369599594
3577,8.327474704
3578,8.473909609
3579,8.466711402
3580,8.384741515
3581,8.471968592
3582,8.393433849
3583,8.400552457
3584,8.460495225
3585,8.408865731
3586,8.341839434
3587,8.381631143
3588,8.492942076
3589,8.499908266
3590,8.467516731
3591,8.452615996
3592,8.404312592
3593,8.467518103
3594,8.431676859
3595,8.320404342
3596,8.377799947
3597,8.400945517
3598,8.331244731
3599,8.401196117
3600,8.453187854
3601,8.472295948
3602,8.463652064
3603,8.38346145
3604,8.35342741
3605,8.393470844
3606,8.361525845
3607,8.42017498
3608,8.437436279
3609,8.326195153
3610,8.384799459
3611,8.434100166
3612,8.36671123
3613,8.287280551
3614,8.468673444
3615,8.397795442
3616,8.461329836
3617,8.40648062
3618,8.359388813
3619,8.288537021
3620,8.345472217
3621,8.359509505
3622,8.471002499
3623,8.292581587
3624,8.321065789
3625,8.36320837
3626,8.397263003
3627,8.447864964
3628,8.2920682
3629,8.366295713
3630,8.372951652
3631,8.308601745
3632,8.451408277
3633,8.417763091
3634,8.48517382
3635,8.44558403
3636,8.370838913
3637,8.424784125
3638,8.411084826
3639,8.3392346
3640,8.424351799
3641,8.37365028
3642,8.452965903
3643,8.478992344
3644,8.386229188
3645,8.317474803
3646,8.315976555
3647,8.337187521
3648,8.495751127
3649,8.373055691
3650,8.505458556
3651,8.367698461
3652,8.45398697
3653,8.39132695
3654,8.391106022
3655,8.388403895
3656,8.39662281
3657,8.453404418
3658,8.464839671
3659,8.377988868
3660,8.365266871
3661,8.377071604
3662,8.389995632
3663,8.409966081
3664,8.479774345
3665,8.399553936
3666,8.43180172
3667,8.48363052
3668,8.357636246
3669,8.459355894
3670,8.438136732
3671,8.340162942
3672,8.337029942
3673,8.378735364
3674,8.360873303
3675,8.374152519
3676,8.48686398
3677,8.428411061
3678,8.407157751
3679,8.298780975
3680,8.449006791
3681,8.482448827
3682,8.421172579
3683,8.309868885
3684,8.448798162
3685,8.422471945
3686,8.474482038
3687,8.459542103
3688,8.415240335
3689,8.372438662
3690,8.43387579
3691,8.449568934
3692,8.415523377
3693,8.434058464
3694,8.426953258
3695,8.279832561
3696,8.397729209
3697,8.358552651
3698,8.301180395
3699,8.449644011
3700,8.425994898
3701,8.380533498
3702,8.370424349
3703,8.415348059
3704,8.471062793
3705,8.380329685
3706,8.398463818
3707,8.372694289
3708,8.382168689
3709,8.515865542
3710,8.442469885
3711,8.4631784
3712,8.301510041
3713,8.419426024
3714,8.34549118
3715,8.341506455
3716,8.3985475
3717,8.461154908
3718,8.499821142
3719,8.355371155
3720,8.340070218
3721,8.388509675
3722,8.299990424
3723,8.447278312
3724,8.445193908
3725,8.417157668
3726,8.45105103
3727,8.415299103
3728,8.411764277
3729,8.364010407
3730,8.369700023
3731,8.40001775
3732,8.446629723
3733,8.369684383
3734,8.458527108
3735,8.327497761
3736,8.348090985
3737,8.434140965
3738,8.398296058
3739,8.418052522
3740,8.322603775
3741,8.433391409
3742,8.393688791
3743,8.383370196
3744,8.426149401
3745,8.436638298
3746,8.49331065
3747,8.267297164
3748,8.339085704
3749,8.426021682
3750,8.41344387
3751,8.454384924
3752,8.428042024
3753,8.349094935
3754,8.321056131
3755,8.345507597
3756,8.358283369
3757,8.385724485
3758,8.438632969
3759,8.446897019
3760,8.364830288
3761,8.445055572
3762,8.400258788
3763,8.461515901
3764,8.465261004
3765,8.401514251
3766,8.385398787
3767,8.430437505
3768,8.353334608
3769,8.325402421
3770,8.528237129
3771,8.383626426
3772,8.424157251
3773,8.377025443
3774,8.417218412
3775,8.308664225
3776,8.358542313
3777,8.42151561
3778,8.399352859
3779,8.500088898
3780,8.38877682
3781,8.356898375
3782,8.42285155
3783,8.308999838
3784,8.42252636
3785,8.504198002
3786,8.403879265
3787,8.414629956
3788,8.332010078
3789,8.35967865
3790,8.353256241
3791,8.456354459
3792,8.477520449
3793,8.458767481
3794,8.328648566
3795,8.446815006
3796,8.462850227
3797,8.42945428
3798,8.493030932
3799,8.520423584
3800,8.454657277
3801,8.391371629
3802,8.420590398
3803,8.418031982
3804,8.421243544
3805,8.458955607
3806,8.434099952
3807,8.413173603
3808,8.386133596
3809,8.447429594
3810,8.381892929
3811,8.332200838
3812,8.409202992
3813,8.300694628
3814,8.410746409
3815,8.392474599
3816,8.376713997
3817,8.407570884
3818,8.464290516
3819,8.501326608
3820,8.432161319
3821,8.343480514
3822,8.321657721
3823,8.415734729
3824,8.374767553
3825,8.393355701
3826,8.394457791
3827,8.412796221
3828,8.397581051
3829,8.370786609
3830,8.415970203
3831,8.412670467
3832,8.397731387
3833,8.399594473
3834,8.491381463
3835,8.409215407
3836,8.481772882
3837,8.48005255
3838,8.396732051
3839,8.352287146
3840,8.313995294
3841,8.418234755
3842,8.394459249
3843,8.491247545
3844,8.454246672
3845,8.410008964
3846,8.382248251
3847,8.468208474
3848,8.421906325
3849,8.324076359
3850,8.313263237
3851,8.41876845
3852,8.380051032
3853,8.470656571
3854,8.39882166
3855,8.484547393
3856,8.460839915
3857,8.387067979
3858,8.331054224
3859,8.395692535
3860,8.421349063
3861,8.347532954
3862,8.394900255
3863,8.496702106
3864,8.363033488
3865,8.413372199
3866,8.373371383
3867,8.376314853
3868,8.488973455
3869,8.361303799
3870,8.32053246
3871,8.406263752
3872,8.378221554
3873,8.402848226
3874,8.458111274
3875,8.399564999
3876,8.36877368
3877,8.413624895
3878,8.411072374
3879,8.503832437
3880,8.333790886
3881,8.475893426
3882,8.290856763
3883,8.388531515
3884,8.327160186
3885,8.396820047
3886,8.342278251
3887,8.47575545
3888,8.394878631
3889,8.46083041
3890,8.47924497
3891,8.381005911
3892,8.370758904
3893,8.479089468
3894,8.380547552
3895,8.477246732
3896,8.493925641
3897,8.352185845
3898,8.371381731
3899,8.435010881
3900,8.374398432
3901,8.348162703
3902,8.412565256
3903,8.415226252
3904,8.415082316
3905,8.36389774
3906,8.404407405
3907,8.38275808
3908,8.375562487
3909,8.421489417
3910,8.407494086
3911,8.560963623
3912,8.355557808
3913,8.345301013
3914,8.356632129
3915,8.328417811
3916,8.407422738
3917,8.392004621
3918,8.353867859
3919,8.365968392
3920,8.425873487
3921,8.480229517
3922,8.351583152
3923,8.448214227
3924,8.396960556
3925,8.390038999
3926,8.432794008
3927,8.426515971
3928,8.431965717
3929,8.354387599
3930,8.327323573
3931,8.34701855
3932,8.450096179
3933,8.43783428
3934,8.285774191
3935,8.489205208
3936,8.473408711
3937,8.392979862
3938,8.447538969
3939,8.348355935
3940,8.407604781
3941,8.454279652
3942,8.493254935
3943,8.403759044
3944,8.349846226
3945,8.398914009
3946,8.382714123
3947,8.341595895
3948,8.430528666
3949,8.471433765
3950,8.357485561
3951,8.50854009
3952,8.404426054
3953,8.407349744
3954,8.389150276
3955,8.419572313
3956,8.375540387
3957,8.406424706
3958,8.359436904
3959,8.467720488
3960,8.31793463
3961,8.344877182
3962,8.373720032
3963,8.325442803
3964,8.379046318
3965,8.306767238
3966,8.492400924
3967,8.426960108
3968,8.354038093
3969,8.416647639
3970,8.464560397
3971,8.376963214
3972,8.398469982
3973,8.443638525
3974,8.452822565
3975,8.38267311
3976,8.42425452
3977,8.335672863
3978,8.344308963
3979,8.420686312
3980,8.451698451
3981,8.312638866
3982,8.41751921
3983,8.445106748
3984,8.396118806
3985,8.374819381
3986,8.476485899
3987,8.451511549
3988,8.368031739
3989,8.427467875
3990,8.353996753
3991,8.391811381
3992,8.463858942
3993,8.445795433
3994,8.445814247
3995,8.444030534
3996,8.420133432
3997,8.459063786
3998,8.448854106
3999,8.323556405
4000,8.426720467
