Raman Shift,Intensity
89.02838,2483.566
89.5105,2528.64
89.99261,2575.249
90.47473,2622.295
90.95685,2669.628
91.43896,2717.536
91.92108,2766.04
92.4032,2812.484
92.88531,2822.483
93.36743,2779.427
93.84955,2698.943
94.33167,2622.623
94.81378,2544.762
95.2959,2478.947
95.77802,2423.955
96.26013,2377.047
96.74225,2337.315
97.22437,2303.528
97.70648,2271.408
98.1886,2238.905
98.67072,2208.124
99.15283,2179.634
99.63495,2153.284
100.1171,2129.189
100.5992,2107.917
101.0813,2089.585
101.5634,2072.625
102.0455,2055.188
102.5277,2038.343
103.0098,2022.745
103.4919,2008.554
103.974,1995.669
104.4561,1984.263
104.9382,1975.883
105.4204,1966.809
105.9025,1956.79
106.3846,1945.654
106.8667,1932.837
107.3488,1917.445
107.8309,1900.177
108.3131,1886.749
108.7952,1878.412
109.2773,1871.953
109.7594,1866.17
110.2415,1860.918
110.7236,1855.532
111.2058,1848.723
111.6879,1841.296
112.17,1835.936
112.6521,1835.342
113.1342,1836.605
113.6163,1834.744
114.0985,1828.663
114.5806,1821.207
115.0627,1813.116
115.5448,1805.089
116.0269,1798.874
116.509,1796.688
116.9912,1798.425
117.4733,1798.495
117.9554,1794.53
118.4375,1790.64
118.9196,1789.229
119.4017,1789.848
119.8839,1790.022
120.366,1786.052
120.8481,1774.09
121.3302,1767.74
121.8123,1772.082
122.2944,1777.284
122.7766,1775.994
123.2587,1766.521
123.7408,1753.44
124.2229,1745.463
124.705,1747.665
125.1871,1748.725
125.6693,1748.673
126.1514,1747.341
126.6335,1744.237
127.1156,1738.95
127.5977,1732.272
128.0798,1726.552
128.562,1722.043
129.0441,1717.773
129.5262,1713.567
130.0083,1709.364
130.4904,1704.856
130.9725,1699.527
131.4547,1694.044
131.9368,1689.763
132.4189,1687.328
132.901,1685.445
133.3831,1682.55
133.8652,1678.321
134.3474,1674.895
134.8295,1674.771
135.3116,1675.679
135.7937,1674.902
136.2758,1670.558
136.7579,1664.479
137.2401,1661.905
137.7222,1666.087
138.2043,1668.774
138.6864,1666.681
139.1685,1661.625
139.6507,1656.216
140.1328,1652.084
140.6149,1649.191
141.097,1647.017
141.5791,1646.409
142.0612,1645.761
142.5434,1645.356
143.0255,1644.666
143.5076,1642.576
143.9897,1637.896
144.4718,1630.023
144.9539,1622.874
145.4361,1616.533
145.9182,1610.636
146.4003,1605.249
146.8824,1600.262
147.3645,1595.115
147.8466,1589.03
148.3288,1581.419
148.8109,1575.026
149.293,1570.041
149.7751,1566.186
150.2572,1563.599
150.7393,1562.461
151.2215,1561.521
151.7036,1558.683
152.1857,1554.055
152.6678,1549.655
153.1499,1546.513
153.632,1544.102
154.1142,1541.228
154.5963,1537.853
155.0784,1533.509
155.5605,1526.818
156.0426,1517.797
156.5247,1510.543
157.0069,1509.129
157.489,1513.427
157.9711,1516.63
158.4532,1517.345
158.9353,1516.315
159.4174,1513.095
159.8996,1507.741
160.3817,1502.654
160.8638,1501.296
161.3459,1505.336
161.828,1507.422
162.3102,1505.586
162.7923,1502.205
163.2744,1498.783
163.7565,1495.74
164.2386,1492.485
164.7207,1487.518
165.2029,1477.961
165.685,1471.634
166.1671,1470.778
166.6492,1472.18
167.1313,1472.805
167.6134,1471.358
168.0956,1468.882
168.5777,1468.431
169.0598,1473.137
169.5419,1476.367
170.024,1477.308
170.5061,1476.571
170.9883,1474.681
171.4704,1471.72
171.9525,1468.257
172.4346,1466.861
172.9167,1469.328
173.3988,1471.379
173.881,1471.417
174.3631,1470.012
174.8452,1468.654
175.3273,1468.208
175.8094,1468.373
176.2915,1468.025
176.7737,1466.909
177.2558,1465.618
177.7379,1464.282
178.22,1462.948
178.7021,1462.141
179.1842,1462.617
179.6664,1463.659
180.1485,1463.894
180.6306,1462.996
181.1127,1461.423
181.5948,1459.546
182.0769,1457.303
182.5591,1455.043
183.0412,1452.812
183.5233,1450.693
184.0054,1448.65
184.4875,1446.313
184.9696,1444.476
185.4518,1445.131
185.9339,1449.92
186.416,1453.427
186.8981,1453.804
187.3802,1451.968
187.8623,1448.55
188.3445,1443.479
188.8266,1437.509
189.3087,1433.238
189.7908,1431.144
190.2729,1430.328
190.755,1431.382
191.2372,1433.248
191.7193,1434.622
192.2014,1434.754
192.6835,1433.741
193.1656,1432.176
193.6477,1429.435
194.1299,1426.749
194.612,1424.182
195.0941,1421.825
195.5762,1419.987
196.0583,1419.006
196.5404,1418.74
197.0226,1416.507
197.5047,1409.01
197.9868,1403.112
198.4689,1401.095
198.951,1402.25
199.4331,1405.047
199.9153,1408.811
200.3974,1413.394
200.8795,1414.294
201.3616,1408.173
201.8437,1402.422
202.3258,1400.673
202.808,1402.27
203.2901,1404.1
203.7722,1403.846
204.2543,1401.721
204.7364,1401.015
205.2185,1403.067
205.7007,1405.302
206.1828,1405.867
206.6649,1404.89
207.147,1404.049
207.6291,1404.607
208.1112,1406.345
208.5934,1407.812
209.0755,1409.071
209.5576,1409.969
210.0397,1410.176
210.5218,1409.666
211.0039,1409.23
211.4861,1409.48
211.9682,1410.172
212.4503,1410.787
212.9324,1410.935
213.4145,1411.164
213.8967,1412.171
214.3788,1414.036
214.8609,1416.282
215.343,1419.411
215.8251,1422.575
216.3072,1424.727
216.7894,1425.884
217.2715,1425.554
217.7536,1421.965
218.2357,1413.177
218.7178,1406.598
219.1999,1406.926
219.6821,1410.56
220.1642,1413.654
220.6463,1414.626
221.1284,1414.208
221.6105,1414.189
222.0926,1415.337
222.5748,1415.281
223.0569,1411.777
223.539,1407.438
224.0211,1405.496
224.5032,1407.794
224.9853,1412.5
225.4675,1414.469
225.9496,1412.183
226.4317,1409.32
226.9138,1406.186
227.3959,1403.166
227.878,1400.599
228.3602,1398.633
228.8423,1397.289
229.3244,1396.763
229.8065,1398.827
230.2886,1399.129
230.7707,1396.063
231.2529,1391.42
231.735,1386.976
232.2171,1383.56
232.6992,1381.179
233.1813,1379.931
233.6634,1382.382
234.1456,1382.804
234.6277,1379.117
235.1098,1373.784
235.5919,1369.779
236.074,1368.472
236.5561,1368.837
237.0383,1367.834
237.5204,1363.148
238.0025,1359.811
238.4846,1359.326
238.9667,1359.965
239.4488,1359.677
239.931,1357.6
240.4131,1354.228
240.8952,1350.705
241.3773,1344.583
241.8594,1341.698
242.3415,1345.98
242.8237,1352.783
243.3058,1355.765
243.7879,1352.408
244.27,1345.642
244.7521,1341.691
245.2342,1341.937
245.7164,1341.967
246.1985,1341.044
246.6806,1339.54
247.1627,1337.884
247.6448,1336.165
248.1269,1334.505
248.6091,1333.103
249.0912,1331.932
249.5733,1331.01
250.0554,1330.625
250.5375,1330.411
251.0196,1329.723
251.5018,1328.319
251.9839,1326.79
252.466,1326.236
252.9481,1326.774
253.4302,1326.72
253.9123,1325.041
254.3945,1322.71
254.8766,1321.1
255.3587,1320.452
255.8408,1320.699
256.3229,1322.36
256.8051,1325.223
257.2872,1327.518
257.7693,1328.715
258.2514,1329.044
258.7335,1328.401
259.2156,1326.311
259.6978,1324.881
260.1799,1327.265
260.662,1332.31
261.1441,1336.26
261.6262,1337.202
262.1083,1336.573
262.5905,1336.914
263.0726,1338.754
263.5547,1340.156
264.0368,1339.695
264.5189,1337.713
265.001,1334.456
265.4832,1329.049
265.9653,1322.802
266.4474,1317.319
266.9295,1312.264
267.4116,1309.366
267.8937,1312.623
268.3759,1318.22
268.858,1320.642
269.3401,1316.987
269.8222,1310.484
270.3043,1305.582
270.7864,1302.409
271.2686,1300.301
271.7507,1299.875
272.2328,1300.025
272.7149,1299.639
273.197,1298.396
273.6791,1296.548
274.1613,1294.246
274.6434,1291.314
275.1255,1288.702
275.6076,1287.0
276.0897,1285.656
276.5718,1284.471
277.054,1283.499
277.5361,1282.047
278.0182,1278.635
278.5003,1272.75
278.9824,1268.574
279.4645,1268.082
279.9467,1269.237
280.4288,1271.351
280.9109,1274.266
281.393,1276.818
281.8751,1277.174
282.3572,1275.017
282.8394,1274.685
283.3215,1279.752
283.8036,1284.476
284.2857,1285.022
284.7678,1281.591
285.2499,1277.521
285.7321,1276.181
286.2142,1277.669
286.6963,1277.391
287.1784,1272.045
287.6605,1268.029
288.1426,1269.576
288.6248,1275.32
289.1069,1280.629
289.589,1281.521
290.0711,1278.426
290.5532,1277.018
291.0353,1278.534
291.5175,1280.309
291.9996,1281.559
292.4817,1282.274
292.9638,1282.364
293.4459,1281.399
293.928,1279.913
294.4102,1280.607
294.8923,1285.91
295.3744,1289.563
295.8565,1288.705
296.3386,1285.648
296.8207,1283.301
297.3029,1283.084
297.785,1284.333
298.2671,1285.591
298.7492,1287.392
299.2313,1288.081
299.7134,1286.458
300.1956,1284.164
300.6777,1282.627
301.1598,1282.326
301.6419,1282.918
302.124,1283.986
302.6061,1285.846
303.0883,1287.247
303.5704,1287.424
304.0525,1287.484
304.5346,1288.243
305.0167,1289.813
305.4988,1291.598
305.981,1292.81
306.4631,1293.251
306.9452,1293.968
307.4273,1294.625
307.9094,1295.887
308.3915,1298.687
308.8737,1302.636
309.3558,1306.166
309.8379,1307.093
310.32,1305.152
310.8021,1306.207
311.2842,1313.192
311.7664,1320.427
312.2485,1325.977
312.7306,1330.187
313.2127,1334.115
313.6948,1338.303
314.1769,1342.808
314.6591,1348.117
315.1412,1354.978
315.6233,1361.66
316.1054,1367.78
316.5875,1373.421
317.0696,1378.368
317.5518,1382.262
318.0339,1386.228
318.516,1393.638
318.9981,1407.46
319.4802,1418.598
319.9623,1424.614
320.4445,1427.867
320.9266,1429.765
321.4087,1430.797
321.8908,1431.806
322.3729,1434.662
322.855,1440.709
323.3372,1443.816
323.8193,1441.743
324.3014,1437.563
324.7835,1432.892
325.2656,1427.901
325.7477,1421.735
326.2299,1412.673
326.712,1400.234
327.1941,1390.066
327.6762,1383.808
328.1583,1378.534
328.6404,1373.335
329.1226,1368.068
329.6047,1362.643
330.0868,1357.011
330.5689,1351.166
331.051,1344.947
331.5331,1337.444
332.0153,1331.031
332.4974,1327.325
332.9795,1324.937
333.4616,1321.774
333.9437,1316.679
334.4258,1310.608
334.908,1305.703
335.3901,1302.186
335.8722,1299.331
336.3543,1297.128
336.8365,1295.356
337.3186,1293.965
337.8007,1292.975
338.2828,1292.02
338.7649,1290.469
339.247,1288.173
339.7292,1286.439
340.2113,1286.368
340.6934,1286.255
341.1755,1284.527
341.6576,1281.32
342.1397,1278.652
342.6219,1278.391
343.104,1280.319
343.5861,1282.399
344.0682,1285.182
344.5503,1287.028
345.0324,1286.633
345.5146,1284.664
345.9967,1282.801
346.4788,1281.956
346.9609,1281.801
347.443,1281.536
347.9251,1281.051
348.4073,1280.782
348.8894,1281.678
349.3715,1282.7
349.8536,1282.362
350.3357,1279.805
350.8178,1276.739
351.3,1275.123
351.7821,1275.005
352.2642,1275.638
352.7463,1277.709
353.2284,1279.74
353.7105,1280.186
354.1927,1278.869
354.6748,1276.916
355.1569,1274.408
355.639,1271.72
356.1211,1270.817
356.6032,1273.044
357.0854,1275.42
357.5675,1274.877
358.0496,1271.957
358.5317,1269.132
359.0138,1267.668
359.4959,1266.758
359.9781,1264.705
360.4602,1261.137
360.9423,1258.391
361.4244,1259.059
361.9065,1261.726
362.3886,1262.789
362.8708,1260.492
363.3529,1257.763
363.835,1257.151
364.3171,1258.368
364.7992,1259.501
365.2813,1259.697
365.7635,1259.331
366.2456,1259.156
366.7277,1259.188
367.2098,1259.314
367.6919,1259.531
368.174,1259.799
368.6562,1260.265
369.1383,1261.109
369.6204,1261.388
370.1025,1259.289
370.5846,1254.558
371.0667,1251.784
371.5489,1253.242
372.031,1255.763
372.5131,1256.341
372.9952,1254.908
373.4773,1253.576
373.9594,1254.359
374.4416,1256.746
374.9237,1255.69
375.4058,1247.727
375.8879,1240.43
376.37,1237.678
376.8521,1237.747
377.3343,1237.024
377.8164,1233.877
378.2985,1229.104
378.7806,1224.486
379.2627,1219.625
379.7448,1215.607
380.227,1213.374
380.7091,1211.546
381.1912,1208.244
381.6733,1203.34
382.1554,1199.088
382.6375,1198.368
383.1197,1202.556
383.6018,1203.113
384.0839,1196.786
384.566,1190.665
385.0481,1188.102
385.5302,1188.43
386.0124,1189.525
386.4945,1190.104
386.9766,1190.127
387.4587,1189.341
387.9408,1186.252
388.4229,1184.167
388.9051,1184.131
389.3872,1184.916
389.8693,1185.508
390.3514,1185.502
390.8335,1184.702
391.3156,1182.463
391.7978,1177.621
392.2799,1174.559
392.762,1174.84
393.2441,1175.469
393.7262,1175.036
394.2083,1173.536
394.6905,1171.629
395.1726,1169.759
395.6547,1167.932
396.1368,1166.357
396.6189,1166.164
397.101,1164.477
397.5832,1158.895
398.0653,1151.985
398.5474,1147.387
399.0295,1146.79
399.5116,1147.719
399.9937,1146.219
400.4759,1141.988
400.958,1136.892
401.4401,1129.436
401.9222,1122.733
402.4043,1119.582
402.8864,1119.938
403.3686,1120.547
403.8507,1118.987
404.3328,1115.677
404.8149,1112.3
405.297,1108.685
405.7791,1105.666
406.2613,1104.338
406.7434,1103.966
407.2255,1103.023
407.7076,1100.596
408.1897,1097.832
408.6718,1095.993
409.154,1095.051
409.6361,1094.535
410.1182,1094.57
410.6003,1094.643
411.0824,1093.713
411.5645,1091.368
412.0467,1089.639
412.5288,1089.973
413.0109,1091.369
413.493,1092.116
413.9751,1091.87
414.4572,1091.015
414.9394,1089.884
415.4215,1088.453
415.9036,1086.749
416.3857,1083.85
416.8678,1081.483
417.3499,1081.703
417.8321,1083.658
418.3142,1084.088
418.7963,1080.887
419.2784,1075.418
419.7605,1072.401
420.2426,1073.484
420.7248,1074.637
421.2069,1076.144
421.689,1077.159
422.1711,1076.137
422.6532,1073.01
423.1353,1070.071
423.6175,1070.311
424.0996,1074.761
424.5817,1077.109
425.0638,1076.077
425.5459,1074.545
426.028,1073.623
426.5102,1073.072
426.9923,1071.98
427.4744,1069.698
427.9565,1066.976
428.4386,1066.691
428.9207,1071.542
429.4029,1073.858
429.885,1070.945
430.3671,1066.625
430.8492,1063.695
431.3313,1062.711
431.8134,1062.804
432.2956,1063.349
432.7777,1064.368
433.2598,1065.005
433.7419,1065.447
434.2241,1065.16
434.7062,1063.718
435.1883,1061.482
435.6704,1059.036
436.1525,1056.291
436.6346,1053.939
437.1168,1053.699
437.5989,1055.901
438.081,1056.55
438.5631,1052.135
439.0452,1047.217
439.5273,1047.724
440.0095,1054.365
440.4916,1059.985
440.9737,1059.936
441.4558,1056.354
441.9379,1053.641
442.42,1052.458
442.9022,1051.419
443.3843,1049.18
443.8664,1046.025
444.3485,1043.701
444.8306,1042.015
445.3127,1041.437
445.7949,1043.245
446.277,1046.422
446.7591,1048.26
447.2412,1047.59
447.7233,1045.349
448.2054,1043.193
448.6876,1040.849
449.1697,1039.269
449.6518,1038.734
450.1339,1038.819
450.616,1039.476
451.0981,1040.524
451.5803,1041.598
452.0624,1042.571
452.5445,1043.307
453.0266,1041.911
453.5087,1034.446
453.9908,1029.356
454.473,1029.673
454.9551,1032.156
455.4372,1033.091
455.9193,1031.354
456.4014,1028.663
456.8835,1027.543
457.3657,1028.462
457.8478,1028.793
458.3299,1027.549
458.812,1026.565
459.2941,1026.987
459.7762,1028.272
460.2584,1029.068
460.7405,1028.538
461.2226,1027.177
461.7047,1026.063
462.1868,1025.311
462.6689,1024.191
463.1511,1021.388
463.6332,1018.862
464.1153,1018.976
464.5974,1022.068
465.0795,1024.919
465.5616,1025.67
466.0438,1024.792
466.5259,1023.067
467.008,1020.44
467.4901,1017.913
467.9722,1016.132
468.4543,1015.145
468.9365,1014.852
469.4186,1015.843
469.9007,1016.925
470.3828,1018.077
470.8649,1018.817
471.347,1017.784
471.8292,1014.382
472.3113,1010.036
472.7934,1006.826
473.2755,1005.036
473.7576,1003.839
474.2397,1003.308
474.7219,1003.267
475.204,1003.925
475.6861,1005.002
476.1682,1005.98
476.6503,1006.607
477.1324,1006.648
477.6146,1004.969
478.0967,998.8483
478.5788,995.4808
479.0609,997.3346
479.543,1000.646
480.0251,1003.109
480.5073,1004.094
480.9894,1003.442
481.4715,1000.204
481.9536,994.6978
482.4357,991.3566
482.9178,991.1202
483.4,991.4771
483.8821,991.642
484.3642,991.5776
484.8463,991.14
485.3284,990.1732
485.8105,989.2132
486.2927,988.707
486.7748,988.6378
487.2569,989.0122
487.739,990.0273
488.2211,991.0768
488.7032,991.7311
489.1854,991.9771
489.6675,991.2466
490.1496,988.1431
490.6317,985.0768
491.1138,984.0008
491.5959,984.6868
492.0781,986.2296
492.5602,988.3723
493.0423,990.6638
493.5244,992.155
494.0065,993.0277
494.4886,992.6174
494.9708,988.9645
495.4529,985.4754
495.935,985.4514
496.4171,988.3062
496.8992,990.4866
497.3813,989.056
497.8635,984.842
498.3456,983.0974
498.8277,985.2308
499.3098,987.8628
499.7919,991.5353
500.274,994.7733
500.7562,995.8099
501.2383,994.5729
501.7204,993.2375
502.2025,994.8088
502.6846,998.8353
503.1667,999.2606
503.6489,993.2697
504.131,989.0047
504.6131,993.1021
505.0952,1000.971
505.5773,1005.959
506.0594,1006.063
506.5416,1004.345
507.0237,1002.555
507.5058,1000.895
507.9879,1000.043
508.47,1000.142
508.9521,1001.165
509.4343,1003.765
509.9164,1007.886
510.3985,1009.796
510.8806,1007.345
511.3627,1004.497
511.8448,1003.801
512.327,1004.418
512.8091,1003.993
513.2912,1001.467
513.7733,998.355
514.2554,997.6162
514.7375,1001.237
515.2197,1002.525
515.7018,998.0712
516.1839,994.798
516.666,998.0257
517.1481,1005.4
517.6302,1010.683
518.1124,1009.942
518.5945,1005.387
519.0766,1002.608
519.5587,1001.917
520.0408,1001.888
520.5229,1002.711
521.0051,1003.732
521.4872,1004.772
521.9693,1005.703
522.4514,1006.023
522.9335,1005.192
523.4156,1003.639
523.8978,1001.907
524.3799,999.9636
524.862,998.8351
525.3441,999.5236
525.8262,1001.006
526.3083,1001.065
526.7905,999.3359
527.2726,997.6488
527.7547,996.0946
528.2368,995.1346
528.7189,995.7443
529.201,997.7573
529.6832,999.5169
530.1653,999.7171
530.6474,998.6185
531.1295,998.0427
531.6116,999.2554
532.0938,999.3473
532.5759,997.6976
533.058,995.0314
533.5401,991.2482
534.0222,986.7959
534.5043,983.4105
534.9865,983.1603
535.4686,985.6898
535.9507,987.0008
536.4328,987.056
536.9149,985.9165
537.397,982.5468
537.8792,978.6102
538.3613,976.3093
538.8434,976.275
539.3255,975.5483
539.8076,970.8912
540.2897,963.9297
540.7719,958.741
541.254,955.7876
541.7361,954.98
542.2182,957.2072
542.7003,961.61
543.1824,963.9507
543.6646,964.583
544.1467,962.744
544.6288,955.3958
545.1109,946.5863
545.593,942.1823
546.0751,943.2062
546.5573,945.9198
547.0394,946.5208
547.5215,944.9283
548.0036,944.0204
548.4857,944.0861
548.9678,944.5384
549.45,945.6128
549.9321,946.8483
550.4142,947.8703
550.8963,948.5459
551.3784,948.7419
551.8605,947.9798
552.3427,946.3694
552.8248,945.5934
553.3069,945.8241
553.789,946.6447
554.2711,948.4359
554.7532,950.4908
555.2354,951.8209
555.7175,952.3397
556.1996,951.9212
556.6817,949.5202
557.1638,946.3246
557.6459,945.2462
558.1281,946.8661
558.6102,948.2108
559.0923,946.4799
559.5744,941.8656
560.0565,938.5736
560.5386,938.1549
561.0208,936.9347
561.5029,933.5895
561.985,929.2159
562.4671,924.7293
562.9492,920.5024
563.4313,916.9706
563.9135,914.6667
564.3956,913.5641
564.8777,912.7925
565.3598,913.1216
565.8419,912.5158
566.324,909.9431
566.8062,906.4533
567.2883,902.8774
567.7704,899.3889
568.2525,896.6354
568.7346,896.0344
569.2167,896.5045
569.6989,894.7227
570.181,890.1407
570.6631,885.3312
571.1452,881.5743
571.6273,878.9523
572.1094,877.7052
572.5916,878.7671
573.0737,879.4174
573.5558,878.8002
574.0379,877.4807
574.52,875.7064
575.0021,873.7195
575.4843,872.2555
575.9664,871.9375
576.4485,872.6183
576.9306,873.4927
577.4127,875.1847
577.8948,875.9959
578.377,875.5524
578.8591,874.3512
579.3412,872.3846
579.8233,869.8905
580.3054,867.7189
580.7875,866.5614
581.2697,866.1401
581.7518,866.0516
582.2339,866.4219
582.7161,865.8475
583.1982,863.0702
583.6803,859.7164
584.1624,858.4003
584.6445,859.3112
585.1266,860.0207
585.6088,860.283
586.0909,859.7986
586.573,858.0086
587.0551,855.199
587.5372,852.2609
588.0193,849.6678
588.5015,847.3141
588.9836,844.8528
589.4657,841.3981
589.9478,839.8636
590.4299,842.1535
590.912,844.2955
591.3942,843.8793
591.8763,841.8735
592.3584,840.599
592.8405,841.2619
593.3226,842.7089
593.8047,843.2805
594.2869,842.9818
594.769,842.3912
595.2511,841.5482
595.7332,840.5122
596.2153,839.0596
596.6974,837.3913
597.1796,836.2943
597.6617,836.3995
598.1438,836.5292
598.6259,836.1569
599.108,835.3475
599.5901,834.0174
600.0723,832.1985
600.5544,830.4675
601.0365,829.3253
601.5186,828.7618
602.0007,829.6356
602.4828,834.9082
602.965,837.9974
603.4471,836.0252
603.9292,832.4243
604.4113,830.5477
604.8934,831.011
605.3755,832.2767
605.8577,833.5109
606.3398,834.4914
606.8219,834.1144
607.304,832.0782
607.7861,830.4266
608.2682,830.3777
608.7504,831.0098
609.2325,830.5283
609.7146,828.577
610.1967,827.4344
610.6788,828.7565
611.1609,830.3197
611.6431,829.8278
612.1252,827.72
612.6073,825.8011
613.0894,824.9841
613.5715,825.1655
614.0536,826.3644
614.5358,829.6725
615.0179,831.2867
615.5,829.9261
615.9821,828.1531
616.4642,826.8174
616.9464,825.889
617.4285,825.0903
617.9106,824.2396
618.3927,823.7788
618.8748,824.3958
619.3569,825.9061
619.8391,827.5755
620.3212,829.549
620.8033,830.5039
621.2854,828.8105
621.7675,825.0571
622.2496,822.9032
622.7318,823.5477
623.2139,824.1567
623.696,823.9967
624.1781,823.3936
624.6602,822.4714
625.1423,821.3919
625.6245,820.6056
626.1066,820.4728
626.5887,820.9236
627.0708,821.8592
627.5529,824.021
628.035,824.8514
628.5172,821.8083
628.9993,818.8257
629.4814,818.8151
629.9635,821.3893
