Raman Shift,Intensity
29.099,1153.0
30.504,1117.0
31.909,1106.0
33.313,1034.0
34.717,1068.0
36.121,1048.0
37.525,1030.0
38.929,1015.0
40.332,991.0
41.735,968.0
43.138,952.0
44.541,938.0
45.943,936.0
47.345,927.0
48.747,908.0
50.149,881.0
51.551,867.0
52.952,824.0
54.353,801.0
55.754,791.0
57.155,798.0
58.555,776.0
59.955,786.0
61.355,765.0
62.755,740.0
64.154,749.0
65.553,740.0
66.952,699.0
68.351,720.0
69.75,717.0
71.148,711.0
72.546,700.0
73.944,695.0
75.342,679.0
76.739,678.0
78.136,686.0
79.533,697.0
80.93,668.0
82.327,684.0
83.723,690.0
85.119,667.0
86.515,663.0
87.91,651.0
89.306,661.0
90.701,698.0
92.096,665.0
93.49,682.0
94.885,655.0
96.279,665.0
97.673,654.0
99.067,631.0
100.461,639.0
101.854,642.0
103.247,617.0
104.64,618.0
106.032,599.0
107.425,599.0
108.817,576.0
110.209,576.0
111.601,576.0
112.992,580.0
114.384,585.0
115.775,565.0
117.166,567.0
118.556,532.0
119.947,557.0
121.337,543.0
122.727,548.0
124.116,560.0
125.506,519.0
126.895,539.0
128.284,526.0
129.673,543.0
131.062,526.0
132.45,516.0
133.838,519.0
135.226,513.0
136.614,515.0
138.001,499.0
139.388,508.0
140.775,498.0
142.162,488.0
143.549,499.0
144.935,495.0
146.321,490.0
147.707,519.0
149.093,552.0
150.478,658.0
151.863,891.0
153.248,1179.0
154.633,1084.0
156.018,800.0
157.402,621.0
158.786,535.0
160.17,501.0
161.554,476.0
162.937,476.0
164.32,466.0
165.703,449.0
167.086,450.0
168.469,436.0
169.851,458.0
171.233,442.0
172.615,435.0
173.996,436.0
175.378,437.0
176.759,444.0
178.14,431.0
179.521,440.0
180.901,420.0
182.281,434.0
183.662,428.0
185.041,417.0
186.421,439.0
187.8,420.0
189.18,423.0
190.558,430.0
191.937,443.0
193.316,429.0
194.694,435.0
196.072,444.0
197.45,431.0
198.827,427.0
200.205,425.0
201.582,441.0
202.959,420.0
204.336,429.0
205.712,438.0
207.088,419.0
208.465,422.0
209.84,420.0
211.216,431.0
212.591,427.0
213.967,435.0
215.341,423.0
216.716,414.0
218.091,443.0
219.465,441.0
220.839,454.0
222.213,461.0
223.586,462.0
224.96,493.0
226.333,478.0
227.706,534.0
229.079,576.0
230.451,666.0
231.823,829.0
233.195,1179.0
234.567,1800.0
235.939,3086.0
237.31,5425.0
238.682,6742.0
240.052,5902.0
241.423,3533.0
242.794,2114.0
244.164,1383.0
245.534,979.0
246.904,781.0
248.274,647.0
249.643,629.0
251.012,570.0
252.381,558.0
253.75,565.0
255.118,547.0
256.487,590.0
257.855,612.0
259.223,717.0
260.59,902.0
261.958,1382.0
263.325,2295.0
264.692,4421.0
266.059,7484.0
267.425,7314.0
268.791,4546.0
270.158,2483.0
271.523,1519.0
272.889,1131.0
274.255,910.0
275.62,866.0
276.985,902.0
278.35,1136.0
279.714,1528.0
281.078,2350.0
282.443,3964.0
283.806,5700.0
285.17,6698.0
286.534,5175.0
287.897,3299.0
289.26,2114.0
290.623,1386.0
291.985,1024.0
293.348,802.0
294.71,679.0
296.072,617.0
297.433,572.0
298.795,530.0
300.156,495.0
301.517,500.0
302.878,476.0
304.239,446.0
305.599,449.0
306.959,446.0
308.319,435.0
309.679,432.0
311.038,424.0
312.398,425.0
313.757,437.0
315.116,417.0
316.474,424.0
317.833,433.0
319.191,410.0
320.549,415.0
321.907,407.0
323.264,422.0
324.622,420.0
325.979,422.0
327.336,466.0
328.692,495.0
330.049,588.0
331.405,642.0
332.761,598.0
334.117,525.0
335.473,477.0
336.828,448.0
338.183,417.0
339.538,414.0
340.893,395.0
342.247,384.0
343.602,386.0
344.956,392.0
346.31,382.0
347.663,373.0
349.017,363.0
350.37,372.0
351.723,375.0
353.076,369.0
354.428,367.0
355.78,370.0
357.133,366.0
358.484,352.0
359.836,370.0
361.188,384.0
362.539,361.0
363.89,372.0
365.241,363.0
366.591,372.0
367.942,367.0
369.292,366.0
370.642,367.0
371.992,359.0
373.341,366.0
374.691,356.0
376.04,362.0
377.388,361.0
378.737,352.0
380.086,368.0
381.434,355.0
382.782,348.0
384.13,363.0
385.477,356.0
386.825,345.0
388.172,371.0
389.519,368.0
390.865,369.0
392.212,386.0
393.558,395.0
394.904,430.0
396.25,466.0
397.596,550.0
398.941,681.0
400.286,832.0
401.631,1035.0
402.976,1071.0
404.321,874.0
405.665,751.0
407.009,586.0
408.353,504.0
409.697,451.0
411.04,430.0
412.384,412.0
413.727,391.0
415.07,387.0
416.412,374.0
417.755,378.0
419.097,376.0
420.439,368.0
421.781,377.0
423.122,358.0
424.464,352.0
425.805,348.0
427.146,362.0
428.486,342.0
429.827,340.0
431.167,335.0
432.507,348.0
433.847,342.0
435.187,348.0
436.526,335.0
437.865,347.0
439.204,346.0
440.543,335.0
441.882,336.0
443.22,345.0
444.558,339.0
445.896,343.0
447.234,353.0
448.572,353.0
449.909,374.0
451.246,410.0
452.583,473.0
453.919,551.0
455.256,614.0
456.592,613.0
457.928,575.0
459.264,510.0
460.6,457.0
461.935,421.0
463.27,396.0
464.605,383.0
465.94,353.0
467.274,350.0
468.609,359.0
469.943,343.0
471.277,350.0
472.61,346.0
473.944,352.0
475.277,348.0
476.61,351.0
477.943,361.0
479.275,353.0
480.608,364.0
481.94,367.0
483.272,389.0
484.604,400.0
485.935,438.0
487.267,519.0
488.598,574.0
489.929,598.0
491.26,532.0
492.59,450.0
493.92,434.0
495.25,390.0
496.58,374.0
497.91,359.0
499.239,362.0
500.569,348.0
501.898,353.0
503.226,353.0
504.555,344.0
505.883,351.0
507.212,365.0
508.54,351.0
509.867,353.0
511.195,348.0
512.522,358.0
513.849,367.0
515.176,404.0
516.503,419.0
517.829,440.0
519.156,470.0
520.482,471.0
521.808,439.0
523.133,417.0
524.459,384.0
525.784,382.0
527.109,363.0
528.434,368.0
529.758,368.0
531.083,375.0
532.407,367.0
533.731,380.0
535.055,360.0
536.378,378.0
537.701,366.0
539.025,375.0
540.348,375.0
541.67,379.0
542.993,389.0
544.315,391.0
545.637,409.0
546.959,422.0
548.281,432.0
549.602,472.0
550.923,502.0
552.244,560.0
553.565,620.0
554.886,764.0
556.206,891.0
557.526,1057.0
558.846,1225.0
560.166,1170.0
561.486,1106.0
562.805,951.0
564.124,798.0
565.443,671.0
566.762,562.0
568.08,527.0
569.399,473.0
570.717,434.0
572.035,423.0
573.352,415.0
574.67,409.0
575.987,390.0
577.304,379.0
578.621,379.0
579.938,364.0
581.254,357.0
582.57,351.0
583.886,362.0
585.202,356.0
586.518,352.0
587.833,358.0
589.148,350.0
590.463,343.0
591.778,346.0
593.093,332.0
594.407,348.0
595.721,344.0
597.035,358.0
598.349,348.0
599.662,344.0
600.976,355.0
602.289,343.0
603.602,345.0
604.914,352.0
606.227,358.0
607.539,351.0
608.851,343.0
610.163,384.0
611.475,368.0
612.786,375.0
614.097,370.0
615.408,340.0
616.719,359.0
618.03,352.0
619.34,343.0
620.651,343.0
621.961,332.0
623.27,341.0
624.58,340.0
625.889,330.0
627.199,349.0
628.507,345.0
629.816,350.0
631.125,335.0
632.433,364.0
633.741,359.0
635.049,358.0
636.357,394.0
637.664,384.0
638.972,436.0
640.279,483.0
641.586,514.0
642.893,533.0
644.199,513.0
645.505,507.0
646.811,470.0
648.117,435.0
649.423,421.0
650.728,386.0
652.034,377.0
653.339,382.0
654.644,361.0
655.948,361.0
657.253,362.0
658.557,351.0
659.861,348.0
661.165,354.0
662.468,346.0
663.772,353.0
665.075,338.0
666.378,341.0
667.681,340.0
668.983,343.0
670.286,345.0
671.588,344.0
672.89,339.0
674.192,346.0
675.493,343.0
676.795,341.0
678.096,335.0
679.397,352.0
680.697,342.0
681.998,348.0
683.298,343.0
684.598,332.0
685.898,340.0
687.198,336.0
688.498,348.0
689.797,347.0
691.096,340.0
692.395,334.0
693.694,354.0
694.992,336.0
696.29,332.0
697.589,344.0
698.886,339.0
700.184,329.0
701.482,335.0
702.779,329.0
704.076,332.0
705.373,346.0
706.669,343.0
707.966,336.0
709.262,335.0
710.558,340.0
711.854,332.0
713.15,334.0
714.445,330.0
715.74,334.0
717.035,332.0
718.33,332.0
719.625,339.0
720.919,333.0
722.214,340.0
723.508,330.0
724.801,331.0
726.095,329.0
727.388,337.0
728.682,344.0
729.975,343.0
731.267,340.0
732.56,334.0
733.852,343.0
735.145,342.0
736.437,331.0
737.728,339.0
739.02,340.0
740.311,342.0
741.603,338.0
742.894,347.0
744.184,341.0
745.475,338.0
746.765,343.0
748.055,344.0
749.345,334.0
750.635,340.0
751.925,337.0
753.214,338.0
754.503,340.0
755.792,332.0
757.081,342.0
758.37,328.0
759.658,334.0
760.946,337.0
762.234,339.0
763.522,330.0
764.809,350.0
766.097,345.0
767.384,342.0
768.671,347.0
769.958,343.0
771.244,353.0
772.53,348.0
773.817,343.0
775.102,346.0
776.388,342.0
777.674,340.0
778.959,337.0
780.244,354.0
781.529,342.0
782.814,340.0
784.098,339.0
785.383,349.0
786.667,340.0
787.951,342.0
789.235,339.0
790.518,346.0
791.801,348.0
793.084,337.0
794.367,330.0
795.65,341.0
796.933,351.0
798.215,343.0
799.497,349.0
800.779,341.0
802.061,347.0
803.342,349.0
804.624,348.0
805.905,349.0
807.186,340.0
808.466,348.0
809.747,346.0
811.027,340.0
812.307,353.0
813.587,343.0
814.867,335.0
816.146,345.0
817.426,348.0
818.705,342.0
819.984,345.0
821.263,350.0
822.541,346.0
823.819,340.0
825.098,354.0
826.375,361.0
827.653,351.0
828.931,356.0
830.208,358.0
831.485,356.0
832.762,352.0
834.039,358.0
835.315,363.0
836.592,369.0
837.868,372.0
839.144,380.0
840.42,375.0
841.695,391.0
842.97,384.0
844.246,410.0
845.521,395.0
846.795,413.0
848.07,425.0
849.344,411.0
850.618,441.0
851.892,437.0
853.166,429.0
854.44,428.0
855.713,435.0
856.986,446.0
858.259,431.0
859.532,422.0
860.804,413.0
862.077,413.0
863.349,393.0
864.621,404.0
865.893,401.0
867.164,384.0
868.436,396.0
869.707,391.0
870.978,388.0
872.248,384.0
873.519,402.0
874.789,381.0
876.06,384.0
877.33,399.0
878.599,400.0
879.869,403.0
881.138,399.0
882.408,390.0
883.677,409.0
884.945,402.0
886.214,415.0
887.482,412.0
888.751,411.0
890.019,401.0
891.287,406.0
892.554,419.0
893.822,420.0
895.089,422.0
896.356,421.0
897.623,450.0
898.889,444.0
900.156,465.0
901.422,452.0
902.688,476.0
903.954,498.0
905.22,512.0
906.485,516.0
907.75,527.0
909.015,563.0
910.28,586.0
911.545,622.0
912.809,649.0
914.074,692.0
915.338,740.0
916.602,825.0
917.865,878.0
919.129,966.0
920.392,1019.0
921.655,1114.0
922.918,1191.0
924.181,1240.0
925.443,1394.0
926.706,1424.0
927.968,1660.0
929.23,1831.0
930.491,2107.0
931.753,2698.0
933.014,3180.0
934.276,3593.0
935.536,3978.0
936.797,3635.0
938.058,3105.0
939.318,2642.0
940.578,2066.0
941.838,1759.0
943.098,1383.0
944.358,1183.0
945.617,1024.0
946.876,913.0
948.135,852.0
949.394,765.0
950.653,698.0
951.911,691.0
953.169,633.0
954.427,600.0
955.685,594.0
956.943,557.0
958.2,553.0
959.458,518.0
960.715,519.0
961.971,509.0
963.228,494.0
964.485,486.0
965.741,486.0
966.997,476.0
968.253,494.0
969.508,482.0
970.764,475.0
972.019,467.0
973.274,474.0
974.529,487.0
975.784,478.0
977.039,471.0
978.293,508.0
979.547,522.0
980.801,559.0
982.055,591.0
983.308,590.0
984.562,612.0
985.815,562.0
987.068,537.0
988.321,510.0
989.573,474.0
990.826,467.0
992.078,455.0
993.33,433.0
994.582,424.0
995.833,422.0
997.085,417.0
998.336,405.0
999.587,419.0
1000.838,398.0
1002.088,409.0
1003.339,424.0
1004.589,436.0
1005.839,430.0
1007.089,426.0
1008.339,409.0
1009.588,420.0
1010.838,412.0
1012.087,402.0
1013.336,406.0
1014.584,402.0
1015.833,388.0
1017.081,385.0
1018.33,389.0
1019.577,387.0
1020.825,390.0
1022.073,386.0
1023.32,392.0
1024.567,394.0
1025.814,397.0
1027.061,391.0
1028.308,380.0
1029.554,387.0
1030.8,379.0
1032.046,375.0
1033.292,375.0
1034.538,388.0
1035.783,390.0
1037.029,385.0
1038.274,371.0
1039.519,388.0
1040.763,388.0
1042.008,375.0
1043.252,388.0
1044.496,388.0
1045.74,372.0
1046.984,368.0
1048.228,392.0
1049.471,378.0
1050.714,387.0
1051.957,381.0
1053.2,387.0
1054.442,378.0
1055.685,384.0
1056.927,374.0
1058.169,360.0
1059.411,364.0
1060.652,372.0
1061.894,372.0
1063.135,368.0
1064.376,367.0
1065.617,384.0
1066.858,372.0
1068.098,370.0
1069.339,369.0
1070.579,358.0
1071.819,384.0
1073.058,391.0
1074.298,366.0
1075.537,374.0
1076.776,366.0
1078.015,373.0
1079.254,369.0
1080.493,370.0
1081.731,377.0
1082.969,366.0
1084.207,379.0
1085.445,367.0
1086.683,355.0
1087.92,361.0
1089.157,377.0
1090.394,354.0
1091.631,368.0
1092.868,368.0
1094.105,369.0
1095.341,368.0
1096.577,379.0
1097.813,366.0
1099.049,367.0
1100.284,356.0
1101.519,358.0
1102.755,365.0
1103.99,374.0
1105.224,366.0
1106.459,366.0
1107.693,368.0
1108.928,373.0
1110.162,377.0
1111.395,382.0
1112.629,381.0
1113.863,363.0
1115.096,375.0
1116.329,378.0
1117.562,384.0
1118.795,382.0
1120.027,417.0
1121.259,438.0
1122.492,415.0
1123.723,378.0
1124.955,375.0
1126.187,380.0
1127.418,371.0
1128.649,357.0
1129.88,364.0
1131.111,381.0
1132.342,369.0
1133.572,354.0
1134.802,361.0
1136.033,368.0
1137.262,362.0
1138.492,376.0
1139.722,354.0
1140.951,373.0
1142.18,370.0
1143.409,362.0
1144.638,364.0
1145.866,366.0
1147.095,360.0
1148.323,375.0
1149.551,361.0
1150.779,384.0
1152.006,374.0
1153.234,382.0
1154.461,388.0
1155.688,380.0
1156.915,396.0
1158.141,383.0
1159.368,399.0
1160.594,419.0
1161.82,414.0
1163.046,415.0
1164.272,415.0
1165.498,417.0
1166.723,415.0
1167.948,402.0
1169.173,386.0
1170.398,387.0
1171.623,377.0
1172.847,368.0
1174.071,370.0
1175.295,358.0
1176.519,375.0
1177.743,359.0
1178.966,388.0
1180.19,364.0
1181.413,362.0
1182.636,355.0
1183.858,365.0
1185.081,360.0
1186.303,364.0
1187.526,365.0
1188.748,361.0
1189.969,372.0
1191.191,364.0
1192.412,378.0
1193.634,368.0
1194.855,360.0
1196.076,365.0
1197.296,359.0
1198.517,363.0
1199.737,368.0
1200.957,368.0
1202.177,366.0
1203.397,355.0
1204.617,381.0
1205.836,360.0
1207.055,361.0
1208.274,370.0
1209.493,362.0
1210.712,362.0
1211.93,368.0
1213.148,375.0
1214.367,358.0
1215.584,374.0
1216.802,364.0
1218.02,380.0
1219.237,364.0
1220.454,361.0
1221.671,382.0
1222.888,370.0
1224.105,363.0
1225.321,365.0
1226.537,363.0
1227.753,368.0
1228.969,370.0
1230.185,372.0
1231.4,363.0
1232.616,363.0
1233.831,370.0
1235.046,364.0
1236.261,365.0
1237.475,367.0
1238.689,377.0
1239.904,349.0
1241.118,370.0
1242.332,370.0
1243.545,358.0
1244.759,370.0
1245.972,361.0
1247.185,369.0
1248.398,376.0
1249.611,373.0
1250.823,358.0
1252.036,379.0
1253.248,364.0
1254.46,367.0
1255.671,375.0
1256.883,362.0
1258.095,380.0
1259.306,363.0
1260.517,364.0
1261.728,356.0
1262.938,372.0
1264.149,363.0
1265.359,360.0
1266.569,365.0
1267.779,368.0
1268.989,372.0
1270.199,368.0
1271.408,372.0
1272.617,355.0
1273.826,370.0
1275.035,367.0
1276.244,375.0
1277.452,387.0
1278.661,366.0
1279.869,368.0
1281.077,383.0
1282.285,358.0
1283.492,380.0
1284.7,375.0
1285.907,370.0
1287.114,378.0
1288.321,382.0
1289.527,366.0
1290.734,376.0
1291.94,364.0
1293.146,384.0
1294.352,385.0
1295.558,375.0
1296.763,380.0
1297.969,386.0
1299.174,377.0
1300.379,390.0
1301.584,372.0
1302.788,381.0
1303.993,377.0
1305.197,372.0
1306.401,389.0
1307.605,393.0
1308.809,379.0
1310.013,393.0
1311.216,375.0
1312.419,380.0
1313.622,374.0
1314.825,377.0
1316.028,378.0
1317.23,390.0
1318.432,364.0
1319.634,377.0
1320.836,380.0
1322.038,388.0
1323.24,377.0
1324.441,375.0
1325.642,389.0
1326.843,377.0
1328.044,366.0
1329.245,386.0
1330.445,384.0
1331.645,389.0
1332.845,388.0
1334.045,361.0
1335.245,384.0
1336.445,388.0
1337.644,381.0
1338.843,373.0
1340.042,380.0
1341.241,377.0
1342.44,388.0
1343.638,384.0
1344.836,377.0
1346.034,385.0
1347.232,384.0
1348.43,364.0
1349.628,381.0
1350.825,378.0
1352.022,375.0
1353.219,393.0
1354.416,379.0
1355.613,385.0
1356.809,376.0
1358.005,373.0
1359.202,385.0
1360.398,387.0
1361.593,370.0
1362.789,402.0
1363.984,393.0
1365.179,375.0
1366.374,382.0
1367.569,372.0
1368.764,393.0
1369.958,381.0
1371.153,389.0
1372.347,377.0
1373.541,382.0
1374.735,386.0
1375.928,388.0
1377.122,389.0
1378.315,374.0
1379.508,384.0
1380.701,387.0
1381.893,392.0
1383.086,378.0
1384.278,382.0
1385.47,390.0
1386.662,384.0
1387.854,378.0
1389.046,391.0
1390.237,386.0
1391.428,393.0
1392.619,395.0
1393.81,384.0
1395.001,393.0
1396.191,381.0
1397.382,385.0
1398.572,385.0
1399.762,386.0
1400.952,391.0
1402.141,392.0
1403.331,390.0
1404.52,393.0
1405.709,380.0
1406.898,385.0
1408.087,388.0
1409.275,386.0
1410.464,402.0
1411.652,379.0
1412.84,394.0
1414.028,387.0
1415.215,391.0
1416.403,386.0
1417.59,389.0
1418.777,402.0
1419.964,391.0
1421.151,384.0
1422.338,393.0
1423.524,403.0
1424.71,403.0
1425.896,393.0
1427.082,393.0
1428.268,387.0
1429.453,380.0
1430.639,374.0
1431.824,394.0
1433.009,391.0
1434.194,388.0
1435.378,394.0
1436.563,382.0
1437.747,383.0
1438.931,391.0
1440.115,382.0
1441.299,396.0
1442.482,395.0
1443.666,396.0
1444.849,390.0
1446.032,396.0
1447.215,404.0
1448.397,396.0
1449.58,391.0
1450.762,398.0
1451.944,399.0
1453.126,398.0
1454.308,395.0
1455.49,400.0
1456.671,392.0
1457.852,396.0
1459.033,384.0
1460.214,378.0
1461.395,391.0
1462.575,383.0
1463.756,408.0
1464.936,379.0
1466.116,402.0
1467.296,390.0
1468.475,385.0
1469.655,395.0
1470.834,398.0
1472.013,401.0
1473.192,402.0
1474.371,394.0
1475.55,395.0
1476.728,390.0
1477.906,411.0
1479.084,399.0
1480.262,398.0
1481.44,380.0
1482.617,398.0
1483.795,394.0
1484.972,399.0
1486.149,402.0
1487.326,401.0
1488.502,393.0
1489.679,398.0
1490.855,381.0
1492.031,399.0
1493.207,398.0
1494.383,407.0
1495.559,408.0
1496.734,390.0
1497.909,397.0
1499.084,405.0
1500.259,400.0
1501.434,415.0
1502.608,405.0
1503.783,414.0
1504.957,170.0
