Raman Shift,Intensity
214.3785040343428,-149.581
224.78145843945092,-165.327
235.01908334044856,-23.618
245.41130867789616,-62.982
255.63837774522108,162.702
265.8602158678186,44.612
276.23642015571386,131.212
286.44772684514464,26.242
296.8132434111685,-39.363
307.0140349346475,-76.103
317.209615658554,230.932
327.399989574551,110.218
337.7442627077253,28.867
347.9241537664129,47.236
358.09885002992814,133.836
368.2683554736213,94.472
378.5914504125685,-70.854
388.7505051753542,-52.485
398.90438108190574,20.994
409.0530820913264,183.696
419.196612158652,44.612
429.3349752349313,183.696
439.626465572117,18.37
449.75442592354375,89.224
459.8772311743669,2.624
469.994885259468,283.417
480.1073921097559,283.417
490.2147556521086,312.284
500.31697980943136,262.423
510.41406850063504,149.581
520.5060256406359,115.466
530.5928551403995,131.212
540.6745609068894,104.969
550.7511468431039,309.659
560.8226168481124,265.047
570.888974816975,217.811
580.9502246408374,459.241
590.8492821665859,325.405
600.9004070215597,414.629
610.9464353206786,485.483
620.9873709393651,432.998
631.0232177491416,845.003
641.0539796175653,1317.364
650.9230482019848,1529.927
660.9437310766662,1375.097
670.9593405290361,548.464
680.9698804110958,391.011
690.8190579752118,393.635
700.8195493193562,330.653
710.8149825658329,593.076
720.805361551138,283.417
730.6347081696804,144.333
740.6150689503047,367.392
750.4345613154874,251.926
760.404918953056,488.107
770.3702413346182,328.029
780.174941402227,291.29
790.1302832356378,364.768
799.925166080895,614.07
809.8705423523497,283.417
819.6556227125038,398.883
829.5910483782136,364.768
839.3663409610526,440.871
849.2918309472952,204.69
859.0573504311833,511.725
868.972919634427,469.737
878.7286806683987,-52.485
888.6343439553166,186.32
898.3803611591502,257.175
908.12155022542,291.29
918.0124213310264,146.957
927.743888384779,299.162
937.4705381077074,325.405
947.3466501411676,351.647
957.0635996041163,320.156
966.7757425107702,763.651
976.6371284824854,561.586
986.3395928168538,532.719
996.0372613373548,902.736
1005.7301375988682,1212.395
1015.5719657306544,1138.916
1025.255192198514,886.99
1034.9336371072422,572.082
1044.6073039976543,425.126
1054.2761964070742,391.011
1063.9403178693246,398.883
1073.5996719147442,800.391
1083.4074711432768,467.113
1093.057225399156,349.023
1102.70222286418,661.306
1112.3424670547538,372.641
1121.9779614837898,293.914
1131.6087096607444,427.75
1141.2347150916105,178.448
1150.855981278939,354.271
1160.4725117218331,446.119
1170.0843099159465,307.035
1179.6913793534914,322.78
1189.293723523253,175.824
1198.739039559725,275.544
1208.3320185130287,217.811
1217.9202825891407,194.193
1227.5038352631818,409.38
1237.0826800068826,375.265
1246.6568202885535,128.587
1256.226259573108,49.86
1265.639216696829,204.69
1275.1993388504195,212.563
1284.7547703264208,249.302
1294.3055145761757,225.684
1303.7000868433097,-335.902
1313.241541245312,175.824
1322.778318700337,139.084
1332.310422646282,359.52
1341.686663866676,333.277
1351.2095051416618,223.06
1360.727683146746,136.46
1370.0902294598782,259.799
1379.5991650801443,265.047
1388.9526223370776,146.957
1398.4523290278594,220.435
1407.7967104575073,272.92
1417.287201648047,233.557
1426.7730533080105,829.257
1436.1038095471376,186.32
1445.5804658554116,160.078
1454.9021792800197,139.084
1464.369653600741,199.442
1473.6823373500883,215.187
1482.9905472474493,233.557
1492.444310209452,278.169
1501.7435100404182,202.066
1511.1881242589734,139.084
1520.4783270994303,131.212
1529.764072276041,161.466
1539.1950247490097,212.883
1548.4717924494323,272.432
1557.7441121511074,327.087
1567.1614324998736,363.818
1576.4247941832873,369.597
1585.6837175051332,331.393
1594.9382056544855,236.181
1604.3374199708342,133.836
1613.5829759239496,207.314
1622.8241063047317,228.308
1632.0608142900164,524.846
1641.2931030535765,139.084
1650.6697762525291,141.709
1659.8931649322622,338.526
1669.1121439444323,167.951
1678.3267164506542,207.314
1687.53688560953,251.926
1696.7426545766284,469.737
1705.9440265045123,217.811
1715.1410045427183,325.405
1724.3335918377925,91.848
1733.5217915332687,123.339
1742.705606769683,149.581
1751.8850406845886,-36.739
1761.0600964125188,123.339
1770.230777085024,322.78
1779.397085830693,125.963
1788.55902577511,262.423
1797.7166000408906,191.569
1806.8698117476447,419.877
1816.0186640120735,94.472
1825.163159947857,102.345
1834.1559155330324,238.805
1843.29177827917,191.569
1852.4232939699289,110.218
1861.550465707216,225.684
1870.673296589972,393.635
1879.644751645923,-62.982
1888.758979994156,183.696
1897.8688767172423,65.606
1906.974444902422,202.066
1915.9289277003045,317.532
1925.025917750907,228.308
1934.118588458099,144.333
1943.060390766601,246.678
1952.144501554074,-97.097
1961.2243021666216,94.472
1970.153450902042,249.302
1979.224709758193,123.339
1988.1454604369865,265.047
1997.208189584475,236.181
2006.120554048888,160.078
2015.1747655127983,301.787
2024.0787555828572,236.181
2033.12446136566,152.205
2042.0200888391555,104.969
2051.057300920809,-68.23
2059.9445775734057,199.442
2068.9733079113576,199.442
2077.852245496608,194.193
2086.8725060258803,209.939
2095.743116275291,325.405
2104.6096010526526,123.339
2113.6172135316083,175.824
2122.4753884816528,249.302
2131.329446630596,-65.606
2140.324437642892,233.557
2149.170203423979,370.017
2158.011861050589,175.824
2166.994257105456,91.848
2175.8276397748195,188.945
2184.656922912145,28.867
2193.48210937062,44.612
2202.303202000803,170.575
2211.2647105948345,110.218
2220.077557114586,220.435
2228.886318388424,91.848
2237.6909972563008,160.078
2246.4915965555265,76.103
2255.2881191208,13.121
2264.0805677841927,-34.115
2272.8689453751285,91.848
2281.6532547204406,259.799
2290.5774032157133,181.072
2299.353517963282,131.212
2308.125572976198,293.914
2316.893571070781,83.975
2325.6575150607823,188.945
2334.273835606975,275.544
2343.029746164546,41.988
2351.781610997117,-81.351
2360.5294329081007,162.702
2369.273214698267,230.932
2378.0129591658333,144.333
2386.7486691064114,186.32
2395.48034731306,81.351
2404.2079965762314,-183.696
2412.788641914361,275.544
2421.5083075861257,246.678
2430.2239526247795,191.569
2438.9355798105607,188.945
2447.64319192111,128.587
2456.204142101211,220.435
2464.9037980916983,160.078
2473.5994472792227,167.951
2482.148638712344,104.969
2490.836348166158,146.957
2499.5200590665554,99.721
2508.0575159626023,167.951
2516.7333034706826,191.569
2525.405100652257,49.86
2533.930847154741,57.733
2542.5947372405863,86.6
2551.112711590584,343.774
2559.768705390503,322.78
2568.2789182109263,-23.618
2576.927026515033,41.988
2585.5711635713087,26.242
2594.069721988235,223.06
2602.5644435408976,118.09
2611.196813145194,118.09
2619.683804921093,123.339
2628.3083212822166,110.218
2636.7875938271245,65.606
2645.404267656864,125.963
2653.875831497382,-186.32
2662.343576738021,70.854
2670.948539131641,133.836
2679.408591378582,-65.606
2687.8648328054915,136.46
2696.4581076233444,291.29
2704.906671724595,-202.066
2713.351432764532,146.957
2721.792393310454,-52.485
2730.370143142005,217.811
2738.8034471581705,191.569
2747.232958411034,225.684
2755.658679458633,52.485
2764.220946338093,217.811
2772.639031576786,110.218
2781.053334313052,120.715
2789.463857095703,220.435
2797.8706024712737,160.078
2806.2735729839987,254.55
2814.672771175843,283.417
2823.0681995864725,317.532
2831.459860753297,39.363
2839.847757211428,65.606
2848.231891493713,149.581
2856.612266130724,312.284
2864.988883650767,94.472
2873.3617465798743,86.6
2881.7308574418275,262.423
2890.096218758139,5.248
2898.457833048058,183.696
2906.815702828586,296.538
2915.169830614461,188.945
2923.5202189181878,228.308
2931.8668702499926,125.963
2940.209787117892,133.836
2948.41001618022,307.035
2956.7455337723804,223.06
2965.077324369493,320.156
2973.405390470638,188.945
2981.7297345726547,241.429
2989.9117125592966,139.084
2998.2286820744484,133.836
3006.5419370261297,157.454
3014.8514799023105,199.442
3023.0189130185245,162.702
3031.3211009634906,94.472
3039.619584242202,91.848
3047.776149306213,49.86
3056.067292329164,383.138
3064.2166442633534,144.333
3072.500456765243,293.914
3080.780576892153,123.339
3088.919096831967,291.29
3097.1919010483834,230.932
3105.3232317767324,241.429
3113.588729774354,359.52
3121.712880813,217.811
3129.9710822664056,425.126
3138.0880631202745,524.846
3146.338977686973,238.805
3154.448797844241,372.641
3162.692435164703,553.713
3170.7951040967964,438.247
3178.894230970407,385.762
3187.127000956163,506.477
3195.218990740796,548.464
3203.3074454664093,682.3
3211.5293695924192,650.809
3219.610701328027,383.138
3227.688504985643,469.737
3235.899604670318,372.641
3243.9702993997853,535.343
3252.03747301393,372.641
3260.1011278165533,443.495
3268.297848330192,430.374
3276.354412870096,488.107
3284.407465536773,257.175
3292.4570086259846,435.622
3300.5030444314834,477.61
3308.545575245,432.998
3316.720827896272,535.343
3324.756296283769,543.216
3332.788266581294,459.241
3340.816741072602,480.234
3348.8417220394404,543.216
3356.8632117615925,537.967
3364.8812125168406,501.228
3372.895726580995,485.483
3380.906756227865,590.452
3388.91430372934,464.489
3396.918371355256,409.38
3404.9189613735507,587.828
3412.9160760501472,401.507
3420.909717649003,325.405
3428.8998884321263,498.604
3436.886590659553,272.92
3444.734546370892,330.653
3452.714376952972,241.429
3460.690745709508,354.271
3468.663654892749,272.92
3476.633106752961,364.768
3484.5991035384795,349.023
3492.4267178764712,377.889
3500.385869715596,280.793
3508.341573175334,286.041
3516.293830496281,175.824
3524.1079469444667,196.817
3532.0533770164475,204.69
3539.9953676218797,-10.497
3547.7993978646555,186.32
3555.734574435446,372.641
3563.666318194715,173.199
3571.460281747888,78.727
3579.385224652753,343.774
3587.30674138396,233.557
3595.090657713052,73.478
3603.00538673612,152.205
3610.782634691175,118.09
3618.6905847266535,249.302
3626.461172873067,335.902
3634.362352626544,104.969
3642.1262895150494,160.078
3650.020707677235,280.793
3657.778001843908,207.314
3665.665667090652,94.472
3673.416327056992,31.491
3681.163701429177,15.745
3689.041282322214,152.205
3696.782035212709,238.805
3704.6528847781447,123.339
3712.3870246721344,10.497
3720.117889469839,196.817
3727.845481251112,73.478
3735.702951367959,149.581
3743.4239470074463,7.873
3751.141675895298,97.097
3758.989119491133,2.624
3766.700264858686,238.805
3774.408149723422,104.969
3782.1127761528696,-66.068
3789.814146212797,-162.222
3797.644959575024,-199.174
3805.339767031168,-192.601
3813.03132434014,-158.178
3820.7196335607214,-111.588
3828.404696749953,-68.508
3836.086515963114,-44.612
3843.76509325378,18.37
3851.4404306737633,238.805
3859.112530273167,-133.836
3866.7813941003615,20.994
3874.4470242019815,34.115
3882.109422622947,194.193
3889.7685914064414,215.187
3897.4245325939337,-47.236
3905.0772482251705,44.612
3912.7267403381848,223.06
3920.373010969284,136.46
3928.016062153074,26.242
3935.655895922435,-26.242
3943.292514308545,333.277
3950.925919340858,31.491
3958.424585178429,70.854
3966.051624900327,-28.867
3973.675457311714,65.606
3981.296084435249,115.466
3988.913508291902,125.963
3996.396478310664,68.23
4004.007556831755,183.696
4011.615438103967,123.339
4019.220124141517,259.799
4026.690583777876,146.957
4034.288940385857,18.37
4041.8841077570687,351.647
4049.3452186808136,34.115
4056.934068499933,196.817
4064.519735065173,39.363
4071.971514814119,133.836
4079.550875675057,183.696
4086.996462302253,199.442
4094.5695253181984,152.205
4102.008926541021,44.612
4109.575699558212,23.618
4117.008923081237,417.253
4124.569413932906,178.448
4131.996467447912,165.327
4139.550683954272,110.218
4146.971575140262,136.46
4154.519525108568,-141.709
4161.93426163181,102.345
4169.475952856366,107.593
4228.011654085007,141.709
4235.396210255021,139.084
4242.907210725418,149.581
4250.415076793586,44.612
4257.7904449892885,430.374
4265.292102093408,136.46
4272.790630641473,328.029
4280.156827999919,115.466
4287.649159161061,41.988
4295.138367597785,-52.485
4302.4954112134365,52.485
4309.978433811593,76.103
4317.329402006981,91.848
4324.8062464273535,60.357
4332.151146724958,204.69
4339.621820615692,-18.37
4346.960660525576,115.466
4354.425171522191,175.824
4361.757958542046,13.121
4369.216314267462,18.37
4376.543055882612,146.957
4383.9952639471885,199.442
4391.315967630617,-26.242
4398.762035632179,118.09
4406.07670884455,139.084
4413.516644368407,55.109
4420.825294558097,228.308
4428.130962180556,120.715
4435.561739780205,175.824
4442.861395497304,215.187
4450.1580741507205,154.83
4457.579710724684,68.23
4464.870388562711,26.242
4472.158094827057,241.429
4479.570607232323,7.873
4486.852323743988,144.333
4494.131074158497,375.265
4501.534479210626,41.988
4508.807250907994,144.333
4516.077061971264,154.83
4523.3439142079005,186.32
4530.735219799091,15.745
4537.996107969229,78.727
4545.254042757973,406.756
4552.509025966887,146.957
4559.888261734326,152.205
4567.13729547953,52.485
4574.383383072374,-26.242
4581.626526308552,154.83
4588.866726982291,191.569
4596.103986886381,278.169
4603.338307812148,154.83
4610.69653172473,120.715
4617.92492857972,196.817
4625.150391852971,-36.739
4632.372923329975,18.37
4639.592524794789,23.618
4646.809198030001,110.218
4654.022944816745,-107.593
4661.233766934747,167.951
4668.441666162253,81.351
4675.646644276094,57.733
4682.8487030516335,-20.994
4690.047844262837,152.205
4697.244069682201,162.702
4704.437381080781,112.842
4711.627780228235,-26.242
4718.815268892759,89.224
4725.999848841122,296.538
4733.181521838655,13.121
4740.3602896492885,230.932
4747.536154035501,104.969
4754.583300303697,257.175
4761.753413983191,104.969
4768.9206294863325,-28.867
4776.084948569973,217.811
4783.246372989488,81.351
4790.404904498872,128.587
4797.435032206777,209.939
4804.5878338284165,36.739
4811.73774776268,202.066
4818.884775757928,125.963
4826.028919561082,99.721
4833.044920461813,-91.848
4840.183351639585,91.848
4847.3189038270575,104.969
4854.451578765569,68.23
4861.456318765864,91.848
4868.58329482688,-18.37
4875.707398824052,99.721
4882.703723295803,120.715
4889.822138682386,112.842
4896.937687177771,188.945
4903.925611277555,0.0
4911.035481404608,-199.442
4918.142489800703,144.333
4925.122028648751,128.587
4932.223368894192,194.193
4939.197342363797,-34.115
4946.293021236786,173.199
4953.385846941688,73.478
4960.35146024984,175.824
4967.43863475923,160.078
4974.398699333346,149.581
4981.480229398396,136.46
4988.43475186592,70.854
4995.510644227063,183.696
5002.459631204903,146.957
5009.529892591847,91.848
5016.473350686378,207.314
5023.537987818112,68.23
5030.475923625207,10.497
5037.534943210041,23.618
5044.467363315067,-139.084
5051.397052412052,-57.733
5058.447683028528,186.32
5065.371866252855,23.618
5072.416896017057,136.46
5079.335579928018,28.867
5086.251540943114,83.975
5093.288206657562,-7.873
5100.198678149784,57.733
5107.106431592307,181.072
5114.134748143202,144.333
5121.037021830118,81.351
5127.93658230202,160.078
5134.833431158368,-173.199
5141.85065500065,62.982
5148.742037069234,-2.624
5155.630712341699,160.078
5162.516682412504,-57.733
5169.522839786696,-41.988
5176.403355996677,70.854
5183.281171809234,186.32
5190.156288813778,-7.873
5197.028708598496,28.867
5204.021081907653,110.218
5210.888063918697,110.218
5217.752353495271,78.727
5224.613952220541,-15.745
5231.472861676462,186.32
5238.329083443728,149.581
5245.182619101804,188.945
5252.033470228904,86.6
5258.881638402017,107.593
5265.727125196914,107.593
5272.569932188097,-52.485
5279.532181775125,212.563
5286.369586094326,146.957
5293.204315354014,81.351
5300.036371123795,120.715
5306.865754971979,112.842
5313.692468465706,91.848
5320.516513170878,202.066
5327.216103720151,-115.466
5334.034863128356,-76.103
5340.850958410447,60.357
5347.664391127459,-5.248
5354.475162839211,110.218
5361.283275104273,-2.624
5368.088729480027,83.975
5374.891527522632,123.339
5381.6916707870405,94.472
5388.489160826968,209.939
5395.162686039381,-7.873
5401.954921596684,26.242
5408.744508555763,83.975
5415.531448465517,265.047
5422.31574287366,-139.084
5428.976315601984,57.733
5435.7553708175255,188.945
5442.531785139763,115.466
5449.305560111599,83.975
5456.076697274744,62.982
5462.724355191152,246.678
5469.490268392445,133.836
5476.253548375513,-39.363
5482.893493883399,-10.497
5489.651558992991,-23.618
5496.406995464167,83.975
5503.039241977291,157.454
5509.789472642318,5.248
5516.5370792381145,110.218
5523.161640139158,123.339
5529.904049975114,141.709
5536.643840300443,-228.308
5543.260728941095,118.09
5549.995331531944,-73.478
5556.607128017575,272.92
5563.336548861262,97.097
5569.943259067753,220.435
5576.667504142417,26.242
5583.269133936614,167.951
5589.988209211173,104.969
5596.58476445092,183.696
5603.298675885118,91.848
5609.890162419251,110.218
5616.598915963696,7.873
5623.185339632037,89.224
5629.888941228186,26.242
5636.470307861637,170.575
5643.16876344182,115.466
5649.745078862296,133.836
5656.438394349752,107.593
5663.009664370256,112.842
5669.578436568787,99.721
5676.264076103718,49.86
5682.827811578958,83.975
5689.3890535265455,175.824
5696.067030305661,34.115
5702.623244186747,65.606
5709.176968824671,141.709
5715.847296014435,133.836
5722.39600122282,-78.727
5728.942221462719,-31.491
5735.4859581482815,86.6
5742.146121627004,5.248
5748.684850350968,60.357
5755.221099782248,-10.497
5761.754871330697,34.115
5768.404894310675,86.6
5774.933669330552,204.69
5781.459970716278,57.733
5787.983799873429,94.472
5794.505158206499,-89.224
5801.142549523138,-44.612
5807.658925557145,207.314
5814.172834999641,-146.957
5820.684279250832,76.103
5827.193259709879,257.175
5833.699777774898,118.09
5840.203834842934,183.696
5846.7054323099655,160.078
5853.204571570954,112.842
5859.701254019747,330.653
5866.195481049195,128.587
5872.687254051074,-52.485
5879.176574416102,83.975
5885.663443533944,15.745
5892.14786279323,-34.115
5898.629833581537,94.472
5905.109357285379,107.593
5911.586435290243,104.969
5918.061068980562,0.0
5924.533259739736,146.957
5931.003008950094,-173.199
5937.470317992949,-28.867
5943.935188248557,83.975
5950.397621096134,83.975
5956.857617913869,149.581
5963.315180078898,125.963
5969.7703089673305,99.721
5976.105705888956,157.454
5982.556016527509,128.587
5989.003897986593,31.491
5995.449351638199,-91.848
6001.8923788532775,115.466
6008.215900781644,89.224
6014.654123287393,41.988
6021.089923438405,39.363
6027.523302601519,44.612
6033.954262142564,162.702
6040.265942433929,5.248
6046.692110755517,-13.121
6053.115863521547,170.575
6059.420472023492,141.709
6065.839441620141,26.242
6072.255999718647,73.478
6078.553548309683,65.606
6084.965331270854,131.212
6091.374706782226,152.205
6097.665207314269,55.109
6104.06981570238,-55.109
6110.472020679961,23.618
6116.755484978421,393.635
6123.152930828903,230.932
6129.431725134898,181.072
6135.824417162912,94.472
6142.098546680769,-99.721
6148.486490183052,83.975
6154.872039648391,76.103
6161.139160374798,47.236
6167.519969269015,183.696
6173.782438208022,-7.873
6180.158511808193,49.86
6186.416334137088,188.945
6192.787677712448,91.848
6199.040858600842,246.678
6205.291741972564,97.097
6211.656022022646,99.721
6217.902271670246,-144.333
6224.261834810408,165.327
6230.503455884398,175.824
6236.742785809074,70.854
6243.095304999864,120.715
6249.330014038809,55.109
6255.677829386121,188.945
6261.907922670827,104.969
6268.1357311500615,104.969
6274.476522051649,152.205
6280.699722436162,52.485
6286.920641805642,73.478
6293.139281413962,257.175
6299.470738832184,60.357
6305.684780516531,136.46
6311.896546218988,-89.224
6318.106037189755,110.218
6324.428181717434,76.103
6330.633084905065,425.126
6336.835717129172,65.606
6343.036079636258,26.242
6349.234173671932,-20.994
6355.544716640681,181.072
6361.738235515753,94.472
6367.929489673777,112.842
6374.118480356665,265.047
6380.305208805476,401.507
6386.489676260331,118.09
6392.671883960451,28.867
6398.851833144166,62.982
6405.143905470883,141.709
6411.319299566196,141.709
6417.492438877496,160.078
6423.663324639478,-5.248
6429.831958085924,18.37
6435.998340449718,131.212
6442.162472962846,223.06
6448.324356856407,89.224
6454.483993360576,257.175
6460.641383704664,62.982
6466.79652911704,86.6
6472.949430825232,-5.248
6479.100090055821,94.472
6485.248508034543,-91.848
6491.280888225534,230.932
6497.424868822251,267.672
6503.5666118162335,107.593
6509.706118429633,175.824
6515.843389883739,110.218
6521.978427398899,157.454
6528.111232194642,-202.066
6534.241805489546,70.854
6540.256680928833,133.836
6546.382836142315,60.357
6552.506763482961,10.497
6558.628464165849,-86.6
6564.747939405184,0.0
6570.751928194237,55.109
6576.866997341494,118.09
6582.979844660076,136.46
6589.090471360658,76.103
6595.0857801617385,89.224
6601.192010321647,55.109
6607.296023467985,55.109
6613.39782080795,-41.988
6619.384468430493,262.423
6625.481878753591,102.345
6631.577076864334,52.485
6637.5572509579,104.969
6643.64806916556,73.478
6649.623946782151,154.83
6655.71038980603,44.612
6661.794626582923,-94.472
6667.764048126817,68.23
6673.843916808139,204.69
6679.809053455574,204.69
6685.884558743659,5.248
6691.957863728712,120.715
6697.916561697035,28.867
6703.985510351609,280.793
6709.939934962422,338.526
6716.004531971987,-55.109
6721.954687820689,39.363
6728.014937863976,165.327
6733.960829539363,-81.351
6739.904610751524,207.314
6745.95836937274,288.665
6751.897893261092,2.624
6757.947316561804,238.805
6763.8825876987685,60.357
6769.927680334353,-97.097
6775.858703285812,13.121
6781.787623684751,115.466
6787.826249230238,139.084
6793.750928258974,-15.745
6799.673508107371,645.561
6805.705676935038,128.587
6811.624022213946,99.721
6817.540271677499,-99.721
6823.5659941374615,236.181
6829.478015817709,-44.612
6835.387945040406,-78.727
6841.407231460638,102.345
6847.312939671727,167.951
6853.216558775894,70.854
6859.118089881435,-97.097
6865.017534095896,251.926
6871.026143398485,149.581
6876.921377827312,154.83
6882.814528703813,131.212
6888.705597132364,94.472
6894.594584216582,225.684
6900.592544785228,-2.624
6906.477333270021,60.357
6912.360043737404,23.618
6918.240677287846,230.932
6924.119235021055,178.448
6929.995718035963,183.696
6935.870127430717,-110.218
6941.742464302697,-146.957
6947.6127297485,34.115
6953.480924863958,41.988
6959.347050744116,81.351
6965.21110848328,162.702
6971.073099174937,-7.873
6976.93302391185,183.696
6982.79088378598,-62.982
6988.64667988853,52.485
6994.500413309928,196.817
7000.35208513985,107.593
7006.201696467178,139.084
7012.049248380063,196.817
7017.894741965851,-31.491
7023.738178311156,28.867
7029.579558501813,170.575
7035.418883622879,65.606
7041.2561547586665,60.357
7047.091372992727,112.842
7052.924539407839,170.575
7058.645653010426,202.066
7064.474757695687,181.072
7070.301813785409,7.873
7076.126822359336,110.218
7081.949784496486,146.957
7087.660891581778,97.097
7093.479802640664,97.097
7099.296670474898,52.485
7105.111496160462,-81.351
7110.814624476749,26.242
7116.625407570507,70.854
7122.434151718757,86.6
7128.2408579944895,167.951
7133.936024250346,49.86
7139.73869639702,18.37
7145.53933386541,118.09
7151.22854892195,36.739
7157.025158582874,-57.733
7162.819736753059,115.466
7168.503009933542,125.963
7174.293566604632,139.084
7180.082094965896,141.709
7185.759435574095,322.78
7191.54394873148,20.994
7197.2173519438,-293.914
7202.997854073568,-55.109
7208.667323984642,62.982
7214.443819257263,65.606
7220.109359956041,57.733
7225.881852536215,-28.867
7231.54346810597,78.727
7237.311962152613,202.066
7242.969656670975,60.357
7248.734156337254,202.066
7254.387933876205,47.236
7260.148443309525,60.357
7265.798307935409,118.09
7271.554831277448,154.83
7277.20078705097,181.072
7282.953328437674,41.988
7288.59537941395,393.635
7294.235498085545,-34.115
7299.982093204053,181.072
7305.618313131272,15.745
7311.252603748333,83.975
7316.993261813666,47.236
7322.623659726734,120.715
7328.252131317968,62.982
7333.9868615261075,-10.497
7339.611446441268,167.951
7345.234108016753,110.218
7350.962919544712,244.054
7356.581700459581,62.982
7362.198561010817,-49.86
7367.813502182726,5.248
7373.426524958988,91.848
7379.145517410223,55.109
7384.7546694986595,55.109
7390.361906157261,-55.109
7395.967228366993,-26.242
7401.570637108154,146.957
7407.279835705631,89.224
7412.879383697611,47.236
7418.477021176703,-34.115
7424.072749120482,13.121
7429.666568505905,76.103
7435.258480309247,68.23
7440.848485506111,39.363
7446.436585071431,68.23
7452.022779979503,-36.739
7457.607071203925,73.478
7463.296794702215,57.733
7468.877244915177,76.103
7474.455794380043,104.969
7480.032444067743,78.727
7485.607194948596,236.181
7491.18004799222,68.23
7496.751004167574,-13.121
7502.2129850032,173.199
7507.7801867781745,128.587
7513.345494569261,146.957
7518.908909342786,73.478
7524.470432064445,76.103
7530.03006369928,-183.696
7535.587805211653,110.218
7541.1436575652915,107.593
7546.697621723266,123.339
7552.249698647978,228.308
7557.693172648,15.745
7563.241514237732,146.957
7568.787971459049,123.339
7574.332545271769,-68.23
7579.87523663506,68.23
7585.416046507413,-86.6
7590.848475703144,76.103
7596.385561603231,41.988
7601.920768865631,482.859
7607.454098446255,99.721
7612.879194899509,57.733
7618.4088080453,28.867
7623.936546354853,110.218
7629.462410781522,110.218
7634.880189328982,259.799
7640.402344837916,97.097
7645.9226293018255,191.569
7651.334937948188,178.448
7656.851519109852,186.32
7662.260197498763,-57.733
7667.773079083498,36.739
7673.284094334183,154.83
7678.687316594296,104.969
7684.194637864675,73.478
7689.7000956236625,128.587
7695.097870006797,259.799
7700.599639370841,62.982
7705.993798107356,70.854
7711.491882781789,49.86
7716.882429503323,44.612
7722.376833188511,152.205
7727.763771521855,202.066
7733.254497913214,175.824
7738.637831480286,196.817
7744.124884268305,162.702
7749.504616686187,349.023
7754.987999556393,110.218
7760.364134437317,89.224
7765.738489349154,131.212
7771.216392021717,-68.23
7776.587154788423,125.963
7782.061396717661,-70.854
7787.428570939446,89.224
7792.793969640064,104.969
7798.262745065967,-107.593
7803.624560595526,26.242
7808.984603262106,144.333
7814.447920368751,288.665
7819.804385227417,-36.739
7825.159079875983,115.466
7830.616946831127,152.205
7835.968069024231,94.472
7841.317423654822,49.86
7846.665011598543,70.854
7852.115636126822,152.205
7857.459658723532,36.739
7862.801917273948,165.327
7868.142412651388,86.6
7873.481145728587,-39.363
7878.922746278997,20.994
7884.257922859626,57.733
7889.59133977185,94.472
7894.922997886111,70.854
7900.252898072242,-31.491
7905.581041199541,-175.824
7910.907428136696,94.472
7916.336446752692,160.078
7921.65928952102,110.218
7926.980378718883,139.084
7932.29971521271,170.575
7937.617299868325,-141.709
7942.933133550996,78.727
7948.247217125423,60.357
7953.559551455743,196.817
7958.870137405502,15.745
7964.178975837705,34.115
7969.486067614758,65.606
7974.791413598527,110.218
7980.0950146503055,110.218
7985.396871630804,47.236
7990.696985400187,13.121
7995.995356818043,41.988
8001.291986743403,233.557
8006.586876034729,68.23
8011.880025549901,49.86
8017.067699705829,112.842
8022.357406311574,83.975
8027.645375694708,118.09
8032.931608710882,0.0
8038.216106215201,78.727
8043.498869062179,41.988
8048.779898105804,55.109
8053.955695240969,173.199
8059.233293192043,28.867
8064.509159881611,5.248
8069.783296161415,217.811
8074.952338977277,13.121
8080.223050878609,194.193
8085.492034905405,57.733
8090.759291907168,-73.478
8095.921593616502,15.745
8101.185432936367,70.854
8106.447547759821,-39.363
8111.604810570996,15.745
8116.863512715307,133.836
8122.120492886879,-220.435
8127.272724173963,133.836
8132.526296659391,-5.248
8137.778149690843,-23.618
8142.925356813517,-10.497
8148.173807142077,36.739
8153.4205405305,94.472
8158.562730834117,144.333
8163.806066493191,188.945
8168.944927307508,286.041
8174.184868536668,-212.563
8179.32040309432,10.497
8184.55695318873,-36.739
8189.689164718173,-57.733
8194.922326968728,162.702
8200.051218694258,102.345
8205.280996387602,-2.624
8210.406571529322,236.181
8215.632967947844,149.581
8220.7552297217,-47.236
8225.978248143558,41.988
8231.097199761349,-68.23
8236.316843460441,346.399
8241.43248812982,-44.612
8246.546496881761,52.485
8251.76110130029,26.242
8256.871807891675,-7.873
8261.98088093357,20.994
8267.190453365733,160.078
8272.296229025691,76.103
8277.400373499535,36.739
8282.604921225458,188.945
8287.705773086778,47.236
8292.804996120794,107.593
8298.004526406577,-99.721
8303.100461588281,128.587
8308.194770296956,141.709
8313.28745331115,115.466
8318.48031600209,-73.478
8323.569717486189,183.696
8328.657495624051,141.709
8333.743651192239,89.224
8338.828184966831,-44.612
8344.012739449463,115.466
8349.093999566121,-20.994
8354.17364022991,-55.109
8359.251662214898,0.0
8364.328066294685,26.242
8369.402853242376,146.957
8374.476023830553,78.727
8379.547578831349,-28.867
8384.718901354245,-5.248
8389.787195221597,31.491
8394.853875830348,131.212
8399.91894395064,-52.485
8404.98240035212,39.363
8410.044245803958,62.982
8415.104481074803,-65.606
8420.163106932847,83.975
8425.220124145773,73.478
8430.275533480788,2.624
8435.32933570461,89.224
8440.381531583458,102.345
8445.432121883085,20.994
8450.48110736873,68.23
8455.528488805172,170.575
8460.473367100913,47.236
8465.51757477424,-112.842
8470.560180674485,-81.351
8475.601185564497,-7.873
8480.64059020661,-15.745
8485.67839536271,196.817
8490.714601794163,20.994
8495.749210261878,157.454
8500.681576948675,-110.218
8505.713023691114,-220.435
8510.742874734438,228.308
8515.771130837642,36.739
8520.797792759218,238.805
8525.722375497866,-104.969
8530.745883175656,83.975
8535.7677989293,44.612
8540.788123515384,-83.975
8545.706498587671,-104.969
8550.723674892208,-152.205
8555.739262280982,26.242
8560.652997083213,191.569
8565.665440644778,-23.618
8570.676297538128,-18.37
8575.585398634048,20.994
8580.593116146138,191.569
8585.599249233324,-15.745
8590.503723174297,-259.799
8595.506721317797,212.563
8600.508137275468,34.115
8605.40799060051,-62.982
8610.406276043708,31.491
8615.303062904772,128.587
8620.298220771765,152.205
8625.191944046568,28.867
8630.18397727198,-36.739
8635.074639834631,-107.593
8640.063551349394,55.109
8644.951156070434,115.466
8649.936948801806,107.593
8654.821498548154,107.593
8659.804175419777,-10.497
8664.685673054784,-107.593
8669.665236986599,26.242
8674.543685370048,-102.345
8679.520139278378,131.212
8684.395541266465,708.543
8689.2694364983,49.86
8694.241246509358,5.248
8699.112099609058,-133.836
8703.981448060618,5.248
8708.948620671701,52.485
8713.81493124642,-23.618
8718.779005433622,55.109
8723.642280973501,99.721
8728.504055374753,41.988
8733.364329332315,60.357
8738.32224658698,-7.873
8743.179491154478,-128.587
8748.035237374625,-78.727
8752.889485940628,-5.248
8757.8412577103,257.175
8762.692482517024,-49.86
8767.542211760752,-13.121
8772.39044613298,165.327
8777.336083836857,57.733
8782.18130006664,34.115
8787.02502351089,-91.848
8791.867254859393,-68.23
8796.707994801498,133.836
8801.547244026118,47.236
8806.385003221756,91.848
8811.319956958603,-146.957
8816.154707786565,207.314
8820.987970662514,-60.357
8825.819746273257,-36.739
8830.650035305174,128.587
8835.478838444196,-107.593
8840.306156375878,-2.624
8845.131989785303,115.466
8849.956339357173,44.612
8854.779205775758,-183.696
8859.60058972489,28.867
8864.420491888006,39.363
8869.238912948098,7.873
8874.055853587757,78.727
8878.871314489159,-23.618
8883.685296334032,107.593
8888.497799803714,28.867
8893.308825579123,-139.084
8898.118374340735,7.873
8902.926446768637,20.994
8907.634964476681,-94.472
8912.440116370435,139.084
8917.243793954342,-49.86
8922.045997906822,-34.115
8926.846728905857,-52.485
8931.645987629043,-86.6
8936.443774753548,-5.248
8941.142221650607,62.982
8945.937097605834,-41.988
8950.73050397759,28.867
8955.522441441404,70.854
8960.215160665939,5.248
8965.004192282166,165.327
8969.791757000756,5.248
8974.577855495572,207.314
8979.26485751475,146.957
8984.048055470721,57.733
8988.829789208343,-178.448
8993.51251749025,41.988
8998.291354655303,-62.982
9003.068729603765,13.121
9007.747189991118,52.485
9012.521672326067,34.115
9017.294694442531,23.618
9021.968892767374,-55.109
9026.739026222178,5.248
9031.41039612206,94.472
9036.17764353675,102.345
9040.943434050514,65.606
9045.610551571128,223.06
9050.373459984672,68.23
9055.037755503963,-102.345
9059.797784430888,-23.618
9064.45926050758,-18.37
9069.216412558366,-2.624
9073.87507174812,78.727
9078.629349530078,86.6
9083.285194385431,-68.23
9088.036600502714,-94.472
9092.689633573158,406.756
9097.438170626783,115.466
9102.088394458704,128.587
9106.73722909284,13.121
9111.481482183284,18.37
9116.12751137963,-76.103
9120.868901881862,65.606
9125.512128179163,-102.345
9130.153968412898,49.86
9134.891084617178,104.969
9139.53012574118,-123.339
9144.167782675046,55.109
9148.9006303586,343.774
9153.535491965213,0.0
9158.168971251744,83.975
9162.801068836525,31.491
9167.528243916331,-125.963
9172.157551197888,-28.867
9176.785478643267,136.46
9181.412026869286,-5.248
9186.13353953768,-26.242
9190.757302472506,-81.351
9195.37968804908,15.745
9200.000696882766,-23.618
9204.620329588544,60.357
9209.334785850184,-10.497
9213.951639506451,-44.612
9218.567118890363,-99.721
9223.181224615444,34.115
9227.79395729483,-20.994
9232.40531754132,-194.193
9237.015305967328,-152.205
9241.623923184923,55.109
9246.23116980579,104.969
9250.932987640888,89.224
9255.537466379788,44.612
9260.140576367572,36.739
9264.742318214474,65.606
9269.342692530376,251.926
9273.941699924766,-144.333
9278.539341006806,-41.988
9283.135616385269,-123.339
9287.730526668583,62.982
9292.324072464791,732.161
9296.91625438162,-7.873
9301.411444872112,-70.854
9306.00092923447,-207.314
9310.589051525738,-36.739
9315.175812352172,-10.497
9319.761212319692,-2.624
9324.345252033823,-39.363
9328.927932099774,131.212
9333.509253122353,-104.969
9338.08921570604,-23.618
9342.572446701386,-65.606
9347.149722488744,-118.09
9351.7256416359,62.982
9356.300204745894,107.593
9360.873412421412,10.497
9365.350032145325,-57.733
9369.920558965528,120.715
9374.489732144635,81.351
9379.05755228394,107.593
9383.528899030936,76.103
9388.09404305015,131.212
9392.657835818722,196.817
9397.125240831178,-18.37
9401.6863610176,-20.994
9406.246131739394,36.739
9410.80455359534,-18.37
9415.266701898625,36.739
9419.822455888205,55.109
9424.281993052333,133.836
9428.835081516963,133.836
9433.38682407955,131.212
9437.84243511156,47.236
9442.391515668474,173.199
9446.84452129656,291.29
9451.390942182352,-34.115
9455.93602012123,-13.121
9460.385108237591,36.739
9464.927530014324,34.115
9469.374018445214,99.721
9473.913786387537,-18.37
9478.35767741084,128.587
9482.894793843763,7.873
9487.33608973474,-83.975
9491.87055698055,-178.448
9496.30926001177,-70.854
9500.74668109923,-44.612
9505.277192831463,-36.739
9509.71202445114,55.109
9514.23989277796,133.836
9518.672137195834,78.727
9523.103102466685,28.867
9527.62702390948,-44.612
9532.05540536064,-18.37
9536.57668916292,-65.606
9541.002489053764,23.618
9545.42701258622,-41.988
9549.850260312329,120.715
9554.36630345335,215.187
9558.78697410632,-94.472
9563.206370618926,31.491
9567.718482324255,68.23
9572.13530512818,-31.491
9576.550855454823,-13.121
9580.965133854,160.078
9585.47202083257,215.187
9589.883729992052,-2.624
9594.294168883298,-18.37
9598.703338054846,-178.448
9603.111238054931,49.86
9607.611613766734,86.6
9612.016950092931,-10.497
9616.421018902103,55.109
9620.823820741218,-131.212
9625.225356156909,-115.466
9629.625625695517,86.6
9634.02462990307,-49.86
9638.422369325252,-139.084
9642.81884450748,146.957
9647.21405599481,-60.357
9651.701478874824,57.733
9656.094137748323,-13.121
9660.485534571855,-36.739
9664.875669889248,52.485
9669.264544244,-62.982
9673.65215817932,41.988
9678.03851223808,188.945
9682.423606962846,20.994
9686.807442895892,-86.6
9691.19002057915,-68.23
9695.478134071804,7.873
9699.858223622705,-31.491
9704.23705653629,68.23
9708.614633353289,76.103
9712.990954614088,144.333
9717.36602085878,55.109
9721.739832627154,-18.37
9726.112390458671,10.497
9730.483694892511,-23.618
9734.760779687776,-23.618
9739.129605581998,10.497
9743.497179682729,141.709
9747.863502527893,28.867
9752.228574655115,-118.09
9756.499562339395,7.873
9760.862161224974,41.988
9765.223510992222,-167.951
9769.583612177565,141.709
9773.849736751828,107.593
9778.207368918504,-65.606
9782.563754099236,123.339
9786.918892829211,36.739
9791.18016259473,-152.205
9795.532836519418,89.224
9799.884265585692,5.248
9804.14190615754,-28.867
9808.490873566669,68.23
9812.83859770701,23.618
9817.09261371952,-23.618
9821.437879345483,-52.485
9825.689490172908,83.975
9830.032299369228,-225.684
9834.373867936378,-157.454
9838.621861899856,-328.029
9842.960977171238,70.854
9847.206571054325,94.472
9851.543235108787,-39.363
9855.786430944943,-20.994
9860.12064585897,5.248
9864.361445679362,23.618
9868.693213527116,28.867
9872.931619360628,-2.624
9877.26094221391,57.733
9881.49695608711,-10.497
9885.823836015392,-28.867
9890.057459952584,-157.454
9894.289902518456,70.854
9898.613135046206,81.351
9902.843190697367,220.435
9907.163985452502,57.733
9911.391656207565,204.69
9915.61814808206,41.988
9919.935303126713,-55.109
9924.15941311792,-44.612
9928.38234571751,-0.512
9932.695865648708,54.211
9936.91641937277,112.576
9941.135797191648,167.604
9945.445686598703,212.313
9949.662688544726,239.724
9953.878516069532,242.852
9958.09316966365,214.718
9962.398234183594,148.339
9966.61051589339,36.739
9970.821625153134,-65.606
9975.031562452265,2.624
9979.240328279942,10.497
9983.53937957713,-2.624
9987.745778488254,-265.047
9991.95100740443,47.236
9996.155066813732,34.115
10000.357957203963,94.472
10004.55967906266,39.363
10008.760232877092,139.084
10013.050897176752,-73.478
10017.249090997648,83.975
10021.446118245014,-44.612
10025.641979405023,36.739
10029.83667496358,-18.37
10034.03020540632,118.09
10038.222571218605,47.236
10042.413772885537,157.454
10046.603810891938,-99.721
10050.79268572236,-41.988
10054.980397861098,-128.587
10059.16694779218,-102.345
10063.352335999334,60.357
10067.536562966066,55.109
10071.719629175575,-91.848
10075.90153511081,-36.739
10080.082281254454,-15.745
10084.26186808891,68.23
10088.440296096323,-55.109
10092.52676786215,-2.624
10096.702904826674,173.199
10100.877884398516,5.248
10105.051707058765,-280.793
10109.224373288234,123.339
10113.395883567471,2.624
10117.475590772649,23.618
10121.64481569536,65.606
10125.812886097472,-15.745
10129.979802458443,76.103
10134.145565257517,-39.363
10138.219652237512,-31.491
10142.383134400929,-60.357
10146.545464428116,5.248
10150.706642797257,-186.32
10154.776246850048,149.581
10158.935148346747,23.618
10163.092899607942,-94.472
10167.159152430871,341.15
10171.314629631466,34.115
10175.468958016776,154.83
10179.531863747628,28.867
10183.683920879565,13.121
10187.834830614069,47.236
10191.894393383842,-144.333
10196.043034667582,107.593
10200.190529969435,31.491
10204.246753902304,-34.115
10208.391983551395,-31.491
10212.44599199288,-60.357
10216.588957845182,78.727
10220.640752609928,-55.109
10224.781456519388,44.612
10228.831039420063,322.78
10232.969483238625,15.745
10237.016856085897,149.581
10241.15304166346,76.103
10245.19820626604,31.491
10249.332135450502,-36.739
10253.375093615126,2.624
10257.506768252357,-91.848
10261.547521783785,-91.848
10265.58718577827,49.86
10269.715494418666,-49.86
10273.752956473523,-73.478
10277.87901516247,152.205
10281.91427707755,-26.242
10285.948451675904,-36.739
10290.0711512271,62.982
10294.10312837192,62.982
10298.13401952729,-18.37
10302.253364041218,-2.624
10306.282060424935,23.618
10310.309672144327,65.606
10314.425665714796,91.848
10318.451085340042,146.957
10322.475421623927,23.618
10326.498675003731,270.296
10330.610215200984,81.351
10334.631280043344,110.218
10338.651263301725,-68.23
10342.670165412448,36.739
10346.687986811625,41.988
10350.704727935088,86.6
10354.80961387438,7.873
10358.824171771252,57.733
10362.837650708272,-15.745
10366.850051120337,-272.92
10370.86137344214,36.739
10374.871618108127,-41.988
10378.880785552512,7.873
10382.888876209276,440.871
10386.984923052532,-120.715
10390.990837530662,-209.939
10394.995676531347,-191.569
10398.999440487634,102.345
10403.00212983234,41.988
10407.003744998048,62.982
10411.004286417105,-36.739
10415.003754521616,28.867
10419.002149743475,-199.442
10422.999472514348,-5.248
10426.995723265634,15.745
10430.990902428544,-62.982
10434.985010434026,68.23
10438.889325180557,207.314
10442.881315942828,-57.733
10446.872236829608,-41.988
10450.86208827093,91.848
10454.85087069661,23.618
10458.838584536235,-41.988
10462.82523021915,170.575
10466.810808174472,-107.593
10470.706785742112,-76.103
10474.690253232264,15.745
10478.672654271297,52.485
10482.653989287404,49.86
10486.634258708573,123.339
10490.525047770485,13.121
10494.50321094102,165.327
10498.480309789697,36.739
10502.45634474356,120.715
10506.342995080442,123.339
10510.316927143493,57.733
10514.2897965821,-70.854
10518.261603822417,20.994
10522.144122034457,-60.357
10526.113829736623,-173.199
10530.082476508169,-115.466
10533.961905709137,-26.242
10537.92845544769,-217.811
10541.89394552126,-162.702
10545.770289396216,-18.37
10549.733684937964,-2.624
10553.607981637546,107.593
10557.569284306495,2.624
10561.52952941227,-81.351
10565.400746905443,60.357
10569.35890163298,-28.867
10573.22807600992,-102.345
10577.184142013864,-62.982
10581.05127489159,-230.932
10585.005253824836,-13.121
10588.87034681866,78.727
10592.822240332363,-83.975
10596.685295055897,49.86
10600.635104799476,-31.491
10604.496122864624,18.37
10608.443850485746,-118.09
10612.302833502728,76.103
10616.160811022752,34.115
10620.10543022464,-28.867
10623.9613750996,-20.994
10627.903916281392,34.115
10631.757830117263,202.066
10635.61074043666,20.994
10639.550179321655,60.357
10643.401060998756,-2.624
10647.250940343372,91.848
10651.187280591832,-107.593
10655.035133687184,52.485
10658.881985632182,-5.248
10662.815230898605,-18.37
10666.660058983602,110.218
10670.50388709854,23.618
10674.346715633475,-55.109
10678.275847672114,99.721
10682.116655520924,0.0
10685.956464967534,47.236
10689.795276401208,91.848
10693.633090210977,215.187
10697.557095575656,0.0
10701.39289265285,62.982
10705.227693280882,600.949
10709.061497847986,-212.563
10712.894306742182,123.339
10716.726120351308,83.975
10720.55693906298,57.733
10724.386763264632,-52.485
10728.302600658342,2.624
10732.130414421008,-68.23
10735.957234843503,55.109
10739.783062312445,146.957
10743.60789721425,-31.491
10747.431739935131,-26.242
10751.254590861114,23.618
10755.076450378,-233.557
10758.897318871408,10.497
10762.717196726757,141.709
10766.536084329256,107.593
10770.353982063916,-62.982
10774.170890315563,-94.472
10777.98680946881,86.6
10781.801739908076,173.199
10785.615682017564,78.727
10789.341989100834,31.491
10793.153978142976,47.236
10796.964979998098,-39.363
10800.774995049622,73.478
10804.58402368077,-15.745
10808.392066274577,2.624
10812.199123213884,39.363
10816.005194881312,7.873
10819.723813349112,-144.333
10823.52793799081,254.55
10827.331078498672,-41.988
10831.133235254529,-18.37
10834.848029253728,293.914
10838.64824198676,-107.593
10842.447472103491,39.363
10846.24571998498,31.491
10849.956695412544,15.745
10853.753002267928,47.236
10857.548328021428,-31.491
10861.342673053316,104.969
10865.049835794096,-89.224
10868.842242790466,-236.181
10872.63367019626,-86.6
10876.337982712816,47.236
10880.12747431772,-34.115
10883.82989575329,68.23
10887.617453039476,-5.248
10891.404032613404,-65.606
10895.103609289945,-47.236
10898.88825677408,-280.793
10902.585945994537,-28.867
10906.368662867266,23.618
10910.150403901262,0.0
10913.845253813895,26.242
10917.62506645972,-217.811
10921.318032531915,55.109
10925.095918264182,-120.715
10928.787001936307,-97.097
10932.562962228116,-76.103
10936.252164939066,-18.37
10939.940438510435,-70.854
10943.713524449233,73.478
10947.399919206764,181.072
10951.171083372872,128.587
10954.855600751816,-139.084
10958.62484461311,-47.236
10962.307486047235,-94.472
10965.989200819247,-83.975
10969.755577991731,-110.218
10973.435418958636,-104.969
10977.114334320191,-123.339
10980.877848072992,178.448
10984.554891765896,194.193
10988.231010908596,-70.854
10991.991664505884,-152.205
10995.665914113146,73.478
10999.33924022374,-60.357
11003.011643185791,-76.103
11006.768495629847,28.867
11010.439031890255,23.618
11014.108646053544,-60.357
11017.777338467138,36.739
11021.530395518184,196.817
11025.197224058184,-110.218
11028.863131897786,70.854
11032.528119383707,20.994
11036.192186862492,-417.253
11039.855334680517,47.236
11043.602720353196,107.593
11047.264008520897,65.606
11050.924378073953,-20.994
11054.58382935806,-55.109
11058.242362718707,-204.69
11061.899978501227,-173.199
11065.556677050785,-20.994
11069.21245871235,-20.994
11072.867323830738,-47.236
11076.521272750586,-181.072
11080.174305816368,76.103
11083.826423372368,162.702
11087.477625762698,-47.236
11091.127913331318,-262.423
11094.777286422,-15.745
11098.425745378345,36.739
11102.073290543767,107.593
11105.719922261547,18.37
11109.36564087477,-128.587
11113.010446726335,13.121
11116.654340159006,-44.612
11120.29732151534,254.55
11123.93939113774,120.715
11127.580549368427,78.727
11131.22079654947,-99.721
11134.77550763161,-26.242
11138.413954906267,94.472
11142.051492148485,-170.575
11145.688119699626,55.109
11149.323837900913,-52.485
11152.958647093375,13.121
11156.508048620988,-157.454
11160.141061938251,76.103
11163.773167260852,-41.988
11167.40436492916,-52.485
11170.950240228543,31.491
11174.579644697213,-86.6
11178.208142523734,-209.939
11181.751381744987,41.988
11185.378088371155,-112.842
11189.003889365817,34.115
11192.628785068173,-36.739
11196.16850723805,102.345
11199.79161440632,65.606
11203.413817290922,102.345
11206.950910239968,-31.491
11210.571326582844,328.029
11214.10667518314,-49.86
11217.725306305692,-2.624
11221.343034819707,-55.109
11224.875759069631,110.218
11228.49170435076,-39.363
11232.022687482247,-15.745
11235.636850848638,-62.982
11239.166094148528,133.836
11242.778476917028,-44.612
11246.305981670925,44.612
11249.91658515709,-125.963
11253.442352649325,86.6
11257.05117816741,-10.497
11260.575209681025,-94.472
11264.182258544,0.0
11267.704555360804,-191.569
11271.309828880325,13.121
11274.83039228086,76.103
11278.350099642112,-26.242
11281.952723030843,-81.351
11285.470698886753,-10.497
11288.987819646914,-99.721
11292.587795825824,125.963
11296.103186988752,-68.23
11299.70139304264,-28.867
11303.215055883851,186.32
11306.727865201254,-170.575
11310.23982130582,-270.296
11313.834511810855,13.121
11317.34474212601,-49.86
11320.8541201677,178.448
11324.446172200132,-83.975
11327.953826352135,-83.975
11331.460629168672,-110.218
11334.96658095964,-28.867
11338.471682034791,86.6
11342.059356881087,52.485
11345.562737216636,120.715
11349.06526777208,-375.265
11352.566948856567,18.37
11356.067780779093,39.363
11359.56776384851,73.478
11363.1502007606,20.994
11366.648466857394,-78.727
11370.145885034064,-15.745
11373.642455598843,128.587
11377.138178859836,97.097
11380.633055125,70.854
11384.1270847021,-223.06
11387.620267898808,-133.836
11391.112605022612,-94.472
11394.60409638087,62.982
11398.094742280777,-94.472
11401.584543029392,-15.745
11405.073498933603,-5.248
11408.561610300185,-41.988
11412.048877435727,-112.842
11415.5353006467,-31.491
11419.020880239405,165.327
11422.505616520008,-170.575
11425.989509794525,-10.497
11429.472560368817,7.873
11432.954768548592,-26.242
11436.43613463944,-13.121
11439.916658946764,-68.23
11443.313501961433,-112.842
11446.79236364179,52.485
11450.270384446749,-31.491
11453.74756468115,-73.478
11457.22390464968,-5.248
11460.699404656869,-125.963
11464.091344754375,68.23
11467.565185732994,-73.478
11471.038187655771,57.733
11474.51035082668,0.0
11477.981675549512,-49.86
11481.369541233144,15.745
11484.839209915755,97.097
11488.30804105362,57.733
11491.693473394258,-55.109
11495.16065027576,-60.357
11498.626990514544,-76.103
11502.092494413417,-118.09
11505.474679896604,76.103
11508.938531918346,154.83
11512.401548500471,-341.15
11515.78130675673,112.842
11519.242673239612,15.745
11522.620821260369,39.363
11526.080538823127,102.345
11529.5394224415,225.684
11532.915147579475,-7.873
11536.372384051368,-44.612
11539.74650183491,104.969
11543.202092336618,110.218
11546.574603913472,-7.873
11550.028549620163,-70.854
11553.399456136987,15.745
11556.85175822272,18.37
11560.221060825072,-86.6
11563.67172046279,-68.23
11567.039420295116,-104.969
11570.488438656655,-115.466
11573.854536862347,39.363
11577.301915118398,44.612
11580.666412839755,-39.363
11584.030120381583,62.982
11587.475050538147,-18.37
11590.837159300165,-173.199
11594.280452266124,278.169
11597.64096338792,76.103
11601.000685734118,-160.078
11604.441534950183,-246.678
11607.79966135666,49.86
11611.156999826935,-36.739
11614.59540789372,-18.37
11617.951152122365,70.854
11621.306109253032,-62.982
11624.66027956261,86.6
11628.09544335218,244.054
11631.44802167594,10.497
11634.799814015252,15.745
11638.15082064648,-68.23
11641.58274474832,52.485
11644.932161645294,49.86
11648.280793669244,57.733
11651.62864109602,73.478
11654.975704201344,118.09
11658.403590030808,-97.097
11661.749066206958,73.478
11665.093758894744,18.37
11668.43766836938,144.333
11671.780794905935,-225.684
11675.12313877933,78.727
11678.4647002644,41.988
11681.805479635816,36.739
11685.145477168146,-49.86
11688.484693135812,13.121
11691.904543291126,-5.248
11695.24217790648,-2.624
11698.579031786354,-28.867
11701.915105204676,144.333
11705.25039843522,160.078
11708.584911751648,-15.745
11711.918645427471,28.867
11715.251599736104,-18.37
11718.502511651865,39.363
11721.83392703817,-7.873
11725.164563870054,-102.345
11728.4944224204,60.357
11731.823502961994,650.809
11735.15180576744,-7.873
11738.479331109273,-91.848
11741.806079259855,18.37
11745.132050491462,110.218
11748.457245076206,18.37
11751.70058915004,28.867
11755.024250183047,-41.988
11758.34713537819,-97.097
11761.669245007088,-68.23
11764.990579341233,-199.442
11768.230158619372,-31.491
11771.549962071174,-120.715
11774.86899103535,36.739
11778.187245782876,-20.994
11781.423821624776,-267.672
11784.740547618409,188.945
11788.05650020102,-162.702
11791.371679643096,-78.727
11794.605256223578,99.721
11797.91890903626,15.745
11801.231789512534,160.078
11804.46312397414,34.115
11807.774479408556,31.491
11811.085063309589,-5.248
11814.314157983485,-115.466
11817.623218427994,65.606
11820.850827315822,-83.975
11824.158365355152,-44.612
11827.4651331948,5.248
11830.690506166697,-333.277
11833.995753182851,49.86
11837.219642936305,173.199
11840.52337017791,-20.994
11843.745777735792,383.138
11847.047986250807,-5.248
11850.26891263506,-104.969
11853.569603470474,-97.097
11856.789049702087,47.236
11860.088223903953,-144.333
11863.30619100298,-181.072
11866.603849616356,-18.37
11869.820338601929,-36.739
11873.11648267094,65.606
11876.331494561222,20.994
11879.545777396996,-5.248
11882.839660941268,-70.854
11886.052468201013,2.624
11889.26454715598,47.236
11892.55617250015,-99.721
11895.766777396242,-76.103
11899.056892350098,141.709
11902.26602420178,34.115
11905.474428998024,-70.854
11908.682106985869,304.411
11911.969222890988,28.867
11915.17542984806,5.248
11918.380910743392,-76.103
11921.66577540321,-13.121
11924.869786778698,-115.466
11928.07307283808,-28.867
11931.27563382762,-47.236
11934.477469993468,-47.236
11937.758600089848,-34.115
11940.95896924119,-62.982
11944.158614312782,107.593
11947.35753555032,-28.867
11950.55573319941,-120.715
11953.753207505528,41.988
11957.029868231695,-333.277
11960.225878519712,76.103
11963.42116620667,-5.248
11966.615731537608,-44.612
11969.809574757444,-81.351
11973.002696111003,-7.873
11976.195095842992,136.46
11979.386774197992,13.121
11982.577731420495,5.248
11985.767967754866,15.745
11988.957483445382,-107.593
11992.146278736183,-23.618
11995.334353871312,-47.236
11998.521709094712,60.357
12001.708344650193,-7.873
12004.894260781464,65.606
12008.079457732136,-47.236
12011.2639357457,-55.109
12014.44769506553,23.618
12017.630735934905,5.248
12020.81305859698,154.83
12023.994663294816,-152.205
12027.175550271351,-110.218
12030.27622427429,-191.569
12033.455694464548,191.569
12036.634447655608,-131.212
12039.812484089987,-23.618
12042.989804010074,-94.472
12046.166407658158,-10.497
12049.26290681064,-149.581
12052.4380965329,20.994
12055.612570703324,28.867
12058.786329563762,120.715
12061.880055974125,-5.248
12065.052402807443,94.472
12068.224035049663,186.32
12071.394952942192,23.618
12074.485910333004,-41.988
12077.655418093736,34.115
12080.824212222367,-31.491
12083.913099633974,-62.982
12087.080485047096,73.478
12090.247157544738,228.308
12093.333977055809,-7.873
