Raman Shift,Intensity
108.691,9051.0
110.082,9182.0
111.473,9123.0
112.864,9280.0
114.254,9440.0
115.644,9687.0
117.034,9834.0
118.424,9894.0
119.813,9737.0
121.203,9852.0
122.592,9732.0
123.981,9620.0
125.369,9585.0
126.758,9749.0
128.146,9665.0
129.534,9709.0
130.922,9836.0
132.309,9798.0
133.696,9830.0
135.083,9773.0
136.47,9952.0
137.857,9848.0
139.243,10024.0
140.63,9960.0
142.016,10052.0
143.401,10012.0
144.787,10114.0
146.172,10096.0
147.557,10116.0
148.942,10146.0
150.327,10146.0
151.711,10289.0
153.096,10345.0
154.48,10427.0
155.863,10351.0
157.247,10470.0
158.63,10464.0
160.013,10460.0
161.396,10574.0
162.779,10607.0
164.161,10758.0
165.544,10742.0
166.926,10832.0
168.308,10969.0
169.689,11010.0
171.07,11114.0
172.452,11298.0
173.833,11421.0
175.213,11637.0
176.594,11812.0
177.974,12071.732
179.354,12362.0
180.734,12582.0
182.114,12828.0
183.493,12969.0
184.872,13428.0
186.251,13639.0
187.63,13786.0
189.008,13657.0
190.387,13615.0
191.765,13513.0
193.143,13019.0
194.52,12829.0
195.898,12259.0
197.275,12206.0
198.652,11765.0
200.029,11708.0
201.405,11292.0
202.782,11345.0
204.158,11060.0
205.534,11050.0
206.909,11008.0
208.285,10709.0
209.66,10814.0
211.035,10860.0
212.41,10640.0
213.784,10703.0
215.159,10686.0
216.533,10713.0
217.907,10726.589
219.281,10682.0
220.654,10754.0
222.027,10736.0
223.4,10776.0
224.773,10849.0
226.146,10835.0
227.518,10801.0
228.891,10872.0
230.263,10845.0
231.634,10898.0
233.006,10913.0
234.377,10865.0
235.748,10852.0
237.119,10951.0
238.49,10965.0
239.86,10982.0
241.231,11032.0
242.601,11084.0
243.97,11013.0
245.34,11073.0
246.709,11129.0
248.079,10963.0
249.448,11335.0
250.816,11161.0
252.185,11134.0
253.553,11168.0
254.921,11285.0
256.289,11305.474
257.657,11347.0
259.024,11433.0
260.391,11516.0
261.758,11555.0
263.125,11554.0
264.492,11783.0
265.858,11756.0
267.224,11812.0
268.59,12032.0
269.956,12080.0
271.321,12304.0
272.687,12548.0
274.052,12733.0
275.416,12953.0
276.781,13387.0
278.146,13755.0
279.51,14270.0
280.874,15014.0
282.237,15628.0
283.601,16503.0
284.964,17040.0
286.327,17952.0
287.69,18584.0
289.053,18921.0
290.416,19181.627
291.778,19294.0
293.14,18950.0
294.502,18658.0
295.863,17973.0
297.225,17637.0
298.586,17033.0
299.947,16502.0
301.308,16139.0
302.668,15500.0
304.029,14974.0
305.389,14599.0
306.749,14294.0
308.108,13863.0
309.468,13607.0
310.827,13249.0
312.186,13117.0
313.545,12801.0
314.903,12647.359
316.262,12575.445
317.62,12337.0
318.978,12461.0
320.336,12303.0
321.693,12172.0
323.051,12110.0
324.408,12056.695
325.765,12048.0
327.121,12056.0
328.478,11935.0
329.834,11962.0
331.19,11882.0
332.546,11909.0
333.902,11878.0
335.257,12026.0
336.612,11886.0
337.967,11918.0
339.322,11868.0
340.677,11828.0
342.031,11994.0
343.385,11822.0
344.739,11934.0
346.093,11760.0
347.446,11810.0
348.799,11722.0
350.153,11885.0
351.505,11894.0
352.858,11799.0
354.21,11944.0
355.563,11872.0
356.915,11749.0
358.267,11826.0
359.618,11922.0
360.969,11869.0
362.321,12032.0
363.672,11744.0
365.022,11876.0
366.373,11944.0
367.723,11875.0
369.073,11940.0
370.423,11880.0
371.773,11798.0
373.122,11852.0
374.471,11915.0
375.821,11925.0
377.169,11806.0
378.518,11946.0
379.866,11788.0
381.215,11819.0
382.563,11886.0
383.91,11891.0
385.258,11880.0
386.605,11914.0
387.952,11929.0
389.299,11840.0
390.646,11962.0
391.992,11861.0
393.339,11954.0
394.685,11830.0
396.031,11840.0
397.376,12149.0
398.722,11941.0
400.067,12026.0
401.412,11883.0
402.757,11933.0
404.101,12024.0
405.446,12016.0
406.79,11957.0
408.134,11951.0
409.478,11992.0
410.821,12060.0
412.165,12020.0
413.508,11955.0
414.851,12053.0
416.193,12077.0
417.536,11941.0
418.878,11931.0
420.22,12081.0
421.562,12116.0
422.904,11904.0
424.245,12098.0
425.586,12032.0
426.927,12101.0
428.268,12166.0
429.609,12167.0
430.949,12204.142
432.289,12214.609
433.629,12227.0
434.969,12217.0
436.309,12239.0
437.648,12231.0
438.987,12258.0
440.326,12256.0
441.665,12177.0
443.003,12144.0
444.342,12204.0
445.68,12228.0
447.018,12135.0
448.355,12220.0
449.693,12122.0
451.03,12224.0
452.367,12112.0
453.704,12247.0
455.041,12183.0
456.377,12267.0
457.713,12239.0
459.049,12280.0
460.385,12369.0
461.721,12214.0
463.056,12319.0
464.391,12296.0
465.726,12312.0
467.061,12372.145
468.395,12388.328
469.73,12440.0
471.064,12500.0
472.398,12499.0
473.731,12595.0
475.065,12591.045
476.398,12632.957
477.731,12601.0
479.064,12669.0
480.397,12652.0
481.729,12613.0
483.062,12688.0
484.394,12709.0
485.725,12753.0
487.057,12656.0
488.389,12788.0
489.72,12785.0
491.051,12724.0
492.382,12921.0
493.712,12754.0
495.043,12807.0
496.373,12830.0
497.703,12855.0
499.032,12990.0
500.362,12870.0
501.691,12981.0
503.02,12899.0
504.349,12881.0
505.678,12985.0
507.007,13095.0
508.335,12936.0
509.663,12929.0
510.991,12958.0
512.319,12996.0
513.646,13005.0
514.973,13028.0
516.3,13025.0
517.627,13032.0
518.954,13017.0
520.28,13012.0
521.607,12958.0
522.933,12971.0
524.259,12913.481
525.584,12928.0
526.91,12936.97
528.235,12948.0
529.56,12969.0
530.885,13033.0
532.209,13033.345
533.534,13017.709
534.858,12977.0
536.182,12976.0
537.506,12900.0
538.829,12936.0
540.152,12854.0
541.476,12727.0
542.799,12936.0
544.121,12685.0
545.444,12851.0
546.766,12866.0
548.088,12844.0
549.41,12776.0
550.732,12752.0
552.053,12782.0
553.375,12823.0
554.696,12740.0
556.017,12641.0
557.337,12672.0
558.658,12781.0
559.978,12662.0
561.298,12672.0
562.618,12740.0
563.938,12552.0
565.257,12889.0
566.576,13223.0
567.895,12446.0
569.214,12643.0
570.533,12748.0
571.851,12628.0
573.17,12566.0
574.488,12642.0
575.805,12592.0
577.123,12578.0
578.44,12617.0
579.758,12544.0
581.075,12542.0
582.391,12460.0
583.708,12440.504
585.024,12539.0
586.341,12435.0
587.657,12539.0
588.972,12654.0
590.288,12681.0
591.603,12637.0
592.918,12529.0
594.233,12629.0
595.548,12572.0
596.863,12536.0
598.177,12499.0
599.491,12458.0
600.805,12546.0
602.119,12550.0
603.432,12572.667
604.746,12593.0
606.059,12594.0
607.372,12565.0
608.685,12578.267
609.997,12661.0
611.309,12550.0
612.621,12523.0
613.933,12458.0
615.245,12533.0
616.557,12442.0
617.868,12624.0
619.179,12580.0
620.49,12652.0
621.801,12432.0
623.111,12659.0
624.421,12557.0
625.731,12711.0
627.041,12401.0
628.351,12745.0
629.66,12575.0
630.97,12490.0
632.279,12656.0
633.588,12675.0
634.896,12672.0
636.205,12540.0
637.513,12705.0
638.821,12540.0
640.129,12664.0
641.437,12723.0
642.744,12732.0
644.051,12790.041
645.358,12797.023
646.665,12780.0
647.972,12804.0
649.278,12702.0
650.584,12676.0
651.89,12485.0
653.196,12880.0
654.502,12670.0
655.807,12740.0
657.113,12568.0
658.418,12560.0
659.722,12762.0
661.027,12738.0
662.331,12678.0
663.636,12721.0
664.94,12713.0
666.244,12581.0
667.547,12806.0
668.851,12654.0
670.154,12851.0
671.457,12573.0
672.76,12615.0
674.062,12934.0
675.365,12700.0
676.667,12778.0
677.969,12829.0
679.271,12731.0
680.572,12760.0
681.874,12741.0
683.175,12876.0
684.476,12865.0
685.777,12781.0
687.077,12847.0
688.378,12725.0
689.678,12841.0
690.978,12801.0
692.278,12956.0
693.577,12551.0
694.877,13046.0
696.176,12730.0
697.475,12888.0
698.774,12928.0
700.072,13006.0
701.371,12939.0
702.669,12976.0
703.967,12861.0
705.265,13017.0
706.562,13072.0
707.86,12974.0
709.157,12925.0
710.454,13148.0
711.751,13010.0
713.047,13165.0
714.344,13046.0
715.64,13283.0
716.936,13124.0
718.232,13324.0
719.527,13482.0
720.823,13593.0
722.118,13609.0
723.413,13783.0
724.708,13855.0
726.002,13905.0
727.297,14144.0
728.591,13929.0
729.885,14267.0
731.179,14344.0
732.472,14235.0
733.766,14022.0
735.059,14035.0
736.352,14116.0
737.645,14019.898
738.937,14134.0
740.23,13994.0
741.522,13938.0
742.814,13906.0
744.106,13865.0
745.397,13977.0
746.689,13831.0
747.98,13624.0
749.271,13788.0
750.562,13564.0
751.853,13698.0
753.143,13487.0
754.433,13424.0
755.723,13360.0
757.013,13281.0
758.303,13300.348
759.592,13168.0
760.881,13329.0
762.17,13331.0
763.459,13302.0
764.748,13302.0
766.036,13122.0
767.325,13356.0
768.613,13199.0
769.901,13281.0
771.188,13294.0
772.476,13179.0
773.763,13435.0
775.05,13051.0
776.337,13305.0
777.624,13310.0
778.91,13300.0
780.196,13193.0
781.482,13309.0
782.768,13215.0
784.054,13264.0
785.339,13390.0
786.625,13326.0
787.91,13299.0
789.195,13374.0
790.479,13350.0
791.764,13231.0
793.048,13359.0
794.332,13286.0
795.616,13380.0
796.9,13323.0
798.183,13367.0
799.467,13226.0
800.75,13329.0
802.033,13416.0
803.316,13299.0
804.598,13400.0
805.88,13234.0
807.163,13302.716
808.445,13389.0
809.726,13367.0
811.008,13406.0
812.289,13411.0
813.57,13418.408
814.851,13485.0
816.132,13424.0
817.413,13459.0
818.693,13428.0
819.973,13536.0
821.253,13575.0
822.533,13461.0
823.813,13617.0
825.092,13414.0
826.371,13515.0
827.65,13538.0
828.929,13479.0
830.208,13689.0
831.486,13599.0
832.764,13534.0
834.042,13489.0
835.32,13576.0
836.598,13569.0
837.875,13568.0
839.152,13665.0
840.429,13624.0
841.706,13758.0
842.983,13564.0
844.259,13690.0
845.536,13684.0
846.812,13559.0
848.088,13711.0
849.363,13538.0
850.639,13838.0
851.914,13794.0
853.189,13642.0
854.464,13731.0
855.739,13766.0
857.013,13847.0
858.288,13726.0
859.562,13594.0
860.836,13725.0
862.11,13867.0
863.383,13646.0
864.656,13865.0
865.93,13888.0
867.203,13782.0
868.475,13939.0
869.748,13893.0
871.02,13847.0
872.292,13952.0
873.564,13818.0
874.836,13778.0
876.108,13925.0
877.379,13763.0
878.65,13961.0
879.922,13830.0
881.192,13871.0
882.463,13835.0
883.733,13859.0
885.004,13834.0
886.274,13842.0
887.544,13945.0
888.813,14032.0
890.083,13852.0
891.352,13879.0
892.621,14078.0
893.89,13941.0
895.159,14019.0
896.427,13978.0
897.695,13884.0
898.964,14021.0
900.232,13940.0
901.499,14013.0
902.767,13999.0
904.034,14045.0
905.301,13972.0
906.568,14065.0
907.835,14027.117
909.102,14051.0
910.368,14049.0
911.634,13992.0
912.9,14096.0
914.166,14036.0
915.432,14235.0
916.697,14174.0
917.962,14006.0
919.227,14190.0
920.492,14036.0
921.757,14109.0
923.021,14065.0
924.285,14225.0
925.55,14147.0
926.813,14293.0
928.077,14231.0
929.341,14191.0
930.604,14340.0
931.867,14367.0
933.13,14140.0
934.393,14289.0
935.655,14436.0
936.918,14196.0
938.18,14419.0
939.442,14188.0
940.703,14327.0
941.965,14346.0
943.226,14289.0
944.488,14262.0
945.749,14263.0
947.009,14247.792
948.27,14323.0
949.53,14320.0
950.791,14347.0
952.051,14511.0
953.311,14336.0
954.57,14192.0
955.83,14545.0
957.089,14375.0
958.348,14363.0
959.607,14482.0
960.866,14500.0
962.124,14367.0
963.383,14513.0
964.641,14467.0
965.899,14490.0
967.156,14528.0
968.414,14526.459
969.671,14433.0
970.928,14562.0
972.185,14556.0
973.442,14545.0
974.699,14663.0
975.955,14728.832
977.211,15037.0
978.468,14926.0
979.723,15013.0
980.979,15010.0
982.234,14777.0
983.49,14961.0
984.745,14504.0
986.0,14763.0
987.254,14736.0
988.509,14512.0
989.763,14773.0
991.017,14683.0
992.271,14725.0
993.525,14759.0
994.779,14685.0
996.032,14798.0
997.285,14832.0
998.538,14892.0
999.791,14602.0
1001.044,15006.0
1002.296,14698.0
1003.548,14991.0
1004.8,14853.0
1006.052,14956.0
1007.304,14980.0
1008.555,14952.0
1009.807,14978.0
1011.058,14904.0
1012.309,14919.522
1013.559,14962.0
1014.81,14909.0
1016.06,14868.0
1017.31,14857.765
1018.56,14904.461
1019.81,14918.0
1021.06,15028.0
1022.309,15102.0
1023.558,15115.0
1024.807,15246.0
1026.056,15250.213
1027.305,15298.859
1028.553,15292.0
1029.801,15328.0
1031.049,15326.0
1032.297,15269.0
1033.545,15284.0
1034.793,15288.486
1036.04,15404.0
1037.287,15344.0
1038.534,15548.0
1039.781,15622.0
1041.027,15842.0
1042.274,15753.0
1043.52,15723.0
1044.766,15903.0
1046.012,15888.0
1047.257,15824.0
1048.503,15936.0
1049.748,16236.0
1050.993,16139.0
1052.238,16540.0
1053.483,16346.0
1054.727,16452.0
1055.971,16470.0
1057.216,16872.0
1058.459,17018.0
1059.703,17154.316
1060.947,17149.0
1062.19,17465.0
1063.433,17703.0
1064.676,17950.0
1065.919,18279.0
1067.162,18420.0
1068.404,19024.0
1069.646,19026.0
1070.888,19505.0
1072.13,20113.0
1073.372,20313.0
1074.613,21328.0
1075.855,22353.0
1077.096,23252.0
1078.337,24943.0
1079.578,27194.0
1080.818,29927.0
1082.059,34009.0
1083.299,39002.0
1084.539,45964.0
1085.779,52462.0
1087.018,57825.0
1088.258,59514.0
1089.497,57168.0
1090.736,51883.0
1091.975,45464.0
1093.213,38715.0
1094.452,33008.0
1095.69,29042.0
1096.928,25426.0
1098.166,23330.0
1099.404,21346.0
1100.642,20376.0
1101.879,19206.0
1103.116,18678.0
1104.353,17920.0
1105.59,17676.0
1106.827,17181.0
1108.063,17252.0
1109.299,16771.0
1110.536,16704.0
1111.771,16572.0
1113.007,16282.0
1114.243,16298.0
1115.478,16294.0
1116.713,16115.0
1117.948,16112.0
1119.183,15987.0
1120.418,15917.0
1121.652,16033.0
1122.886,15972.562
1124.12,16181.0
1125.354,16054.0
1126.588,15851.0
1127.821,15927.0
1129.055,15696.0
1130.288,15941.0
1131.521,15890.0
1132.753,15882.0
1133.986,15748.0
1135.218,15751.0
1136.45,16083.0
1137.682,15633.0
1138.914,15945.0
1140.146,15590.0
1141.377,15860.0
1142.609,15715.0
1143.84,15750.0
1145.071,15774.0
1146.301,15912.0
1147.532,15843.0
1148.762,15845.0
1149.992,15778.0
1151.222,15745.0
1152.452,15744.389
1153.682,15722.999
1154.911,15744.0
1156.14,15774.0
1157.369,15787.0
1158.598,15908.0
1159.827,15895.306
1161.055,15947.0
1162.284,15934.0
1163.512,15933.0
1164.74,15955.0
1165.967,15937.376
1167.195,15952.464
1168.422,15914.0
1169.65,15952.0
1170.877,15925.0
1172.103,15890.0
1173.33,16008.0
1174.557,15887.0
1175.783,16109.0
1177.009,16098.0
1178.235,15874.0
1179.461,16101.0
1180.686,16010.0
1181.912,16143.0
1183.137,16093.0
1184.362,16134.0
1185.587,16059.0
1186.811,16092.0
1188.036,16192.0
1189.26,16033.0
1190.484,16158.0
1191.708,16118.0
1192.932,16227.0
1194.155,16160.0
1195.378,16269.0
1196.602,16160.0
1197.825,16280.0
1199.047,16261.0
1200.27,16276.0
1201.492,16238.0
1202.715,16397.0
1203.937,16157.0
1205.159,16507.0
1206.38,16392.0
1207.602,16415.0
1208.823,16332.0
1210.044,16286.0
1211.265,16285.0
1212.486,16285.218
1213.707,16285.597
1214.927,16368.0
1216.147,16349.0
1217.367,16413.0
1218.587,16516.0
1219.807,16544.0
1221.027,16403.0
1222.246,16379.0
1223.465,16466.0
1224.684,16663.0
1225.903,16498.0
1227.121,16560.0
1228.34,16521.0
1229.558,16553.0
1230.776,16560.0
1231.994,16497.0
1233.212,16477.0
1234.429,16666.0
1235.646,16569.0
1236.864,16473.0
1238.081,16896.0
1239.297,16574.0
1240.514,16622.0
1241.73,16812.0
1242.947,16693.0
1244.163,16647.0
1245.378,16658.0
1246.594,16859.0
1247.81,16800.0
1249.025,16830.766
1250.24,16914.0
1251.455,16820.0
1252.67,16738.0
1253.885,16806.0
1255.099,16932.0
1256.313,16761.0
1257.527,16717.0
1258.741,16996.0
1259.955,16798.0
1261.168,16779.0
1262.382,16730.0
1263.595,16954.0
1264.808,16875.0
1266.021,16825.0
1267.233,16943.0
1268.446,16932.0
1269.658,16938.0
1270.87,16923.0
1272.082,16919.521
1273.294,16842.0
1274.505,16910.0
1275.716,16907.0
1276.928,16911.223
1278.139,16791.0
1279.349,16934.0
1280.56,17029.0
1281.77,17089.0
1282.981,16929.0
1284.191,16921.0
1285.401,17046.0
1286.61,17002.0
1287.82,17038.0
1289.029,17072.0
1290.239,16997.0
1291.448,17075.0
1292.656,17038.0
1293.865,17193.0
1295.073,16994.0
1296.282,17209.0
1297.49,16813.0
1298.698,17202.0
1299.906,17228.0
1301.113,17104.0
1302.32,17025.0
1303.528,17173.0
1304.735,17086.0
1305.942,17216.0
1307.148,17183.0
1308.355,17250.0
1309.561,17113.0
1310.767,17418.0
1311.973,17083.0
1313.179,17243.0
1314.384,17116.0
1315.59,17264.0
1316.795,17219.0
1318.0,17208.0
1319.205,17178.0
1320.41,17399.0
1321.614,17344.0
1322.819,17389.396
1324.023,17395.0
1325.227,17390.0
1326.431,17472.0
1327.634,17460.0
1328.838,17456.217
1330.041,17422.0
1331.244,17377.0
1332.447,17472.0
1333.65,17360.0
1334.852,17423.0
1336.055,17513.0
1337.257,17374.0
1338.459,17530.0
1339.661,17410.0
1340.862,17654.0
1342.064,17449.0
1343.265,17353.0
1344.466,17467.0
1345.667,17691.0
1346.868,17588.0
1348.068,17561.0
1349.269,17635.0
1350.469,17672.0
1351.669,17676.549
1352.869,17744.0
1354.069,17682.0
1355.268,17721.0
1356.468,17670.0
1357.667,17820.0
1358.866,17941.0
1360.065,17810.0
1361.263,17943.0
1362.462,17826.0
1363.66,17889.0
1364.858,18005.0
1366.056,17893.0
1367.254,17852.0
1368.451,18046.0
1369.649,17908.0
1370.846,17862.0
1372.043,18062.0
1373.24,17880.0
1374.436,17905.0
1375.633,17941.0
1376.829,17874.0
1378.025,17980.0
1379.221,17956.0
1380.417,18133.0
1381.613,17984.0
1382.808,18026.0
1384.003,18178.0
1385.199,18206.0
1386.393,18174.0
1387.588,17948.0
1388.783,18141.0
1389.977,18104.0
1391.171,18099.0
1392.365,18187.0
1393.559,18104.0
1394.753,18361.0
1395.946,18170.0
1397.14,18288.0
1398.333,18164.0
1399.526,18217.0
1400.719,18343.0
1401.911,18278.0
1403.104,18405.0
1404.296,18391.0
1405.488,18356.0
1406.68,18381.0
1407.872,18272.0
1409.063,18562.0
1410.255,18609.0
1411.446,18384.0
1412.637,18578.0
1413.828,18454.0
1415.018,18583.0
1416.209,18673.0
1417.399,18785.0
1418.589,18847.305
1419.779,18865.0
1420.969,18883.0
1422.159,18886.0
1423.348,18745.0
1424.537,18877.0
1425.726,18762.0
1426.915,18867.0
1428.104,19041.0
1429.293,18897.0
1430.481,19057.0
1431.669,18940.0
1432.857,19107.0
1434.045,18986.0
1435.233,18950.0
1436.42,19176.0
1437.608,19227.0
1438.795,19136.0
1439.982,19082.0
1441.169,19218.0
1442.355,19242.0
1443.542,19168.0
1444.728,19233.0
1445.914,19184.0
1447.1,19384.0
1448.286,19342.0
1449.472,19169.0
1450.657,19270.0
1451.842,19554.0
1453.027,19437.0
1454.212,19373.0
1455.397,19556.0
1456.581,19249.0
1457.766,19366.0
1458.95,19687.0
1460.134,19435.0
1461.318,19796.0
1462.501,19395.0
1463.685,19506.0
1464.868,19712.0
1466.051,19339.0
1467.234,19712.0
1468.417,19264.0
1469.6,19359.0
1470.782,19574.0
1471.965,19545.0
1473.147,19610.201
1474.329,19724.0
1475.51,19544.0
1476.692,19522.0
1477.873,19363.0
1479.055,19544.0
1480.236,19538.0
1481.416,19890.0
1482.597,19448.0
1483.778,19512.0
1484.958,19416.0
1486.138,19642.0
1487.318,19433.0
1488.498,19801.0
1489.678,19611.0
1490.857,19463.0
1492.037,19525.0
1493.216,19676.0
1494.395,19623.0
1495.574,19638.0
1496.752,19606.0
1497.931,19420.0
1499.109,19632.0
1500.287,19568.0
1501.465,19574.0
1502.643,19359.0
1503.82,19448.0
1504.998,19552.0
1506.175,19528.0
1507.352,19544.0
1508.529,19596.0
1509.706,19755.0
1510.882,19680.0
1512.059,19806.0
1513.235,19744.0
1514.411,19785.0
1515.587,19554.0
1516.762,19654.0
