Raman Shift,Intensity
121.203,27306.0
122.592,27323.0
123.981,27399.576
125.369,27402.0
126.758,27470.0
128.146,27724.0
129.534,27462.0
130.922,28033.0
132.309,27792.0
133.696,28051.0
135.083,27994.0
136.47,28169.0
137.857,28174.127
139.243,28324.0
140.63,28114.0
142.016,28285.0
143.401,28169.0
144.787,28423.0
146.172,28322.0
147.557,28598.0
148.942,28477.0
150.327,28400.0
151.711,28570.0
153.096,28578.0
154.48,28668.949
155.863,28800.0
157.247,28850.0
158.63,28921.0
160.013,28954.0
161.396,28943.0
162.779,28910.0
164.161,29101.0
165.544,29155.0
166.926,29310.0
168.308,29122.0
169.689,29179.0
171.07,28964.0
172.452,29568.0
173.833,29611.0
175.213,29518.0
176.594,29509.0
177.974,29365.0
179.354,29659.0
180.734,29960.0
182.114,29897.0
183.493,29906.0
184.872,30184.0
186.251,30440.0
187.63,30878.791
189.008,31272.0
190.387,32193.0
191.765,33044.0
193.143,32763.826
194.52,34010.0
195.898,32134.0
197.275,31367.0
198.652,30871.0
200.029,30876.0
201.405,30634.0
202.782,30513.0
204.158,30427.0
205.534,30389.203
206.909,30884.0
208.285,30497.0
209.66,30673.0
211.035,30859.0
212.41,30553.0
213.784,30841.0
215.159,30685.0
216.533,30816.0
217.907,31094.0
219.281,30824.0
220.654,30958.0
222.027,30820.0
223.4,31104.0
224.773,31045.0
226.146,31291.0
227.518,31041.0
228.891,31125.0
230.263,31163.0
231.634,31179.0
233.006,31408.0
234.377,31287.0
235.748,31346.0
237.119,31488.0
238.49,31160.0
239.86,31725.0
241.231,31417.0
242.601,31689.0
243.97,31605.0
245.34,31792.0
246.709,31866.0
248.079,31521.0
249.448,32053.0
250.816,31694.0
252.185,31859.0
253.553,31921.0
254.921,31928.0
256.289,32116.0
257.657,31956.0
259.024,32040.0
260.391,32092.0
261.758,32230.0
263.125,32097.0
264.492,32470.0
265.858,32491.0
267.224,32304.0
268.59,32634.0
269.956,32195.0
271.321,32590.0
272.687,32873.0
274.052,32424.0
275.416,32446.0
276.781,33024.0
278.146,32892.0
279.51,32666.0
280.874,32983.0
282.237,32848.0
283.601,33162.0
284.964,33234.109
286.327,32980.0
287.69,33422.0
289.053,33288.0
290.416,33276.0
291.778,33546.0
293.14,33161.0
294.502,33624.0
295.863,33078.0
297.225,33442.0
298.586,33650.0
299.947,33504.0
301.308,33504.0
302.668,33372.0
304.029,33449.0
305.389,33838.0
306.749,33688.0
308.108,33836.766
309.468,33856.0
310.827,33836.0
312.186,33753.0
313.545,33644.0
314.903,33976.0
316.262,33876.0
317.62,33603.0
318.978,34128.0
320.336,34014.0
321.693,34010.0
323.051,34080.0
324.408,34210.0
325.765,34159.238
327.121,34574.0
328.478,34206.0
329.834,34238.0
331.19,34448.0
332.546,34658.0
333.902,34368.0
335.257,34789.0
336.612,34452.0
337.967,34855.0
339.322,34634.0
340.677,34692.0
342.031,34811.0
343.385,34776.0
344.739,34985.0
346.093,34963.0
347.446,35009.043
348.799,35154.004
350.153,35074.0
351.505,35314.0
352.858,35413.0
354.21,35345.0
355.563,35553.0
356.915,35664.0
358.267,35994.0
359.618,36046.0
360.969,36328.0
362.321,36531.0
363.672,36136.0
365.022,35874.0
366.373,35848.0
367.723,35584.0
369.073,35790.0
370.423,35777.0
371.773,35776.0
373.122,35286.0
374.471,35674.0
375.821,36041.0
377.169,35656.0
378.518,36270.0
379.866,36459.0
381.215,36514.0
382.563,36536.0
383.91,35818.0
385.258,35690.0
386.605,35962.0
387.952,36433.0
389.299,35908.0
390.646,36118.0
391.992,36067.0
393.339,36067.0
394.685,36181.0
396.031,36181.0
397.376,36454.0
398.722,36120.0
400.067,36421.0
401.412,36207.0
402.757,36277.0
404.101,36313.758
405.446,36500.0
406.79,36353.0
408.134,36456.0
409.478,36560.0
410.821,36906.0
412.165,36980.0
413.508,36930.305
414.851,36961.0
416.193,36858.0
417.536,36679.0
418.878,36996.0
420.22,36790.0
421.562,37005.0
422.904,36442.0
424.245,37170.0
425.586,37276.0
426.927,36979.0
428.268,37731.0
429.609,37102.0
430.949,37342.0
432.289,37426.0
433.629,37816.0
434.969,37216.0
436.309,37739.0
437.648,37082.0
438.987,37665.0
440.326,37425.0
441.665,37430.0
443.003,37201.0
444.342,37760.0
445.68,37390.0
447.018,37688.0
448.355,37826.0
449.693,37461.0
451.03,37668.0
452.367,37627.0
453.704,38080.0
455.041,37485.0
456.377,37881.0
457.713,37613.0
459.049,37824.0
460.385,37920.0
461.721,38277.0
463.056,38392.0
464.391,38472.652
465.726,38006.0
467.061,38536.0
468.395,38393.0
469.73,38360.0
471.064,38613.0
472.398,37904.0
473.731,38601.0
475.065,38129.0
476.398,38412.0
477.731,38529.0
479.064,38368.0
480.397,38478.0
481.729,38612.0
483.062,38781.0
484.394,38700.0
485.725,38726.0
487.057,38603.0
488.389,38780.0
489.72,38922.0
491.051,38741.0
492.382,38801.0
493.712,38781.879
495.043,38979.0
496.373,38832.0
497.703,38794.0
499.032,38998.0
500.362,39306.0
501.691,39088.0
503.02,39346.0
504.349,39104.0
505.678,39340.0
507.007,39256.0
508.335,39538.0
509.663,39292.0
510.991,39330.0
512.319,39689.0
513.646,39481.0
514.973,39717.0
516.3,39341.0
517.627,40105.0
518.954,40068.0
520.28,39225.0
521.607,39958.0
522.933,39765.0
524.259,39753.0
525.584,39553.0
526.91,39936.0
528.235,40284.0
529.56,40058.0
530.885,40203.0
532.209,39997.0
533.534,39731.0
534.858,40197.0
536.182,40376.0
537.506,40256.0
538.829,40330.0
540.152,40430.0
541.476,40298.0
542.799,40676.0
544.121,39982.0
545.444,40689.0
546.766,40470.0
548.088,40184.0
549.41,40516.0
550.732,40664.0
552.053,40582.0
553.375,40779.0
554.696,40546.0
556.017,40596.0
557.337,41110.0
558.658,41107.0
559.978,40986.0
561.298,40693.0
562.618,41281.0
563.938,40900.0
565.257,40974.0
566.576,41200.0
567.895,41018.0
569.214,41463.0
570.533,41328.0
571.851,41510.0
573.17,41495.602
574.488,41426.363
575.805,41459.0
577.123,41274.0
578.44,41490.0
579.758,41403.0
581.075,41800.0
582.391,41362.0
583.708,41955.0
585.024,41746.0
586.341,41328.0
587.657,42099.0
588.972,42193.0
590.288,42176.0
591.603,41804.0
592.918,41701.0
594.233,42016.0
595.548,42176.0
596.863,42301.0
598.177,42437.0
599.491,42027.0
600.805,42482.0
602.119,41977.0
603.432,42201.0
604.746,42544.0
606.059,42875.0
607.372,42504.0
608.685,42448.0
609.997,42734.0
611.309,42376.0
612.621,42826.0
613.933,42507.0
615.245,43083.0
616.557,42749.0
617.868,42929.0
619.179,43120.0
620.49,42958.0
621.801,42590.0
623.111,43516.0
624.421,43140.0
625.731,43264.0
627.041,42677.0
628.351,43794.0
629.66,42989.0
630.97,43205.0
632.279,44013.0
633.588,43544.0
634.896,43574.0
636.205,43277.0
637.513,43345.809
638.821,43418.0
640.129,43734.0
641.437,43633.0
642.744,44130.0
644.051,43830.0
645.358,43697.0
646.665,44320.0
647.972,43933.0
649.278,44208.0
650.584,43681.0
651.89,43874.0
653.196,44674.0
654.502,44257.0
655.807,44502.0
657.113,44060.0
658.418,44535.0
659.722,45080.0
661.027,44440.0
662.331,44597.0
663.636,44768.0
664.94,45152.0
666.244,44680.0
667.547,45622.0
668.851,45504.0
670.154,46392.0
671.457,46524.0
672.76,46774.0
674.062,47824.0
675.365,47853.0
676.667,47526.0
677.969,47189.0
679.271,47008.0
680.572,46612.0
681.874,46144.0
683.175,46328.0
684.476,46419.0
685.777,46040.0
687.077,45554.0
688.378,45480.0
689.678,45944.0
690.978,45668.0
692.278,45776.0
693.577,44792.0
694.877,46264.0
696.176,45552.0
697.475,46112.0
698.774,45448.0
700.072,46049.0
701.371,45913.0
702.669,46004.0
703.967,45448.0
705.265,45878.0
706.562,46379.0
707.86,46266.0
709.157,45749.0
710.454,46724.0
711.751,45744.0
713.047,46792.0
714.344,45918.0
715.64,46674.0
716.936,45685.0
718.232,46052.0
719.527,47286.0
720.823,46633.0
722.118,46554.0
723.413,46692.0
724.708,46496.0
726.002,46755.0
727.297,47109.0
728.591,46570.0
729.885,46924.0
731.179,47403.0
732.472,46930.0
733.766,46884.0
735.059,47013.0
736.352,46896.0
737.645,47449.0
738.937,47328.0
740.23,47576.0
741.522,47196.0
742.814,47302.0
744.106,47571.0
745.397,47816.0
746.689,47664.0
747.98,47923.578
749.271,47401.0
750.562,48020.0
751.853,47859.0
753.143,47635.0
754.433,47771.0
755.723,48144.0
757.013,47737.0
758.303,48200.0
759.592,47936.0
760.881,48257.0
762.17,48218.0
763.459,47920.0
764.748,48402.0
766.036,47576.0
767.325,49129.0
768.613,48235.0
769.901,48277.0
771.188,48658.0
772.476,48507.0
773.763,48996.0
775.05,48840.0
776.337,48828.0
777.624,48707.0
778.91,48814.0
780.196,48896.0
781.482,49112.0
782.768,48761.0
784.054,49208.0
785.339,49124.0
786.625,49336.0
787.91,48836.0
789.195,49730.0
790.479,49265.0
791.764,49552.0
793.048,49714.0
794.332,49429.0
795.616,49508.0
796.9,49444.0
798.183,49960.0
799.467,49482.0
800.75,49720.0
802.033,49738.0
803.316,49484.0
804.598,50411.0
805.88,49096.0
807.163,50338.0
808.445,50106.0
809.726,49642.0
811.008,50038.0
812.289,50144.0
813.57,49737.0
814.851,50455.0
816.132,50440.0
817.413,50180.0
818.693,49952.0
819.973,50181.156
821.253,50176.0
822.533,50524.0
823.813,51052.0
825.092,51036.0
826.371,50444.0
827.65,50904.0
828.929,50912.0
830.208,51235.0
831.486,51344.0
832.764,50685.0
834.042,51210.0
835.32,50786.0
836.598,51611.0
837.875,51192.0
839.152,51591.0
840.429,51828.0
841.706,51896.0
842.983,52039.363
844.259,51880.305
845.536,52045.0
846.812,51505.0
848.088,51409.0
849.363,51354.0
850.639,52049.0
851.914,52076.0
853.189,51908.0
854.464,51573.0
855.739,51749.555
857.013,51734.723
858.288,51900.0
859.562,52176.0
860.836,52189.0
862.11,52660.0
863.383,51932.0
864.656,52708.0
865.93,52424.0
867.203,52341.0
868.475,52784.0
869.748,52930.0
871.02,52176.0
872.292,52627.0
873.564,52856.0
874.836,52618.0
876.108,52872.0
877.379,52369.0
878.65,53185.0
879.922,52868.0
881.192,53067.0
882.463,53000.0
883.733,53416.0
885.004,53560.0
886.274,53067.0
887.544,53305.0
888.813,53977.0
890.083,53412.0
891.352,53645.0
892.621,53680.0
893.89,53618.0
895.159,53710.0
896.427,53633.0
897.695,53588.0
898.964,53707.438
900.232,53913.0
901.499,53890.0
902.767,54276.0
904.034,54355.0
905.301,54065.0
906.568,54240.0
907.835,54614.0
909.102,54844.0
910.368,54152.0
911.634,54488.0
912.9,54769.0
914.166,54646.0
915.432,55163.0
916.697,54510.0
917.962,54426.0
919.227,55500.0
920.492,54925.0
921.757,55280.0
923.021,55024.0
924.285,55260.0
925.55,55289.0
926.813,55176.0
928.077,55240.0
929.341,54942.0
930.604,55646.0
931.867,55576.0
933.13,55264.0
934.393,55082.0
935.655,55866.0
936.918,55192.0
938.18,55984.0
939.442,55579.0
940.703,55650.0
941.965,55894.0
943.226,55883.0
944.488,55570.0
945.749,55712.0
947.009,56353.0
948.27,56413.0
949.53,56049.0
950.791,56256.0
952.051,56141.0
953.311,56336.0
954.57,56304.492
955.83,56240.0
957.089,56307.0
958.348,56320.0
959.607,56387.0
960.866,56392.0
962.124,56493.84
963.383,56341.0
964.641,56730.0
965.899,56701.0
967.156,56880.0
968.414,56691.0
969.671,56794.0
970.928,56949.0
972.185,56560.0
973.442,57294.0
974.699,56931.0
975.955,57477.0
977.211,57346.0
978.468,56905.0
979.723,57370.0
980.979,57444.0
982.234,57425.0
983.49,58000.0
984.745,56896.0
986.0,57674.0
987.254,57900.0
988.509,57354.0
989.763,58328.0
991.017,57605.0
992.271,58032.0
993.525,57995.0
994.779,57908.0
996.032,58275.0
997.285,58065.0
998.538,58315.0
999.791,57776.0
1001.044,59014.0
1002.296,58016.0
1003.548,58804.0
1004.8,58280.0
1006.052,58382.0
1007.304,58739.0
1008.555,58441.0
1009.807,59224.0
1011.058,58778.0
1012.309,58784.0
1013.559,59416.0
1014.81,58922.0
1016.06,59064.0
1017.31,59304.0
1018.56,59625.0
1019.81,59099.0
1021.06,59163.0
1022.309,59752.0
1023.558,59419.0
1024.807,59702.0
1026.056,59340.0
1027.305,59873.0
1028.553,59366.0
1029.801,60086.0
1031.049,59795.0
1032.297,59536.0
1033.545,59784.0
1034.793,60052.0
1036.04,59984.0
1037.287,59880.0
1038.534,60170.0
1039.781,60149.0
1041.027,60592.0
1042.274,59747.0
1043.52,60457.0
1044.766,60481.0
1046.012,60722.0
1047.257,61525.0
1048.503,61140.0
1049.748,61421.0
1050.993,60632.0
1052.238,61531.0
1053.483,61172.0
1054.727,60715.0
1055.971,60646.0
1057.216,61146.0
1058.459,60909.0
1059.703,60825.0
1060.947,61001.0
1062.19,60867.0
1063.433,60553.0
1064.676,61266.0
1065.919,61164.0
1067.162,60290.0
1068.404,61361.0
1069.646,60416.0
1070.888,60676.0
1072.13,61597.0
1073.372,61104.0
1074.613,60901.0
1075.855,61400.0
1077.096,61043.0
1078.337,60674.0
1079.578,61897.0
1080.818,61188.0
1082.059,61415.0
1083.299,61244.0
1084.539,61609.0
1085.779,61208.0
1087.018,61384.0
1088.258,61624.0
1089.497,61600.0
1090.736,61717.0
1091.975,61644.0
1093.213,61616.0
1094.452,61696.0
1095.69,62027.0
1096.928,61355.0
1098.166,61828.0
1099.404,61888.0
1100.642,62352.0
1101.879,62324.16
1103.116,62284.0
1104.353,62125.0
1105.59,62297.0
1106.827,61904.0
1108.063,62752.0
1109.299,62042.0
1110.536,62491.0
1111.771,62409.0
1113.007,62297.0
1114.243,62557.0
1115.478,62699.0
1116.713,62401.0
1117.948,62574.0
1119.183,62591.637
1120.418,62709.18
1121.652,62741.0
1122.886,63079.0
1124.12,63130.0
1125.354,63194.0
1126.588,62923.0
1127.821,63054.0
1129.055,62914.0
1130.288,63220.0
1131.521,63196.0
1132.753,63360.0
1133.986,63137.0
1135.218,62931.0
1136.45,63846.0
1137.682,62881.0
1138.914,63555.0
1140.146,63509.0
1141.377,63172.0
1142.609,63624.0
1143.84,63219.0
1145.071,63938.0
1146.301,64184.0
1147.532,63924.0
1148.762,64100.0
1149.992,63862.0
1151.222,63864.0
1152.452,64168.0
1153.682,64486.0
1154.911,63939.0
1156.14,64512.0
1157.369,64044.0
1158.598,64354.0
1159.827,64584.0
1161.055,65105.0
1162.284,64480.0
1163.512,64947.0
1164.74,64809.0
1165.967,64851.0
1167.195,64296.0
1168.422,65328.0
1169.65,64976.0
