Wavenumber (cm⁻¹),Intensity
200.0,203.72204102883217
201.00097751710655,227.8489294415741
202.0019550342131,256.6933270229756
203.00293255131965,284.09119992737067
204.0039100684262,299.28807275691656
205.00488758553274,289.2369330936168
206.0058651026393,263.9558720197747
207.00684261974584,240.04809842913946
208.0078201368524,226.4910958602901
209.00879765395894,224.24084157702035
210.00977517106548,231.9803207625564
211.01075268817203,246.55404398812783
212.01173020527858,266.91452240831734
213.01270772238513,292.86548631733524
214.01368523949168,322.98193804986784
215.01466275659823,358.8177158281127
216.01564027370478,398.660579023468
217.01661779081132,441.7281529269353
218.01759530791787,486.206245013354
219.01857282502445,523.8125921158713
220.019550342131,544.8903008478777
221.02052785923755,543.9912629828808
222.0215053763441,517.9154294002715
223.02248289345064,469.9654223020671
224.0234604105572,408.329245680827
225.02443792766374,344.0721678162674
226.0254154447703,285.9432927144566
227.02639296187684,237.0687389502551
228.02737047898339,196.81626128837632
229.02834799608993,166.16083833639178
230.02932551319648,141.35156825289647
231.03030303030303,120.66050910348042
232.03128054740958,105.64499778413239
233.03225806451613,94.05636128811443
234.03323558162268,84.57636505158982
235.03421309872923,76.89584892861009
236.03519061583577,71.1435158059468
237.03616813294232,67.95702022670649
238.03714565004887,66.02254182564955
239.03812316715542,63.63400893754781
240.03910068426197,61.17983608494464
241.04007820136852,62.5439345703639
242.04105571847506,64.65703584287583
243.0420332355816,65.24577439232576
244.0430107526882,63.594557742113885
245.04398826979474,60.11863727309826
246.0449657869013,54.711669127727006
247.04594330400784,48.82813597956998
248.04692082111438,43.292686525282484
249.04789833822093,38.408305632801344
250.04887585532748,34.42434771784725
251.04985337243403,32.04032573046438
252.05083088954058,30.063991473155973
253.05180840664713,28.377021912212843
254.05278592375367,27.22174909001489
255.05376344086022,26.227989059022676
256.05474095796677,24.653062631049828
257.0557184750733,23.698396603088515
258.05669599217987,23.401524674749997
259.0576735092864,22.754160593085857
260.05865102639297,22.303693943797946
261.0596285434995,21.727421101106824
262.06060606060606,21.121555142149568
263.0615835777126,20.78272180238461
264.06256109481916,20.77435799290859
265.0635386119257,20.637105676357287
266.06451612903226,20.450238655022012
267.0654936461388,20.479286587094627
268.06647116324535,20.778500186800866
269.0674486803519,21.08922951196313
270.06842619745845,20.88264541300351
271.069403714565,21.12046792625454
272.07038123167155,21.646752869570186
273.0713587487781,21.721700456156398
274.07233626588464,22.644723863767663
275.0733137829912,22.965738590891455
276.07429130009774,23.25502370407001
277.0752688172043,24.105566192397472
278.07624633431084,25.17723379942977
279.0772238514174,25.80316095400883
280.07820136852393,26.699022639502967
281.0791788856305,28.0496148427426
282.08015640273703,29.798188957556327
283.0811339198436,32.261722627552125
284.08211143695013,35.2196796044979
285.0830889540567,38.65043006615724
286.0840664711632,42.69988071663694
287.0850439882698,47.37472202951894
288.0860215053764,52.04243131024014
289.0869990224829,55.606277820082234
290.0879765395895,58.074094675950455
291.088954056696,59.92152447963597
292.0899315738026,61.275239435755125
293.0909090909091,61.62541640304728
294.09188660801567,62.963972890555205
295.0928641251222,66.05115048294068
296.09384164222877,70.44458793240845
297.0948191593353,75.16494137534899
298.09579667644186,82.07122673146836
299.0967741935484,90.67619405544313
300.09775171065496,100.87463570727061
301.0987292277615,113.37714234698612
302.09970674486806,130.12623161169935
303.1006842619746,151.71762045204693
304.10166177908116,176.33412913974132
305.1026392961877,199.97070632083197
306.10361681329425,217.57027645915383
307.1045943304008,220.21390340486585
308.10557184750735,207.76783434953666
309.1065493646139,185.53413348941882
310.10752688172045,160.962834054194
311.108504398827,142.05329452785088
312.10948191593354,129.0051486308572
313.1104594330401,123.22019096920992
314.11143695014664,122.36679806881064
315.1124144672532,120.32837584764282
316.11339198435974,111.51394815639372
317.1143695014663,96.4625179688934
318.11534701857283,79.60840046013061
319.1163245356794,64.91449575542225
320.11730205278593,54.18160022908079
321.1182795698925,47.06737126079836
322.119257086999,41.474725256091745
323.1202346041056,37.31146524408421
324.1212121212121,33.95026108366948
325.1221896383187,30.792252900869634
326.1231671554252,28.514199468326762
327.12414467253177,26.394271175047745
328.1251221896383,24.319483200341583
329.12609970674487,22.71757070460915
330.1270772238514,22.01083289298641
331.12805474095796,20.796270515448178
332.1290322580645,19.98357152899614
333.13000977517106,19.319720799420832
334.1309872922776,18.55018068178423
335.13196480938416,17.75435284983039
336.1329423264907,17.110545021548564
337.13391984359725,16.57895059741077
338.1348973607038,16.18061016264985
339.13587487781035,15.887871060568548
340.1368523949169,15.534651843792725
341.13782991202345,15.02846025504255
342.13880742913,14.800276817685154
343.13978494623655,14.707647058233132
344.1407624633431,14.522434371800792
345.14173998044964,14.317154249591894
346.1427174975562,14.299682328639992
347.14369501466274,13.960366903570094
348.1446725317693,13.646261571744509
349.14565004887584,13.47909277436226
350.1466275659824,13.105852506215182
351.14760508308893,13.112975761466764
352.1485826001955,13.036688015386826
353.14956011730203,12.934717839583787
354.1505376344086,12.887333771358731
355.1515151515151,12.65224914685122
356.1524926686217,12.143152978799392
357.1534701857282,12.175517332720583
358.1544477028348,12.484648161306742
359.1554252199413,12.590756629804012
360.15640273704787,12.54120191854511
361.1573802541544,12.26578211161944
362.15835777126097,12.135563360240393
363.1593352883675,12.137682362381671
364.16031280547406,12.145441455997638
365.1612903225806,12.273286845907865
366.16226783968716,12.284366672575164
367.1632453567937,12.03503904550455
368.16422287390026,11.765961268970061
369.1652003910068,11.78644171143962
370.16617790811335,12.074911568609782
371.1671554252199,12.113541629625036
372.16813294232645,12.095412332855423
373.169110459433,12.065459094364163
374.17008797653955,12.063989316991092
375.1710654936461,12.263452932985224
376.1720430107527,12.458251798649727
377.17302052785925,12.65913513998204
378.1739980449658,12.865540247580899
379.17497556207235,12.923260734222605
380.1759530791789,12.644492887459005
381.17693059628544,12.786341624797274
382.177908113392,13.292156962071097
383.17888563049854,13.604601523211317
384.1798631476051,13.631164035939213
385.18084066471164,13.952637035710806
386.1818181818182,14.312123390658291
387.18279569892474,15.129298379468844
388.1837732160313,16.379607247533183
389.18475073313783,17.470323022194567
390.1857282502444,17.855100189424604
391.18670576735093,19.03620285276468
392.1876832844575,20.68473302514477
393.188660801564,22.149433572572587
394.1896383186706,23.241867221868826
395.1906158357771,24.145244869707987
396.1915933528837,24.276163897493106
397.1925708699902,24.160102399143636
398.19354838709677,23.494323767589357
399.1945259042033,22.693261751296617
400.19550342130987,23.0634244224285
401.1964809384164,23.66399923642346
402.19745845552296,24.93678154471423
403.1984359726295,27.028252671571842
404.19941348973606,29.712488039935185
405.2003910068426,32.72286195746117
406.20136852394916,36.09810208281296
407.2023460410557,37.38829019774191
408.20332355816225,35.755319637085954
409.20430107526886,31.619464728126925
410.2052785923754,26.565713009341255
411.20625610948196,22.705530513052416
412.2072336265885,19.17963187431235
413.20821114369505,16.908749848974455
414.2091886608016,15.894918377493898
415.21016617790815,15.471838129369631
416.2111436950147,15.110949850191075
417.21212121212125,14.783666043009934
418.2130987292278,14.668456861707789
419.21407624633434,14.479592713641
420.2150537634409,14.306693191621736
421.21603128054744,14.734387038056264
422.217008797654,15.13647079494587
423.21798631476054,15.855849309202346
424.2189638318671,16.83662234607758
425.21994134897363,17.872484955220973
426.2209188660802,18.782758104320425
427.22189638318673,19.510427244192552
428.2228739002933,20.217705003458125
429.2238514173998,20.650882946221564
430.2248289345064,20.791143431212788
431.2258064516129,21.040749613050448
432.2267839687195,22.07136517800001
433.227761485826,22.401216119549076
434.22873900293257,23.721202143572814
435.2297165200391,25.626668936836086
436.23069403714567,27.260393301657786
437.2316715542522,29.815412292760204
438.23264907135876,32.91903786674989
439.2336265884653,36.891889803436115
440.23460410557186,41.42111857065184
441.2355816226784,46.04233983570579
442.23655913978496,49.93475875283538
443.2375366568915,50.63274098549414
444.23851417399806,48.01031455151911
445.2394916911046,42.41419061682318
446.24046920821115,35.57062938300859
447.2414467253177,29.86978443380135
448.24242424242425,26.252741145179193
449.2434017595308,24.242414376258083
450.24437927663735,23.20995747648513
451.2453567937439,22.641835140328745
452.24633431085044,22.131742065286232
453.247311827957,21.48362370429104
454.24828934506354,21.577380705225583
455.2492668621701,22.05893401473635
456.25024437927664,22.757377173412248
457.2512218963832,23.68047563439357
458.25219941348973,24.821886624755688
459.2531769305963,26.10222902480045
460.25415444770283,27.36555888165228
461.2551319648094,29.937108714823527
462.2561094819159,33.35054503675369
463.2570869990225,36.890587184775
464.258064516129,41.77199463335812
465.2590420332356,47.275749241324256
466.2600195503421,52.097357052153434
467.26099706744867,53.146079596048786
468.2619745845552,49.25011142087715
469.26295210166177,42.07641886973737
470.2639296187683,33.25549832781954
471.26490713587486,27.25455720145221
472.2658846529814,23.226732718545684
473.26686217008796,20.436232717315143
474.2678396871945,18.98880399433852
475.26881720430106,17.86694032333884
476.2697947214076,17.163561685240715
477.27077223851416,17.115877570881135
478.2717497556207,17.210843185906885
479.27272727272725,17.165155910882312
480.2737047898338,17.42335830606078
481.27468230694035,17.677118790273408
482.2756598240469,18.4427762309933
483.27663734115345,19.604211907176197
484.27761485826,20.895239126080238
485.27859237536654,22.41638348174316
486.2795698924731,24.960439770783246
487.28054740957964,27.894585361953883
488.2815249266862,31.025949534934213
489.2825024437928,33.735527279625366
490.28347996089934,35.57583217759424
491.2844574780059,36.875763417246525
492.28543499511244,39.81203208819711
493.286412512219,43.30061969398712
494.28739002932554,47.45398330976834
495.2883675464321,52.41152172303311
496.28934506353863,58.380522314169
497.2903225806452,66.18445568775063
498.29130009775173,74.84619949053177
499.2922776148583,85.81214736869704
500.2932551319648,99.9298756869418
501.2942326490714,117.12252651106738
502.2952101661779,137.00289485393375
503.2961876832845,159.5231458780962
504.297165200391,177.34088973258272
505.29814271749757,184.47458398702884
506.2991202346041,176.28859321905983
507.30009775171067,153.06192123103824
508.3010752688172,129.08804613931457
509.30205278592376,112.12561043583136
510.3030303030303,104.40433213805409
511.30400782013686,105.0845902401172
512.3049853372434,112.36831299081847
513.3059628543499,124.57399336549467
514.3069403714564,140.27173977332717
515.307917888563,154.7279258940441
516.3088954056695,164.83395868869943
517.3098729227761,164.86423984062532
518.3108504398826,152.53438485996003
519.3118279569892,132.6367366293981
520.3128054740957,111.54416352531202
521.3137829912023,93.02548062682024
522.3147605083088,78.14047393228995
523.3157380254154,67.99449374775365
524.3167155425219,61.86610472606043
525.3176930596285,56.98923702979804
526.318670576735,53.829815910004555
527.3196480938416,52.06134663606816
528.3206256109481,51.220101373680244
529.3216031280547,51.132092003115204
530.3225806451612,51.835026144890215
531.3235581622678,53.463738435001275
532.3245356793743,55.706966290319365
533.3255131964809,59.166762419819854
534.3264907135874,63.42931175364421
535.327468230694,68.20096243710746
536.3284457478005,73.72143654752708
537.3294232649071,79.52503586799149
538.3304007820136,83.50254909721873
539.3313782991202,85.22459926843753
540.3323558162267,82.65310385831586
541.3333333333333,76.43983382147623
542.3343108504398,69.28789038564858
543.3352883675464,61.30789627900622
544.3362658846529,52.64742724388904
545.3372434017595,45.963050266052946
546.338220918866,40.77368783953957
547.3391984359725,36.64616674071056
548.3401759530791,34.521253363492306
549.3411534701856,32.773354963378175
550.3421309872922,31.619512396729704
551.3431085043987,30.823870830658482
552.3440860215054,30.32756641813479
553.345063538612,30.393084018590873
554.3460410557185,31.09355664131934
555.347018572825,31.683573357298908
556.3479960899316,32.608431030725995
557.3489736070381,34.16961540638737
558.3499511241447,36.774750875131225
559.3509286412512,40.63277896463896
560.3519061583578,45.55119617569405
561.3528836754643,51.66820392539428
562.3538611925709,59.997905723228186
563.3548387096774,69.02933086657198
564.355816226784,77.45324112108338
565.3567937438905,85.09363805907037
566.3577712609971,92.2210321223196
567.3587487781036,98.39759884741552
568.3597262952102,107.21571874164454
569.3607038123167,118.59581000498139
570.3616813294233,132.08559036268682
571.3626588465298,148.0472977355502
572.3636363636364,167.1889855197899
573.3646138807429,191.05748174283545
574.3655913978495,221.76944616897853
575.366568914956,259.77863529432875
576.3675464320626,306.8296969726991
577.3685239491691,360.9608259887766
578.3695014662757,412.4248323407316
579.3704789833822,450.18725821922504
580.3714565004888,452.24866620891004
581.3724340175953,412.5547915919315
582.3734115347019,345.824513113304
583.3743890518084,272.98905915740215
584.375366568915,208.18288657515274
585.3763440860215,160.3126737079948
586.377321603128,125.27766117018695
587.3782991202346,101.29303505094055
588.3792766373411,84.32461152125042
589.3802541544477,71.24313927341795
590.3812316715542,61.64202123128241
591.3822091886608,53.33159368824053
592.3831867057673,47.149289647976175
593.3841642228739,42.91824762990728
594.3851417399804,39.18074473855321
595.386119257087,35.609705284216965
596.3870967741935,32.98992746632675
597.3880742913001,30.522537270182625
598.3890518084066,28.797821524971283
599.3900293255132,27.285203553727865
600.3910068426197,25.7384443538381
601.3919843597263,24.428751597677802
602.3929618768328,23.530761772000687
603.3939393939394,22.45916656465089
604.3949169110459,21.464313992379797
605.3958944281525,20.760264004164345
606.396871945259,19.992750178728922
607.3978494623656,19.35337951058653
608.3988269794721,19.0832286353691
609.3998044965787,18.576892284474912
610.4007820136852,18.783269281529996
611.4017595307918,18.19301355060129
612.4027370478983,17.581318163930156
613.4037145650049,17.488791311957314
614.4046920821114,17.619421570310973
615.405669599218,17.615737391081442
616.4066471163245,17.657258968055405
617.4076246334312,17.428756756169985
618.4086021505377,17.4630859057724
619.4095796676443,17.564475744369844
620.4105571847508,17.775838027836453
621.4115347018574,18.47109109099914
622.4125122189639,18.576253440797363
623.4134897360705,18.72523899587035
624.414467253177,18.629313898738058
625.4154447702836,18.669384129749254
626.4164222873901,19.182545343022202
627.4173998044967,20.07482671141637
628.4183773216032,21.01929289011929
629.4193548387098,21.49448687221901
630.4203323558163,22.810693430286257
631.4213098729228,24.16520065192954
632.4222873900294,25.239734791993275
633.423264907136,26.57186612236753
634.4242424242425,28.11145887537483
635.425219941349,29.02170039000137
636.4261974584556,29.29443092112282
637.4271749755621,29.236316914363098
638.4281524926687,27.355164360901835
639.4291300097752,24.199883558182353
640.4301075268818,21.98650384493896
641.4310850439883,19.617624201259808
642.4320625610949,17.742534423456476
643.4330400782014,16.3904153125955
644.434017595308,15.553627905117173
645.4349951124145,14.800145829300881
646.4359726295211,13.93344083445004
647.4369501466276,13.416211200545499
648.4379276637342,12.985611899398258
649.4389051808407,12.932479341685516
650.4398826979473,12.625788199677462
651.4408602150538,12.240917730047522
652.4418377321604,12.156496641615385
653.4428152492669,12.126042401261328
654.4437927663735,11.81012616666695
655.44477028348,11.609198651044636
656.4457478005866,11.658149356779159
657.4467253176931,11.437377670086617
658.4477028347997,11.150472737222266
659.4486803519062,11.232193660190234
660.4496578690128,11.374115949178023
661.4506353861193,11.21322996527197
662.4516129032259,10.938018259228775
663.4525904203324,10.771969708667054
664.453567937439,10.674684929945958
665.4545454545455,10.805441960362824
666.455522971652,11.215751125582255
667.4565004887586,10.983694354656253
668.4574780058651,10.892468753133436
669.4584555229717,10.700132075416215
670.4594330400782,10.698204375907435
671.4604105571848,10.727745763421389
672.4613880742913,10.707474096557041
673.4623655913979,10.974852322500325
674.4633431085044,10.65112705471722
675.464320625611,10.502315729714187
676.4652981427175,10.503753877873825
677.4662756598241,10.601565057334094
678.4672531769306,10.711749105007158
679.4682306940372,10.678315654108175
680.4692082111437,10.51042359592472
681.4701857282503,10.635347442222372
682.4711632453568,10.640588693535511
683.4721407624634,10.534329227688488
684.4731182795699,10.524140715128482
685.4740957966765,10.618871714698022
686.475073313783,10.631929419797656
687.4760508308896,10.36927302074681
688.4770283479961,10.756697005385178
689.4780058651027,10.87950249108099
690.4789833822092,10.710669198010253
691.4799608993158,10.64916263113501
692.4809384164223,10.762943359021293
693.4819159335289,10.867568623346974
694.4828934506354,11.063105680850501
695.483870967742,10.822980956567697
696.4848484848485,10.362535754119367
697.485826001955,11.37480297160944
698.4868035190616,11.842381511404463
699.4877810361681,10.957787239622258
700.4887585532747,10.713703977211143
701.4897360703812,11.035796682707197
702.4907135874878,11.326292771845969
703.4916911045943,11.238969237400806
704.4926686217009,11.486867350940809
705.4936461388074,11.54527909726974
706.494623655914,11.378584291060838
707.4956011730205,11.582924126594243
708.4965786901271,11.64453046496034
709.4975562072336,11.446582148931757
710.4985337243402,11.469919434195821
711.4995112414467,11.473443399379102
712.5004887585533,11.485191829759545
713.5014662756598,11.435297999119198
714.5024437927664,11.309929065245464
715.5034213098729,11.585501032542743
716.5043988269795,11.395249985705258
717.505376344086,11.61647366039705
718.5063538611926,11.622984480536141
719.5073313782991,11.778538166927312
720.5083088954057,12.37160241649284
721.5092864125122,12.663290468751994
722.5102639296188,12.615090905769662
723.5112414467253,12.901566725504225
724.5122189638319,13.110463899392984
725.5131964809384,13.454466876476989
726.514173998045,14.0815441872526
727.5151515151515,14.612133990611214
728.516129032258,14.850411553485756
729.5171065493646,15.770340248775158
730.5180840664711,16.95642072099888
731.5190615835777,18.54960249446301
732.5200391006842,20.067395013328518
733.5210166177908,22.0188478205726
734.5219941348973,24.060462697265866
735.5229716520039,25.488395384667406
736.5239491691104,27.07683967703006
737.524926686217,29.291669755505037
738.5259042033235,31.654406483197043
739.5268817204301,34.516578610982734
740.5278592375366,38.20788598887061
741.5288367546432,42.29409337113617
742.5298142717497,47.02590042713896
