Wavenumber (cm⁻¹),Intensity
200.0,48.591543385189794
201.00097751710655,49.799237022366505
202.0019550342131,51.30471236364486
203.00293255131965,51.0312906257326
204.0039100684262,51.23277955763196
205.00488758553274,52.64502475230859
206.0058651026393,53.459635588557134
207.00684261974584,54.6469366188794
208.0078201368524,56.6768115730361
209.00879765395894,59.23624556064284
210.00977517106548,61.568835203233114
211.01075268817203,63.183119209105286
212.01173020527858,66.02722705889008
213.01270772238513,69.0998254205533
214.01368523949168,71.96806155456846
215.01466275659823,75.81214324660978
216.01564027370478,79.75354193412535
217.01661779081132,83.9621288570957
218.01759530791787,88.46124240702783
219.01857282502445,93.10244016599745
220.019550342131,97.51861028777051
221.02052785923755,100.84452484663571
222.0215053763441,103.84673514931318
223.02248289345064,106.1445500177924
224.0234604105572,105.47562627136533
225.02443792766374,103.04378941244141
226.0254154447703,98.86985370297913
227.02639296187684,92.98652868569874
228.02737047898339,86.22009586219305
229.02834799608993,82.85766980375037
230.02932551319648,79.259260416955
231.03030303030303,75.69856993695512
232.03128054740958,72.77457631229494
233.03225806451613,70.29224105082888
234.03323558162268,66.89556325492514
235.03421309872923,65.50999933729368
236.03519061583577,64.8855908032892
237.03616813294232,62.81047567849643
238.03714565004887,61.83262101968964
239.03812316715542,59.17730802071641
240.03910068426197,56.580502344633906
241.04007820136852,55.33511893173461
242.04105571847506,55.22204785835571
243.0420332355816,52.4329785499271
244.0430107526882,49.856794769768435
245.04398826979474,48.33582853298831
246.0449657869013,47.66714944430757
247.04594330400784,47.2761445059686
248.04692082111438,46.39614776438126
249.04789833822093,46.06630059707418
250.04887585532748,46.174116474042464
251.04985337243403,45.55360106872364
252.05083088954058,45.42750517368316
253.05180840664713,45.03499040940346
254.05278592375367,44.668315967440826
255.05376344086022,44.79155694796288
256.05474095796677,45.41771187909162
257.0557184750733,44.69538523081749
258.05669599217987,44.14199779673605
259.0576735092864,44.175162470940606
260.05865102639297,44.16382539875947
261.0596285434995,43.268484716488594
262.06060606060606,43.78503281986007
263.0615835777126,44.460618471575664
264.06256109481916,44.493498003113615
265.0635386119257,44.98376609961956
266.06451612903226,44.39750138366422
267.0654936461388,44.317268014999534
268.06647116324535,44.72010175923476
269.0674486803519,44.84911044443268
270.06842619745845,44.538023180899856
271.069403714565,45.23956130932142
272.07038123167155,45.76983917245604
273.0713587487781,45.887986739609474
274.07233626588464,46.56544993575072
275.0733137829912,47.39706259971496
276.07429130009774,46.83844573590093
277.0752688172043,46.626525322346424
278.07624633431084,47.82376645096812
279.0772238514174,48.60878882773561
280.07820136852393,48.51594795201753
281.0791788856305,48.69610006798822
282.08015640273703,49.88418814756348
283.0811339198436,51.863221678898284
284.08211143695013,52.44092571292749
285.0830889540567,52.79226464680731
286.0840664711632,52.95454277867095
287.0850439882698,53.65602896373449
288.0860215053764,55.756688679589594
289.0869990224829,56.609486857612026
290.0879765395895,58.71486086012393
291.088954056696,60.469699994488955
292.0899315738026,61.1269212030578
293.0909090909091,63.39621777846931
294.09188660801567,65.49709064659078
295.0928641251222,68.53502641051118
296.09384164222877,72.7869111752223
297.0948191593353,77.66645063831609
298.09579667644186,82.2673329596627
299.0967741935484,89.19604404383142
300.09775171065496,95.86118519412372
301.0987292277615,100.70413910072486
302.09970674486806,104.16036434414121
303.1006842619746,105.74046984535117
304.10166177908116,103.27170648381149
305.1026392961877,97.77911635006201
306.10361681329425,90.82497330389202
307.1045943304008,83.84201050836958
308.10557184750735,80.35697954153405
309.1065493646139,78.68621865618869
310.10752688172045,78.6114561874461
311.108504398827,79.97200172800936
312.10948191593354,81.44570083683656
313.1104594330401,85.95076507528077
314.11143695014664,90.6472796656125
315.1124144672532,92.23274056854147
316.11339198435974,90.39226442489007
317.1143695014663,89.60233770279221
318.11534701857283,88.60723249238882
319.1163245356794,88.94607279970955
320.11730205278593,90.6749626565898
321.1182795698925,92.5496180637578
322.119257086999,95.42787541765442
323.1202346041056,99.92405942250463
324.1212121212121,105.56602466796157
325.1221896383187,111.00403600672712
326.1231671554252,114.15461151949471
327.12414467253177,113.4842515503713
328.1251221896383,111.2245012896658
329.12609970674487,108.32534373528324
330.1270772238514,104.67231519648774
331.12805474095796,99.45578659806009
332.1290322580645,97.0162687719052
333.13000977517106,96.75872130087026
334.1309872922776,97.33832854049925
335.13196480938416,97.90825679935227
336.1329423264907,98.74723207894226
337.13391984359725,98.17923545529973
338.1348973607038,96.60978837162197
339.13587487781035,92.94737637361847
340.1368523949169,86.5584886121286
341.13782991202345,82.07413964429816
342.13880742913,75.44000436853842
343.13978494623655,68.8352889126426
344.1407624633431,64.10334602101265
345.14173998044964,60.784620192977016
346.1427174975562,57.89780157295503
347.14369501466274,54.93490426398191
348.1446725317693,53.039118927115666
349.14565004887584,52.14936147992078
350.1466275659824,50.85749350406124
351.14760508308893,51.129262520051675
352.1485826001955,51.11691503510507
353.14956011730203,50.84254648919287
354.1505376344086,50.9253530097713
355.1515151515151,51.29222635974007
356.1524926686217,51.4304727164878
357.1534701857282,51.32359852733531
358.1544477028348,52.17260845017517
359.1554252199413,54.102509547927184
360.15640273704787,55.44237489125955
361.1573802541544,56.36158379001285
362.15835777126097,57.30802902760465
363.1593352883675,58.81613204210232
364.16031280547406,61.330842398077955
365.1612903225806,64.9606813520819
366.16226783968716,68.28948955303879
367.1632453567937,72.50486018476687
368.16422287390026,77.58711870752391
369.1652003910068,82.50074955044344
370.16617790811335,86.32929883993788
371.1671554252199,86.24928907680908
372.16813294232645,84.0480831713264
373.169110459433,79.31705495757124
374.17008797653955,71.35456319228415
375.1710654936461,64.36803568250878
376.1720430107527,59.05928541695933
377.17302052785925,54.448485305600265
378.1739980449658,50.01775235181244
379.17497556207235,46.280609497246736
380.1759530791789,44.5757162625573
381.17693059628544,42.7695299001886
382.177908113392,40.72518092256846
383.17888563049854,39.315798064205886
384.1798631476051,38.92675411692013
385.18084066471164,38.02911951628012
386.1818181818182,36.92692409684898
387.18279569892474,35.71159039707553
388.1837732160313,34.91943208673442
389.18475073313783,34.993051959651105
390.1857282502444,35.0746220587228
391.18670576735093,35.240727909473925
392.1876832844575,34.67473259054201
393.188660801564,33.72522146071794
394.1896383186706,33.395015254863104
395.1906158357771,33.80443149248065
396.1915933528837,34.218490988859635
397.1925708699902,34.248311808856776
398.19354838709677,34.774680362593756
399.1945259042033,36.630812806560925
400.19550342130987,37.84608987701251
401.1964809384164,40.02522165763345
402.19745845552296,42.339717080510574
403.1984359726295,44.69236201211387
404.19941348973606,47.65311838066242
405.2003910068426,51.49935433520817
406.20136852394916,54.87051375293767
407.2023460410557,57.46237459270857
408.20332355816225,58.01317985032089
409.20430107526886,55.61035998467718
410.2052785923754,52.440359226808575
411.20625610948196,49.57890037717429
412.2072336265885,47.12649918300974
413.20821114369505,45.573434803757486
414.2091886608016,45.52386800531364
415.21016617790815,46.81273961214211
416.2111436950147,48.08721781675485
417.21212121212125,49.762887418931165
418.2130987292278,51.38528050225852
419.21407624633434,52.25915006739211
420.2150537634409,52.83082724150395
421.21603128054744,53.817297934957644
422.217008797654,54.818035054992194
423.21798631476054,56.48565940443844
424.2189638318671,59.120820608537905
425.21994134897363,61.29542268197972
426.2209188660802,63.49419020127408
427.22189638318673,68.2256499685639
428.2228739002933,72.85694383443408
429.2238514173998,75.24390378372526
430.2248289345064,77.55705743465936
431.2258064516129,76.18547966918916
432.2267839687195,74.28496335987488
433.227761485826,70.63926943492146
434.22873900293257,64.89486010233801
435.2297165200391,60.67136936653798
436.23069403714567,57.029859483996304
437.2316715542522,54.305618185735455
438.23264907135876,51.9428626173633
439.2336265884653,49.357222119610306
440.23460410557186,46.57872961787417
441.2355816226784,44.351752594709914
442.23655913978496,42.76998508920426
443.2375366568915,40.998241858347015
444.23851417399806,39.4126121732869
445.2394916911046,39.06299817303654
446.24046920821115,38.36750471747201
447.2414467253177,37.747567510453266
448.24242424242425,37.5170912711433
449.2434017595308,37.14859645208736
450.24437927663735,36.34020605196409
451.2453567937439,37.21099201855764
452.24633431085044,37.486428793128304
453.247311827957,37.558221927967466
454.24828934506354,37.71143038958548
455.2492668621701,37.80844094988871
456.25024437927664,37.710686228927166
457.2512218963832,37.96506402485216
458.25219941348973,38.13061308343689
459.2531769305963,38.70522102800491
460.25415444770283,39.6364347539165
461.2551319648094,39.58563481690259
462.2561094819159,39.50892155981803
463.2570869990225,40.40994120601805
464.258064516129,40.598877173321036
465.2590420332356,40.222616195412584
466.2600195503421,41.819129148325295
467.26099706744867,41.83614076899499
468.2619745845552,42.34971654853126
469.26295210166177,42.630045163019886
470.2639296187683,43.040776709387906
471.26490713587486,44.45634101705373
472.2658846529814,43.42441386118243
473.26686217008796,43.66470751236693
474.2678396871945,44.36224297324975
475.26881720430106,44.607149535076154
476.2697947214076,44.75437764223359
477.27077223851416,45.61834098787621
478.2717497556207,46.035512654495236
479.27272727272725,45.93691833022194
480.2737047898338,46.871615860076105
481.27468230694035,48.61260364223767
482.2756598240469,48.238972117276504
483.27663734115345,49.143834255812614
484.27761485826,49.92271302897898
485.27859237536654,49.79785981901031
486.2795698924731,50.230042644144206
487.28054740957964,53.293699794549
488.2815249266862,56.514494428706
489.2825024437928,53.39199265172523
490.28347996089934,50.58630446848592
491.2844574780059,50.95216777038507
492.28543499511244,52.3774833261819
493.286412512219,51.971054729050195
494.28739002932554,52.752456853654074
495.2883675464321,52.581225490925064
496.28934506353863,51.90545277935967
497.2903225806452,51.79404113488701
498.29130009775173,51.45716784875067
499.2922776148583,52.16178697409601
500.2932551319648,51.17770223636688
501.2942326490714,50.65084291232377
502.2952101661779,51.04545171029206
503.2961876832845,50.4968099382467
504.297165200391,51.85397320240365
505.29814271749757,51.22707234334225
506.2991202346041,50.807595843459794
507.30009775171067,50.77699076448892
508.3010752688172,50.265112016625295
509.30205278592376,50.206080969092326
510.3030303030303,50.71146366898609
511.30400782013686,51.67938026389109
512.3049853372434,52.39570954103533
513.3059628543499,52.617522231285676
514.3069403714564,52.91678556963942
515.307917888563,53.38566578151184
516.3088954056695,54.57228756796935
517.3098729227761,55.03905919230649
518.3108504398826,55.08804112316342
519.3118279569892,55.99880912348069
520.3128054740957,57.56398613091379
521.3137829912023,58.14614150856705
522.3147605083088,61.03383777908732
523.3157380254154,64.14324221538295
524.3167155425219,65.32668755434823
525.3176930596285,66.85095492160893
526.318670576735,70.04211791570462
527.3196480938416,73.61701507741266
528.3206256109481,77.48011570528527
529.3216031280547,81.64879936478204
530.3225806451612,85.77878870305408
531.3235581622678,89.56459903777517
532.3245356793743,94.44842521984188
533.3255131964809,98.42947711324621
534.3264907135874,103.61635687920739
535.327468230694,111.00293696026378
536.3284457478005,117.44898951477502
537.3294232649071,124.37466984163996
538.3304007820136,132.5034481355491
539.3313782991202,141.2134407319876
540.3323558162267,149.3161128075823
541.3333333333333,155.6472927954086
542.3343108504398,159.03171321777089
543.3352883675464,157.001319348168
544.3362658846529,148.03020271629003
545.3372434017595,133.3629951242767
546.338220918866,116.78335649278452
547.3391984359725,102.04436424435286
548.3401759530791,88.39692571347547
549.3411534701856,79.44946343442693
550.3421309872922,73.53658583142702
551.3431085043987,69.16087227011506
552.3440860215054,65.82573385979349
553.345063538612,63.04709988156054
554.3460410557185,61.00324790248669
555.347018572825,60.79320740440721
556.3479960899316,60.24519870805965
557.3489736070381,58.904866427707184
558.3499511241447,59.02375327777649
559.3509286412512,59.90888644229395
560.3519061583578,59.428660825919806
561.3528836754643,58.93014472943093
562.3538611925709,59.47229615303939
563.3548387096774,60.67574399020417
564.355816226784,60.85921947073157
565.3567937438905,60.72254513234195
566.3577712609971,61.58781500115883
567.3587487781036,63.309413259414335
568.3597262952102,64.97947020733056
569.3607038123167,65.9688179673423
570.3616813294233,66.86096184364067
571.3626588465298,69.15066213687963
572.3636363636364,71.96507127812039
573.3646138807429,75.28209408363755
574.3655913978495,78.35734881727123
575.366568914956,80.1677931558778
576.3675464320626,84.46055334340046
577.3685239491691,90.61485238061209
578.3695014662757,94.94672888213893
579.3704789833822,98.4129532856495
580.3714565004888,103.71926228018793
581.3724340175953,110.73121613298608
582.3734115347019,117.77644989503149
583.3743890518084,123.62746254706364
584.375366568915,131.4630190655982
585.3763440860215,140.4011659005293
586.377321603128,147.26733999837379
587.3782991202346,153.30851300036932
588.3792766373411,160.2970028469654
589.3802541544477,164.08359254436897
590.3812316715542,163.5386187668078
591.3822091886608,157.85172266580506
592.3831867057673,146.6167987238137
593.3841642228739,134.1014948624698
594.3851417399804,121.88036668388175
595.386119257087,110.20557403981465
596.3870967741935,99.79857720517134
597.3880742913001,92.24614370511443
598.3890518084066,88.89801969801181
599.3900293255132,86.31876663212212
600.3910068426197,83.85268986932988
601.3919843597263,82.78435211559069
602.3929618768328,82.61199172850816
603.3939393939394,82.16715036318381
604.3949169110459,81.39420823839741
605.3958944281525,81.03849431422643
606.396871945259,79.35245277523005
607.3978494623656,77.7683740881846
608.3988269794721,76.99407848360153
609.3998044965787,75.8247778840414
610.4007820136852,72.58151656629751
611.4017595307918,69.31256228315655
612.4027370478983,66.20708616077489
613.4037145650049,63.50672549178691
614.4046920821114,61.475661978143094
615.405669599218,59.81709135773102
616.4066471163245,57.247649686093595
617.4076246334312,54.45370870236558
618.4086021505377,52.597736765584145
619.4095796676443,50.24814723318829
620.4105571847508,47.9662478414085
621.4115347018574,47.23454453229114
622.4125122189639,46.24195776018801
623.4134897360705,44.78550949764606
624.414467253177,43.36047927265579
625.4154447702836,42.46675631303702
626.4164222873901,42.29891070260797
627.4173998044967,42.24225874633069
628.4183773216032,40.46355870313015
629.4193548387098,39.53020810305716
630.4203323558163,38.730565944196094
631.4213098729228,37.955961016970555
632.4222873900294,37.26374029082193
633.423264907136,36.406360564715264
634.4242424242425,35.57760369406567
635.425219941349,35.442597054480004
636.4261974584556,35.585364627808474
637.4271749755621,35.24049732024859
638.4281524926687,34.52620772258377
639.4291300097752,34.281145885431606
640.4301075268818,34.40878303055849
641.4310850439883,33.795559701843025
642.4320625610949,33.36854268800172
643.4330400782014,33.798083781661155
644.434017595308,34.50000062534745
645.4349951124145,34.501289939266584
646.4359726295211,33.810879718563854
647.4369501466276,34.14984415882245
648.4379276637342,34.8952118469498
649.4389051808407,34.608581701929985
650.4398826979473,33.66652589446464
651.4408602150538,33.70278327442887
652.4418377321604,33.819769118768605
653.4428152492669,33.18930368542194
654.4437927663735,33.589467586226256
655.44477028348,33.907982319610966
656.4457478005866,33.64805192168793
657.4467253176931,33.69425953426105
658.4477028347997,33.51548672218502
659.4486803519062,34.050794431546755
660.4496578690128,32.98465897380973
661.4506353861193,32.50323804580118
662.4516129032259,32.81068651752078
663.4525904203324,32.27960971438902
664.453567937439,32.69946992733696
665.4545454545455,33.17330588957404
666.455522971652,33.15052214248999
667.4565004887586,33.40808921401911
668.4574780058651,33.5185216855874
669.4584555229717,32.769722696596794
670.4594330400782,32.46981128037714
671.4604105571848,33.31176149191499
672.4613880742913,33.772139806116655
673.4623655913979,33.457693149609966
674.4633431085044,33.813337731996114
675.464320625611,34.88327171868839
676.4652981427175,33.98918049038673
677.4662756598241,33.977182852184455
678.4672531769306,34.16677868921465
679.4682306940372,34.2212331834413
680.4692082111437,34.45124006418644
681.4701857282503,34.96009385716572
682.4711632453568,35.19156861231907
683.4721407624634,35.18204324222412
684.4731182795699,35.78957476798415
685.4740957966765,36.16208857689244
686.475073313783,36.42309457937871
687.4760508308896,36.68541919051202
688.4770283479961,36.657427613503806
689.4780058651027,37.468349161573784
690.4789833822092,37.99733906916937
691.4799608993158,38.92939039614486
692.4809384164223,39.126005389811546
693.4819159335289,38.57649614750819
694.4828934506354,38.8179921760614
695.483870967742,40.028857907943106
696.4848484848485,39.912069999685784
697.485826001955,40.826982565985425
698.4868035190616,40.61336079358335
699.4877810361681,40.339264247982825
700.4887585532747,41.510599429737056
701.4897360703812,41.74572021981664
702.4907135874878,43.0300849570154
703.4916911045943,43.36017157712581
704.4926686217009,43.93072506880636
705.4936461388074,45.131902566334205
706.494623655914,46.31515157786387
707.4956011730205,46.918639919097835
708.4965786901271,47.64258375334535
709.4975562072336,48.90454284040399
710.4985337243402,49.93675778537327
711.4995112414467,50.60853042443224
712.5004887585533,51.611768300967455
713.5014662756598,53.04511580471804
714.5024437927664,53.57941352526
715.5034213098729,54.72473046870525
716.5043988269795,57.178448755447704
717.505376344086,58.69540351283474
718.5063538611926,59.54940988364074
719.5073313782991,60.47338763449172
720.5083088954057,60.86999738631672
721.5092864125122,63.828572261028846
722.5102639296188,65.4567991593515
723.5112414467253,67.52832814940462
724.5122189638319,69.77690123479613
725.5131964809384,71.85656140425547
726.514173998045,74.48070851782784
727.5151515151515,76.87134802895166
728.516129032258,79.7842695796614
729.5171065493646,81.91575969892641
730.5180840664711,84.53735663273041
731.5190615835777,86.75021580209015
732.5200391006842,88.08247968471865
733.5210166177908,91.15572339607817
734.5219941348973,93.84283767903246
735.5229716520039,96.83871307290937
736.5239491691104,99.55521688899546
737.524926686217,101.86937098672047
738.5259042033235,105.42828571077207
739.5268817204301,110.39278273079464
740.5278592375366,112.60292574896852
741.5288367546432,119.38500580283436
742.5298142717497,123.87349037474054
743.5307917888563,128.67790163726514
744.5317693059628,134.35563479228924
745.5327468230694,139.288888095658
746.5337243401759,144.00954400311198
747.5347018572825,150.81647486584734
748.535679374389,155.35700776187502
