Raman Shift,Intensity
89.02869,775.504
89.5108,776.393
89.99292,778.2035
90.47504,780.9158
90.95715,784.8318
91.43927,788.3898
91.92139,788.7137
92.4035,785.833
92.88562,783.5281
93.36774,778.7639
93.84985,766.4615
94.33197,745.3842
94.81409,726.2482
95.2962,706.1733
95.77832,686.838
96.26044,668.489
96.74255,651.8039
97.22467,637.5039
97.70679,625.5702
98.1889,615.248
98.67102,606.6101
99.15314,598.7911
99.63525,591.1605
100.1174,583.4161
100.5995,575.4694
101.0816,566.9785
101.5637,555.754
102.0458,546.1583
102.528,539.3301
103.0101,534.2677
103.4922,529.153
103.9743,522.5722
104.4564,514.5075
104.9385,509.4222
105.4207,509.0875
105.9028,509.3536
106.3849,508.6625
106.867,506.7617
107.3491,503.2138
107.8312,496.8727
108.3134,487.9051
108.7955,479.9908
109.2776,473.6621
109.7597,468.5966
110.2418,464.4899
110.7239,461.5206
111.2061,459.0215
111.6882,456.2063
112.1703,453.1884
112.6524,450.7298
113.1345,449.7011
113.6166,449.9799
114.0988,449.5294
114.5809,447.8272
115.063,445.4587
115.5451,442.5163
116.0272,439.0805
116.5093,435.549
116.9915,432.4116
117.4736,429.8237
117.9557,427.2423
118.4378,424.3161
118.9199,421.5636
119.402,419.4773
119.8842,418.1848
120.3663,417.3004
120.8484,415.9345
121.3305,413.0733
121.8126,410.8672
122.2947,410.0811
122.7769,409.819
123.259,408.9318
123.7411,406.7957
124.2232,403.6558
124.7053,400.5484
125.1874,396.9641
125.6696,393.9134
126.1517,392.04
126.6338,391.1241
127.1159,390.1617
127.598,388.4285
128.0801,386.2182
128.5623,384.544
129.0444,383.8781
129.5265,383.4576
130.0086,382.61
130.4907,381.3372
130.9728,379.6259
131.455,376.9909
131.9371,373.9774
132.4192,371.3596
132.9013,369.5527
133.3834,368.3421
133.8655,367.1368
134.3477,366.082
134.8298,364.7875
135.3119,362.878
135.794,360.654
136.2761,358.6593
136.7582,357.2741
137.2404,356.5119
137.7225,356.0923
138.2046,357.02
138.6867,357.4114
139.1688,356.4713
139.6509,354.3534
140.1331,351.7526
140.6152,349.3249
141.0973,347.1236
141.5794,344.9893
142.0615,342.5952
142.5436,340.4767
143.0258,339.1598
143.5079,338.6584
143.99,338.3197
144.4721,337.2128
144.9542,334.8247
145.4363,332.9776
145.9185,332.0303
146.4006,331.5287
146.8827,331.0938
147.3648,330.6852
147.8469,330.0048
148.329,328.2024
148.8112,325.1101
149.2933,322.5552
149.7754,321.7121
150.2575,321.9945
150.7396,321.5882
151.2217,319.6362
151.7039,317.1388
152.186,315.4043
152.6681,314.4901
153.1502,313.8223
153.6323,313.0503
154.1144,312.1813
154.5966,311.1233
155.0787,309.8383
155.5608,308.3437
156.0429,306.5373
156.525,304.3773
157.0071,302.2093
157.4893,300.5905
157.9714,299.818
158.4535,298.7939
158.9356,297.169
159.4177,295.3336
159.8998,293.5215
160.382,291.8312
160.8641,290.3031
161.3462,289.0687
161.8283,288.4782
162.3104,287.697
162.7925,286.6567
163.2747,285.4012
163.7568,283.9446
164.2389,282.299
164.721,280.5042
165.2031,278.7352
165.6852,276.6846
166.1674,275.0034
166.6495,274.0203
167.1316,273.4633
167.6137,272.8416
168.0958,271.8315
168.5779,270.5563
169.0601,269.7869
169.5422,270.3026
170.0243,270.4367
170.5064,269.3268
170.9885,267.1888
171.4706,264.8615
171.9528,262.7168
172.4349,260.8598
172.917,259.4577
173.3991,258.8015
173.8812,258.3547
174.3633,257.7268
174.8455,256.9126
175.3276,256.0631
175.8097,255.4162
176.2918,254.7526
176.7739,253.6377
177.256,251.6387
177.7382,249.3948
178.2203,247.8447
178.7024,247.1407
179.1845,246.6542
179.6666,246.3145
180.1487,245.9323
180.6309,245.2061
181.113,243.867
181.5951,242.1835
182.0772,240.9207
182.5593,240.4625
183.0414,239.7927
183.5236,238.2974
184.0057,236.4489
184.4878,234.9408
184.9699,234.2488
185.452,234.2184
185.9341,233.8634
186.4163,233.0036
186.8984,231.9726
187.3805,230.7145
187.8626,229.3495
188.3447,228.0503
188.8268,226.921
189.309,225.9659
189.7911,225.1944
190.2732,224.982
190.7553,224.5753
191.2374,223.6222
191.7195,222.2944
192.2017,220.9948
192.6838,220.0426
193.1659,219.4485
193.648,218.7744
194.1301,217.7345
194.6122,216.8967
195.0944,216.7507
195.5765,217.1051
196.0586,217.2471
196.5407,216.5428
197.0228,214.9435
197.5049,213.689
197.9871,212.9002
198.4692,212.3059
198.9513,211.8364
199.4334,211.4599
199.9155,211.0004
200.3976,210.246
200.8798,209.2371
201.3619,208.5026
201.844,208.2647
202.3261,208.183
202.8082,207.9688
203.2903,207.6044
203.7725,207.2015
204.2546,206.8784
204.7367,206.5887
205.2188,206.1954
205.7009,205.5776
206.183,204.8814
206.6652,204.3031
207.1473,203.8612
207.6294,203.4775
208.1115,203.1817
208.5936,202.9021
209.0757,202.5044
209.5579,201.8596
210.04,201.0997
210.5221,200.4864
211.0042,200.053
211.4863,199.6977
211.9685,199.3954
212.4506,199.1225
212.9327,198.8568
213.4148,198.616
213.8969,198.3591
214.379,197.9409
214.8612,197.2271
215.3433,196.5691
215.8254,196.111
216.3075,195.7737
216.7896,195.4571
217.2717,195.1241
217.7539,194.759
218.236,194.2889
218.7181,193.6086
219.2002,192.9587
219.6823,192.2872
220.1644,191.7027
220.6466,191.4157
221.1287,191.6011
221.6108,192.1168
222.0929,192.1351
222.575,190.8105
223.0571,189.9084
223.5393,190.1006
224.0214,190.8271
224.5035,191.2402
224.9856,190.8074
225.4677,189.7012
225.9498,189.0128
226.432,189.2396
226.9141,189.3554
227.3962,189.0674
227.8783,188.5793
228.3604,188.2497
228.8425,188.3037
229.3247,188.6397
229.8068,188.6632
230.2889,187.9548
230.771,187.4333
231.2531,187.5124
231.7352,187.8853
232.2174,187.9715
232.6995,187.4282
233.1816,186.4298
233.6637,185.7558
234.1458,185.6023
234.6279,185.4749
235.1101,185.2642
235.5922,184.9928
236.0743,184.6837
236.5564,184.3274
237.0385,183.979
237.5206,183.8466
238.0028,184.0543
238.4849,184.2317
238.967,184.3321
239.4491,184.3151
239.9312,184.0375
240.4133,183.3629
240.8955,182.5106
241.3776,181.9752
241.8597,181.8346
242.3418,181.7464
242.8239,181.5795
243.306,181.3578
243.7882,181.1596
244.2703,181.0476
244.7524,180.9179
245.2345,180.5926
245.7166,180.0456
246.1987,179.4819
246.6809,178.9431
247.163,178.4567
247.6451,178.1597
248.1272,178.2357
248.6093,178.307
249.0914,177.904
249.5736,177.0282
250.0557,176.075
250.5378,175.1493
251.0199,174.2984
251.502,173.7278
251.9841,173.5598
252.4663,173.5838
252.9484,173.6952
253.4305,173.8662
253.9126,173.8339
254.3947,173.1624
254.8768,172.0654
255.359,171.6714
255.8411,172.6621
256.3232,173.5875
256.8053,173.3968
257.2874,172.3013
257.7695,171.0547
258.2516,169.9886
258.7338,169.1138
259.2159,168.531
259.698,168.2979
260.1801,168.3102
260.6622,168.5733
261.1443,169.0004
261.6265,169.4171
262.1086,169.8499
262.5907,170.1995
263.0728,169.9331
263.5549,168.6092
264.037,167.3218
264.5192,166.4922
265.0013,165.9951
265.4834,165.637
265.9655,165.3471
266.4476,165.0964
266.9297,164.7827
267.4119,164.4192
267.894,163.96
268.3761,163.3631
268.8582,162.6921
269.3403,162.0132
269.8224,161.3563
270.3046,160.7259
270.7867,160.1031
271.2688,159.3225
271.7509,158.8801
272.233,158.9956
272.7151,159.3797
273.1973,159.8208
273.6794,160.2426
274.1615,160.5246
274.6436,160.3625
275.1257,159.4314
275.6078,158.6823
276.09,158.2577
276.5721,158.015
277.0542,157.9084
277.5363,157.9048
278.0184,157.8824
278.5005,157.6184
278.9827,156.9786
279.4648,156.3887
279.9469,155.7763
280.429,155.275
280.9111,155.037
281.3932,155.0592
281.8754,155.1627
282.3575,155.1397
282.8396,155.0236
283.3217,154.666
283.8038,153.8303
284.2859,152.9825
284.7681,152.3406
285.2502,151.9318
285.7323,151.7016
286.2144,151.6298
286.6965,151.7768
287.1786,151.7246
287.6608,151.3897
288.1429,150.9544
288.625,150.3811
289.1071,149.7533
289.5892,149.2583
290.0714,149.0703
290.5535,149.1965
291.0356,149.1789
291.5177,149.0148
291.9998,148.7139
292.4819,148.1171
292.9641,147.3925
293.4462,146.8666
293.9283,146.7718
294.4104,147.0159
294.8925,146.9583
295.3746,146.2338
295.8568,145.5981
296.3389,145.1844
296.821,144.9105
297.3031,144.6586
297.7852,144.3705
298.2673,144.0672
298.7495,143.8137
299.2316,143.5841
299.7137,143.4449
300.1958,143.5395
300.6779,143.6565
301.16,143.5513
301.6422,143.1518
302.1243,142.6177
302.6064,142.2489
303.0885,142.238
303.5706,142.0492
304.0527,141.4179
304.5349,140.8
305.017,140.6127
305.4991,140.8894
305.9812,141.2915
306.4633,141.4026
306.9454,141.1326
307.4276,140.8673
307.9097,140.5363
308.3918,140.2708
308.8739,140.2215
309.356,140.3338
309.8381,140.3844
310.3203,140.1619
310.8024,139.6444
311.2845,139.2287
311.7666,138.9495
312.2487,138.7195
312.7308,138.4717
313.213,138.2481
313.6951,138.1575
314.1772,138.2815
314.6593,138.5807
315.1414,138.778
315.6235,138.8057
316.1057,138.8082
316.5878,138.8523
317.0699,138.8711
317.552,138.7874
318.0341,138.5676
318.5162,138.2037
318.9984,137.6655
319.4805,136.3691
319.9626,135.7008
320.4447,136.1624
320.9268,136.9822
321.4089,137.4878
321.8911,137.4914
322.3732,137.2073
322.8553,136.9398
323.3374,136.7101
323.8195,136.4475
324.3016,135.9364
324.7838,135.564
325.2659,135.7155
325.748,136.3195
326.2301,136.9117
326.7122,137.0274
327.1943,136.6017
327.6765,136.2205
328.1586,135.8607
328.6407,135.5602
329.1228,135.3317
329.6049,135.1728
330.087,135.0639
330.5692,134.9848
331.0513,134.9514
331.5334,135.0863
332.0155,135.7862
332.4976,136.2105
332.9797,136.1523
333.4619,135.7777
333.944,135.2296
334.4261,134.5716
334.9082,133.9358
335.3904,133.64
335.8725,133.9151
336.3546,134.2027
336.8367,134.5541
337.3188,134.8657
337.8009,135.0218
338.2831,135.0132
338.7652,134.958
339.2473,135.034
339.7294,135.3464
340.2115,135.4525
340.6936,135.2294
341.1758,134.9383
341.6579,134.6866
342.14,134.4807
342.6221,134.2737
343.1042,134.0011
343.5863,133.6626
344.0685,133.5557
344.5506,134.0211
345.0327,134.382
345.5148,134.4922
345.9969,134.3981
346.479,134.1373
346.9612,133.7042
347.4433,133.2254
347.9254,133.1426
348.4075,133.8873
348.8896,134.32
349.3717,134.0728
349.8539,133.5992
350.336,133.2674
350.8181,133.1968
351.3002,133.3051
351.7823,133.5245
352.2644,133.9563
352.7466,134.1634
353.2287,133.9051
353.7108,133.6003
354.1929,133.4272
354.675,133.408
355.1571,133.5101
355.6393,133.7958
356.1214,134.2629
356.6035,134.327
357.0856,133.5224
357.5677,132.8638
358.0498,132.7428
358.532,133.0032
359.0141,133.3885
359.4962,133.8047
359.9783,134.1916
360.4604,134.3888
360.9425,134.3869
361.4247,134.2048
361.9068,133.7037
362.3889,133.1156
362.871,132.6218
363.3531,132.2683
363.8352,132.0637
364.3174,132.0468
364.7995,132.2329
365.2816,132.4572
365.7637,132.7962
366.2458,133.0671
366.7279,133.101
367.2101,132.9298
367.6922,132.7749
368.1743,132.8558
368.6564,133.0986
369.1385,133.1392
369.6206,132.8627
370.1028,132.5813
370.5849,132.5587
371.067,132.6527
371.5491,132.5949
372.0312,132.1933
372.5133,131.6923
372.9955,131.4445
373.4776,131.4708
373.9597,131.5605
374.4418,131.7078
374.9239,131.8219
375.406,131.7407
375.8882,131.3824
376.3703,131.121
376.8524,131.3408
377.3345,131.9074
377.8166,132.2459
378.2987,132.1628
378.7809,131.9342
379.263,131.93
379.7451,132.1122
380.2272,132.0756
380.7093,131.4264
381.1914,130.6068
381.6736,130.2473
382.1557,130.4106
382.6378,130.682
383.1199,130.8102
383.602,130.8004
384.0841,130.7332
384.5663,130.5887
385.0484,130.4087
385.5305,130.1095
386.0126,129.7758
386.4947,129.6945
386.9768,130.015
387.459,130.586
387.9411,131.137
388.4232,131.7474
388.9053,132.1309
389.3874,132.1539
389.8695,131.9565
390.3517,131.6386
390.8338,131.2287
391.3159,130.8505
391.798,130.6314
392.2801,130.5931
392.7622,130.5719
393.2444,130.5106
393.7265,130.5178
394.2086,130.7387
394.6907,131.0805
395.1728,131.3172
395.6549,131.318
396.1371,131.1117
396.6192,130.8113
397.1013,130.0333
397.5834,129.6462
398.0655,130.1064
398.5476,130.7888
399.0298,130.9654
399.5119,130.4864
399.994,129.8916
400.4761,129.9624
400.9582,131.0209
401.4403,131.605
401.9225,131.5208
402.4046,131.2144
402.8867,130.6734
403.3688,130.0706
403.8509,129.7755
404.333,130.1108
404.8152,130.9001
405.2973,131.1117
405.7794,130.2737
406.2615,129.5423
406.7436,129.0983
407.2257,128.8704
407.7079,128.8828
408.19,129.1269
408.6721,129.3255
409.1542,128.982
409.6363,127.9292
410.1184,127.2699
410.6006,127.4082
411.0827,127.7195
411.5648,128.0094
412.0469,128.2207
412.529,128.2419
413.0111,127.8977
413.4933,127.3272
413.9754,126.9851
414.4575,126.923
414.9396,126.9555
415.4217,127.1122
415.9038,127.2706
416.386,127.2623
416.8681,127.0139
417.3502,126.7114
417.8323,126.5853
418.3144,126.5991
418.7965,126.3892
419.2787,125.6569
419.7608,124.9777
420.2429,125.1769
420.725,126.1637
421.2071,126.7877
421.6892,126.3276
422.1714,125.4335
422.6535,124.9801
423.1356,125.0316
423.6177,125.215
424.0998,125.3302
424.5819,125.3718
425.0641,125.3454
425.5462,125.1758
426.0283,125.0351
426.5104,125.111
426.9925,125.2533
427.4746,125.145
427.9568,124.6665
428.4389,123.9998
428.921,123.3867
429.4031,122.7831
429.8852,122.4093
430.3673,122.5535
430.8495,122.6962
431.3316,122.3513
431.8137,121.6236
432.2958,121.0643
432.7779,121.1085
433.26,121.6473
433.7422,121.7958
434.2243,121.1524
434.7064,120.5807
435.1885,120.262
435.6706,120.0294
436.1527,119.6386
436.6349,119.0387
437.117,118.4726
437.5991,118.343
438.0812,118.8368
438.5633,119.0768
439.0454,118.8748
439.5276,118.5893
440.0097,118.3292
440.4918,118.0982
440.9739,117.8637
441.456,117.6009
441.9381,117.3308
442.4203,117.12
442.9024,116.9982
443.3845,116.8609
443.8666,116.6718
444.3487,116.458
444.8308,116.1921
445.313,115.8721
445.7951,115.6655
446.2772,115.8205
446.7593,116.246
447.2414,116.4451
447.7235,116.2958
448.2057,116.0547
448.6878,115.8792
449.1699,115.7601
449.652,115.6921
450.1341,115.6938
450.6162,115.7261
451.0984,115.7673
451.5805,115.8127
452.0626,115.8396
452.5447,115.8507
453.0268,115.8207
453.5089,115.6487
453.9911,115.2632
454.4732,115.0688
454.9553,115.3198
455.4374,115.7103
455.9195,115.9501
456.4016,116.0008
456.8838,115.899
457.3659,115.6272
457.848,115.2088
458.3301,115.0789
458.8122,115.4276
459.2943,115.7887
459.7765,116.0795
460.2586,116.3069
460.7407,116.4714
461.2228,116.5774
461.7049,116.6669
462.187,116.8037
462.6692,117.0029
463.1513,117.2041
463.6334,117.4094
464.1155,117.6149
464.5976,117.8688
465.0797,118.1207
465.5619,118.2542
466.044,118.1763
466.5261,117.9824
467.0082,117.9172
467.4903,117.9614
467.9724,118.1899
468.4546,118.9344
468.9367,119.6589
469.4188,119.9189
469.9009,119.6898
470.383,119.3582
470.8651,119.1113
471.3473,118.9878
471.8294,119.2093
472.3115,119.9217
472.7936,120.5602
473.2757,120.5515
473.7578,120.2477
474.24,120.3435
474.7221,121.188
475.2042,122.0438
475.6863,122.3811
476.1684,122.3281
476.6505,122.2419
477.1327,122.2193
477.6148,122.2063
478.0969,122.0701
478.579,121.7533
479.0611,121.8352
479.5432,122.8256
480.0254,123.8022
480.5075,124.0351
480.9896,123.7357
481.4717,123.6278
481.9538,124.1252
482.4359,125.0012
482.9181,125.6097
483.4002,125.8303
483.8823,125.9352
484.3644,125.753
484.8465,125.5919
485.3286,125.7185
485.8108,126.1114
486.2929,126.5345
486.775,126.7756
487.2571,126.8637
487.7392,127.0759
488.2213,127.5005
488.7035,127.9051
489.1856,128.1481
489.6677,128.3826
490.1498,128.8141
490.6319,129.4929
491.114,130.1577
491.5962,130.5459
492.0783,130.6805
492.5604,130.7213
493.0425,130.6371
493.5246,130.5556
494.0067,130.5237
494.4889,130.5638
494.971,130.7633
495.4531,131.3382
495.9352,131.8515
496.4173,131.8115
496.8994,131.3866
497.3816,131.2192
497.8637,131.5559
498.3458,132.1261
498.8279,132.573
499.31,132.8919
499.7921,133.094
500.2743,133.1813
500.7564,133.1491
501.2385,132.8846
501.7206,132.4864
502.2027,132.2318
502.6848,132.284
503.167,132.5505
503.6491,132.7687
504.1312,133.0105
504.6133,133.0731
505.0954,132.7467
505.5775,132.4187
506.0597,132.4288
506.5418,132.7191
507.0239,132.9353
507.506,132.7658
507.9881,132.3082
508.4702,132.0243
508.9524,131.9401
509.4345,131.9751
509.9166,132.2499
510.3987,132.546
510.8808,132.6703
511.3629,132.5928
511.8451,132.3914
512.3271,132.0257
512.8093,131.5832
513.2914,131.3721
513.7735,131.4756
514.2556,131.5196
514.7377,131.2194
515.2198,130.6493
515.702,130.0968
516.1841,129.4462
516.6662,128.9914
517.1483,129.1157
517.6304,129.4478
518.1125,129.268
518.5947,128.4126
519.0768,127.4908
519.5589,127.1805
520.041,127.5585
520.5231,127.8069
521.0052,128.0044
521.4874,128.0075
521.9695,127.6328
522.4516,127.0822
522.9337,126.6775
523.4158,126.5273
523.8979,126.411
524.3801,125.9182
524.8622,124.9125
525.3443,124.2711
525.8264,124.3762
526.3085,124.4642
526.7906,124.0944
527.2728,123.4882
527.7549,123.1139
528.237,123.2461
528.7191,123.4893
529.2012,123.288
529.6833,122.6748
530.1655,122.1656
530.6476,121.9761
531.1297,121.7835
531.6118,121.1081
532.0939,120.0315
532.576,119.1803
533.0582,118.8034
533.5403,118.5876
534.0224,118.2132
534.5045,117.7906
534.9866,117.7955
535.4688,118.4954
535.9509,119.3543
536.433,119.337
536.9151,117.9342
537.3972,116.8401
537.8793,116.324
538.3615,115.8346
538.8436,114.9542
539.3257,113.8585
539.8078,113.006
540.2899,112.664
540.772,112.6517
541.2542,112.5984
541.7363,112.5598
542.2184,112.2848
542.7005,111.4673
543.1826,110.6261
543.6647,110.0469
544.1469,109.7105
544.629,109.4614
545.1111,109.3077
545.5932,109.1345
546.0753,108.7396
546.5574,108.1311
547.0396,107.4869
547.5217,106.828
548.0038,106.2305
548.4859,105.8712
548.968,105.7838
549.4501,105.5604
549.9323,104.9697
550.4144,104.345
550.8965,104.0028
551.3786,103.8727
551.8607,103.6556
552.3428,103.1851
552.825,102.5592
553.3071,102.0195
553.7892,101.6104
554.2713,101.207
554.7534,100.9295
555.2355,100.5493
555.7177,99.76637
556.1998,98.76434
556.6819,98.04554
557.164,97.96717
557.6461,98.23054
558.1282,98.19872
558.6104,97.83904
559.0925,97.38067
559.5746,96.71254
560.0567,96.13482
560.5388,95.98366
561.0209,96.19524
561.5031,96.30088
561.9852,96.10337
562.4673,95.73665
562.9494,95.22832
563.4315,94.64005
563.9136,94.30051
564.3958,94.40078
564.8779,94.62439
565.36,94.39195
565.8421,93.41589
566.3242,92.8199
566.8063,93.00397
567.2885,93.17921
567.7706,92.80649
568.2527,92.08916
568.7348,91.50117
569.2169,91.27156
569.699,91.29932
570.1812,91.46256
570.6633,91.87294
571.1454,91.9545
571.6275,91.35368
572.1096,90.72757
572.5917,90.43192
573.0739,90.36332
573.556,90.26754
574.0381,90.05843
574.5202,89.76407
575.0023,89.34824
575.4844,88.85034
575.9666,88.50133
576.4487,88.36891
576.9308,88.35669
577.4129,88.35799
577.895,88.37721
578.3771,88.53133
578.8593,89.00322
579.3414,89.41613
579.8235,89.70384
580.3056,89.78896
580.7877,89.42791
581.2698,88.58665
581.752,87.74151
582.2341,87.54601
582.7162,88.09612
583.1984,88.35282
583.6805,88.01022
584.1626,87.74848
584.6447,87.89384
585.1268,88.15953
585.6089,88.15439
586.0911,87.77086
586.5732,87.34306
587.0553,87.16768
587.5374,87.20162
588.0195,87.32038
588.5016,87.54468
588.9838,87.69688
589.4659,87.65575
589.948,87.45699
590.4301,87.20963
590.9122,86.78362
591.3943,86.56602
591.8765,87.01938
592.3586,87.53347
592.8407,87.26493
593.3228,86.26933
593.8049,85.43047
594.287,85.44166
594.7692,86.07277
595.2513,86.21529
595.7334,85.41629
596.2155,84.93182
596.6976,85.0789
597.1797,85.38927
597.6619,85.64542
598.144,85.78539
598.6261,85.72074
599.1082,85.25197
599.5903,84.68167
600.0724,84.67031
600.5546,85.22087
601.0367,85.56445
601.5188,85.38695
602.0009,85.0142
602.483,84.8617
602.9651,84.92058
603.4473,84.93299
603.9294,84.89361
604.4115,84.7682
604.8936,84.35569
605.3757,83.87218
605.8578,83.83064
606.34,84.40675
606.8221,85.13818
607.3042,85.34221
607.7863,84.91479
608.2684,84.64796
608.7505,84.73108
609.2327,84.75781
609.7148,84.52165
610.1969,84.20424
610.679,84.04391
611.1611,84.10801
611.6432,84.24686
612.1254,84.36211
612.6075,84.44611
613.0896,84.47253
613.5717,84.4377
614.0538,84.35461
614.5359,84.21459
615.0181,84.03862
615.5002,83.87695
615.9823,83.65982
616.4644,83.60123
616.9465,83.96187
617.4286,84.33607
617.9108,84.34529
618.3929,84.02956
618.875,83.61266
619.3571,83.2108
619.8392,82.917
620.3214,83.04601
620.8035,83.81979
621.2856,84.33292
621.7677,84.27598
622.2498,84.13625
622.7319,84.25244
623.2141,84.4873
623.6962,84.44516
624.1783,83.84126
624.6604,83.15383
625.1425,82.83578
625.6246,82.81963
626.1068,82.91523
626.5889,83.09445
627.071,83.26676
627.5531,83.36622
628.0352,83.39017
628.5173,83.25745
628.9995,82.72938
629.4816,82.3731
629.9637,82.41237
630.4458,82.60873
630.9279,82.75515
631.41,82.80991
631.8922,82.81446
632.3743,82.79365
632.8564,82.75529
633.3385,82.7329
633.8206,82.73353
634.3027,82.71425
634.7849,82.605
635.267,82.52699
635.7491,82.62466
636.2312,82.87882
636.7133,83.08428
637.1954,83.14661
637.6776,83.16591
638.1597,83.25613
638.6418,83.36581
639.1239,83.31725
639.606,83.05334
640.0881,82.80244
640.5703,82.88633
641.0524,83.35658
641.5345,83.56212
642.0166,83.17986
642.4987,82.91067
642.9808,82.97718
643.463,83.17484
643.9451,83.29976
644.4272,83.31255
644.9093,83.29169
645.3914,83.31921
645.8735,83.35338
646.3557,83.20794
646.8378,82.86597
647.3199,82.82236
647.802,83.42886
648.2841,84.22874
648.7662,84.4362
649.2484,83.9237
649.7305,83.56792
650.2126,83.47018
650.6947,83.5113
651.1768,83.72279
651.6589,84.00086
652.1411,84.1592
652.6232,84.13858
653.1053,84.07258
653.5874,84.11853
654.0695,84.27624
654.5516,84.54275
655.0338,84.9917
655.5159,85.3978
655.998,85.6002
656.4801,85.73855
656.9622,85.99551
657.4443,86.40781
657.9265,86.715
658.4086,86.62522
658.8907,86.49129
659.3728,86.79801
659.8549,87.4465
660.337,87.92662
660.8192,87.99557
661.3013,87.86202
661.7834,87.87823
662.2655,88.05973
662.7476,88.33423
663.2297,88.88998
663.7119,89.33286
664.194,89.48753
664.6761,89.48253
665.1582,89.45245
665.6403,89.43327
666.1224,89.51165
666.6046,89.74551
667.0867,90.13245
667.5688,90.82152
668.0509,91.81986
668.533,92.39282
669.0151,92.03419
669.4973,91.24916
669.9794,91.08926
670.4615,91.96714
670.9436,92.33904
671.4257,91.69267
671.9078,91.03231
672.39,90.9091
672.8721,91.12174
673.3542,91.31465
673.8363,91.35324
674.3184,91.23841
674.8005,90.90696
675.2827,90.38744
675.7648,89.99372
676.2469,89.77649
676.729,89.53423
677.2111,89.15739
677.6932,88.70442
678.1754,88.31911
678.6575,88.05552
679.1396,87.57122
679.6217,86.35223
680.1038,85.26275
680.5859,85.1666
681.0681,85.70295
681.5502,85.99555
682.0323,85.69813
682.5144,85.09856
682.9965,84.5524
683.4786,84.05051
683.9608,83.79819
684.4429,84.00225
684.925,84.08346
685.4071,83.63394
685.8892,83.03539
686.3713,82.72787
686.8535,82.76839
687.3356,82.75764
687.8177,82.45051
688.2998,82.06392
688.7819,81.81355
689.264,81.67861
689.7462,81.55322
690.2283,81.39428
690.7104,81.25357
691.1925,81.21117
691.6746,81.27958
692.1567,81.33413
692.6389,81.3771
693.121,81.40318
693.6031,81.33573
694.0852,81.29839
694.5673,81.50436
695.0494,81.94895
695.5316,82.2184
696.0137,81.88555
696.4958,81.3581
696.9779,81.21886
697.46,81.38937
697.9421,81.43542
698.4243,81.18851
698.9064,80.92259
699.3885,81.00233
699.8706,81.46529
700.3527,81.78329
700.8348,81.93106
701.317,81.95822
701.7991,81.76614
702.2812,81.52741
702.7633,81.37736
703.2454,81.33944
703.7275,81.39567
704.2097,81.5612
704.6918,81.79163
705.1739,82.0649
705.656,82.3604
706.1381,82.50978
706.6202,82.44765
707.1024,82.33607
707.5845,82.34762
708.0666,82.47865
708.5487,82.52741
709.0308,82.36065
709.5129,82.29178
709.9951,82.45116
710.4772,82.66177
710.9593,82.76668
711.4414,82.77531
711.9235,82.79936
712.4056,82.90675
712.8878,83.05769
713.3699,83.20706
713.852,83.35045
714.3341,83.41826
714.8162,83.36669
715.2983,83.42242
715.7805,83.8756
716.2626,84.59224
716.7447,84.79402
717.2268,83.83347
717.7089,83.32072
718.191,83.82676
718.6732,84.43931
719.1553,84.47901
719.6374,84.07354
720.1195,83.70696
720.6016,83.62223
721.0837,83.58326
721.5659,83.17722
722.048,82.50789
722.5301,82.18888
723.0122,82.31712
723.4943,82.57563
723.9764,82.82127
724.4586,83.03585
724.9407,83.17086
725.4228,83.20129
725.9049,83.21484
726.387,83.32879
726.8691,83.31297
727.3513,82.88377
727.8334,82.28638
728.3155,81.96227
728.7976,82.04903
729.2797,82.24181
729.7618,82.22075
730.244,82.04382
730.7261,81.93537
731.2082,81.90869
731.6903,81.82462
732.1724,81.6145
732.6545,81.34029
733.1367,81.06364
733.6188,80.76013
734.1009,80.62971
734.583,80.82974
735.0651,81.01176
735.5472,81.08158
736.0294,81.05532
736.5115,80.90491
736.9936,80.66261
737.4757,80.49074
737.9578,80.56643
738.4399,80.73716
738.9221,80.64628
739.4042,80.31627
739.8863,80.09766
740.3684,80.08389
740.8505,80.17809
741.3326,80.32787
741.8148,80.5183
742.2969,80.57314
742.779,80.32033
743.2611,80.18152
743.7432,80.21895
744.2253,80.37558
744.7075,80.67582
745.1896,81.05513
745.6717,81.39455
746.1538,81.66055
746.6359,81.76789
747.118,81.52322
747.6002,81.03055
748.0823,80.63577
748.5644,80.37448
749.0465,80.28737
749.5286,80.43446
750.0107,80.71726
750.4929,80.90224
750.975,80.94029
751.4571,81.00163
751.9392,81.20984
752.4213,81.30216
752.9034,80.96852
753.3856,80.54984
753.8677,80.59485
754.3498,81.20267
754.8319,81.76656
755.314,81.76543
755.7961,81.47195
756.2783,81.30981
756.7604,81.27061
757.2425,81.27435
757.7246,81.30293
758.2067,81.26519
758.6888,80.99744
759.171,80.50388
759.6531,80.50111
760.1352,81.58737
760.6173,82.24678
761.0994,81.83613
761.5815,81.30516
762.0637,81.54153
762.5458,82.30624
763.0279,82.56233
763.51,81.63381
763.9921,80.58171
764.4742,80.28822
764.9564,80.47491
765.4385,80.73703
765.9206,80.97849
766.4027,81.02384
766.8848,80.74648
767.3669,80.27524
767.8491,79.89401
768.3312,79.58524
768.8133,79.44312
769.2954,79.58474
769.7775,79.73289
770.2596,79.77508
770.7418,79.74888
771.2239,79.72959
771.706,79.74023
772.1881,79.58591
772.6702,79.02016
773.1523,78.41706
773.6345,78.11206
774.1166,77.99771
774.5987,77.81661
775.0808,77.50506
775.5629,77.22097
776.045,77.14169
776.5272,77.21207
777.0093,77.1526
777.4914,76.93063
777.9735,76.76211
778.4556,76.72994
778.9377,76.7122
779.4199,76.61109
779.902,76.43259
780.3841,76.20906
780.8662,75.93624
781.3483,75.62556
781.8304,75.20264
782.3126,74.80394
782.7947,74.52319
783.2768,74.36487
783.7589,74.34535
784.241,74.47951
784.7231,74.60266
785.2053,74.48573
785.6874,74.18642
786.1695,73.94493
786.6516,73.77863
787.1337,73.54995
787.6158,73.18924
788.098,72.75833
788.5801,72.31889
789.0622,71.83693
789.5443,71.59205
790.0264,71.8573
790.5085,72.00326
790.9907,71.8084
791.4728,71.49825
791.9549,71.28655
792.437,71.17117
792.9191,71.01253
793.4012,70.73512
793.8834,70.40083
794.3655,69.97133
794.8476,69.55514
795.3297,69.48603
795.8118,69.75719
796.2939,69.87492
796.7761,69.49615
797.2582,68.8502
797.7403,68.48559
798.2224,68.44511
798.7045,68.51637
799.1866,68.86836
799.6688,69.06184
800.1509,68.78757
800.633,68.29943
801.1151,67.86466
801.5972,67.49861
802.0793,67.22594
802.5615,67.10942
803.0436,67.03278
803.5257,66.95482
804.0078,66.8577
804.4899,66.71946
804.972,66.53795
805.4542,66.32029
805.9363,66.05622
806.4184,65.78971
806.9005,65.67365
807.3826,65.69396
807.8647,65.46619
808.3469,64.84298
808.829,64.36701
809.3111,64.48608
809.7932,64.9846
810.2753,65.2003
810.7574,64.98773
811.2396,64.78147
811.7217,64.49741
812.2038,64.31224
812.6859,64.3903
813.168,64.56889
813.6501,64.60906
814.1323,64.47285
814.6144,64.36089
815.0965,64.48228
815.5786,64.62582
816.0607,64.51101
816.5428,64.22177
817.025,63.9553
817.5071,63.76606
817.9892,63.69581
818.4713,63.80918
818.9534,64.01164
819.4355,63.92201
819.9177,63.44307
820.3998,63.12453
820.8819,63.07677
821.364,63.10786
821.8461,63.10574
822.3282,63.10505
822.8104,63.20379
823.2925,63.47394
823.7746,63.57309
824.2567,63.25354
824.7388,62.93887
825.2209,62.88715
825.7031,62.98872
826.1852,63.05264
826.6673,63.05298
827.1494,63.14251
827.6315,63.50745
828.1136,63.95186
828.5958,64.15714
829.0779,64.14619
829.56,63.99524
830.0421,63.71448
830.5242,63.45552
831.0063,63.32433
831.4885,63.30418
831.9706,63.35128
832.4527,63.49451
832.9348,63.6315
833.4169,63.84884
833.899,63.94392
834.3812,63.69225
834.8633,63.36065
835.3454,63.33317
835.8275,63.65429
836.3096,63.85655
836.7917,63.61692
837.2739,63.39561
837.756,63.56264
838.2381,63.88557
838.7202,64.03321
839.2023,63.96656
839.6844,63.82383
840.1666,63.67769
840.6487,63.57483
841.1308,63.64709
841.6129,63.85793
842.095,63.941
842.5771,63.86183
843.0593,63.73204
843.5414,63.59156
844.0235,63.4795
844.5056,63.48196
844.9877,63.64227
845.4698,63.70006
845.952,63.66715
846.4341,63.51057
846.9162,62.95586
847.3983,62.48075
847.8804,62.59469
848.3625,63.21495
848.8447,63.77068
849.3268,64.18344
849.8089,64.33367
850.291,63.91065
850.7731,63.35118
851.2552,63.15981
851.7374,63.32058
852.2195,63.63475
852.7016,64.01114
853.1837,64.29949
853.6658,64.19606
854.1479,63.82142
854.6301,63.81421
855.1122,64.19151
855.5943,64.45448
856.0764,64.4202
856.5585,64.271
857.0406,64.20406
857.5228,64.20624
858.0049,64.10404
858.487,63.71667
858.9691,63.53732
859.4512,63.82214
859.9333,64.10035
860.4155,63.99087
860.8976,63.73996
861.3797,63.90173
861.8618,64.68084
862.3439,65.21714
862.826,64.86518
863.3082,64.40673
863.7903,64.50478
864.2724,64.92192
864.7545,65.24214
865.2366,65.35661
865.7188,65.325
866.2009,65.1513
866.683,64.93737
867.1651,64.87292
867.6472,64.94643
868.1293,65.13737
868.6115,65.45196
869.0936,65.64249
869.5757,65.52685
870.0578,65.28297
870.5399,65.30119
871.022,65.67626
871.5042,65.83197
871.9863,65.664
872.4684,65.44429
872.9505,65.09536
873.4326,64.8496
873.9147,64.979
874.3969,65.42984
874.879,65.83094
875.3611,66.18335
875.8432,66.37685
876.3253,66.25093
876.8074,66.05435
877.2896,65.97524
877.7717,66.0144
878.2538,66.12695
878.7359,66.29562
879.218,66.49076
879.7001,66.74058
880.1823,66.97086
880.6644,67.02357
881.1465,66.92745
881.6286,66.8047
882.1107,66.68899
882.5928,66.58517
883.075,66.50168
883.5571,66.42756
884.0392,66.28658
884.5213,66.0225
885.0034,66.07226
885.4855,66.68706
885.9677,67.11591
886.4498,66.87318
886.9319,66.29299
887.414,65.91534
887.8961,65.75578
888.3782,65.70699
888.8604,65.80241
889.3425,65.96397
889.8246,66.33175
890.3067,66.62999
890.7888,66.49383
891.2709,66.07211
891.7531,65.92142
892.2352,66.35016
892.7173,66.70935
893.1994,66.42878
893.6815,65.93302
894.1636,65.68668
894.6458,65.66206
895.1279,65.66299
895.61,65.63683
896.0921,65.76441
896.5742,66.33572
897.0563,67.0705
897.5385,67.12503
898.0206,66.55963
898.5027,66.16602
898.9848,66.08649
899.4669,66.1518
899.949,66.29743
900.4312,66.42107
900.9133,66.24309
901.3954,65.61495
901.8775,65.39016
902.3596,65.83915
902.8417,66.2338
903.3239,66.4171
903.806,66.39436
904.2881,65.98909
904.7702,65.31643
905.2523,65.11142
905.7344,65.93183
906.2166,66.5302
906.6987,66.49194
907.1808,66.24404
907.6629,66.05697
908.145,65.89982
908.6271,65.58042
909.1093,65.06878
909.5914,64.80025
910.0735,65.34964
910.5556,66.0629
911.0377,66.15152
911.5198,65.8708
912.002,65.75999
912.4841,65.88934
912.9662,66.00475
913.4483,65.93987
913.9304,65.82051
914.4125,65.88804
914.8947,66.11109
915.3768,66.24545
915.8589,66.28129
916.341,66.19147
916.8231,65.921
917.3052,65.70343
917.7874,65.80447
918.2695,66.20065
918.7516,66.70514
919.2337,67.58224
919.7158,67.92084
920.1979,67.30502
920.6801,66.56249
921.1622,66.04679
921.6443,65.73479
922.1264,65.65407
922.6085,65.85166
923.0906,65.9351
923.5728,65.69514
924.0549,65.52483
924.537,65.69976
925.0191,65.91049
925.5012,65.76198
925.9833,65.37839
926.4655,65.26458
926.9476,65.6871
927.4297,66.07372
927.9118,65.91086
928.3939,65.5971
928.876,65.58122
929.3582,65.78309
929.8403,65.98332
930.3224,66.11385
930.8045,66.20288
931.2866,66.30753
931.7687,66.31418
932.2509,65.85095
932.733,65.07912
933.2151,64.81264
933.6972,65.11793
934.1793,65.33681
934.6614,65.1218
935.1436,64.85046
935.6257,65.13984
936.1078,65.94138
936.5899,66.21788
937.072,65.84331
937.5541,65.43304
938.0363,65.07234
938.5184,64.7805
939.0005,64.56743
939.4826,64.43571
939.9647,64.39533
940.4468,64.46916
940.929,64.57153
941.4111,64.79539
941.8932,64.92916
942.3753,64.79707
942.8574,64.63696
943.3395,64.74385
943.8217,65.04601
944.3038,65.1474
944.7859,64.92445
945.268,64.56078
945.7501,63.88702
946.2322,63.32288
946.7144,63.18628
947.1965,63.38571
947.6786,63.86793
948.1607,64.54766
948.6428,64.96426
949.1249,64.65415
949.6071,64.17221
950.0892,64.13137
950.5713,64.28345
951.0534,64.18877
951.5355,63.85864
952.0176,63.55669
952.4998,63.40148
952.9819,63.32627
953.464,63.32251
953.9461,63.31136
954.4282,62.88269
954.9103,62.14231
955.3925,62.03201
955.8746,62.75113
956.3567,63.50593
956.8388,63.76942
957.3209,63.62464
957.803,63.13388
958.2852,62.22276
958.7673,61.89748
959.2494,62.3259
959.7315,62.67428
960.2136,62.65998
960.6957,62.54329
961.1779,62.58633
961.66,62.74012
962.1421,62.73419
962.6242,62.45049
963.1063,62.2419
963.5884,62.10151
964.0706,62.0511
964.5527,62.16357
965.0348,62.32422
965.5169,62.42721
965.999,62.46627
966.4811,62.4178
966.9633,62.18583
967.4454,61.99736
967.9275,61.95298
968.4096,61.9174
968.8917,61.80676
969.3738,61.63734
969.856,61.40467
970.3381,61.11657
970.8202,60.96064
971.3023,61.16029
971.7844,61.36781
972.2665,61.33701
972.7487,61.19682
973.2308,61.05806
973.7129,60.95903
974.195,60.9645
974.6771,61.09863
975.1592,61.208
975.6414,61.12938
976.1235,60.96328
976.6056,60.82719
977.0877,60.72483
977.5698,60.66388
978.0519,60.64238
978.5341,60.65906
979.0162,60.71893
979.4983,60.74937
979.9804,60.58922
980.4625,60.31229
980.9446,60.22163
981.4268,60.30645
981.9089,60.42243
982.391,60.53246
982.8731,60.51667
983.3552,60.23696
983.8373,59.89305
984.3195,60.10425
984.8016,60.91779
985.2837,61.14215
985.7658,60.61459
986.2479,60.20875
986.73,60.22509
987.2122,60.48874
987.6943,60.90828
988.1764,61.39346
988.6585,61.42598
989.1406,60.81397
989.6227,60.29478
990.1049,59.85524
990.587,59.57343
991.0691,59.36297
991.5512,59.44651
992.0333,60.39873
992.5154,62.1571
992.9976,62.7891
993.4797,61.18122
993.9618,60.15007
994.4439,60.33887
994.926,60.56609
995.4081,60.11885
995.8903,59.46014
996.3724,59.26664
996.8545,59.57424
997.3366,59.82448
997.8187,59.8995
998.3008,59.92068
998.783,59.90343
999.2651,59.86267
999.7472,59.78682
1000.229,59.70361
1000.711,59.64167
1001.194,59.60899
1001.676,59.65816
1002.158,59.99759
1002.64,60.20317
1003.122,59.9208
1003.604,59.46871
1004.086,59.04509
1004.568,58.76663
1005.05,58.92074
1005.533,59.58083
1006.015,59.99985
1006.497,59.2997
1006.979,58.46961
1007.461,58.57277
1007.943,59.13466
1008.425,59.44807
1008.907,59.47412
1009.39,59.46406
1009.872,59.52575
1010.354,59.58054
1010.836,59.53492
1011.318,59.44447
1011.8,59.32124
1012.282,59.24488
1012.764,59.52277
1013.246,60.10508
1013.729,60.49358
1014.211,60.42444
1014.693,60.1264
1015.175,59.78598
1015.657,59.48418
1016.139,59.50742
1016.621,59.80062
1017.103,60.14614
1017.586,60.48053
1018.068,60.56973
1018.55,60.24529
1019.032,59.82296
1019.514,59.92039
1019.996,60.42542
1020.478,60.43598
1020.96,59.97127
1021.442,59.82161
1021.925,60.18851
1022.407,60.49926
1022.889,60.3471
1023.371,59.92794
1023.853,59.59766
1024.335,59.35624
1024.817,59.30919
1025.299,59.48261
1025.781,59.65136
1026.264,59.76305
1026.746,59.86543
1027.228,60.02357
1027.71,60.14072
1028.192,59.93035
1028.674,59.30848
1029.156,59.06712
1029.638,59.32663
1030.12,59.57847
1030.603,59.7408
1031.085,59.7566
1031.567,59.54702
1032.049,59.18635
1032.531,58.85192
1033.013,58.50566
1033.495,58.36981
1033.977,58.54152
1034.46,58.72436
1034.942,58.89154
1035.424,58.98061
1035.906,58.89738
1036.388,58.71398
1036.87,58.63078
1037.352,58.64618
1037.834,58.77898
1038.317,59.34654
1038.799,59.53547
1039.281,58.79305
1039.763,57.97896
1040.245,57.73457
1040.727,57.92324
1041.209,58.18608
1041.691,58.61434
1042.173,58.82225
1042.656,58.66777
1043.138,58.47771
1043.62,58.18101
1044.102,58.01376
1044.584,58.28985
1045.066,58.81015
1045.548,59.02829
1046.03,58.79044
1046.512,58.72448
1046.995,59.17505
1047.477,59.43811
1047.959,59.18502
1048.441,58.77728
1048.923,58.48275
1049.405,58.26441
1049.887,57.94126
1050.369,57.40289
1050.852,57.23944
1051.334,58.05719
1051.816,58.61816
1052.298,58.22972
1052.78,57.66027
1053.262,57.52455
1053.744,57.70797
1054.226,57.88598
1054.708,58.01994
1055.191,58.04044
1055.673,57.87896
1056.155,57.66564
1056.637,57.31618
1057.119,57.05712
1057.601,57.12936
1058.083,57.41843
1058.565,57.70319
1059.047,57.94781
1059.53,58.05536
1060.012,57.87491
1060.494,57.70279
1060.976,57.73782
1061.458,57.76583
1061.94,57.50924
1062.422,57.14464
1062.904,57.0722
1063.387,57.36523
1063.869,57.57688
1064.351,57.42907
1064.833,57.31174
1065.315,57.44041
1065.797,57.63329
1066.279,57.85785
1066.761,57.98365
1067.244,57.65895
1067.726,56.88053
1068.208,56.49973
1068.69,57.26186
1069.172,57.95438
1069.654,57.94417
1070.136,57.72299
1070.618,57.69373
1071.1,57.72919
1071.583,57.52418
1072.065,57.06869
1072.547,56.72194
1073.029,56.67632
1073.511,56.68242
1073.993,56.61908
1074.475,56.56633
1074.957,56.56384
1075.439,56.62484
1075.922,56.82296
1076.404,57.11853
1076.886,57.25914
1077.368,57.07529
1077.85,56.89638
1078.332,56.91536
1078.814,56.95314
1079.297,56.90802
1079.779,56.78408
1080.261,56.52549
1080.743,56.19416
1081.225,56.06157
1081.707,56.3064
1082.189,56.45702
1082.671,56.16595
1083.153,55.85951
1083.635,55.87345
1084.118,55.98322
1084.6,55.92031
1085.082,55.69854
1085.564,55.44751
1086.046,55.17719
1086.528,55.03065
1087.01,55.16957
1087.492,55.32787
1087.975,55.39284
1088.457,55.37565
1088.939,55.25793
1089.421,55.08176
1089.903,54.95691
1090.385,54.91925
1090.867,54.7827
1091.349,54.28149
1091.832,53.91732
1092.314,54.01403
1092.796,54.26094
1093.278,54.4595
1093.76,54.57991
1094.242,54.60756
1094.724,54.54117
1095.206,54.43516
1095.688,54.29805
1096.171,54.13614
1096.653,53.86401
1097.135,53.65817
1097.617,53.73372
1098.099,53.90302
1098.581,53.86057
1099.063,53.59639
1099.545,53.39254
1100.027,53.43462
1100.51,53.34154
1100.992,52.82716
1101.474,52.36904
1101.956,52.2109
1102.438,52.25941
1102.92,52.47902
1103.402,52.80698
1103.884,52.99911
1104.367,52.96249
1104.849,52.92588
1105.331,52.97495
1105.813,52.9716
1106.295,52.85065
1106.777,52.66462
1107.259,52.41975
1107.741,52.15523
1108.224,51.96971
1108.706,51.87302
1109.188,51.85063
1109.67,51.94165
1110.152,52.05169
1110.634,52.13003
1111.116,52.25038
1111.598,52.57452
1112.08,52.93277
1112.563,52.94825
1113.045,52.55798
1113.527,52.37478
1114.009,52.48273
1114.491,52.66866
1114.973,53.16094
1115.455,53.38923
1115.937,52.87994
1116.419,52.13728
1116.902,51.81184
1117.384,51.87165
1117.866,51.92603
1118.348,52.02705
1118.83,51.98634
1119.312,51.66724
1119.794,51.47861
1120.276,51.66024
1120.759,51.8642
1121.241,51.70102
1121.723,51.33049
1122.205,51.34591
1122.687,51.8639
1123.169,52.25173
1123.651,52.55489
1124.133,52.53151
1124.615,51.99525
1125.098,51.50482
1125.58,51.47703
1126.062,51.67313
1126.544,51.5849
1127.026,51.22738
1127.508,51.42498
1127.99,52.29665
1128.472,52.63342
1128.954,52.17489
1129.437,51.75994
1129.919,51.80981
1130.401,52.03497
1130.883,52.09523
1131.365,52.01077
1131.847,51.78322
1132.329,51.43555
1132.811,51.5393
1133.294,52.11817
1133.776,52.42306
1134.258,52.20399
1134.74,51.81616
1135.222,51.53648
1135.704,51.36217
1136.186,51.34035
1136.668,51.41742
1137.151,51.37973
1137.633,51.23675
1138.115,50.99738
1138.597,50.70467
1139.079,50.65645
1139.561,51.02558
1140.043,51.44469
1140.525,51.40006
1141.007,51.15749
1141.49,51.27201
1141.972,51.57054
1142.454,51.61794
1142.936,51.45872
1143.418,51.49842
1143.9,51.84005
1144.382,52.02713
1144.864,51.57571
1145.346,51.09495
1145.829,51.44542
1146.311,51.98694
1146.793,51.77863
1147.275,51.16601
1147.757,50.92314
1148.239,51.13033
1148.721,51.39662
1149.203,51.58715
1149.686,51.62689
1150.168,51.33652
1150.65,51.02534
1151.132,50.86903
1151.614,50.85726
1152.096,51.04362
1152.578,51.33633
1153.06,51.50652
1153.542,51.49597
1154.025,51.59971
1154.507,52.15108
1154.989,52.50765
1155.471,52.37658
1155.953,52.05203
1156.435,51.56374
1156.917,51.09864
1157.399,50.92589
1157.881,51.02974
1158.364,51.10705
1158.846,51.07546
1159.328,51.11772
1159.81,51.30007
1160.292,51.48618
1160.774,51.72733
1161.256,51.8572
1161.738,51.68082
1162.221,51.3268
1162.703,51.08578
1163.185,50.94869
1163.667,51.03392
1164.149,51.50059
1164.631,51.70844
1165.113,51.49562
1165.595,51.19701
1166.078,50.93801
1166.56,50.78118
1167.042,50.82927
1167.524,51.02195
1168.006,51.06612
1168.488,50.95606
1168.97,50.84212
1169.452,50.72801
1169.934,50.76324
1170.417,50.99505
1170.899,51.22081
1171.381,51.28417
1171.863,51.3084
1172.345,51.59823
1172.827,52.00072
1173.309,51.84806
1173.791,51.31817
1174.273,51.18191
1174.756,51.43819
1175.238,51.40514
1175.72,50.84351
1176.202,50.38176
1176.684,50.60405
1177.166,51.11337
1177.648,51.53583
1178.13,51.83656
1178.613,51.93093
1179.095,51.88123
1179.577,51.79881
1180.059,51.71037
1180.541,51.59565
1181.023,51.43221
1181.505,51.3322
1181.987,51.41622
1182.469,51.52363
1182.952,51.55186
1183.434,51.54766
1183.916,51.56672
1184.398,51.58887
1184.88,51.57937
1185.362,51.53059
1185.844,51.40232
1186.326,50.97835
1186.808,50.79559
1187.291,51.19377
1187.773,51.54695
1188.255,51.53109
1188.737,51.39031
1189.219,51.38226
1189.701,51.4351
1190.183,51.29081
1190.665,50.84587
1191.148,50.76536
1191.63,51.20782
1192.112,51.59342
1192.594,51.88111
1193.076,51.90154
1193.558,51.48065
1194.04,51.00829
1194.522,51.01653
1195.005,51.35679
1195.487,51.38091
1195.969,51.10436
1196.451,50.9266
1196.933,50.87059
1197.415,50.98549
1197.897,51.27285
1198.379,51.51465
1198.861,51.57384
1199.344,51.51756
1199.826,51.4255
1200.308,51.29152
1200.79,51.01751
1201.272,50.72614
1201.754,50.70895
1202.236,50.9319
1202.718,51.22438
1203.2,51.52108
1203.683,51.78272
1204.165,52.03272
1204.647,52.11198
1205.129,51.67299
1205.611,51.25308
1206.093,51.4568
1206.575,51.84336
1207.057,51.84169
1207.54,51.52772
1208.022,51.26499
1208.504,51.12832
1208.986,51.01738
1209.468,50.80183
1209.95,50.76741
1210.432,51.22869
1210.914,51.58699
1211.396,51.3353
1211.879,51.01001
1212.361,51.26682
1212.843,51.90283
1213.325,52.07145
1213.807,51.63634
1214.289,51.38094
1214.771,51.31665
1215.253,51.43587
1215.735,51.8098
1216.218,51.97561
1216.7,51.64137
1217.182,51.19827
1217.664,51.13952
1218.146,51.34549
1218.628,51.37675
1219.11,51.32041
1219.592,51.83101
1220.075,52.73763
1220.557,52.89289
1221.039,52.15383
1221.521,51.49872
1222.003,51.46897
1222.485,51.67815
1222.967,51.83324
1223.449,51.92238
1223.932,51.8713
1224.414,51.79248
1224.896,51.86974
1225.378,52.02303
1225.86,52.03214
1226.342,51.89882
1226.824,51.91212
1227.306,52.31177
1227.788,52.4609
1228.271,51.80069
1228.753,51.29642
1229.235,51.55871
1229.717,51.94492
1230.199,51.86625
1230.681,51.59674
1231.163,51.74348
1231.645,52.28743
1232.127,52.30912
1232.61,51.57447
1233.092,51.01262
1233.574,50.6364
1234.056,50.58424
1234.538,50.98004
1235.02,51.30643
1235.502,51.14808
1235.984,50.84583
1236.467,51.07017
1236.949,51.6189
1237.431,51.53186
1237.913,50.98009
1238.395,50.68538
1238.877,50.7104
1239.359,50.97533
1239.841,51.41516
1240.323,51.82357
1240.806,52.08978
1241.288,52.15856
1241.77,51.80864
1242.252,51.41115
1242.734,51.30666
1243.216,51.39042
1243.698,51.61351
1244.18,51.86925
1244.662,51.96558
1245.145,51.88127
1245.627,51.80305
1246.109,51.73676
1246.591,51.75728
1247.073,52.0295
1247.555,52.18153
1248.037,51.94174
1248.519,51.72752
1249.002,51.90461
1249.484,52.22525
1249.966,52.21319
1250.448,51.89524
1250.93,51.74467
1251.412,51.7761
1251.894,51.8385
1252.376,51.92498
1252.859,51.89215
1253.341,51.69773
1253.823,51.46106
1254.305,51.25205
1254.787,51.16343
1255.269,51.41766
1255.751,51.80758
1256.233,51.95835
1256.715,51.95465
1257.198,51.82211
1257.68,51.7184
1258.162,52.15422
1258.644,53.05561
1259.126,53.40321
1259.608,52.5857
1260.09,51.87896
1260.572,52.06328
1261.054,52.25063
1261.537,51.87146
1262.019,51.48499
1262.501,51.59688
1262.983,51.94386
1263.465,52.09909
1263.947,52.07947
1264.429,52.03646
1264.911,51.92595
1265.394,51.98526
1265.876,52.31115
1266.358,52.30107
1266.84,51.74672
1267.322,51.41205
1267.804,51.74253
1268.286,52.26126
1268.768,52.41618
1269.25,52.29687
1269.733,51.93391
1270.215,51.53316
1270.697,51.79786
1271.179,52.42406
1271.661,52.44128
1272.143,51.88463
1272.625,51.62443
1273.107,51.98641
1273.589,52.33886
1274.072,52.31503
1274.554,52.17271
1275.036,51.88144
1275.518,51.6942
1276.0,51.86256
1276.482,52.1576
1276.964,52.36209
1277.446,52.47055
1277.929,52.4907
1278.411,52.41936
1278.893,52.2922
1279.375,52.09261
1279.857,51.88971
1280.339,51.67154
1280.821,51.56651
1281.303,51.62923
1281.786,51.7794
1282.268,51.95251
