Raman Shift,Intensity
142.016,1332.0
143.401,1388.0
144.787,1312.0
146.172,1320.0
147.557,1294.0
148.942,1284.0
150.327,1320.0
151.711,1344.0
153.096,1382.0
154.48,1392.0
155.863,1441.0
157.247,1487.0
158.63,1498.0
160.013,1457.0
161.396,1449.0
162.779,1405.0
164.161,1393.0
165.544,1403.0
166.926,1383.0
168.308,1366.0
169.689,1359.0
171.07,1335.0
172.452,1352.0
173.833,1351.0
175.213,1352.0
176.594,1363.0
177.974,1368.0
179.354,1351.0
180.734,1378.0
182.114,1388.0
183.493,1402.0
184.872,1417.0
186.251,1408.0
187.63,1423.0
189.008,1444.0
190.387,1460.0
191.765,1487.0
193.143,1529.0
194.52,1541.0
195.898,1586.0
197.275,1686.0
198.652,1724.0
200.029,1834.0
201.405,2004.0
202.782,2139.0
204.158,2325.0
205.534,2482.0
206.909,2658.0
208.285,2836.0
209.66,2862.0
211.035,2868.0
212.41,2863.0
213.784,2649.0
215.159,2502.0
216.533,2304.0
217.907,2238.0
219.281,2059.0
220.654,1952.0
222.027,1902.0
223.4,1835.0
224.773,1810.0
226.146,1819.0
227.518,1773.0
228.891,1821.0
230.263,1814.0
231.634,1782.0
233.006,1836.0
234.377,1798.0
235.748,1748.0
237.119,1705.0
238.49,1717.0
239.86,1680.0
241.231,1639.0
242.601,1603.0
243.97,1596.0
245.34,1541.0
246.709,1584.0
248.079,1536.0
249.448,1531.0
250.816,1565.0
252.185,1554.0
253.553,1550.0
254.921,1552.0
256.289,1530.0
257.657,1562.0
259.024,1534.0
260.391,1526.0
261.758,1520.0
263.125,1579.0
264.492,1569.0
265.858,1580.0
267.224,1550.0
268.59,1554.0
269.956,1588.0
271.321,1606.0
272.687,1612.0
274.052,1606.0
275.416,1623.0
276.781,1607.0
278.146,1636.0
279.51,1658.0
280.874,1664.0
282.237,1675.0
283.601,1710.0
284.964,1754.0
286.327,1729.0
287.69,1750.0
289.053,1817.0
290.416,1825.0
291.778,1835.0
293.14,1904.0
294.502,1930.0
295.863,1999.0
297.225,2005.0
298.586,2062.0
299.947,2113.0
301.308,2147.0
302.668,2174.0
304.029,2123.0
305.389,2103.0
306.749,2101.0
308.108,2048.0
309.468,2052.0
310.827,1986.0
312.186,1964.0
313.545,1892.0
314.903,1846.0
316.262,1883.0
317.62,1831.0
318.978,1784.0
320.336,1770.0
321.693,1778.0
323.051,1724.0
324.408,1674.0
325.765,1712.0
327.121,1666.0
328.478,1652.0
329.834,1630.0
331.19,1635.0
332.546,1643.0
333.902,1645.0
335.257,1651.0
336.612,1639.0
337.967,1624.0
339.322,1652.0
340.677,1616.0
342.031,1627.0
343.385,1641.0
344.739,1652.0
346.093,1610.0
347.446,1609.0
348.799,1647.0
350.153,1629.0
351.505,1623.0
352.858,1645.0
354.21,1616.0
355.563,1630.0
356.915,1615.0
358.267,1603.0
359.618,1632.0
360.969,1649.0
362.321,1616.0
363.672,1633.0
365.022,1597.0
366.373,1621.0
367.723,1651.0
369.073,1638.0
370.423,1611.0
371.773,1623.0
373.122,1653.0
374.471,1638.0
375.821,1664.0
377.169,1678.0
378.518,1706.0
379.866,1689.0
381.215,1682.0
382.563,1676.0
383.91,1705.0
385.258,1689.0
386.605,1707.0
387.952,1712.0
389.299,1707.0
390.646,1708.0
391.992,1707.0
393.339,1742.0
394.685,1709.0
396.031,1772.0
397.376,1747.0
398.722,1793.0
400.067,1750.0
401.412,1774.0
402.757,1771.0
404.101,1768.0
405.446,1789.0
406.79,1784.0
408.134,1790.0
409.478,1809.0
410.821,1821.0
412.165,1812.0
413.508,1867.0
414.851,1856.0
416.193,1881.0
417.536,1946.0
418.878,1971.0
420.22,2057.0
421.562,2108.0
422.904,2158.0
424.245,2297.0
425.586,2314.0
426.927,2407.0
428.268,2569.0
429.609,2558.0
430.949,2542.0
432.289,2474.0
433.629,2535.0
434.969,2526.0
436.309,2494.0
437.648,2474.0
438.987,2524.0
440.326,2508.0
441.665,2592.0
443.003,2710.0
444.342,2759.0
445.68,2899.0
447.018,2969.0
448.355,3128.0
449.693,3143.0
451.03,3157.0
452.367,3161.0
453.704,3136.0
455.041,3094.0
456.377,2877.0
457.713,2828.0
459.049,2673.0
460.385,2606.0
461.721,2516.0
463.056,2413.0
464.391,2356.0
465.726,2292.0
467.061,2216.0
468.395,2231.0
469.73,2217.0
471.064,2141.0
472.398,2140.0
473.731,2053.0
475.065,2062.0
476.398,2041.0
477.731,2058.0
479.064,2057.0
480.397,2061.0
481.729,2033.0
483.062,2012.0
484.394,2038.0
485.725,1993.0
487.057,1993.0
488.389,1997.0
489.72,2034.0
491.051,1989.0
492.382,1931.0
493.712,1984.0
495.043,2001.0
496.373,1984.0
497.703,2020.0
499.032,1960.0
500.362,1999.0
501.691,1976.0
503.02,2011.0
504.349,2017.0
505.678,1991.0
507.007,1970.0
508.335,1996.0
509.663,1992.0
510.991,1999.0
512.319,2014.0
513.646,2041.0
514.973,2013.0
516.3,2015.0
517.627,2014.0
518.954,2080.0
520.28,2074.0
521.607,2048.0
522.933,2064.0
524.259,2076.0
525.584,2073.0
526.91,2074.0
528.235,2062.0
529.56,2112.0
530.885,2118.0
532.209,2110.0
533.534,2097.0
534.858,2127.0
536.182,2135.0
537.506,2142.0
538.829,2180.0
540.152,2094.0
541.476,2179.0
542.799,2176.0
544.121,2162.0
545.444,2124.0
546.766,2165.0
548.088,2188.0
549.41,2130.0
550.732,2146.0
552.053,2190.0
553.375,2213.0
554.696,2214.0
556.017,2185.0
557.337,2246.0
558.658,2247.0
559.978,2279.0
561.298,2285.0
562.618,2342.0
563.938,2335.0
565.257,2323.0
566.576,2375.0
567.895,2391.0
569.214,2416.0
570.533,2480.0
571.851,2525.0
573.17,2546.0
574.488,2624.0
575.805,2657.0
577.123,2696.0
578.44,2832.0
579.758,2956.0
581.075,3098.0
582.391,3379.0
583.708,3714.0
585.024,4391.0
586.341,5111.0
587.657,6183.0
588.972,7273.0
590.288,7806.0
591.603,7492.0
592.918,6567.0
594.233,5478.0
595.548,4755.0
596.863,4185.0
598.177,3793.0
599.491,3609.0
600.805,3620.0
602.119,3767.0
603.432,4166.0
604.746,4738.0
606.059,5030.0
607.372,4970.0
608.685,4454.0
609.997,3875.0
611.309,3433.0
612.621,3200.0
613.933,3017.0
615.245,2884.0
616.557,2803.0
617.868,2757.0
619.179,2719.0
620.49,2756.0
621.801,2708.0
623.111,2665.0
624.421,2677.0
625.731,2607.0
627.041,2648.0
628.351,2620.0
629.66,2608.0
630.97,2590.0
632.279,2553.0
633.588,2657.0
634.896,2598.0
636.205,2590.0
637.513,2530.0
638.821,2598.0
640.129,2574.0
641.437,2546.0
642.744,2610.0
644.051,2617.0
645.358,2546.0
646.665,2609.0
647.972,2613.0
649.278,2631.0
650.584,2615.0
651.89,2667.0
653.196,2611.0
654.502,2686.0
655.807,2622.0
657.113,2612.0
658.418,2602.0
659.722,2650.0
661.027,2647.0
662.331,2636.0
663.636,2590.0
664.94,2608.0
666.244,2638.0
667.547,2570.0
668.851,2596.0
670.154,2556.0
671.457,2624.0
672.76,2581.0
674.062,2553.0
675.365,2608.0
676.667,2603.0
677.969,2554.0
679.271,2583.0
680.572,2518.0
681.874,2596.0
683.175,2606.0
684.476,2588.0
685.777,2603.0
687.077,2620.0
688.378,2586.0
689.678,2629.0
690.978,2645.0
692.278,2632.0
693.577,2607.0
694.877,2586.0
696.176,2656.0
697.475,2580.0
698.774,2663.0
700.072,2619.0
701.371,2713.0
702.669,2637.0
703.967,2647.0
705.265,2603.0
706.562,2663.0
707.86,2698.0
709.157,2715.0
710.454,2664.0
711.751,2717.0
713.047,2664.0
714.344,2693.0
715.64,2696.0
716.936,2780.0
718.232,2735.0
719.527,2708.0
720.823,2724.0
722.118,2720.0
723.413,2697.0
724.708,2707.0
726.002,2740.0
727.297,2697.0
728.591,2746.0
729.885,2734.0
731.179,2816.0
732.472,2795.0
733.766,2786.0
735.059,2793.0
736.352,2746.0
737.645,2798.0
738.937,2795.0
740.23,2771.0
741.522,2835.0
742.814,2799.0
744.106,2857.0
745.397,2797.0
746.689,2824.0
747.98,2846.0
749.271,2790.0
750.562,2877.0
751.853,2846.0
753.143,2867.0
754.433,2830.0
755.723,2901.0
757.013,2882.0
758.303,2843.0
759.592,2876.0
760.881,2852.0
762.17,2880.0
763.459,2917.0
764.748,2936.0
766.036,2924.0
767.325,2924.0
768.613,2942.0
769.901,2926.0
771.188,2948.0
772.476,2942.0
773.763,2951.0
775.05,3011.0
776.337,2946.0
777.624,2966.0
778.91,2982.0
780.196,2985.0
781.482,2966.0
782.768,3013.0
784.054,2995.0
785.339,2996.0
786.625,2988.0
787.91,3057.0
789.195,3049.0
790.479,3028.0
791.764,3033.0
793.048,3032.0
794.332,3093.0
795.616,3057.0
796.9,3061.0
798.183,3143.0
799.467,3078.0
800.75,3072.0
802.033,3076.0
803.316,3068.0
804.598,3089.0
805.88,3155.0
807.163,3091.0
808.445,3136.0
809.726,3145.0
811.008,3173.0
812.289,3171.0
813.57,3160.0
814.851,3137.0
816.132,3189.0
817.413,3210.0
818.693,3216.0
819.973,3175.0
821.253,3191.0
822.533,3229.0
823.813,3212.0
825.092,3200.0
826.371,3202.0
827.65,3272.0
828.929,3271.0
830.208,3235.0
831.486,3358.0
832.764,3264.0
834.042,3298.0
835.32,3267.0
836.598,3291.0
837.875,3304.0
839.152,3345.0
840.429,3406.0
841.706,3361.0
842.983,3361.0
844.259,3345.0
845.536,3388.0
846.812,3400.0
848.088,3400.0
849.363,3496.0
850.639,3443.0
851.914,3508.0
853.189,3522.0
854.464,3548.0
855.739,3610.0
857.013,3607.0
858.288,3687.0
859.562,3680.0
860.836,3651.0
862.11,3686.0
863.383,3690.0
864.656,3656.0
865.93,3740.0
867.203,3673.0
868.475,3716.0
869.748,3639.0
871.02,3701.0
872.292,3675.0
873.564,3707.0
874.836,3687.0
876.108,3646.0
877.379,3744.0
878.65,3611.0
879.922,3756.0
881.192,3733.0
882.463,3765.0
883.733,3796.0
885.004,3792.0
886.274,3771.0
887.544,3747.0
888.813,3749.0
890.083,3795.0
891.352,3786.0
892.621,3776.0
893.89,3785.0
895.159,3754.0
896.427,3786.0
897.695,3770.0
898.964,3793.0
900.232,3857.0
901.499,3774.0
902.767,3836.0
904.034,3846.0
905.301,3919.0
906.568,3848.0
907.835,3899.0
909.102,4002.0
910.368,3966.0
911.634,3916.0
912.9,3952.0
914.166,4018.0
915.432,4029.0
916.697,4039.0
917.962,4039.0
919.227,4028.0
920.492,4084.0
921.757,4110.0
923.021,4092.0
924.285,4161.0
925.55,4178.0
926.813,4204.0
928.077,4260.0
929.341,4265.0
930.604,4323.0
931.867,4308.0
933.13,4403.0
934.393,4398.0
935.655,4421.0
936.918,4520.0
938.18,4482.0
939.442,4651.0
940.703,4694.0
941.965,4812.0
943.226,4905.0
944.488,5031.0
945.749,5255.0
947.009,5521.0
948.27,5824.0
949.53,5981.0
950.791,6250.0
952.051,6700.0
953.311,7259.0
954.57,8097.0
955.83,9474.0
957.089,11814.0
958.348,15375.0
959.607,21477.0
960.866,30374.0
962.124,43926.0
963.383,56920.0
964.641,62008.0
965.899,54464.0
967.156,41076.0
968.414,29957.0
969.671,21891.0
970.928,16585.0
972.185,13337.0
973.442,10944.0
974.699,9227.0
975.955,7879.0
977.211,7004.0
978.468,6359.0
979.723,5903.0
980.979,5612.0
982.234,5418.0
983.49,5140.0
984.745,5186.0
986.0,4984.0
987.254,4990.0
988.509,4926.0
989.763,4900.0
991.017,4879.0
992.271,4840.0
993.525,4804.0
994.779,4834.0
996.032,4807.0
997.285,4808.0
998.538,4897.0
999.791,4881.0
1001.044,4874.0
1002.296,5055.0
1003.548,5052.0
1004.8,5161.0
1006.052,5336.0
1007.304,5396.0
1008.555,5665.0
1009.807,5715.0
1011.058,5717.0
1012.309,5723.0
1013.559,5638.0
1014.81,5540.0
1016.06,5384.0
1017.31,5250.0
1018.56,5207.0
1019.81,5244.0
1021.06,5236.0
1022.309,5348.0
1023.558,5358.0
1024.807,5271.0
1026.056,5498.0
1027.305,5423.0
1028.553,5479.0
1029.801,5545.0
1031.049,5614.0
1032.297,5673.0
1033.545,5694.0
1034.793,5795.0
1036.04,5938.0
1037.287,5997.0
1038.534,6165.0
1039.781,6356.0
1041.027,6558.0
1042.274,6928.0
1043.52,6866.0
1044.766,7258.0
1046.012,7613.0
1047.257,8284.0
1048.503,9407.0
1049.748,11233.0
1050.993,13385.0
1052.238,14322.0
1053.483,13993.0
1054.727,12529.0
1055.971,10841.0
1057.216,9533.0
1058.459,8774.0
1059.703,8027.0
1060.947,7475.0
1062.19,7107.0
1063.433,6782.0
1064.676,6646.0
1065.919,6466.0
1067.162,6300.0
1068.404,6266.0
1069.646,6344.0
1070.888,6219.0
1072.13,6289.0
1073.372,6416.0
1074.613,6597.0
1075.855,7097.0
1077.096,7651.0
1078.337,8248.0
1079.578,8844.0
1080.818,8974.0
1082.059,8768.0
1083.299,8259.0
1084.539,7885.0
1085.779,7473.0
1087.018,7180.0
1088.258,6890.0
1089.497,6606.0
1090.736,6458.0
1091.975,6237.0
1093.213,6090.0
1094.452,6041.0
1095.69,5837.0
1096.928,5869.0
1098.166,5763.0
1099.404,5724.0
1100.642,5666.0
1101.879,5668.0
1103.116,5633.0
1104.353,5581.0
1105.59,5627.0
1106.827,5612.0
1108.063,5485.0
1109.299,5610.0
1110.536,5655.0
1111.771,5544.0
1113.007,5586.0
1114.243,5480.0
1115.478,5579.0
1116.713,5633.0
1117.948,5616.0
1119.183,5714.0
1120.418,5702.0
1121.652,5645.0
1122.886,5735.0
1124.12,5723.0
1125.354,5683.0
1126.588,5714.0
1127.821,5667.0
1129.055,5683.0
1130.288,5701.0
1131.521,5767.0
1132.753,5809.0
1133.986,5802.0
1135.218,5747.0
1136.45,5804.0
1137.682,5920.0
1138.914,5833.0
1140.146,5916.0
1141.377,5811.0
1142.609,5790.0
1143.84,5831.0
1145.071,5915.0
1146.301,5910.0
1147.532,5959.0
1148.762,5975.0
1149.992,6020.0
1151.222,6061.0
1152.452,5998.0
1153.682,6042.0
1154.911,6008.0
1156.14,6042.0
1157.369,6091.0
1158.598,6029.0
1159.827,6034.0
1161.055,6000.0
1162.284,6090.0
1163.512,6066.0
1164.74,6095.0
1165.967,6046.0
1167.195,6008.0
1168.422,5928.0
1169.65,6125.0
1170.877,6078.0
1172.103,6006.0
1173.33,6091.0
1174.557,6132.0
1175.783,6088.0
1177.009,6150.0
1178.235,6178.0
1179.461,6154.0
1180.686,6188.0
1181.912,6146.0
1183.137,6085.0
1184.362,6223.0
1185.587,6200.0
1186.811,6204.0
1188.036,6226.0
1189.26,6241.0
1190.484,6235.0
1191.708,6321.0
1192.932,6261.0
1194.155,6278.0
1195.378,6223.0
1196.602,6300.0
1197.825,6303.0
1199.047,6370.0
1200.27,6316.0
1201.492,6393.0
1202.715,6295.0
1203.937,6408.0
1205.159,6372.0
1206.38,6435.0
1207.602,6514.0
1208.823,6462.0
1210.044,6420.0
1211.265,6455.0
1212.486,6436.0
1213.707,6419.0
1214.927,6576.0
1216.147,6532.0
1217.367,6589.0
1218.587,6663.0
1219.807,6745.0
1221.027,6718.0
1222.246,6675.0
1223.465,6770.0
1224.684,6731.0
1225.903,6818.0
1227.121,6742.0
1228.34,6858.0
1229.558,6811.0
1230.776,6894.0
1231.994,6914.0
1233.212,6850.0
1234.429,6860.0
1235.646,6884.0
1236.864,6848.0
1238.081,6867.0
1239.297,6962.0
1240.514,6873.0
1241.73,7025.0
1242.947,6953.0
1244.163,6914.0
1245.378,6896.0
1246.594,6913.0
1247.81,6941.0
1249.025,6942.0
1250.24,6916.0
1251.455,6968.0
1252.67,6932.0
1253.885,6971.0
1255.099,6935.0
1256.313,6920.0
1257.527,6929.0
1258.741,6936.0
1259.955,6986.0
1261.168,6970.0
1262.382,6876.0
1263.595,7027.0
1264.808,7074.0
1266.021,6973.0
1267.233,7036.0
1268.446,7046.0
1269.658,7067.0
1270.87,7106.0
1272.082,7032.0
1273.294,7088.0
1274.505,7142.0
1275.716,7174.0
1276.928,7123.0
1278.139,7195.0
1279.349,7198.0
1280.56,7235.0
1281.77,7252.0
1282.981,7280.0
1284.191,7356.0
1285.401,7211.0
1286.61,7326.0
1287.82,7332.0
1289.029,7321.0
1290.239,7367.0
1291.448,7382.0
1292.656,7377.0
1293.865,7396.0
1295.073,7400.0
1296.282,7460.0
1297.49,7435.0
1298.698,7445.0
1299.906,7514.0
1301.113,7526.0
1302.32,7503.0
1303.528,7558.0
1304.735,7541.0
1305.942,7693.0
1307.148,7552.0
1308.355,7677.0
1309.561,7729.0
1310.767,7633.0
1311.973,7744.0
1313.179,7714.0
1314.384,7754.0
1315.59,7820.0
1316.795,7762.0
1318.0,7808.0
1319.205,7828.0
1320.41,7847.0
1321.614,7906.0
1322.819,7832.0
1324.023,7841.0
1325.227,7863.0
1326.431,7913.0
1327.634,8057.0
1328.838,7939.0
1330.041,7914.0
1331.244,7938.0
1332.447,7934.0
1333.65,8039.0
1334.852,8002.0
1336.055,8044.0
1337.257,8019.0
1338.459,7979.0
1339.661,8060.0
1340.862,8108.0
1342.064,8113.0
1343.265,8013.0
1344.466,8133.0
1345.667,8150.0
1346.868,8232.0
1348.068,8167.0
1349.269,8125.0
1350.469,8183.0
1351.669,8241.0
1352.869,8294.0
1354.069,8134.0
1355.268,8305.0
1356.468,8343.0
1357.667,8227.0
1358.866,8288.0
1360.065,8307.0
1361.263,8292.0
1362.462,8314.0
1363.66,8275.0
1364.858,8348.0
1366.056,8423.0
1367.254,8399.0
1368.451,8422.0
1369.649,8424.0
1370.846,8460.0
1372.043,8396.0
1373.24,8510.0
1374.436,8490.0
1375.633,8503.0
1376.829,8579.0
1378.025,8573.0
1379.221,8561.0
1380.417,8598.0
1381.613,8646.0
1382.808,8660.0
1384.003,8637.0
1385.199,8726.0
1386.393,8665.0
1387.588,8724.0
1388.783,8696.0
1389.977,8879.0
1391.171,8816.0
1392.365,8838.0
1393.559,8777.0
1394.753,8873.0
1395.946,8880.0
1397.14,8880.0
1398.333,8926.0
1399.526,8869.0
1400.719,8868.0
1401.911,8881.0
1403.104,9002.0
1404.296,9051.0
1405.488,8979.0
1406.68,8999.0
1407.872,9085.0
1409.063,9016.0
1410.255,9074.0
1411.446,9085.0
1412.637,9074.0
1413.828,9161.0
1415.018,9101.0
1416.209,9237.0
1417.399,9212.0
1418.589,9272.0
1419.779,9163.0
1420.969,9252.0
1422.159,9243.0
1423.348,9281.0
1424.537,9329.0
1425.726,9318.0
1426.915,9423.0
1428.104,9394.0
1429.293,9365.0
1430.481,9309.0
1431.669,9402.0
1432.857,9431.0
1434.045,9538.0
1435.233,9352.0
1436.42,9400.0
1437.608,9539.0
1438.795,9599.0
1439.982,9486.0
1441.169,9515.0
1442.355,9595.0
1443.542,9598.0
1444.728,9532.0
1445.914,9595.0
1447.1,9623.0
1448.286,9643.0
1449.472,9615.0
1450.657,9622.0
1451.842,9519.0
1453.027,9729.0
1454.212,9751.0
1455.397,9702.0
1456.581,9796.0
1457.766,9711.0
1458.95,9742.0
1460.134,9864.0
1461.318,9747.0
1462.501,9742.0
1463.685,9774.0
1464.868,9826.0
1466.051,9868.0
1467.234,9872.0
1468.417,9980.0
1469.6,9920.0
1470.782,9802.0
1471.965,9895.0
1473.147,9894.0
1474.329,9923.0
1475.51,9981.0
1476.692,9959.0
1477.873,9957.0
1479.055,9954.0
1480.236,10057.0
1481.416,10015.0
1482.597,10275.0
1483.778,10022.0
1484.958,10098.0
1486.138,10182.0
1487.318,10154.0
1488.498,10148.0
1489.678,10336.0
1490.857,10129.0
1492.037,10124.0
1493.216,10100.0
1494.395,10255.0
1495.574,10241.0
1496.752,10281.0
1497.931,10358.0
1499.109,10332.0
1500.287,10352.0
1501.465,10234.0
1502.643,10391.0
1503.82,10176.0
1504.998,10369.0
1506.175,10368.0
1507.352,10329.0
1508.529,10346.0
1509.706,10461.0
1510.882,10480.0
1512.059,10423.0
1513.235,10513.0
1514.411,10609.0
1515.587,10560.0
1516.762,10476.0
1517.938,10654.0
1519.113,10668.0
1520.288,10641.0
