Wavenumber (cm⁻¹),Intensity
200.0,1505.5596701929055
201.00097751710655,1440.7447332817912
202.0019550342131,1397.7834528513758
203.00293255131965,1363.6082107507416
204.0039100684262,1329.7587257293003
205.00488758553274,1309.6701052168107
206.0058651026393,1309.3400663330822
207.00684261974584,1304.9852973361292
208.0078201368524,1289.5217043431483
209.00879765395894,1278.8107758705955
210.00977517106548,1275.747576597243
211.01075268817203,1270.6473006737995
212.01173020527858,1278.283935225349
213.01270772238513,1306.88435022358
214.01368523949168,1337.990673077808
215.01466275659823,1347.7629426026529
216.01564027370478,1338.9935403107218
217.01661779081132,1334.342002254514
218.01759530791787,1376.1725398576964
219.01857282502445,1454.3058866657911
220.019550342131,1500.5031945640235
221.02052785923755,1527.834407012089
222.0215053763441,1560.3051200438051
223.02248289345064,1607.3410866958932
224.0234604105572,1669.7373356283997
225.02443792766374,1738.2746552967712
226.0254154447703,1826.8348752032448
227.02639296187684,1923.9428262837364
228.02737047898339,2023.7349611523625
229.02834799608993,2138.6827511558977
230.02932551319648,2237.793919706964
231.03030303030303,2305.1984282023723
232.03128054740958,2322.4530941457856
233.03225806451613,2274.3632280809725
234.03323558162268,2176.9629732483504
235.03421309872923,2028.2272984711926
236.03519061583577,1859.109880372468
237.03616813294232,1710.2053573657379
238.03714565004887,1641.2130533248655
239.03812316715542,1585.6375505970036
240.03910068426197,1529.9765433212838
241.04007820136852,1479.8205117777538
242.04105571847506,1445.6398103379581
243.0420332355816,1427.5381952013056
244.0430107526882,1426.5533254243867
245.04398826979474,1420.8756004041456
246.0449657869013,1407.0032938569304
247.04594330400784,1422.5104336834434
248.04692082111438,1403.8225295326347
249.04789833822093,1392.0335120989287
250.04887585532748,1399.652438649348
251.04985337243403,1416.2755619804855
252.05083088954058,1446.1244944142027
253.05180840664713,1461.6784852004073
254.05278592375367,1455.1793577809938
255.05376344086022,1441.2295941233804
256.05474095796677,1452.0346996040469
257.0557184750733,1484.9432231093074
258.05669599217987,1513.7064210704107
259.0576735092864,1539.6168167116914
260.05865102639297,1575.0246652688236
261.0596285434995,1580.118935587077
262.06060606060606,1607.899429842923
263.0615835777126,1633.1614420700978
264.06256109481916,1643.528010093711
265.0635386119257,1680.1605853015974
266.06451612903226,1746.3185429672617
267.0654936461388,1801.5551315371843
268.06647116324535,1826.7967065692756
269.0674486803519,1842.5859239629153
270.06842619745845,1913.8769854365974
271.069403714565,1940.5321598868018
272.07038123167155,1979.1642940653687
273.0713587487781,2042.7040050483745
274.07233626588464,2065.1626888640703
275.0733137829912,2113.8607839091064
276.07429130009774,2165.276784248878
277.0752688172043,2229.1413064504973
278.07624633431084,2308.7349395904153
279.0772238514174,2362.252252431325
280.07820136852393,2452.0799320918604
281.0791788856305,2547.557708318786
282.08015640273703,2635.37540095233
283.0811339198436,2734.956943574088
284.08211143695013,2853.4230396289704
285.0830889540567,2958.7871350242863
286.0840664711632,3080.1883823277985
287.0850439882698,3247.441477398181
288.0860215053764,3445.9921284635134
289.0869990224829,3580.6648642715195
290.0879765395895,3772.6593185610946
291.088954056696,4010.108506528041
292.0899315738026,4235.374133620573
293.0909090909091,4525.75777300071
294.09188660801567,4764.268043764225
295.0928641251222,5004.646973355621
296.09384164222877,5259.0375390091485
297.0948191593353,5474.745459133976
298.09579667644186,5701.624539821817
299.0967741935484,5949.768921225017
300.09775171065496,6193.02458046593
301.0987292277615,6416.968559930404
302.09970674486806,6633.975609238298
303.1006842619746,6719.923090764116
304.10166177908116,6672.6784720827845
305.1026392961877,6503.074902928352
306.10361681329425,6224.9079513299475
307.1045943304008,5877.891734305291
308.10557184750735,5498.560730685211
309.1065493646139,5057.226328266501
310.10752688172045,4594.810174406718
311.108504398827,4205.342011913292
312.10948191593354,3899.6766238221744
313.1104594330401,3692.04706798275
314.11143695014664,3488.0610863122592
315.1124144672532,3272.7755289458382
316.11339198435974,3181.8663265918935
317.1143695014663,3065.96064979035
318.11534701857283,3015.4852193600295
319.1163245356794,3024.6041892502317
320.11730205278593,3051.5681782749093
321.1182795698925,3140.3508265273135
322.119257086999,3209.6840874201594
323.1202346041056,3299.6738018128153
324.1212121212121,3438.0296683134993
325.1221896383187,3616.0699864595335
326.1231671554252,3759.8124292315933
327.12414467253177,3903.8368376802628
328.1251221896383,4060.8989785692415
329.12609970674487,4241.506822650294
330.1270772238514,4451.471420029899
331.12805474095796,4603.239615162203
332.1290322580645,4772.965385551118
333.13000977517106,4975.748758561381
334.1309872922776,5183.605780207686
335.13196480938416,5369.366150469509
336.1329423264907,5508.879454732361
337.13391984359725,5555.117094776579
338.1348973607038,5492.436837682284
339.13587487781035,5319.9256949846595
340.1368523949169,4997.995523707282
341.13782991202345,4650.709757441337
342.13880742913,4270.3292889634695
343.13978494623655,3920.036493256434
344.1407624633431,3701.189260726386
345.14173998044964,3441.300508471715
346.1427174975562,3275.686727866011
347.14369501466274,3196.4281811581914
348.1446725317693,3144.3487284694306
349.14565004887584,3104.108046735902
350.1466275659824,3118.765685118061
351.14760508308893,3171.9589110193815
352.1485826001955,3264.704757979457
353.14956011730203,3390.829108701479
354.1505376344086,3521.455506337633
355.1515151515151,3701.1312350212943
356.1524926686217,3934.4308410625226
357.1534701857282,4218.81930286139
358.1544477028348,4551.78751029838
359.1554252199413,4934.688644231817
360.15640273704787,5389.587897250994
361.1573802541544,5915.316905194208
362.15835777126097,6489.912129922778
363.1593352883675,7102.097927511038
364.16031280547406,7779.179133163284
365.1612903225806,8471.299270530131
366.16226783968716,9260.644342495738
367.1632453567937,10069.094086595283
368.16422287390026,10745.978913295381
369.1652003910068,11526.543173041606
370.16617790811335,12123.381883807842
371.1671554252199,12592.186727185106
372.16813294232645,12882.180090431986
373.169110459433,12773.287401345502
374.17008797653955,12355.34264006266
375.1710654936461,11449.590887060851
376.1720430107527,10283.042863747964
377.17302052785925,9099.33927915199
378.1739980449658,7987.564665526734
379.17497556207235,6964.340029200184
380.1759530791789,5991.072129439188
381.17693059628544,5197.772387323204
382.177908113392,4614.573578726
383.17888563049854,4091.0990047616606
384.1798631476051,3720.268959623799
385.18084066471164,3381.9003917781483
386.1818181818182,3075.027042692003
387.18279569892474,2837.109150122869
388.1837732160313,2656.801446485858
389.18475073313783,2504.318639155677
390.1857282502444,2367.645317372762
391.18670576735093,2246.4076623157944
392.1876832844575,2148.83408441867
393.188660801564,2091.3688821435953
394.1896383186706,2038.7112517525256
395.1906158357771,1956.619272984579
396.1915933528837,1883.399527250342
397.1925708699902,1850.4518426755055
398.19354838709677,1799.467801814642
399.1945259042033,1723.8128642879394
400.19550342130987,1701.4638475199029
401.1964809384164,1680.1123615353406
402.19745845552296,1619.2276119253029
403.1984359726295,1638.4135622943613
404.19941348973606,1635.0744857359755
405.2003910068426,1611.6942679443134
406.20136852394916,1594.622503525935
407.2023460410557,1588.637152169127
408.20332355816225,1548.9744958019085
409.20430107526886,1525.3220503018824
410.2052785923754,1528.98366379777
411.20625610948196,1521.9421356003363
412.2072336265885,1488.8022437271925
413.20821114369505,1489.547437688454
414.2091886608016,1484.46085856031
415.21016617790815,1478.6711476302255
416.2111436950147,1471.5243048497168
417.21212121212125,1463.8059329825949
418.2130987292278,1480.7876692334346
419.21407624633434,1465.1491411383845
420.2150537634409,1472.97139643763
421.21603128054744,1493.8550168939532
422.217008797654,1499.3331970375211
423.21798631476054,1509.5829388020763
424.2189638318671,1524.2185344802383
425.21994134897363,1520.1881210752563
426.2209188660802,1516.8551950449757
427.22189638318673,1539.8096903649182
428.2228739002933,1576.3471709858086
429.2238514173998,1566.7645884259618
430.2248289345064,1603.4688786161414
431.2258064516129,1636.9984081003126
432.2267839687195,1616.2342383051703
433.227761485826,1660.4728132327973
434.22873900293257,1689.7178480998036
435.2297165200391,1707.0585875400832
436.23069403714567,1701.5691275038362
437.2316715542522,1672.2790999476254
438.23264907135876,1652.116136439859
439.2336265884653,1643.8266142392267
440.23460410557186,1611.1389290713105
441.2355816226784,1543.8528042066885
442.23655913978496,1494.7393500076948
443.2375366568915,1550.7839515201392
444.23851417399806,1510.26029211216
445.2394916911046,1478.0934439247644
446.24046920821115,1479.385865188408
447.2414467253177,1491.1083854606848
448.24242424242425,1476.725149849459
449.2434017595308,1470.166472542232
450.24437927663735,1467.7295822725316
451.2453567937439,1467.6605152265372
452.24633431085044,1463.7975219241819
453.247311827957,1452.217298657531
454.24828934506354,1466.5019729511025
455.2492668621701,1471.9883369660229
456.25024437927664,1465.6872174498058
457.2512218963832,1451.018516172424
458.25219941348973,1438.5915821290725
459.2531769305963,1485.7848540192454
460.25415444770283,1492.394594168394
461.2551319648094,1472.543487497431
462.2561094819159,1460.3207363536403
463.2570869990225,1471.19842671288
464.258064516129,1495.8893474398255
465.2590420332356,1473.265269157034
466.2600195503421,1463.2642502048407
467.26099706744867,1492.8005993424567
468.2619745845552,1535.9181930167445
469.26295210166177,1537.319244121363
470.2639296187683,1516.1550499056755
471.26490713587486,1546.89992146671
472.2658846529814,1573.8172162820974
473.26686217008796,1556.2609047732876
474.2678396871945,1585.088827548017
475.26881720430106,1599.2858242277844
476.2697947214076,1629.3362336150299
477.27077223851416,1673.8769797361358
478.2717497556207,1722.8216637312746
479.27272727272725,1780.8135595783588
480.2737047898338,1832.282712559887
481.27468230694035,1897.6841837997756
482.2756598240469,1995.1676537697654
483.27663734115345,2095.020893323299
484.27761485826,2149.3676830594363
485.27859237536654,2226.9178141944967
486.2795698924731,2325.7938556048457
487.28054740957964,2413.8026542038283
488.2815249266862,2497.0046159890653
489.2825024437928,2590.7667186478307
490.28347996089934,2656.7061473557387
491.2844574780059,2721.327243701037
492.28543499511244,2731.5080902757927
493.286412512219,2732.15581373808
494.28739002932554,2730.49441907016
495.2883675464321,2599.091080439599
496.28934506353863,2435.7967930467903
497.2903225806452,2299.6861942041182
498.29130009775173,2188.799092749764
499.2922776148583,2083.9791253711783
500.2932551319648,1972.6084124215824
501.2942326490714,1913.52932516708
502.2952101661779,1921.3715034397621
503.2961876832845,1934.5441571971598
504.297165200391,1917.2241089133709
505.29814271749757,1889.5766709696882
506.2991202346041,1907.0297089182782
507.30009775171067,1934.658298224025
508.3010752688172,1963.0430345352877
509.30205278592376,2003.822403512613
510.3030303030303,2055.469983248792
511.30400782013686,2084.9355039385564
512.3049853372434,2150.946688817498
513.3059628543499,2262.890579022244
514.3069403714564,2343.612398836914
515.307917888563,2385.7790135802243
516.3088954056695,2465.65506082362
517.3098729227761,2507.9444328715795
518.3108504398826,2563.687506421565
519.3118279569892,2604.8182262502964
520.3128054740957,2601.9946754132266
521.3137829912023,2558.131130414003
522.3147605083088,2512.4666530173204
523.3157380254154,2410.233233600239
524.3167155425219,2313.391633027797
525.3176930596285,2196.1353787533194
526.318670576735,2052.4676784469616
527.3196480938416,1974.5223680713864
528.3206256109481,1932.361943482035
529.3216031280547,1885.877244143467
530.3225806451612,1836.6768199142239
531.3235581622678,1793.4674181942287
532.3245356793743,1761.7333890994582
533.3255131964809,1760.761948168477
534.3264907135874,1816.7865622967859
535.327468230694,1829.6315681312824
536.3284457478005,1835.683908996009
537.3294232649071,1902.2969622417982
538.3304007820136,1961.976162693953
539.3313782991202,2001.4385795770045
540.3323558162267,2083.6128754974425
541.3333333333333,2184.7041963915312
542.3343108504398,2276.8475156052905
543.3352883675464,2368.2853023275234
544.3362658846529,2442.098125026501
545.3372434017595,2554.497266491109
546.338220918866,2664.2900405402916
547.3391984359725,2759.2555534238722
548.3401759530791,2854.1356620893043
549.3411534701856,2948.190245751773
550.3421309872922,2987.313673780581
551.3431085043987,2986.229078281059
552.3440860215054,2903.399831344947
553.345063538612,2722.9681905026923
554.3460410557185,2508.017863597128
555.347018572825,2340.6579559464403
556.3479960899316,2197.7647588803266
557.3489736070381,2060.5814300673765
558.3499511241447,1955.5087621579812
559.3509286412512,1897.141527966699
560.3519061583578,1850.1546772021943
561.3528836754643,1797.779134395319
562.3538611925709,1743.0212962470887
563.3548387096774,1725.9109218472956
564.355816226784,1736.6257614142653
565.3567937438905,1717.8104243174437
566.3577712609971,1670.921805751474
567.3587487781036,1688.2151013504024
568.3597262952102,1695.949613734146
569.3607038123167,1671.6510326978564
570.3616813294233,1662.5597697708015
571.3626588465298,1691.025223185749
572.3636363636364,1650.8952068601382
573.3646138807429,1641.846433254962
574.3655913978495,1640.1501052764224
575.366568914956,1639.654545796403
576.3675464320626,1663.6296609627602
577.3685239491691,1664.3794833377028
578.3695014662757,1663.258666889908
579.3704789833822,1659.3820692873287
580.3714565004888,1651.0440655402813
581.3724340175953,1644.4360191951025
582.3734115347019,1649.6509110678414
583.3743890518084,1664.2474697252553
584.375366568915,1672.6862023886124
585.3763440860215,1671.7922212118576
586.377321603128,1664.0341938728068
587.3782991202346,1660.4687827041505
588.3792766373411,1684.582940730346
589.3802541544477,1706.7873707577814
590.3812316715542,1685.7534100553476
591.3822091886608,1676.553336952438
592.3831867057673,1692.4346272212865
593.3841642228739,1699.8710526861648
594.3851417399804,1730.2018008920732
595.386119257087,1769.2634679930563
596.3870967741935,1750.1354127305938
597.3880742913001,1737.1130663791287
598.3890518084066,1758.4685159078185
599.3900293255132,1752.7197175973154
600.3910068426197,1766.00086787342
601.3919843597263,1773.5639311573286
602.3929618768328,1795.4561031247088
603.3939393939394,1820.0909769254463
604.3949169110459,1829.8813358129134
605.3958944281525,1836.626557177451
606.396871945259,1845.3033757159283
607.3978494623656,1872.9458585177301
608.3988269794721,1868.7441563942218
609.3998044965787,1865.47250336778
610.4007820136852,1894.8775613040698
611.4017595307918,1861.361444216743
612.4027370478983,1920.0922453969395
613.4037145650049,1938.539519258669
614.4046920821114,1948.488882487479
615.405669599218,1983.3189896706785
616.4066471163245,2012.6421125261893
617.4076246334312,2011.3948745644057
618.4086021505377,2029.5091489852878
619.4095796676443,2031.431250826915
620.4105571847508,2032.5111270782384
621.4115347018574,2071.932786612543
622.4125122189639,2151.6943363567266
623.4134897360705,2197.6597930392372
624.414467253177,2225.4440757515963
625.4154447702836,2287.272478350566
626.4164222873901,2325.016353208231
627.4173998044967,2333.159607229533
628.4183773216032,2410.080453607276
629.4193548387098,2463.609752875529
630.4203323558163,2531.3555749791767
631.4213098729228,2608.3857134508316
632.4222873900294,2693.367947116147
633.423264907136,2786.708710418321
634.4242424242425,2882.2047864708165
635.425219941349,3007.3469845002483
636.4261974584556,3188.742885972972
637.4271749755621,3352.2069039709622
638.4281524926687,3560.0389703861706
639.4291300097752,3866.5032011943613
640.4301075268818,4165.509087736679
641.4310850439883,4482.150545147986
642.4320625610949,4983.209264242301
643.4330400782014,5601.2725444061025
644.434017595308,6288.776416488633
645.4349951124145,7055.938090181018
646.4359726295211,7929.701823796015
647.4369501466276,8954.74519453207
648.4379276637342,10049.465620749399
649.4389051808407,11103.77597628053
650.4398826979473,12173.877597272703
651.4408602150538,13333.423795692343
652.4418377321604,14494.624648902714
653.4428152492669,15716.59966303338
654.4437927663735,16783.453605377497
655.44477028348,17667.536582970457
656.4457478005866,18239.541729311102
657.4467253176931,18299.919309010365
658.4477028347997,17722.65396921821
659.4486803519062,16526.656393351124
660.4496578690128,15077.433007354333
661.4506353861193,13391.451607825948
662.4516129032259,11631.518399475313
663.4525904203324,10056.981249758071
664.453567937439,8721.355441008332
665.4545454545455,7572.802771906913
666.455522971652,6588.052298171844
667.4565004887586,5830.994230874302
668.4574780058651,5270.439561536394
669.4584555229717,4811.339934424637
670.4594330400782,4397.165650077869
671.4604105571848,4042.8857823561502
672.4613880742913,3784.3415947071276
673.4623655913979,3572.569613810988
674.4633431085044,3374.8723967411593
675.464320625611,3203.368290237414
676.4652981427175,3074.655999696662
677.4662756598241,2951.8671013357325
678.4672531769306,2854.8853795759087
679.4682306940372,2778.48392975502
680.4692082111437,2688.3936995871495
681.4701857282503,2595.6420235315773
682.4711632453568,2564.9533714548757
683.4721407624634,2520.867632487217
684.4731182795699,2500.283134853564
685.4740957966765,2463.8777654717246
686.475073313783,2415.737155061537
687.4760508308896,2389.2964220888857
688.4770283479961,2396.7935251387757
689.4780058651027,2402.3851113530236
690.4789833822092,2370.42843198693
691.4799608993158,2352.3909376757315
692.4809384164223,2343.6618732805764
693.4819159335289,2340.333226682588
694.4828934506354,2363.9968633021103
695.483870967742,2379.515116787443
696.4848484848485,2405.0197497752893
697.485826001955,2409.695765356761
698.4868035190616,2417.533632119619
699.4877810361681,2419.536995767539
700.4887585532747,2382.645058754637
701.4897360703812,2346.0939304417807
702.4907135874878,2313.0268176256413
703.4916911045943,2275.006629538048
704.4926686217009,2237.3963707642697
705.4936461388074,2194.798990801079
706.494623655914,2149.313334959284
707.4956011730205,2129.9374858710144
708.4965786901271,2091.6937175267535
709.4975562072336,2075.0356447487547
710.4985337243402,2052.029200807683
711.4995112414467,2033.7554167566425
712.5004887585533,2032.6289971043436
713.5014662756598,2022.3291370598206
714.5024437927664,2028.9797291134037
715.5034213098729,2034.9437111919424
716.5043988269795,2012.0021978672244
717.505376344086,1999.5743036758981
718.5063538611926,1989.196506477115
719.5073313782991,1944.8579637978034
720.5083088954057,1966.5910433953925
721.5092864125122,1993.548856480172
722.5102639296188,1993.6487446326282
723.5112414467253,1982.374506386506
724.5122189638319,1972.9985335625358
725.5131964809384,1970.1047569930186
726.514173998045,1975.4965058970379
727.5151515151515,1962.5632871150838
728.516129032258,1979.204823226341
729.5171065493646,1987.3965939147383
730.5180840664711,1961.0318580692212
731.5190615835777,1940.7385651940647
732.5200391006842,1982.8855955613694
733.5210166177908,1972.245720923429
734.5219941348973,1948.4582142331844
735.5229716520039,1958.747707197744
736.5239491691104,1976.4615332768437
737.524926686217,1968.3578440279305
738.5259042033235,1944.2889972829853
739.5268817204301,1949.0345782787215
740.5278592375366,1989.328327154962
741.5288367546432,1992.5027427803952
742.5298142717497,1970.3740013039658
