Raman Shift,Intensity 
400,6.029733896
401,5.991371946
402,6.03571902
403,5.982675911
404,5.958102086
405,5.974234895
406,6.017305706
407,5.990976752
408,6.078540024
409,6.036340774
410,6.019341322
411,5.920072827
412,5.976999593
413,6.02331593
414,6.002181361
415,5.951655525
416,5.992700374
417,5.900113602
418,6.039700135
419,5.974246844
420,5.99400593
421,6.038356731
422,6.043671952
423,6.000228598
424,6.019215034
425,6.009963076
426,6.006035654
427,6.02672503
428,6.028352875
429,5.942629531
430,6.06513203
431,5.985234158
432,6.029609998
433,5.96962228
434,5.904569346
435,5.893145607
436,6.030904572
437,5.9108084
438,5.976916913
439,5.989634966
440,5.971485512
441,5.978627375
442,5.946909699
443,5.991416118
444,5.996878436
445,5.945882891
446,6.009523116
447,6.034914031
448,6.019359657
449,5.8989965
450,6.056657319
451,6.001403705
452,5.968397213
453,6.035318461
454,5.894006827
455,5.943225452
456,6.025059769
457,5.959825061
458,5.958934741
459,6.009564388
460,5.925028038
461,6.042843076
462,5.953904784
463,5.938806181
464,6.057338278
465,6.009860171
466,6.009820316
467,6.013861496
468,6.105332366
469,5.996345598
470,5.970733975
471,5.990905379
472,6.014853969
473,5.966584821
474,5.947128397
475,5.990693821
476,6.032351563
477,5.989885807
478,5.936392687
479,6.004824272
480,6.074193357
481,5.973874933
482,5.981520588
483,6.01915566
484,5.964560009
485,5.970356297
486,6.092594849
487,6.071814281
488,6.031911607
489,5.967676456
490,6.019444643
491,6.042234983
492,6.06315023
493,5.975788873
494,5.960239839
495,6.032608224
496,6.069915998
497,6.010070915
498,6.045174347
499,5.98657905
500,5.927712328
501,6.149020802
502,6.113954458
503,5.958998316
504,5.983817663
505,5.910784818
506,5.942920031
507,5.969410885
508,5.861033967
509,6.026793405
510,5.948091234
511,5.893002436
512,5.947016361
513,6.046006985
514,6.052960068
515,5.981949845
516,5.979054597
517,6.148897539
518,5.981800842
519,5.968701937
520,6.097725332
521,6.007803275
522,6.025449792
523,5.906815691
524,5.988343864
525,6.053435478
526,6.085912633
527,6.046162135
528,5.939207156
529,6.007666383
530,5.968559899
531,5.912074951
532,5.989288009
533,5.984487528
534,6.051536469
535,5.983501253
536,5.958430358
537,6.023496401
538,5.945454231
539,5.99408758
540,6.055094646
541,5.939482127
542,5.958598743
543,5.984588961
544,5.984779578
545,6.065265502
546,5.985559543
547,5.989582998
548,5.915996577
549,5.973629466
550,5.976338616
551,5.994860799
552,6.092378608
553,5.911129404
554,5.959347428
555,5.994026258
556,5.934084931
557,5.975457145
558,6.054414128
559,5.954203193
560,6.038454031
561,6.026054734
562,6.008626791
563,5.975451989
564,5.932080055
565,5.932619801
566,5.983242906
567,5.979696614
568,5.937893944
569,5.973321665
570,5.971854927
571,5.982753703
572,5.934632289
573,5.995674391
574,6.041992769
575,5.986607027
576,6.084862761
577,5.994368935
578,6.090928864
579,5.93647523
580,5.93876345
581,6.050350182
582,5.985740309
583,6.053412563
584,5.967715534
585,6.045174071
586,5.936064833
587,5.979641509
588,6.024604245
589,5.985473501
590,6.026643462
591,5.978623349
592,6.023807356
593,5.937299168
594,5.994404553
595,6.063862585
596,5.939756234
597,5.977982724
598,5.949044053
599,6.001913694
600,6.016622968
601,5.905740915
602,5.988591094
603,5.982078783
604,6.078356133
605,6.055964638
606,6.020732996
607,5.966641307
608,6.057776198
609,5.98693033
610,6.006346919
611,5.976058582
612,5.974784896
613,5.9599863
614,5.977160928
615,6.030372121
616,6.035648967
617,6.018863824
618,5.994492474
619,5.989111662
620,6.002124216
621,5.979534995
622,5.983940177
623,5.979103168
624,6.05056143
625,6.015545196
626,6.035212799
627,6.067118399
628,6.019053776
629,6.095354999
630,5.99269972
631,5.862780962
632,6.002681826
633,6.055187793
634,5.978122244
635,6.071406512
636,6.056673575
637,6.109493239
638,6.016930922
639,6.062610068
640,6.029082041
641,6.000285058
642,6.019283082
643,5.965219838
644,5.886124379
645,6.054384116
646,5.961689057
647,6.024167686
648,5.990839907
649,6.001797413
650,6.039704427
651,5.970659555
652,5.88684481
653,5.981217146
654,6.01323203
655,5.956677671
656,5.914837013
657,5.947194071
658,6.050895907
659,6.026266068
660,5.958612491
661,5.98615147
662,6.03510637
663,6.028207634
664,5.99251733
665,6.041775684
666,6.08072222
667,6.098595881
668,6.065852586
669,6.017970996
670,6.003096668
671,6.04465894
672,5.992340029
673,6.000188497
674,5.970225497
675,5.973471514
676,5.938994854
677,5.917815477
678,6.076869317
679,6.069096482
680,6.021268273
681,5.974478816
682,6.086357088
683,6.025249409
684,6.085291228
685,6.010525158
686,5.970837825
687,5.982681251
688,6.038530998
689,6.0192585
690,5.96284563
691,5.897513745
692,5.971675045
693,5.937238985
694,6.01182022
695,6.074081263
696,6.025408341
697,5.935145205
698,5.957065245
699,6.017730797
700,6.00444492
701,6.121798903
702,6.017056977
703,6.04554637
704,5.888113623
705,5.967960746
706,6.055419981
707,6.000231187
708,6.085987678
709,5.994617411
710,5.915852995
711,5.976622522
712,5.972285043
713,6.058057926
714,6.007237279
715,6.062874247
716,6.048000002
717,5.984325146
718,6.039749656
719,5.995642231
720,6.019328126
721,6.059986024
722,5.965708435
723,5.997543643
724,6.027675078
725,5.954846367
726,5.951435614
727,5.962801094
728,5.968482973
729,5.987377745
730,5.973612668
731,6.015425742
732,6.048693032
733,5.931411886
734,6.002237189
735,6.025744921
736,6.035543082
737,6.014000211
738,6.073395844
739,5.992233198
740,6.18148486
741,6.052575747
742,5.931174749
743,5.948089355
744,5.99098195
745,5.935586041
746,6.077783588
747,6.034852725
748,5.905703172
749,5.971318706
750,5.961817926
751,5.993133104
752,6.026182042
753,5.945576794
754,5.958384619
755,5.920464701
756,5.975275725
757,5.991235822
758,5.925553631
759,5.957525301
760,5.900872883
761,5.999276943
762,6.038187049
763,6.030711079
764,5.978919773
765,5.992126155
766,6.015488454
767,6.084851594
768,5.977757989
769,5.942498075
770,5.973961127
771,6.023109094
772,6.021714108
773,6.140183216
774,5.921272274
775,6.025896259
776,5.956568782
777,6.006263227
778,5.961231529
779,6.038552875
780,5.951388982
781,6.029171571
782,5.964870084
783,6.054602769
784,5.919403413
785,6.035486876
786,5.94463795
787,6.00368248
788,5.906781108
789,5.951246066
790,6.002973184
791,6.033225161
792,5.956880679
793,6.078438913
794,5.988576734
795,5.987337953
796,6.046599799
797,5.975184016
798,5.998858089
799,5.97954421
800,6.012986957
801,6.067790553
802,6.004948626
803,6.019340435
804,6.059669071
805,6.0735565
806,6.033378893
807,5.987406882
808,6.034134044
809,6.068840451
810,5.933544249
811,6.047927832
812,6.002740183
813,6.003112462
814,5.956271088
815,6.093775731
816,6.027532261
817,5.989972079
818,6.004268034
819,5.902965758
820,5.995922962
821,6.004218335
822,6.024825771
823,5.985884806
824,5.867483038
825,6.013201719
826,5.966100366
827,6.01932706
828,6.030102391
829,6.028615416
830,6.055773315
831,6.069253012
832,6.053172372
833,5.968933109
834,5.969123975
835,6.021024416
836,6.055146132
837,6.082256467
838,5.98771948
839,5.956572496
840,6.04788238
841,5.991035744
842,5.984428213
843,6.071592334
844,6.008040196
845,5.977951745
846,6.076071229
847,6.017941471
848,6.053478216
849,6.020040826
850,6.071551242
851,5.901186967
852,6.061824078
853,6.056572148
854,5.981830116
855,5.98026844
856,5.982972713
857,6.013680321
858,5.969739661
859,5.953245048
860,6.025088644
861,6.002521488
862,6.0165522
863,6.049525736
864,6.011450106
865,5.960373422
866,6.024220263
867,6.009449731
868,5.975780917
869,5.92562912
870,5.965949459
871,6.001026531
872,5.920884742
873,6.04840769
874,5.941927009
875,5.999086502
876,6.012915643
877,6.101235737
878,6.041550463
879,5.980100885
880,5.993658602
881,5.9301669
882,6.076238566
883,5.984009887
884,5.944117612
885,5.954564628
886,6.031371981
887,6.013226768
888,5.955611085
889,6.027626875
890,6.064594442
891,5.944930085
892,5.924518303
893,5.978079889
894,5.961298525
895,6.024672261
896,5.967410727
897,6.090266983
898,6.04676005
899,5.930198127
900,6.028782603
901,5.974285245
902,5.937111289
903,5.954918083
904,6.021402916
905,5.935968972
906,5.98604338
907,5.986274678
908,6.025844659
909,6.011228333
910,6.007224644
911,6.033906438
912,6.071391106
913,5.962430612
914,5.991577724
915,6.022725345
916,5.945617536
917,5.975834792
918,5.924767669
919,5.992153108
920,6.018056086
921,6.037880324
922,6.037045399
923,5.948276418
924,5.909696602
925,5.997797788
926,6.005009949
927,5.94323702
928,6.00803617
929,5.959068642
930,5.918764523
931,6.043387696
932,5.957150453
933,6.048738825
934,6.00116328
935,6.06892734
936,5.963263398
937,6.100911555
938,6.019065542
939,5.996943417
940,5.957709456
941,6.047168375
942,5.978883619
943,6.038913578
944,6.043541491
945,6.011990936
946,5.97978642
947,6.040649061
948,6.004560511
949,6.015348626
950,6.077620722
951,5.917012859
952,6.02886335
953,6.069513029
954,5.950849585
955,5.928673229
956,6.049264483
957,5.967724892
958,6.076756978
959,5.974436569
960,5.97065979
961,5.957918711
962,6.029412256
963,5.94606427
964,5.983219956
965,6.06943579
966,5.889057619
967,6.069016535
968,5.876304414
969,5.975850097
970,5.972037285
971,5.915106884
972,6.011013698
973,6.023145971
974,5.954267347
975,6.084262485
976,6.010945337
977,6.037366532
978,5.993061026
979,5.921784972
980,5.997673299
981,6.036691031
982,5.984937575
983,6.056813579
984,6.01689936
985,6.191181041
986,6.066750046
987,6.017545519
988,5.988060318
989,5.986494225
990,5.939502264
991,5.998220931
992,5.962354892
993,6.063085095
994,6.008632764
995,6.082962006
996,5.96170676
997,5.975922922
998,5.928185355
999,5.989981867
1000,5.984857725
1001,5.969897784
1002,6.03868095
1003,6.017488285
1004,6.023450452
1005,5.999796335
1006,6.020005577
1007,5.9735351
1008,5.931740396
1009,6.003565042
1010,5.99894907
1011,5.974182025
1012,6.03993754
1013,5.941594059
1014,5.978897955
1015,5.96145514
1016,5.980521656
1017,5.946640997
1018,5.982423085
1019,6.022554669
1020,5.958942192
1021,5.997143713
1022,5.981093011
1023,5.989993303
1024,6.067756526
1025,5.959971834
1026,6.026504216
1027,6.028524296
1028,6.0061738
1029,5.966058798
1030,6.093570621
1031,6.008014894
1032,5.938119198
1033,5.997543717
1034,5.997359141
1035,5.950771468
1036,6.000730845
1037,6.061868647
1038,6.133164604
1039,6.033320332
1040,5.967198699
1041,5.973409756
1042,6.085484871
1043,5.989594743
1044,5.988152414
1045,6.037439853
1046,5.99590455
1047,5.99625627
1048,5.983969447
1049,5.937284817
1050,5.977335448
1051,6.017101853
1052,6.062664222
1053,5.934901287
1054,5.957583392
1055,5.917483159
1056,5.975148133
1057,6.053628025
1058,6.00471622
1059,6.110887774
1060,6.064146821
1061,5.985431793
1062,5.960269609
1063,5.978499391
1064,6.003907705
1065,6.034169682
1066,5.958603374
1067,5.954854264
1068,5.916305506
1069,5.997255417
1070,6.012569406
1071,5.986319509
1072,6.056978615
1073,5.911447928
1074,6.05168878
1075,6.055637832
1076,5.911730765
1077,6.003178955
1078,5.967311588
1079,6.074828516
1080,6.081224341
1081,5.987144995
1082,6.040171404
1083,5.980456788
1084,5.974914323
1085,5.988178304
1086,6.008402834
1087,5.993609145
1088,6.028157963
1089,6.019594695
1090,5.984084787
1091,5.973019974
1092,6.000240569
1093,5.995950077
1094,5.966761042
1095,6.039620483
1096,6.010752279
1097,6.040057467
1098,6.013513902
1099,6.030492693
1100,6.014169122
1101,5.891459003
1102,6.018857881
1103,6.00519427
1104,6.041498471
1105,5.871991573
1106,6.044583473
1107,5.965156798
1108,6.001726787
1109,6.026730775
1110,6.03016946
1111,5.980797282
1112,6.062668599
1113,5.984049428
1114,5.997472373
1115,5.988618121
1116,5.984853949
1117,5.943338392
1118,5.999436827
1119,5.997903548
1120,6.078438356
1121,6.008521568
1122,6.023763295
1123,5.954349248
1124,6.024099821
1125,6.011187363
1126,6.01493244
1127,5.983940467
1128,5.89232457
1129,6.043352757
1130,5.914714449
1131,6.000519072
1132,5.95530476
1133,5.950623014
1134,6.000591211
1135,6.168327038
1136,6.036745161
1137,5.948851342
1138,5.991995676
1139,6.025583923
1140,5.938247654
1141,6.019376666
1142,6.028886142
1143,5.966839089
1144,5.979882038
1145,6.01494622
1146,6.027432104
1147,5.921886592
1148,6.002637009
1149,5.927298007
1150,6.002772558
1151,5.907240573
1152,6.018251144
1153,5.984822986
1154,5.958952112
1155,6.030868091
1156,6.046332919
1157,5.990108993
1158,6.024042748
1159,5.986506996
1160,5.94824145
1161,6.040321794
1162,6.063118618
1163,6.066677788
1164,5.959955364
1165,6.063619525
1166,6.01695246
1167,6.093958845
1168,6.013760869
1169,5.973470655
1170,5.963497127
1171,5.980672792
1172,5.96693205
1173,6.011763055
1174,6.012986031
1175,5.90699669
1176,6.091308516
1177,6.058280558
1178,6.003318439
1179,6.00601808
1180,5.995022485
1181,5.995371874
1182,5.996819782
1183,5.960550797
1184,5.942770608
1185,6.053957347
1186,6.00584296
1187,6.056234865
1188,5.99047662
1189,6.020148824
1190,6.034364672
1191,5.946912578
1192,6.051979228
1193,5.991705662
1194,5.946457035
1195,5.962865845
1196,6.02366801
1197,6.067142584
1198,6.045734415
1199,6.01860301
1200,6.027493694
1201,6.010998678
1202,5.944652749
1203,6.014699864
1204,5.979598765
1205,5.991007199
1206,5.947056367
1207,5.972215823
1208,5.975149299
1209,6.016872488
1210,5.939958472
1211,5.98048592
1212,5.934724018
1213,5.959544829
1214,6.051808634
1215,5.968871756
1216,5.943827771
1217,6.016603484
1218,5.926312509
1219,5.97886562
1220,6.018924388
1221,5.96065597
1222,6.013260227
1223,6.065400895
1224,5.934158328
1225,5.963862979
1226,5.967511665
1227,5.997471496
1228,6.0163858
1229,6.03277074
1230,5.98842666
1231,6.057915844
1232,5.955551316
1233,6.105843676
1234,5.966708508
1235,6.048586887
1236,6.029707164
1237,5.995258157
1238,5.918423531
1239,5.948463252
1240,5.974548223
1241,5.980660856
1242,5.982546895
1243,6.043027216
1244,6.027192473
1245,5.966374164
1246,5.930641366
1247,6.019131316
1248,6.077562056
1249,6.085557588
1250,5.971489444
1251,5.936712192
1252,5.969315911
1253,6.023947851
1254,6.053090014
1255,5.936058141
1256,6.034113261
1257,5.969297025
1258,5.955169785
1259,6.048091587
1260,6.047163338
1261,6.051209244
1262,6.016114081
1263,6.009919865
1264,5.979374422
1265,6.006802667
1266,5.973355738
1267,6.012758069
1268,6.027390763
1269,6.057976768
1270,6.02736731
1271,5.997837679
1272,6.068160228
1273,5.980914832
1274,6.047274548
1275,5.920017274
1276,6.044278639
1277,5.966989672
1278,5.977731177
1279,6.003320556
1280,5.955444355
1281,6.106016594
1282,5.938334809
1283,6.055912756
1284,6.021854278
1285,5.884848341
1286,6.089300046
1287,5.995433368
1288,5.972029426
1289,6.043715996
1290,5.925859539
1291,6.005077289
1292,6.038307824
1293,5.944717446
1294,5.982687272
1295,5.993075362
1296,6.072522176
1297,6.072721452
1298,6.02639344
1299,6.029265805
1300,5.942983893
1301,6.074802227
1302,6.087161683
1303,6.032056847
1304,6.10120598
1305,6.008819853
1306,5.995563665
1307,6.004760536
1308,6.024969484
1309,5.977120001
1310,5.977432824
1311,5.948228817
1312,5.99939873
1313,5.997127031
1314,5.936812672
1315,5.955356728
1316,6.040691537
1317,6.052295483
1318,6.04587832
1319,5.923637611
1320,5.984313042
1321,6.034865079
1322,6.004408761
1323,5.996772639
1324,5.983936122
1325,5.998282866
1326,5.904181141
1327,5.998146013
1328,5.994585903
1329,6.019794341
1330,6.039615829
1331,5.999225266
1332,5.920514056
1333,6.066780382
1334,5.950936089
1335,6.076979753
1336,6.017412101
1337,6.001688638
1338,5.93493938
1339,6.046040811
1340,6.015326286
1341,6.0085311
1342,6.062407095
1343,5.998628415
1344,6.017687068
1345,6.024331582
1346,5.98048196
1347,5.998406583
1348,6.045162671
1349,6.000215189
1350,6.084540764
1351,6.086818671
1352,6.013564472
1353,5.974062553
1354,6.091715876
1355,5.958228298
1356,5.976904985
1357,5.983331957
1358,6.068807882
1359,6.06306834
1360,5.996015707
1361,6.006731509
1362,5.987495503
1363,5.969596463
1364,6.032281488
1365,6.013473148
1366,6.104660925
1367,6.057016719
1368,6.041991749
1369,6.043415719
1370,6.135475768
1371,6.000008861
1372,6.020265373
1373,6.039544207
1374,5.987969468
1375,5.975753538
1376,5.966963433
1377,6.078299746
1378,5.96478488
1379,5.957374694
1380,5.978873564
1381,6.008795078
1382,6.064175796
1383,5.976848376
1384,6.01281216
1385,5.980972689
1386,5.962944009
1387,6.074847448
1388,6.058187556
1389,5.847404533
1390,5.98057391
1391,6.008182594
1392,6.094425388
1393,6.017549696
1394,6.053615315
1395,6.005194536
1396,6.029608954
1397,5.979831051
1398,5.94571398
1399,6.039288247
1400,5.978257894
1401,6.049024591
1402,6.037092113
1403,5.91251056
1404,6.072296854
1405,5.977038676
1406,6.025912179
1407,5.977008212
1408,5.973049403
1409,6.074795177
1410,6.031260438
1411,6.061436657
1412,5.946125167
1413,5.967440902
1414,6.032831852
1415,5.983075393
1416,6.015334604
1417,5.922624357
1418,6.055175007
1419,6.037889453
1420,5.980442808
1421,5.955619959
1422,6.018559032
1423,5.998451298
1424,5.951019405
1425,6.023566045
1426,5.924776248
1427,5.957361938
1428,5.989692915
1429,6.033491611
1430,6.025091193
1431,5.917630351
1432,5.980801565
1433,6.057360691
1434,6.040812889
1435,5.990582865
1436,6.007459938
1437,6.057287512
1438,6.038926588
1439,6.053068693
1440,6.002286059
1441,6.02741639
1442,6.05081723
1443,5.937926573
1444,6.012536877
1445,6.080724574
1446,6.000618531
1447,6.04939874
1448,5.998822863
1449,6.005413982
1450,6.025430055
1451,6.019580682
1452,6.097073568
1453,6.023122046
1454,5.960279238
1455,6.029246717
1456,5.976229938
1457,6.05612218
1458,5.976024207
1459,6.018759691
1460,5.935501925
1461,6.056626581
1462,6.060648736
1463,5.932370602
1464,5.927569779
1465,6.008877223
1466,6.03446068
1467,6.098928965
1468,6.047275776
1469,5.989378281
1470,5.949336274
1471,6.097566713
1472,6.039142232
1473,6.029803714
1474,6.001521591
1475,5.912402693
1476,5.979143236
1477,6.095068017
1478,5.992274877
1479,5.926023284
1480,6.067037216
1481,6.010058429
1482,6.011495373
1483,6.019824708
1484,5.941285274
1485,6.12007153
1486,6.069183933
1487,5.990753477
1488,5.998193508
1489,5.987011569
1490,5.915312083
1491,5.976461809
1492,5.900835193
1493,6.079306454
1494,5.981561905
1495,5.978673943
1496,5.921412182
1497,5.991392098
1498,5.916513986
1499,6.01462837
1500,5.97612907
1501,6.003311369
1502,6.074765618
1503,6.037575103
1504,5.968539796
1505,6.018243324
1506,5.947146923
1507,5.979356701
1508,5.998165153
1509,5.994430754
1510,5.987356899
1511,5.964600797
1512,6.06900353
1513,6.008610831
1514,5.901753352
1515,5.943281389
1516,5.917107086
1517,6.018489236
1518,5.970509813
1519,6.05399018
1520,6.01292254
1521,6.022232392
1522,6.045087011
1523,6.066238131
1524,5.958244217
1525,6.047330406
1526,5.986077406
1527,6.041333608
1528,6.014257907
1529,5.987479367
1530,5.944817973
1531,5.998676254
1532,6.085677388
1533,5.992538864
1534,6.014140288
1535,5.973192155
1536,6.003409961
1537,6.030946453
1538,5.997475157
1539,5.964417807
1540,6.055808914
1541,5.916451243
1542,6.016524374
1543,6.01815495
1544,5.994413835
1545,5.913483103
1546,6.015559868
1547,5.962289702
1548,5.960409679
1549,6.039227102
1550,6.044201482
1551,5.931872211
1552,5.92827533
1553,6.123795397
1554,6.036999404
1555,6.044008269
1556,5.946122178
1557,6.043761415
1558,5.953161635
1559,5.988588345
1560,6.039347851
1561,5.915528767
1562,5.914122849
1563,6.083473491
1564,6.01320256
1565,5.985452996
1566,6.033324928
1567,6.002389155
1568,6.024814923
1569,6.005595665
1570,5.853365147
1571,6.000064475
1572,5.881830636
1573,5.97618626
1574,5.970678991
1575,6.008621699
1576,5.885274513
1577,6.011572586
1578,5.977062668
1579,5.912579972
1580,5.999978836
1581,6.014787447
1582,6.037459153
1583,6.02011455
1584,6.02243592
1585,6.014267264
1586,5.991332956
1587,5.936002318
1588,6.004323453
1589,5.982356652
1590,5.899551563
1591,6.051105561
1592,5.985484841
1593,6.059588652
1594,6.02070176
1595,6.074189534
1596,6.024547466
1597,6.02868023
1598,5.954686077
1599,5.996354046
1600,5.96594084
1601,6.019975058
1602,5.893526851
1603,6.027612921
1604,6.008484787
1605,6.007256924
1606,5.994948056
1607,6.048980585
1608,5.973584199
1609,6.079454434
1610,6.030321663
1611,6.040141797
1612,6.011089892
1613,6.01394916
1614,6.032627204
1615,5.967867003
1616,6.049333964
1617,6.006512514
1618,6.034371166
1619,5.991105993
1620,5.995599445
1621,5.96905639
1622,5.908493921
1623,6.082775469
1624,6.037356926
1625,6.027668978
1626,5.980317868
1627,6.017241686
1628,6.028458927
1629,5.971843522
1630,5.941905105
1631,5.965446667
1632,6.092472444
1633,6.13041321
1634,6.071923458
1635,6.017387494
1636,6.036506985
1637,6.01581362
1638,6.102041704
1639,5.978772474
1640,6.09569174
1641,6.03580346
1642,5.985635362
1643,5.95147738
1644,5.901584909
1645,5.935156453
1646,6.005272039
1647,5.906586414
1648,6.02005033
1649,6.00714576
1650,5.979979184
1651,5.947793161
1652,6.058242081
1653,6.050831101
1654,5.970053622
1655,5.985521817
1656,6.041414579
1657,6.084446953
1658,6.031605563
1659,6.072710124
1660,5.981801027
1661,6.05613554
1662,5.90952233
1663,6.046241869
1664,6.037243714
1665,6.073292047
1666,6.075420255
1667,6.072284855
1668,6.028453328
1669,5.937222088
1670,6.006309646
1671,6.016466939
1672,6.076273862
1673,6.076752979
1674,6.011672677
1675,6.025370973
1676,6.001696105
1677,5.98785238
1678,6.006200977
1679,6.010569664
1680,6.01314152
1681,6.011420877
1682,6.0013468
1683,6.073769791
1684,5.984671495
1685,6.031658018
1686,5.900526786
1687,5.996734907
1688,6.000614349
1689,5.955408381
1690,5.958803758
1691,5.99076323
1692,6.027187067
1693,5.967256354
1694,6.100767173
1695,5.992784906
1696,5.914462492
1697,6.079699508
1698,5.975940846
1699,6.062859792
1700,6.026425895
1701,5.918863985
1702,6.030254526
1703,6.010310437
1704,5.984690454
1705,5.988204124
1706,5.899975144
1707,5.983408804
1708,5.930400594
1709,6.028159392
1710,6.027170399
1711,5.951728641
1712,6.014427824
1713,6.02331552
1714,5.841962887
1715,6.026966993
1716,6.021331703
1717,5.935817303
1718,5.952719634
1719,5.980987211
1720,6.118645765
1721,5.965596414
1722,6.002840921
1723,5.996728616
1724,5.97190579
1725,6.008750961
1726,6.014802375
1727,6.004915048
1728,5.975131558
1729,5.946645557
1730,5.919082592
1731,6.015256368
1732,5.938788288
1733,5.917328568
1734,5.925132928
1735,5.980688291
1736,6.070086371
1737,6.023786286
1738,6.094590418
1739,5.964657468
1740,6.038661906
1741,6.032116536
1742,6.049626245
1743,5.994039672
1744,5.972470544
1745,6.001679762
1746,5.999706797
1747,5.992955744
1748,5.97166876
1749,6.06438449
1750,6.027916549
1751,6.048542219
1752,6.052926589
1753,5.999599529
1754,6.051617071
1755,5.958417933
1756,5.942073894
1757,5.963358316
1758,6.030503369
1759,5.979394913
1760,5.932732132
1761,5.920652909
1762,6.077003797
1763,5.961071506
1764,6.028528105
1765,6.042122183
1766,5.993757461
1767,5.900565263
1768,6.006812884
1769,5.969648686
1770,6.007689573
1771,5.908150822
1772,6.039294983
1773,5.952481642
1774,5.943605118
1775,6.066661726
1776,6.008042509
1777,5.938542321
1778,6.029548846
1779,5.889301401
1780,5.956181078
1781,5.932800193
1782,5.963439763
1783,5.893833356
1784,5.956205507
1785,6.032816383
1786,5.947444032
1787,6.010844682
1788,6.039081899
1789,6.025963743
1790,5.904720136
1791,5.928228891
1792,6.016082709
1793,5.968778272
1794,5.964979822
1795,5.976802555
1796,5.990510763
1797,6.040189648
1798,6.003898209
1799,6.029203301
1800,5.981582611
1801,5.931256837
1802,5.981053705
1803,5.921273958
1804,5.956679282
1805,5.984202199
1806,6.032554713
1807,6.05640802
1808,6.019065969
1809,6.076914477
1810,6.057803614
1811,6.034620107
1812,5.951460107
1813,5.826334671
1814,5.973749156
1815,6.020525848
1816,5.917149692
1817,6.018295599
1818,6.032113891
1819,6.010866116
1820,5.972827076
1821,6.054182213
1822,5.961556966
1823,5.927670948
1824,6.010880914
1825,6.027156008
1826,6.024999326
1827,6.103355655
1828,5.992972429
1829,5.857508067
1830,5.980835011
1831,5.960077085
1832,6.032678564
1833,5.984231361
1834,5.906861016
1835,5.920666019
1836,6.030660287
1837,6.04584179
1838,5.906637825
1839,5.865608828
1840,5.957895756
1841,5.943864173
1842,6.001710731
1843,5.973185899
1844,6.012051838
1845,5.988384205
1846,5.962643554
1847,5.991700385
1848,5.986699406
1849,5.933199877
1850,6.03963823
1851,5.950293302
1852,5.971112953
1853,5.939930782
1854,5.940378535
1855,6.02991171
1856,6.064405855
1857,5.968362017
1858,5.971001225
1859,6.062943005
1860,5.973835346
1861,5.980800473
1862,6.052442267
1863,5.963031337
1864,6.069365625
1865,6.05112884
1866,6.017197782
1867,6.030870648
1868,5.90069204
1869,5.987852544
1870,5.97080723
1871,6.072457722
1872,6.010917234
1873,6.052152345
1874,5.94954464
1875,6.020761632
1876,5.897589048
1877,6.032390207
1878,5.957366151
1879,5.979119057
1880,5.983452754
1881,6.049181077
1882,6.019267087
1883,5.977403952
1884,6.023864775
1885,5.970150559
1886,6.005534047
1887,6.016066664
1888,5.993764904
1889,6.051760396
1890,5.956020601
1891,6.080828566
1892,6.033604784
1893,5.937134447
1894,5.972385055
1895,6.041209005
1896,5.975313506
1897,5.973097875
1898,6.031683496
1899,6.007635822
1900,5.972075917
1901,6.046441902
1902,5.965085757
1903,6.025348184
1904,5.879187908
1905,6.030635743
1906,5.987619832
1907,6.079921399
1908,5.97000061
1909,6.025844261
1910,6.009451241
1911,5.974994158
1912,5.955877002
1913,5.957104682
1914,5.909559669
1915,5.995639743
1916,6.023749525
1917,5.997466307
1918,6.103011553
1919,5.966591957
1920,6.0146861
1921,6.111423008
1922,5.993678256
1923,5.969569777
1924,5.942415881
1925,6.003142072
1926,5.971847021
1927,5.999804333
1928,6.012293023
1929,5.952711677
1930,6.097676844
1931,6.03021786
1932,5.969403331
1933,6.015251247
1934,5.966013864
1935,5.974351134
1936,5.933217953
1937,6.002164095
1938,6.016956545
1939,5.993013074
1940,5.982833194
1941,5.998565153
1942,5.954429132
1943,6.076075248
1944,6.02196694
1945,5.930645965
1946,5.985857738
1947,6.055320253
1948,5.962888015
1949,6.031917711
1950,5.985062994
1951,5.971774963
1952,6.071686289
1953,5.974622877
1954,6.012687017
1955,5.977169737
1956,6.069859812
1957,5.940059658
1958,5.986379117
1959,6.026324544
1960,6.010307488
1961,6.006518085
1962,6.032272665
1963,6.005904721
1964,5.979045136
1965,5.916658597
1966,5.971605404
1967,6.019269251
1968,6.001378891
1969,6.070142306
1970,6.058178266
1971,6.105373677
1972,5.949316227
1973,5.983250844
1974,5.930334719
1975,6.044070636
1976,6.02509638
1977,6.016805269
1978,6.029835571
1979,5.977380125
1980,6.007664747
1981,6.023718553
1982,5.947257235
1983,6.003768034
1984,5.946330919
1985,5.89737655
1986,6.028696335
1987,6.044929105
1988,5.966135175
1989,5.941082353
1990,5.89098641
1991,6.013975473
1992,6.007812873
1993,6.025183967
1994,5.992181082
1995,6.000429774
1996,6.078242708
1997,6.012991764
1998,5.985325937
1999,6.000425574
2000,6.017735216
2001,6.035933935
2002,5.951960781
2003,6.009493577
2004,6.02200782
2005,5.978961216
2006,5.920886115
2007,6.028083286
2008,6.194164168
2009,5.996688906
2010,6.097064788
2011,5.981740517
2012,6.083983938
2013,5.989515743
2014,5.957053774
2015,6.031011463
2016,6.02549028
2017,5.961672797
2018,6.014242565
2019,5.964705954
2020,5.925093902
2021,5.929058626
2022,5.991720305
2023,5.950815444
2024,5.995284877
2025,5.999133973
2026,6.112033728
2027,6.089764664
2028,6.05926406
2029,6.070759385
2030,6.070904936
2031,6.030934319
2032,5.930854453
2033,6.036314561
2034,5.961567623
2035,5.971805859
2036,6.074922321
2037,6.118129955
2038,6.015351311
2039,5.998472982
2040,6.020678877
2041,5.941589476
2042,5.969962757
2043,6.037150829
2044,5.902717063
2045,6.091670294
2046,6.113425998
2047,5.952426973
2048,5.988479376
2049,6.015489311
2050,6.008395762
2051,5.913768352
2052,6.001863931
2053,5.959230616
2054,6.067664158
2055,5.96872782
2056,5.984910824
2057,6.096484462
2058,5.972371668
2059,5.890606053
2060,6.02569348
2061,5.955481961
2062,6.058376946
2063,6.021189159
2064,6.020497033
2065,5.963844363
2066,5.94353368
2067,6.018440147
2068,5.958018761
2069,6.028011683
2070,5.963992103
2071,5.97829322
2072,6.049184998
2073,5.990022519
2074,5.9821558
2075,6.011697422
2076,5.960874438
2077,6.03645381
2078,5.950467181
2079,5.980726633
2080,6.026886615
2081,5.968621307
2082,6.020328295
2083,5.993653807
2084,5.974889787
2085,6.000064079
2086,6.022052521
2087,6.000508061
2088,6.046061808
2089,6.00778005
2090,6.033199318
2091,6.01745535
2092,5.930860363
2093,5.994456986
2094,5.969021843
2095,5.971299341
2096,5.967656591
2097,5.978248931
2098,6.076758714
2099,5.996097997
2100,6.019670441
2101,5.919221237
2102,6.029673989
2103,5.96373381
2104,5.989913462
2105,6.038613786
2106,6.01253488
2107,5.934621644
2108,6.043791964
2109,6.079337148
2110,5.931870732
2111,6.021685802
2112,5.952957413
2113,5.951375878
2114,5.890906731
2115,6.016964934
2116,6.022263117
2117,6.087822411
2118,6.030279217
2119,5.984735394
2120,6.009234419
2121,6.055132839
2122,6.005518379
2123,5.996923975
2124,6.037762323
2125,6.012954422
2126,5.999961367
2127,6.029722379
2128,5.985554526
2129,6.072498399
2130,5.905832382
2131,5.975025773
2132,6.023330611
2133,5.995037214
2134,6.023525552
2135,6.012989468
2136,5.99078531
2137,5.932914816
2138,5.939522143
2139,6.002389609
2140,6.116125106
2141,5.890510991
2142,6.003267597
2143,6.029801636
2144,5.972689104
2145,5.952710799
2146,6.093913728
2147,5.98368614
2148,6.04163238
2149,5.990323026
2150,5.990600444
2151,6.043833682
2152,6.066683742
2153,5.963325177
2154,6.0359558
2155,6.010785824
2156,6.051511082
2157,5.996834849
2158,6.105490038
2159,5.987335022
2160,5.938118954
2161,6.08456572
2162,6.041493148
2163,5.958195606
2164,5.951776474
2165,6.025956849
2166,6.069340898
2167,6.053798692
2168,6.001835621
2169,6.027115725
2170,5.980522371
2171,5.965752514
2172,6.051269962
2173,5.965290799
2174,5.925186757
2175,6.013375132
2176,5.995112074
2177,6.041929521
2178,6.060892779
2179,5.955885091
2180,6.028762449
2181,6.092738182
2182,6.056305688
2183,6.014497616
2184,6.077429509
2185,5.959097396
2186,6.032134606
2187,6.045833745
2188,5.954648364
2189,5.907807802
2190,6.064149585
2191,6.037591915
2192,5.979997086
2193,5.950161575
2194,5.962841808
2195,5.962255061
2196,5.922499251
2197,6.012198555
2198,5.929479718
2199,6.018320579
2200,5.989658704
2201,5.988549216
2202,6.061083379
2203,5.919399093
2204,6.025083069
2205,6.039074816
2206,6.007820058
2207,5.918363541
2208,5.922287203
2209,6.021152039
2210,6.054832633
2211,6.026733193
2212,6.025206181
2213,5.981567073
2214,6.085930822
2215,6.006979988
2216,5.982769685
2217,5.988670309
2218,6.065271379
2219,5.94288628
2220,5.997026623
2221,5.943188371
2222,6.044807347
2223,6.075921798
2224,6.06027872
2225,5.996640501
2226,6.091916484
2227,6.063725689
2228,6.022663243
2229,5.921702178
2230,5.929984176
2231,5.962986769
2232,5.872895506
2233,5.996926082
2234,6.005116015
2235,5.987602165
2236,5.964671426
2237,5.95891178
2238,5.939771064
2239,5.951449638
2240,6.006756311
2241,5.94809638
2242,6.020959598
2243,6.076432715
2244,5.876104685
2245,6.006771214
2246,6.008637877
2247,6.069682441
2248,5.981009448
2249,6.016689219
2250,5.92904165
2251,6.113593787
2252,5.936117573
2253,5.931186383
2254,5.994591191
2255,5.948189225
2256,5.919800463
2257,6.044283439
2258,5.952604611
2259,6.060926713
2260,5.935511112
2261,5.944098271
2262,5.909027632
2263,6.026417459
2264,5.959125204
2265,6.019667259
2266,5.994461162
2267,6.010476878
2268,5.970919366
2269,5.955786973
2270,5.984573795
2271,6.023478385
2272,6.032562626
2273,5.986660603
2274,5.909790864
2275,5.92961664
2276,6.018824632
2277,6.01625628
2278,6.059548597
2279,5.975037621
2280,5.930128643
2281,6.023849308
2282,6.002332987
2283,6.006198441
2284,5.996438584
2285,5.938044201
2286,5.970651597
2287,5.979205669
2288,5.957713492
2289,5.977958851
2290,6.074552299
2291,5.967859542
2292,6.012788216
2293,5.98492743
2294,5.949496776
2295,5.993616566
2296,5.976630264
2297,5.910391073
2298,6.008772882
2299,5.996886921
2300,5.927055154
2301,5.960923356
2302,6.052166055
2303,6.093345064
2304,5.962840186
2305,6.015538296
2306,5.967579149
2307,6.001422784
2308,5.999088361
2309,5.937179996
2310,5.963029312
2311,6.008013101
2312,6.015821133
2313,5.969135493
2314,5.998376837
2315,6.000961617
2316,5.946284175
2317,6.036123544
2318,6.035372207
2319,6.024856928
2320,5.985124099
2321,5.932100134
2322,6.045805129
2323,5.987528984
2324,5.964083291
2325,5.977129339
2326,6.076968366
2327,5.991156051
2328,6.001099819
2329,5.95737802
2330,5.959832622
2331,5.944201906
2332,6.022056213
2333,6.017702049
2334,6.032165446
2335,6.093409658
2336,6.023436936
2337,6.007255945
2338,5.94328936
2339,6.031745376
2340,5.977484843
2341,6.024916241
2342,5.932446374
2343,6.021800027
2344,6.022868492
2345,6.076461242
2346,6.001523642
2347,6.073158818
2348,6.018928936
2349,6.013520879
2350,5.962104749
2351,5.947163834
2352,6.023929361
2353,6.058878561
2354,5.999112436
2355,5.937043451
2356,5.986170755
2357,5.941989154
2358,6.035124757
2359,6.02698259
2360,5.965616305
2361,6.016354788
2362,5.905951526
2363,5.999712886
2364,5.97203479
2365,6.022520439
2366,5.940715931
2367,5.964899164
2368,5.989815692
2369,5.964488616
2370,6.061201794
2371,5.975888047
2372,5.984733461
2373,5.960904363
2374,6.04299078
2375,5.922575538
2376,6.009323967
2377,6.004383086
2378,6.005176675
2379,5.933928508
2380,5.9986477
2381,5.992951067
2382,6.056771405
2383,5.981111149
2384,6.07108532
2385,5.949341898
2386,6.044164891
2387,6.028908414
2388,5.975339098
2389,6.087542347
2390,6.072839407
2391,5.949128049
2392,6.112865981
2393,5.909978465
2394,6.018678814
2395,6.045414601
2396,6.045121728
2397,5.984516109
2398,5.972081633
2399,5.978432493
2400,6.035904925
2401,5.981483159
2402,5.966404928
2403,6.023927996
2404,5.968419335
2405,5.999839759
2406,6.034024055
2407,5.967628655
2408,6.032775716
2409,5.938394352
2410,5.970151535
2411,5.97179664
2412,6.051078275
2413,5.943317
2414,6.062746085
2415,5.918027268
2416,6.029196337
2417,5.96147073
2418,6.032325451
2419,6.094152421
2420,6.059486338
2421,5.977678685
2422,6.081620423
2423,6.022861665
2424,6.049756611
2425,5.96703647
2426,6.091401122
2427,5.99758115
2428,5.908279532
2429,5.977695677
2430,5.994298199
2431,6.023215318
2432,6.047852197
2433,5.979683609
2434,6.071437632
2435,5.972603737
2436,5.999902316
2437,5.996391361
2438,5.910481175
2439,6.017298751
2440,6.049732022
2441,5.954361523
2442,6.063387717
2443,6.027166282
2444,5.990115967
2445,5.976194763
2446,6.083923897
2447,5.993514487
2448,5.938047226
2449,6.010133723
2450,5.965435709
2451,6.011658828
2452,5.990561561
2453,5.933600027
2454,5.994792405
2455,5.869444655
2456,6.021530733
2457,5.951373617
2458,5.96866913
2459,5.90998892
2460,6.067279038
2461,6.037557526
2462,6.066565364
2463,5.979711832
2464,5.975729504
2465,6.036836972
2466,6.069163892
2467,5.980344001
2468,5.94177448
2469,6.022250625
2470,6.04023676
2471,5.96758394
2472,6.002635209
2473,6.0828693
2474,5.952164761
2475,5.923796694
2476,6.062173158
2477,6.028751878
2478,5.904419281
2479,6.03567486
2480,6.007369018
2481,6.08120046
2482,6.006905288
2483,5.937212613
2484,5.920698141
2485,5.984519538
2486,6.006629557
2487,5.972845804
2488,6.047430434
2489,5.992072446
2490,6.123128766
2491,5.958941886
2492,5.996775184
2493,6.009756792
2494,6.014082113
2495,6.06584607
2496,5.965456018
2497,5.971119855
2498,6.080763926
2499,6.003136037
2500,5.946981762
2501,5.955497099
2502,6.007559743
2503,6.042901557
2504,6.009664383
2505,6.014076075
2506,6.00271506
2507,6.022277076
2508,5.945011809
2509,5.961113627
2510,6.081724554
2511,5.932729963
2512,5.964692551
2513,6.016414474
2514,6.05986963
2515,6.023938365
2516,5.984963044
2517,5.979867662
2518,5.958388707
2519,5.951891601
2520,6.03010603
2521,5.950422999
2522,6.052571468
2523,6.042920447
2524,6.016573762
2525,6.015981513
2526,5.976357975
2527,5.978943522
2528,6.035119547
2529,6.063479747
2530,5.966940932
2531,6.012502729
2532,5.976417097
2533,5.900940497
2534,6.03418025
2535,5.940595844
2536,5.987421593
2537,6.031816685
2538,6.005526907
2539,5.903417586
2540,6.001045527
2541,5.979971225
2542,6.078690119
2543,6.069622408
2544,5.968837267
2545,6.013652843
2546,6.020122953
2547,6.056461817
2548,6.047364129
2549,6.005254096
2550,5.926097945
2551,5.970785323
2552,6.005239749
2553,5.99585401
2554,5.96282522
2555,6.040727505
2556,5.958620632
2557,5.946458572
2558,5.984701819
2559,6.099027721
2560,5.990069048
2561,5.935868398
2562,6.045635371
2563,6.054541594
2564,6.02004388
2565,5.985965591
2566,6.019512324
2567,5.984759232
2568,5.972784442
2569,5.961838115
2570,6.010319131
2571,5.980562162
2572,6.025685262
2573,6.006575909
2574,5.986078387
2575,5.982514463
2576,6.041334622
2577,5.94054079
2578,6.04844998
2579,5.906067791
2580,5.946579614
2581,5.995235521
2582,6.006695245
2583,6.081257456
2584,5.963200886
2585,6.074549965
2586,6.018098279
2587,5.957964315
2588,5.958556652
2589,5.954794258
2590,5.939530944
2591,6.004944215
2592,6.028838464
2593,6.033410279
2594,5.992673821
2595,6.095651305
2596,5.917582273
2597,6.032366099
2598,5.900963436
2599,5.977183569
2600,6.025695177
2601,5.946017509
2602,6.015452722
2603,6.000294001
2604,5.992245832
2605,5.974568532
2606,5.938853158
2607,6.012383135
2608,5.978993629
2609,6.082225251
2610,6.005132249
2611,6.037150334
2612,5.983408847
2613,6.01583684
2614,6.07962473
2615,5.937035375
2616,6.00197695
2617,6.137532906
2618,5.973385941
2619,6.005195797
2620,6.059431938
2621,6.03783662
2622,6.001168387
2623,6.0092024
2624,6.061127172
2625,5.987080668
2626,5.884446001
2627,6.004685015
2628,6.087721003
2629,6.004367774
2630,5.984856666
2631,6.052963796
2632,6.011559901
2633,6.018832467
2634,5.995005114
2635,6.083438233
2636,6.001868563
2637,6.010141441
2638,5.972887829
2639,6.06320159
2640,6.014505191
2641,6.015284897
2642,6.010850155
2643,5.971778006
2644,5.995138882
2645,5.963802981
2646,6.010577858
2647,5.976804458
2648,6.010299394
2649,5.997777404
2650,6.070583821
2651,6.030842186
2652,6.03609693
2653,5.957376227
2654,5.993456393
2655,5.984671158
2656,6.042756939
2657,5.974212587
2658,6.037434792
2659,6.197711953
2660,6.000610048
2661,5.984477758
2662,5.984712138
2663,6.11002474
2664,6.082315477
2665,5.948586136
2666,6.117236368
2667,5.989206402
2668,5.975331494
2669,5.979936225
2670,6.033538193
2671,6.006456924
2672,6.037868648
2673,6.051180339
2674,6.030167389
2675,6.005816976
2676,6.025699619
2677,6.019052822
2678,6.077775251
2679,6.016941584
2680,5.942293815
2681,6.035849591
2682,5.879373764
2683,6.013997246
2684,6.018781128
2685,5.946152408
2686,6.016955579
2687,6.055088559
2688,6.008029903
2689,5.997448671
2690,6.023776738
2691,5.95677029
2692,6.0647954
2693,5.979728732
2694,5.95690305
2695,6.090846865
2696,6.01015676
2697,6.001947129
2698,6.005434513
2699,5.956224529
2700,5.941807117
2701,5.960879563
2702,6.065006051
2703,6.130880501
2704,5.996797767
2705,6.007000818
2706,6.00780074
2707,6.000207343
2708,6.019823155
2709,6.00039929
2710,6.090011425
2711,5.959492982
2712,6.078556037
2713,5.852363387
2714,5.960834376
2715,6.009475127
2716,5.952239383
2717,5.916111375
2718,6.085486327
2719,6.003846159
2720,6.080883462
2721,5.980373862
2722,6.013331867
2723,5.989149024
2724,5.981468552
2725,6.063822252
2726,5.993623137
2727,6.080837032
2728,5.970390792
2729,6.073777485
2730,5.947589755
2731,6.007961877
2732,6.005559073
2733,5.915937912
2734,6.011277329
2735,6.094013369
2736,5.970664211
2737,5.979389874
2738,6.113298939
2739,6.011292056
2740,5.956830464
2741,6.062117592
2742,6.027732761
2743,5.951777554
2744,6.125416971
2745,5.967175104
2746,5.963287775
2747,5.944665176
2748,6.037345855
2749,6.080276037
2750,6.155326243
2751,6.072064926
2752,5.935761238
2753,6.027933095
2754,6.01106558
2755,5.997101038
2756,5.933512716
2757,6.044534797
2758,5.977349131
2759,5.973247708
2760,5.95101939
2761,6.015101416
2762,5.931128984
2763,6.014845213
2764,6.083542963
2765,5.97113662
2766,6.048415408
2767,6.018018327
2768,6.003606553
2769,6.060006503
2770,5.970825853
2771,6.000221835
2772,5.977963774
2773,5.929092393
2774,5.998900306
2775,6.01158476
2776,6.035641126
2777,5.991162778
2778,5.993253456
2779,6.006148065
2780,5.939181908
2781,6.050096307
2782,5.973713474
2783,5.941653798
2784,5.972086161
2785,5.956426197
2786,6.066677156
2787,6.028781903
2788,6.021766795
2789,6.006306991
2790,6.014562461
2791,6.021932871
2792,5.99227495
2793,5.929999808
2794,6.04617637
2795,6.06630986
2796,6.037539473
2797,6.022807553
2798,5.936565204
2799,5.961466412
2800,6.037149723
2801,5.906763919
2802,6.006498414
2803,6.070835178
2804,5.974106674
2805,5.925257903
2806,6.092814981
2807,5.960035327
2808,6.051243302
2809,6.042438802
2810,6.092109846
2811,5.992221008
2812,6.012420878
2813,5.883737105
2814,5.963345465
2815,5.894445056
2816,6.096342251
2817,6.030832525
2818,5.958282947
2819,6.092342524
2820,6.050927531
2821,6.026828454
2822,6.008744503
2823,5.949647495
2824,5.927236839
2825,5.970455125
2826,5.973942247
2827,6.027607881
2828,5.96971693
2829,6.043532147
2830,5.962223413
2831,6.062118059
2832,6.033916973
2833,6.041383043
2834,5.982351547
2835,6.021124677
2836,5.987928219
2837,6.070458273
2838,5.968328249
2839,6.006689927
2840,6.071447186
2841,5.9523078
2842,6.075035666
2843,5.91475584
2844,6.020579925
2845,6.007454634
2846,6.055156679
2847,5.966068114
2848,6.046657234
2849,6.072143411
2850,5.988807048
2851,6.043497449
2852,5.9837481
2853,6.082183864
2854,5.966938297
2855,6.003448416
2856,6.079344622
2857,6.088594057
2858,5.987311991
2859,6.097550619
2860,5.992394214
2861,6.005206884
2862,6.020956847
2863,6.004280186
2864,6.021778187
2865,5.957145564
2866,6.098219423
2867,6.091432523
2868,5.966195716
2869,5.975679825
2870,6.034090199
2871,6.031891983
2872,6.002581727
2873,5.970557764
2874,5.944675156
2875,6.022345415
2876,5.962403512
2877,6.048328713
2878,5.925083402
2879,6.032060526
2880,5.997309055
2881,5.962869172
2882,5.954476712
2883,5.99812759
2884,6.08048831
2885,6.059629469
2886,6.032524881
2887,6.010648943
2888,5.931167387
2889,6.031455445
2890,6.009898834
2891,5.95155559
2892,5.966408603
2893,5.941778888
2894,6.079655757
2895,6.031952198
2896,5.961360325
2897,5.987602498
2898,5.989302685
2899,6.066970249
2900,6.031306032
2901,5.985131548
2902,5.956318318
2903,5.924830111
2904,6.019193538
2905,6.022360491
2906,5.975694995
2907,6.089757913
2908,5.985259964
2909,6.033560551
2910,5.915107907
2911,5.947379115
2912,6.085113234
2913,6.000116541
2914,5.979250612
2915,5.944314739
2916,6.042877068
2917,5.968253341
2918,6.106244926
2919,6.03107454
2920,5.935151696
2921,5.879047706
2922,6.042995643
2923,5.959099851
2924,5.977606775
2925,6.02847155
2926,6.002532424
2927,6.040818847
2928,5.986029268
2929,5.965245349
2930,6.027140764
2931,5.991803599
2932,5.915923574
2933,5.975289507
2934,6.009098749
2935,6.069088414
2936,5.985964862
2937,6.010206518
2938,6.010537542
2939,6.046771876
2940,6.006008782
2941,6.1141627
2942,6.00303637
2943,6.023732122
2944,5.948346962
2945,5.969813122
2946,6.034759707
2947,5.929899034
2948,5.923128823
2949,5.995433625
2950,5.968283783
2951,5.947283779
2952,6.007234913
2953,5.871243068
2954,6.026164158
2955,6.04857879
2956,6.004567607
2957,5.934668028
2958,5.981712775
2959,5.993327975
2960,5.971305589
2961,6.013084754
2962,5.997813722
2963,5.965868469
2964,5.960778312
2965,5.898380346
2966,6.011097668
2967,6.062097936
2968,5.975510358
2969,5.983470446
2970,6.001835216
2971,5.977720859
2972,6.034361669
2973,6.044089679
2974,6.009323479
2975,5.931965215
2976,6.076598856
2977,5.999877208
2978,6.016503575
2979,6.034014841
2980,6.049623645
2981,6.012444968
2982,5.948997911
2983,5.98586186
2984,6.013695763
2985,6.047547855
2986,6.005456708
2987,5.905370772
2988,5.974337889
2989,6.002335312
2990,6.020832375
2991,6.066443888
2992,5.981817467
2993,5.946875064
2994,6.006288634
2995,5.984800708
2996,5.967730164
2997,6.01052315
2998,6.049481983
2999,5.97646799
3000,6.058768039
3001,6.031937973
3002,6.015752469
3003,5.961140948
3004,5.981994972
3005,6.051799963
3006,6.094133905
3007,5.962571268
3008,6.007857715
3009,6.007823719
3010,5.973691613
3011,6.059212927
3012,6.007542283
3013,5.993982667
3014,5.987180995
3015,6.047016169
3016,5.964115643
3017,5.997250081
3018,6.126625152
3019,6.032920879
3020,6.015372298
3021,6.099296379
3022,5.982261993
3023,5.98598134
3024,6.017281716
3025,6.010075652
3026,6.106123421
3027,6.082881795
3028,6.000662602
3029,6.06632702
3030,5.939983849
3031,5.914182447
3032,5.985736153
3033,6.025162954
3034,5.986235787
3035,6.011368582
3036,5.904316768
3037,6.054401976
3038,6.032606285
3039,6.033262486
3040,6.048079801
3041,6.103294846
3042,5.974367007
3043,5.888604236
3044,5.97240265
3045,6.063351733
3046,5.993024404
3047,5.968523127
3048,5.970549427
3049,6.008572293
3050,6.050409638
3051,5.981023447
3052,6.104621489
3053,6.080286243
3054,5.979482767
3055,6.005059184
3056,6.018335844
3057,5.95964064
3058,6.043617998
3059,6.01908086
3060,6.000246881
3061,5.96582649
3062,6.024090886
3063,5.930738859
3064,6.039873067
3065,6.077343344
3066,6.039867616
3067,5.997242581
3068,5.98128666
3069,6.015008495
3070,5.937826126
3071,6.075300763
3072,6.029899586
3073,6.051235277
3074,5.948569611
3075,6.08971702
3076,5.991159712
3077,6.007407078
3078,5.936779901
3079,5.980537963
3080,5.961082863
3081,5.955113078
3082,5.941587068
3083,6.057014799
3084,5.999442607
3085,6.035175043
3086,5.951296085
3087,5.991866131
3088,5.99061222
3089,6.037796595
3090,5.914922243
3091,6.049319614
3092,5.987175944
3093,5.98168791
3094,5.965260433
3095,5.965543924
3096,6.026389076
3097,5.93838644
3098,6.066057531
3099,5.934260609
3100,5.972728206
3101,5.952925022
3102,6.007048943
3103,5.964585385
3104,5.930700844
3105,6.015558271
3106,6.083383642
3107,5.966259212
3108,5.893783086
3109,5.950340034
3110,5.987933595
3111,5.984570731
3112,5.929680108
3113,5.99970674
3114,5.925962501
3115,6.00273524
3116,6.026979258
3117,5.967773419
3118,6.016499314
3119,5.984658068
3120,5.944434692
3121,6.081670981
3122,6.039080553
3123,5.992923796
3124,6.02361578
3125,5.954956134
3126,5.90024504
3127,5.945175479
3128,5.955618264
3129,6.065010872
3130,5.925739143
3131,6.039479947
3132,5.927039644
3133,5.94274416
3134,6.030057093
3135,6.008638959
3136,6.070714832
3137,6.022603265
3138,5.908562638
3139,5.908657421
3140,6.055842797
3141,5.929616508
3142,6.035789225
3143,6.006314484
3144,6.077567011
3145,5.947218881
3146,6.015679127
3147,5.982761613
3148,5.990738434
3149,5.973165159
3150,6.083498825
3151,5.935871333
3152,6.009327537
3153,5.943431953
3154,6.024821817
3155,6.048252764
3156,5.979937044
3157,5.953812609
3158,6.076538366
3159,6.00316534
3160,6.054436355
3161,5.95727467
3162,5.950726721
3163,5.960417411
3164,5.952147391
3165,5.983714115
3166,5.99079215
3167,5.947169574
3168,5.937172857
3169,5.912287797
3170,5.997285765
3171,6.046420893
3172,5.980004763
3173,6.059817887
3174,6.174583563
3175,6.020693963
3176,6.067681887
3177,6.050182253
3178,6.008119638
3179,5.954027272
3180,5.980349588
3181,6.029394615
3182,5.953656498
3183,5.997171894
3184,6.078565377
3185,6.089876925
3186,5.886306101
3187,6.077436378
3188,5.98026596
3189,5.980281638
3190,6.029721338
3191,6.037131847
3192,5.965793678
3193,6.019680288
3194,5.991832317
3195,6.03072941
3196,5.963982523
3197,6.023815726
3198,6.040215781
3199,5.925290115
3200,5.986549306
3201,6.033898668
3202,6.020545948
3203,6.073560017
3204,5.923961723
3205,6.039637292
3206,5.963968761
3207,5.920731511
3208,5.95596057
3209,6.047217447
3210,6.059082232
3211,5.986152774
3212,5.968018158
3213,6.002588671
3214,5.96033422
3215,5.900241253
3216,6.033787739
3217,6.035013673
3218,6.076626584
3219,5.980064713
3220,6.031219215
3221,5.979863023
3222,5.96222192
3223,5.931939093
3224,6.059200078
3225,6.007301984
3226,5.983958006
3227,5.97133997
3228,5.962427796
3229,5.941376387
3230,6.026467373
3231,6.056517661
3232,6.026344597
3233,5.983882938
3234,6.011189384
3235,6.032752834
3236,6.023620846
3237,6.020050796
3238,5.915425276
3239,5.951327757
3240,6.044809074
3241,5.898893671
3242,6.09593876
3243,5.977647172
3244,5.94133742
3245,5.968241862
3246,5.995486766
3247,5.985750958
3248,5.968174004
3249,5.937344983
3250,6.070031878
3251,5.997147238
3252,6.019330228
3253,6.004175441
3254,6.014088895
3255,5.91935096
3256,5.975133036
3257,5.996919641
3258,6.029189944
3259,5.938537206
3260,6.084394446
3261,5.926343034
3262,5.894785334
3263,6.079775447
3264,5.937453898
3265,6.012657676
3266,6.061284928
3267,5.975845922
3268,5.98379679
3269,5.946422053
3270,5.923793717
3271,5.991452911
3272,5.943991308
3273,5.989391491
3274,5.988200451
3275,6.04953665
3276,6.09981042
3277,6.084178264
3278,5.986310659
3279,6.071551115
3280,5.775266776
3281,5.954201538
3282,5.931898257
3283,6.099207424
3284,5.994848576
3285,5.997758601
3286,6.010290115
3287,5.982857942
3288,5.957672355
3289,6.021168314
3290,6.05157366
3291,5.966417015
3292,6.039032862
3293,5.987353368
3294,6.029690893
3295,5.985374612
3296,6.003158124
3297,6.029205455
3298,6.019278979
3299,5.980714489
3300,6.095244985
3301,5.965154017
3302,5.997366998
3303,5.945702299
3304,5.999856668
3305,6.04436014
3306,6.016851245
3307,6.081545535
3308,6.043963943
3309,6.022329004
3310,6.034571935
3311,6.024028872
3312,5.976493309
3313,6.038623978
3314,5.970225588
3315,5.976705046
3316,5.930878788
3317,6.105905552
3318,5.947726574
3319,5.998007663
3320,6.022579076
3321,6.050268973
3322,5.956642055
3323,6.004040039
3324,5.97316228
3325,6.026019182
3326,6.001781952
3327,6.023401656
3328,6.011973763
3329,5.918919541
3330,5.977641677
3331,5.992637853
3332,6.011222461
3333,5.883235439
3334,6.001711534
3335,5.921467468
3336,6.008566136
3337,6.009045522
3338,5.910818688
3339,5.997700475
3340,5.924855277
3341,6.008153564
3342,5.968468434
3343,6.014502399
3344,6.051241591
3345,6.070247968
3346,5.949771848
3347,6.041872938
3348,5.98946308
3349,5.995210841
3350,6.027572104
3351,6.035746197
3352,5.91005804
3353,5.960237351
3354,5.957340876
3355,5.973408126
3356,5.98094171
3357,6.020728936
3358,6.021262964
3359,5.998672683
3360,5.942996797
3361,5.915395779
3362,5.965485841
3363,5.996482976
3364,5.972772257
3365,6.039094079
3366,6.009036264
3367,6.068197656
3368,5.94395199
3369,6.026480755
3370,5.984798941
3371,5.952981871
3372,5.998335302
3373,6.085710269
3374,6.02126493
3375,6.011328609
3376,6.060568316
3377,5.950995565
3378,5.979642978
3379,6.027647443
3380,6.065105735
3381,6.010667566
3382,5.978199878
3383,6.032561013
3384,5.96605452
3385,5.998235721
3386,6.031059785
3387,6.025811127
3388,6.001707918
3389,5.91217683
3390,6.002834549
3391,5.950691308
3392,5.974066881
3393,6.099052041
3394,5.922898708
3395,5.990219069
3396,5.978477926
3397,5.997750876
3398,5.918993292
3399,6.057180366
3400,5.959182141
3401,6.047070174
3402,5.991881312
3403,6.033186887
3404,5.950207048
3405,5.996284279
3406,6.086665884
3407,5.898675336
3408,6.015126007
3409,6.030929708
3410,6.06822801
3411,6.081405796
3412,6.023327449
3413,6.01844672
3414,5.94579711
3415,6.054499752
3416,6.076758807
3417,6.025761335
3418,6.048208494
3419,6.085718782
3420,6.024988964
3421,6.021319113
3422,5.982661582
3423,5.94328441
3424,6.006823975
3425,5.961433601
3426,5.947730978
3427,5.978392314
3428,6.108819379
3429,5.965144329
3430,5.973367355
3431,5.885008056
3432,5.975347297
3433,5.984715327
3434,6.038867321
3435,6.00566697
3436,5.999699601
3437,5.957046918
3438,6.000001087
3439,5.981958558
3440,6.005730395
3441,5.987013532
3442,5.982091706
3443,5.916629167
3444,6.073983591
3445,5.970730934
3446,5.99461035
3447,6.009329067
3448,5.99747018
3449,6.012537218
3450,6.014111997
3451,6.007751047
3452,6.011273819
3453,5.905489287
3454,6.081479653
3455,5.97326449
3456,5.998687617
3457,5.997401142
3458,6.036104567
3459,5.940479868
3460,5.979060436
3461,6.065787144
3462,5.936581683
3463,6.005117181
3464,5.996042399
3465,6.018306756
3466,5.958481092
3467,5.93478714
3468,6.068403992
3469,6.027610439
3470,6.002069828
3471,5.955909409
3472,5.979773049
3473,6.016187014
3474,6.005631291
3475,6.080700381
3476,5.980000215
3477,6.032044725
3478,5.94135893
3479,5.936289723
3480,5.94081238
3481,6.119940287
3482,5.973766248
3483,6.011288813
3484,5.987183837
3485,6.004053105
3486,6.090032049
3487,5.955105274
3488,6.059496208
3489,6.043701484
3490,5.925090078
3491,6.018234293
3492,6.035049858
3493,6.107333527
3494,6.021738999
3495,6.027404007
3496,6.001531511
3497,6.001053794
3498,6.115141604
3499,6.003031257
3500,6.017856664
3501,6.028867001
3502,6.134718624
3503,5.962967725
3504,6.018351478
3505,5.966441326
3506,5.931202941
3507,6.05629109
3508,6.012605622
3509,6.098001286
3510,5.927668552
3511,5.943658683
3512,6.053495343
3513,5.985057983
3514,5.907234015
3515,5.936638407
3516,6.034541207
3517,6.002389631
3518,6.065673163
3519,6.013578135
3520,6.106872055
3521,6.043919367
3522,5.962962341
3523,5.931608275
3524,5.97060491
3525,5.996493142
3526,6.041398114
3527,6.009510302
3528,6.055708847
3529,6.041741874
3530,5.990564087
3531,5.951159111
3532,6.042706829
3533,6.039678377
3534,6.07308545
3535,5.973184124
3536,5.971986545
3537,6.018039188
3538,5.971260955
3539,6.051411747
3540,5.996242781
3541,6.036984624
3542,5.897160881
3543,6.125022735
3544,6.007479183
3545,5.968774919
3546,5.990264015
3547,5.964781038
3548,6.077638005
3549,5.980058025
3550,6.092376615
3551,6.024634987
3552,6.030311774
3553,5.988188229
3554,5.970930228
3555,5.956448611
3556,5.994365364
3557,5.958699483
3558,6.019539646
3559,5.904291838
3560,5.908729204
3561,5.933298814
3562,5.940980185
3563,5.957962623
3564,6.033814609
3565,6.099387813
3566,5.960911793
3567,6.036460387
3568,5.969490624
3569,5.910740403
3570,5.996813648
3571,6.040257037
3572,5.987384017
3573,5.985346223
3574,6.06679871
3575,6.029168059
3576,6.023634252
3577,6.038629091
3578,5.986261982
3579,5.925135314
3580,5.937414431
3581,6.061480602
3582,5.995836808
3583,6.023772195
3584,6.010693347
3585,5.983023821
3586,6.051390017
3587,5.980532267
3588,5.918861016
3589,5.938342328
3590,6.004911247
3591,6.037039645
3592,6.04088112
3593,6.135202364
3594,5.932539164
3595,5.969095192
3596,5.950940715
3597,6.008697229
3598,5.989796979
3599,5.964438744
3600,6.002821773
3601,5.970637654
3602,5.959080886
3603,5.955234004
3604,6.030401198
3605,5.972113348
3606,5.997958403
3607,6.05253697
3608,6.044076998
3609,5.973024659
3610,5.956831487
3611,6.077862763
3612,5.912159938
3613,5.980955795
3614,5.978736286
3615,5.924311914
3616,5.92140075
3617,6.037814939
3618,5.97936246
3619,6.022322485
3620,6.077817776
3621,5.91978577
3622,6.004887776
3623,6.036382849
3624,6.020144485
3625,5.892267864
3626,6.027897568
3627,5.987510319
3628,5.962503381
3629,6.025258917
3630,5.928393141
3631,5.865093137
3632,5.977901574
3633,6.022317759
3634,6.019919241
3635,6.013301385
3636,5.954766438
3637,5.90861484
3638,5.930595891
3639,6.039395072
3640,5.991810553
3641,5.969327187
3642,5.990122137
3643,5.975943945
3644,5.987222239
3645,5.918822343
3646,5.97211865
3647,6.106759058
3648,6.013580892
3649,6.026260516
3650,6.05706247
3651,5.954112534
3652,6.015526169
3653,5.996985382
3654,6.016194805
3655,6.086121183
3656,5.991966296
3657,5.979318487
3658,5.973669661
3659,5.968444085
3660,5.96429488
3661,5.97603372
3662,5.985109207
3663,6.074904704
3664,5.950810972
3665,6.083304226
3666,6.0116701
3667,5.970133082
3668,6.046926356
3669,6.04310586
3670,6.008614823
3671,6.001772351
3672,5.979113397
3673,5.962912273
3674,6.00826271
3675,5.940078951
3676,5.933589884
3677,6.015939375
3678,6.020672765
3679,5.917892712
3680,6.019866466
3681,5.972208919
3682,5.935920909
3683,6.102737346
3684,6.025042136
3685,5.988193635
3686,5.964899403
3687,6.079556189
3688,5.926965007
3689,6.039399369
3690,5.966996014
3691,5.926078211
3692,6.0327905
3693,5.966010864
3694,5.939320216
3695,6.002562724
3696,5.920279614
3697,5.999381547
3698,6.019026715
3699,6.014889313
3700,6.049911055
3701,6.020582542
3702,5.953995336
3703,5.994953862
3704,6.021643041
3705,6.02677809
3706,6.010518447
3707,5.953279788
3708,5.974664694
3709,5.894081404
3710,5.955752348
3711,5.952342271
3712,5.932840032
3713,5.995289761
3714,5.913450302
3715,6.062658564
3716,5.852356103
3717,6.028455832
3718,6.052072587
3719,6.055370937
3720,6.010900878
3721,5.90933495
3722,5.933311092
3723,5.918224299
3724,5.956793623
3725,6.07128218
3726,6.003190287
3727,6.118672102
3728,5.920973653
3729,6.002963854
3730,6.065585039
3731,5.97769874
3732,5.972497335
3733,6.002709964
3734,6.046332659
3735,5.943285059
3736,6.053389603
3737,6.005787001
3738,6.063651895
3739,5.928975011
3740,6.010834646
3741,5.983267622
3742,5.985407673
3743,5.96762728
3744,6.012958114
3745,6.031350488
3746,6.048967373
3747,6.018873676
3748,6.070993128
3749,5.97414039
3750,6.083255802
3751,6.086093327
3752,5.957271817
3753,5.964205673
3754,6.010593405
3755,6.011654799
3756,5.987699344
3757,5.920140968
3758,5.932919509
3759,5.955833193
3760,6.001831138
3761,5.953497214
3762,5.942070712
3763,5.934490965
3764,5.940587416
3765,5.863421483
3766,6.040502158
3767,6.030974179
3768,6.026336502
3769,5.983752402
3770,5.954932372
3771,5.997764535
3772,6.024117084
3773,5.95477606
3774,5.946401157
3775,6.070339055
3776,6.058928183
3777,5.964652091
3778,5.996778672
3779,5.973348233
3780,6.078344626
3781,5.977684043
3782,5.977139715
3783,5.976847421
3784,5.95709051
3785,6.034497968
3786,5.943004674
3787,5.973396318
3788,5.900940868
3789,5.992758442
3790,6.015762179
3791,6.074911172
3792,5.940484429
3793,5.971300508
3794,6.065562011
3795,6.025186738
3796,5.964277352
3797,6.010591384
3798,5.989625855
3799,5.986993929
3800,5.992553804
3801,5.937631178
3802,6.007459316
3803,5.974792088
3804,6.073745049
3805,6.044048395
3806,6.030255174
3807,5.978249517
3808,6.005185053
3809,6.024875919
3810,5.946587021
3811,5.946922715
3812,5.897799927
3813,5.888595121
3814,5.940816195
3815,6.09176882
3816,6.031269054
3817,6.038894162
3818,6.014130072
3819,5.997201549
3820,6.020156437
3821,5.895397406
3822,6.039520768
3823,5.96666021
3824,6.087796667
3825,6.024269843
3826,6.087546112
3827,5.962994764
3828,6.003648031
3829,6.023213448
3830,6.002561845
3831,6.058565122
3832,6.010105674
3833,6.065538764
3834,5.943230986
3835,6.092182041
3836,6.041317071
3837,6.045258281
3838,6.071959264
3839,6.031466801
3840,6.133479458
3841,5.983584486
3842,6.008562843
3843,5.943160704
3844,5.993867196
3845,6.01913409
3846,6.0403347
3847,5.985169667
3848,5.985785003
3849,5.910455802
3850,6.01812099
3851,5.983546252
3852,6.006281051
3853,5.953800905
3854,5.903660388
3855,5.952857141
3856,6.034020471
3857,6.001264443
3858,5.951970349
3859,6.01286424
3860,5.940461297
3861,5.945563943
3862,5.902258554
3863,6.014972886
3864,5.966583537
3865,6.051721089
3866,5.98700834
3867,5.958251781
3868,6.074845667
3869,6.062613369
3870,5.913705238
3871,6.018329241
3872,5.994313419
3873,6.030395679
3874,5.995918366
3875,6.028806077
3876,5.974142159
3877,6.060375331
3878,6.018561321
3879,6.042081541
3880,6.079975904
3881,5.91207141
3882,5.970216179
3883,6.007733354
3884,5.952611218
3885,6.037982462
3886,6.017271477
3887,5.992098615
3888,5.975542917
3889,6.078067188
3890,6.023107885
3891,6.003617237
3892,6.048687361
3893,5.966119753
3894,5.999408641
3895,6.067534452
3896,5.956424565
3897,5.99268553
3898,5.889856096
3899,5.994776076
3900,5.996345927
3901,6.137838096
3902,6.051548371
3903,6.05534662
3904,6.067202793
3905,6.038343524
3906,6.067903719
3907,6.019843373
3908,5.934572071
3909,6.001937636
3910,5.924234349
3911,5.995753466
3912,6.052412581
3913,6.063656382
3914,6.007342254
3915,5.958038066
3916,6.102744745
3917,5.991273158
3918,6.111010759
3919,5.998141277
3920,5.898632662
3921,6.011822594
3922,6.12438103
3923,5.971065077
3924,6.003745943
3925,6.042486052
3926,5.981371299
3927,6.028039903
3928,6.076125751
3929,5.984369079
3930,6.017163956
3931,6.045466404
3932,6.107041872
3933,5.954115347
3934,6.02895554
3935,6.09505328
3936,5.964567535
3937,6.016163025
3938,6.006274377
3939,6.129185198
3940,6.000616334
3941,6.026613777
3942,5.981319869
3943,6.002501881
3944,6.028257655
3945,5.979038923
3946,5.963308148
3947,5.979232897
3948,5.996085847
3949,5.870488382
3950,5.968923194
3951,6.074384211
3952,5.936463409
3953,5.967305413
3954,5.972498268
3955,6.005985815
3956,5.951485822
3957,5.949255161
3958,6.000527131
3959,6.059613126
3960,5.925872308
3961,6.044829832
3962,6.011651643
3963,5.995415625
3964,6.086446657
3965,6.046407742
3966,5.979967238
3967,5.954547579
3968,6.005084875
3969,6.000978773
3970,5.934133513
3971,5.977589918
3972,6.010511491
3973,6.071165482
3974,6.006939764
3975,6.062950227
3976,5.975395825
3977,6.056893886
3978,5.884864251
3979,5.991964351
3980,5.907417353
3981,5.998776183
3982,6.028835065
3983,5.953786579
3984,5.994555984
3985,5.978488257
3986,6.01550695
3987,5.919828785
3988,6.020094594
3989,5.982381478
3990,6.02093224
3991,6.002013956
3992,5.960430698
3993,5.935444008
3994,5.999944773
3995,6.091623862
3996,6.071176922
3997,5.991936781
3998,6.008721627
3999,5.977330776
4000,6.089714349
