Raman Shift,Intensity
110.082,1825.0
111.473,1848.0
112.864,1831.0
114.254,1843.0
115.644,1901.0
117.034,1916.0
118.424,1953.0
119.813,1978.0
121.203,1896.0
122.592,1930.0
123.981,1926.0
125.369,1932.0
126.758,1953.0
128.146,1952.0
129.534,1966.0
130.922,1961.0
132.309,1988.0
133.696,1975.0
135.083,2014.0
136.47,2006.0
137.857,1960.0
139.243,2039.0
140.63,2039.0
142.016,2087.0
143.401,2083.0
144.787,2031.0
146.172,2041.0
147.557,2004.0
148.942,2037.0
150.327,2080.0
151.711,2031.0
153.096,2095.0
154.48,2048.0
155.863,2052.0
157.247,2022.0
158.63,2057.0
160.013,2032.0
161.396,2077.0
162.779,2118.0
164.161,2124.0
165.544,2119.0
166.926,2098.0
168.308,2161.0
169.689,2144.0
171.07,2187.0
172.452,2215.0
173.833,2284.0
175.213,2348.0
176.594,2486.0
177.974,2707.0
179.354,2915.0
180.734,3424.0
182.114,3892.0
183.493,4241.0
184.872,4170.0
186.251,3720.0
187.63,3232.0
189.008,2852.0
190.387,2562.0
191.765,2425.0
193.143,2348.0
194.52,2285.0
195.898,2275.0
197.275,2211.0
198.652,2188.0
200.029,2224.0
201.405,2224.0
202.782,2177.0
204.158,2176.0
205.534,2182.0
206.909,2186.0
208.285,2198.0
209.66,2233.0
211.035,2160.0
212.41,2174.0
213.784,2146.0
215.159,2188.0
216.533,2176.0
217.907,2160.0
219.281,2163.0
220.654,2175.0
222.027,2192.0
223.4,2205.0
224.773,2169.0
226.146,2166.0
227.518,2207.0
228.891,2201.0
230.263,2181.0
231.634,2183.0
233.006,2202.0
234.377,2214.0
235.748,2198.0
237.119,2249.0
238.49,2210.0
239.86,2260.0
241.231,2247.0
242.601,2250.0
243.97,2252.0
245.34,2254.0
246.709,2228.0
248.079,2294.0
249.448,2260.0
250.816,2305.0
252.185,2272.0
253.553,2282.0
254.921,2292.0
256.289,2299.0
257.657,2343.0
259.024,2320.0
260.391,2314.0
261.758,2346.0
263.125,2391.0
264.492,2383.0
265.858,2397.0
267.224,2438.0
268.59,2456.0
269.956,2492.0
271.321,2480.0
272.687,2586.0
274.052,2647.0
275.416,2705.0
276.781,2839.0
278.146,3030.0
279.51,3335.0
280.874,3645.0
282.237,4189.0
283.601,4864.0
284.964,5743.0
286.327,6762.0
287.69,7568.0
289.053,8087.0
290.416,7979.0
291.778,7410.0
293.14,6506.0
294.502,5652.0
295.863,4845.0
297.225,4227.0
298.586,3713.0
299.947,3396.0
301.308,3195.0
302.668,3014.0
304.029,2896.0
305.389,2806.0
306.749,2784.0
308.108,2695.0
309.468,2647.0
310.827,2632.0
312.186,2582.0
313.545,2600.0
314.903,2535.0
316.262,2550.0
317.62,2531.0
318.978,2500.0
320.336,2507.0
321.693,2508.0
323.051,2558.0
324.408,2553.0
325.765,2499.0
327.121,2519.0
328.478,2529.0
329.834,2490.0
331.19,2503.0
332.546,2491.0
333.902,2470.0
335.257,2506.0
336.612,2483.0
337.967,2487.0
339.322,2446.0
340.677,2511.0
342.031,2482.0
343.385,2513.0
344.739,2503.0
346.093,2443.0
347.446,2472.0
348.799,2457.0
350.153,2452.0
351.505,2454.0
352.858,2523.0
354.21,2479.0
355.563,2521.0
356.915,2511.0
358.267,2498.0
359.618,2502.0
360.969,2529.0
362.321,2535.0
363.672,2526.0
365.022,2489.0
366.373,2510.0
367.723,2528.0
369.073,2533.0
370.423,2561.0
371.773,2503.0
373.122,2506.0
374.471,2523.0
375.821,2548.0
377.169,2544.0
378.518,2554.0
379.866,2567.0
381.215,2565.0
382.563,2523.0
383.91,2528.0
385.258,2562.0
386.605,2531.0
387.952,2511.0
389.299,2564.0
390.646,2518.0
391.992,2533.0
393.339,2568.0
394.685,2594.0
396.031,2566.0
397.376,2576.0
398.722,2527.0
400.067,2540.0
401.412,2569.0
402.757,2581.0
404.101,2569.0
405.446,2626.0
406.79,2585.0
408.134,2568.0
409.478,2564.0
410.821,2611.0
412.165,2614.0
413.508,2607.0
414.851,2585.0
416.193,2560.0
417.536,2619.0
418.878,2578.0
420.22,2614.0
421.562,2614.0
422.904,2637.0
424.245,2569.0
425.586,2608.0
426.927,2570.0
428.268,2581.0
429.609,2661.0
430.949,2586.0
432.289,2614.0
433.629,2576.0
434.969,2637.0
436.309,2582.0
437.648,2682.0
438.987,2629.0
440.326,2654.0
441.665,2638.0
443.003,2603.0
444.342,2666.0
445.68,2688.0
447.018,2624.0
448.355,2677.0
449.693,2659.0
451.03,2651.0
452.367,2668.0
453.704,2660.0
455.041,2694.0
456.377,2669.0
457.713,2692.0
459.049,2667.0
460.385,2679.0
461.721,2725.0
463.056,2659.0
464.391,2650.0
465.726,2648.0
467.061,2644.0
468.395,2674.0
469.73,2662.0
471.064,2668.0
472.398,2688.0
473.731,2733.0
475.065,2684.0
476.398,2670.0
477.731,2677.0
479.064,2668.0
480.397,2671.0
481.729,2670.0
483.062,2667.0
484.394,2685.0
485.725,2714.0
487.057,2688.0
488.389,2730.0
489.72,2706.0
491.051,2732.0
492.382,2707.0
493.712,2719.0
495.043,2706.0
496.373,2707.0
497.703,2692.0
499.032,2727.0
500.362,2719.0
501.691,2731.0
503.02,2758.0
504.349,2732.0
505.678,2745.0
507.007,2800.0
508.335,2763.0
509.663,2723.0
510.991,2737.0
512.319,2747.0
513.646,2730.0
514.973,2724.0
516.3,2739.0
517.627,2772.0
518.954,2741.0
520.28,2727.0
521.607,2783.0
522.933,2766.0
524.259,2779.0
525.584,2744.0
526.91,2778.0
528.235,2754.0
529.56,2800.0
530.885,2757.0
532.209,2726.0
533.534,2780.0
534.858,2809.0
536.182,2759.0
537.506,2806.0
538.829,2752.0
540.152,2804.0
541.476,2790.0
542.799,2767.0
544.121,2833.0
545.444,2774.0
546.766,2835.0
548.088,2813.0
549.41,2803.0
550.732,2836.0
552.053,2825.0
553.375,2814.0
554.696,2805.0
556.017,2803.0
557.337,2829.0
558.658,2812.0
559.978,2863.0
561.298,2828.0
562.618,2802.0
563.938,2831.0
565.257,2804.0
566.576,2772.0
567.895,2865.0
569.214,2800.0
570.533,2849.0
571.851,2871.0
573.17,2848.0
574.488,2870.0
575.805,2855.0
577.123,2859.0
578.44,2840.0
579.758,2810.0
581.075,2816.0
582.391,2864.0
583.708,2865.0
585.024,2887.0
586.341,2876.0
587.657,2861.0
588.972,2862.0
590.288,2929.0
591.603,2826.0
592.918,2861.0
594.233,2838.0
595.548,2832.0
596.863,2855.0
598.177,2900.0
599.491,2891.0
600.805,2938.0
602.119,2891.0
603.432,2934.0
604.746,2867.0
606.059,2872.0
607.372,2896.0
608.685,2902.0
609.997,2910.0
611.309,2962.0
612.621,2899.0
613.933,2916.0
615.245,2857.0
616.557,2897.0
617.868,2909.0
619.179,2899.0
620.49,2930.0
621.801,2934.0
623.111,2909.0
624.421,2969.0
625.731,2924.0
627.041,2982.0
628.351,2923.0
629.66,2952.0
630.97,2918.0
632.279,2902.0
633.588,2956.0
634.896,2900.0
636.205,2988.0
637.513,2965.0
638.821,2982.0
640.129,2964.0
641.437,2984.0
642.744,3041.0
644.051,2980.0
645.358,2937.0
646.665,2987.0
647.972,2986.0
649.278,2961.0
650.584,2980.0
651.89,2929.0
653.196,2953.0
654.502,2995.0
655.807,2998.0
657.113,2990.0
658.418,2969.0
659.722,2973.0
661.027,3005.0
662.331,2991.0
663.636,3008.0
664.94,3020.0
666.244,2993.0
667.547,2957.0
668.851,2979.0
670.154,3008.0
671.457,3017.0
672.76,3008.0
674.062,3022.0
675.365,3008.0
676.667,3006.0
677.969,2994.0
679.271,3022.0
680.572,3028.0
681.874,3015.0
683.175,3044.0
684.476,2987.0
685.777,2997.0
687.077,3075.0
688.378,3105.0
689.678,2992.0
690.978,3044.0
692.278,3020.0
693.577,3068.0
694.877,3020.0
696.176,3085.0
697.475,3082.0
698.774,3081.0
700.072,3015.0
701.371,3100.0
702.669,3080.0
703.967,3078.0
705.265,3064.0
706.562,3131.0
707.86,3173.0
709.157,3202.0
710.454,3205.0
711.751,3334.0
713.047,3370.0
714.344,3701.0
715.64,4248.0
716.936,5282.0
718.232,6347.0
719.527,6828.0
720.823,6022.0
722.118,4764.0
723.413,4051.0
724.708,3602.0
726.002,3449.0
727.297,3278.0
728.591,3202.0
729.885,3185.0
731.179,3175.0
732.472,3151.0
733.766,3196.0
735.059,3178.0
736.352,3096.0
737.645,3142.0
738.937,3131.0
740.23,3145.0
741.522,3135.0
742.814,3143.0
744.106,3117.0
745.397,3173.0
746.689,3159.0
747.98,3056.0
749.271,3180.0
750.562,3139.0
751.853,3113.0
753.143,3176.0
754.433,3127.0
755.723,3121.0
757.013,3159.0
758.303,3150.0
759.592,3212.0
760.881,3133.0
762.17,3113.0
763.459,3147.0
764.748,3125.0
766.036,3131.0
767.325,3117.0
768.613,3158.0
769.901,3088.0
771.188,3162.0
772.476,3146.0
773.763,3118.0
775.05,3197.0
776.337,3148.0
777.624,3220.0
778.91,3174.0
780.196,3166.0
781.482,3216.0
782.768,3187.0
784.054,3182.0
785.339,3132.0
786.625,3130.0
787.91,3193.0
789.195,3144.0
790.479,3221.0
791.764,3185.0
793.048,3200.0
794.332,3183.0
795.616,3200.0
796.9,3249.0
798.183,3217.0
799.467,3202.0
800.75,3210.0
802.033,3213.0
803.316,3204.0
804.598,3206.0
805.88,3235.0
807.163,3167.0
808.445,3235.0
809.726,3205.0
811.008,3220.0
812.289,3210.0
813.57,3199.0
814.851,3222.0
816.132,3270.0
817.413,3229.0
818.693,3207.0
819.973,3219.0
821.253,3254.0
822.533,3267.0
823.813,3271.0
825.092,3247.0
826.371,3234.0
827.65,3198.0
828.929,3255.0
830.208,3236.0
831.486,3231.0
832.764,3257.0
834.042,3278.0
835.32,3214.0
836.598,3263.0
837.875,3270.0
839.152,3304.0
840.429,3253.0
841.706,3262.0
842.983,3308.0
844.259,3262.0
845.536,3333.0
846.812,3306.0
848.088,3266.0
849.363,3344.0
850.639,3259.0
851.914,3315.0
853.189,3312.0
854.464,3286.0
855.739,3274.0
857.013,3359.0
858.288,3316.0
859.562,3393.0
860.836,3316.0
862.11,3345.0
863.383,3320.0
864.656,3310.0
865.93,3306.0
867.203,3349.0
868.475,3386.0
869.748,3328.0
871.02,3352.0
872.292,3307.0
873.564,3381.0
874.836,3386.0
876.108,3328.0
877.379,3321.0
878.65,3321.0
879.922,3351.0
881.192,3366.0
882.463,3400.0
883.733,3353.0
885.004,3363.0
886.274,3330.0
887.544,3407.0
888.813,3386.0
890.083,3369.0
891.352,3414.0
892.621,3429.0
893.89,3345.0
895.159,3409.0
896.427,3401.0
897.695,3368.0
898.964,3420.0
900.232,3420.0
901.499,3392.0
902.767,3357.0
904.034,3431.0
905.301,3407.0
906.568,3383.0
907.835,3481.0
909.102,3455.0
910.368,3431.0
911.634,3447.0
912.9,3418.0
914.166,3462.0
915.432,3443.0
916.697,3491.0
917.962,3464.0
919.227,3422.0
920.492,3458.0
921.757,3478.0
923.021,3448.0
924.285,3435.0
925.55,3465.0
926.813,3526.0
928.077,3500.0
929.341,3490.0
930.604,3505.0
931.867,3435.0
933.13,3491.0
934.393,3449.0
935.655,3448.0
936.918,3507.0
938.18,3499.0
939.442,3526.0
940.703,3480.0
941.965,3482.0
943.226,3539.0
944.488,3479.0
945.749,3514.0
947.009,3478.0
948.27,3517.0
949.53,3510.0
950.791,3529.0
952.051,3500.0
953.311,3485.0
954.57,3568.0
955.83,3522.0
957.089,3517.0
958.348,3507.0
959.607,3537.0
960.866,3510.0
962.124,3534.0
963.383,3466.0
964.641,3504.0
965.899,3546.0
967.156,3516.0
968.414,3508.0
969.671,3512.0
970.928,3511.0
972.185,3545.0
973.442,3556.0
974.699,3584.0
975.955,3567.0
977.211,3540.0
978.468,3580.0
979.723,3569.0
980.979,3538.0
982.234,3568.0
983.49,3601.0
984.745,3600.0
986.0,3535.0
987.254,3604.0
988.509,3595.0
989.763,3589.0
991.017,3616.0
992.271,3583.0
993.525,3603.0
994.779,3657.0
996.032,3593.0
997.285,3630.0
998.538,3657.0
999.791,3639.0
1001.044,3616.0
1002.296,3732.0
1003.548,3656.0
1004.8,3694.0
1006.052,3723.0
1007.304,3680.0
1008.555,3712.0
1009.807,3783.0
1011.058,3734.0
1012.309,3775.0
1013.559,3758.0
1014.81,3806.0
1016.06,3789.0
1017.31,3768.0
1018.56,3812.0
1019.81,3832.0
1021.06,3807.0
1022.309,3804.0
1023.558,3851.0
1024.807,3867.0
1026.056,3874.0
1027.305,3842.0
1028.553,3856.0
1029.801,3870.0
1031.049,3892.0
1032.297,3896.0
1033.545,3893.0
1034.793,3862.0
1036.04,3890.0
1037.287,3860.0
1038.534,3856.0
1039.781,3913.0
1041.027,3925.0
1042.274,3902.0
1043.52,3970.0
1044.766,3955.0
1046.012,4007.0
1047.257,4032.0
1048.503,4032.0
1049.748,4096.0
1050.993,4054.0
1052.238,4121.0
1053.483,4113.0
1054.727,4190.0
1055.971,4180.0
1057.216,4163.0
1058.459,4230.0
1059.703,4230.0
1060.947,4272.0
1062.19,4389.0
1063.433,4398.0
1064.676,4527.0
1065.919,4712.0
1067.162,4773.0
1068.404,4668.0
1069.646,4691.0
1070.888,5068.0
1072.13,4770.0
1073.372,4857.0
1074.613,5025.0
1075.855,5222.0
1077.096,5558.0
1078.337,5898.0
1079.578,6464.0
1080.818,7583.0
1082.059,9567.0
1083.299,13648.0
1084.539,23240.0
1085.779,42788.0
1087.018,60016.0
1088.258,55507.0
1089.497,33782.0
1090.736,18430.0
1091.975,11530.0
1093.213,8341.0
1094.452,6749.0
1095.69,5782.0
1096.928,5268.0
1098.166,4930.0
1099.404,4661.0
1100.642,4550.0
1101.879,4431.0
1103.116,4321.0
1104.353,4246.0
1105.59,4130.0
1106.827,4185.0
1108.063,4112.0
1109.299,4110.0
1110.536,3997.0
1111.771,4014.0
1113.007,3968.0
1114.243,3996.0
1115.478,4038.0
1116.713,3998.0
1117.948,3972.0
1119.183,3934.0
1120.418,3980.0
1121.652,3966.0
1122.886,3960.0
1124.12,3956.0
1125.354,3935.0
1126.588,3899.0
1127.821,3872.0
1129.055,3911.0
1130.288,3887.0
1131.521,3904.0
1132.753,3997.0
1133.986,3879.0
1135.218,3865.0
1136.45,3904.0
1137.682,3970.0
1138.914,3885.0
1140.146,3901.0
1141.377,3930.0
1142.609,3951.0
1143.84,3932.0
1145.071,3936.0
1146.301,3874.0
1147.532,3953.0
1148.762,3900.0
1149.992,3890.0
1151.222,3897.0
1152.452,3938.0
1153.682,3895.0
1154.911,3960.0
1156.14,3918.0
1157.369,3991.0
1158.598,3948.0
1159.827,3892.0
1161.055,3962.0
1162.284,3989.0
1163.512,3942.0
1164.74,3971.0
1165.967,3907.0
1167.195,3975.0
1168.422,3932.0
1169.65,3965.0
1170.877,3913.0
1172.103,3976.0
1173.33,3934.0
1174.557,3934.0
1175.783,3976.0
1177.009,4005.0
1178.235,3983.0
1179.461,3896.0
1180.686,3975.0
1181.912,3943.0
1183.137,3976.0
1184.362,4000.0
1185.587,4030.0
1186.811,4004.0
1188.036,3991.0
1189.26,4055.0
1190.484,4000.0
1191.708,3986.0
1192.932,4002.0
1194.155,4071.0
1195.378,4025.0
1196.602,4020.0
1197.825,4018.0
1199.047,4063.0
1200.27,3995.0
1201.492,4026.0
1202.715,3999.0
1203.937,4117.0
1205.159,3976.0
1206.38,4049.0
1207.602,4023.0
1208.823,4118.0
1210.044,4051.0
1211.265,3975.0
1212.486,4074.0
1213.707,4044.0
1214.927,4045.0
1216.147,4090.0
1217.367,4152.0
1218.587,4086.0
1219.807,4103.0
1221.027,4103.0
1222.246,4107.0
1223.465,4167.0
1224.684,4076.0
1225.903,4132.0
1227.121,4118.0
1228.34,4100.0
1229.558,4054.0
1230.776,4088.0
1231.994,4096.0
1233.212,4087.0
1234.429,4090.0
1235.646,4229.0
1236.864,4107.0
1238.081,4165.0
1239.297,4175.0
1240.514,4161.0
1241.73,4107.0
1242.947,4175.0
1244.163,4141.0
1245.378,4142.0
1246.594,4157.0
1247.81,4119.0
1249.025,4263.0
1250.24,4162.0
1251.455,4194.0
1252.67,4175.0
1253.885,4199.0
1255.099,4207.0
1256.313,4189.0
1257.527,4199.0
1258.741,4201.0
1259.955,4186.0
1261.168,4220.0
1262.382,4167.0
1263.595,4215.0
1264.808,4240.0
1266.021,4213.0
1267.233,4240.0
1268.446,4282.0
1269.658,4202.0
1270.87,4258.0
1272.082,4220.0
1273.294,4291.0
1274.505,4288.0
1275.716,4252.0
1276.928,4224.0
1278.139,4328.0
1279.349,4260.0
1280.56,4366.0
1281.77,4295.0
1282.981,4288.0
1284.191,4294.0
1285.401,4284.0
1286.61,4230.0
1287.82,4258.0
1289.029,4307.0
1290.239,4303.0
1291.448,4280.0
1292.656,4345.0
1293.865,4375.0
1295.073,4261.0
1296.282,4299.0
1297.49,4376.0
1298.698,4315.0
1299.906,4345.0
1301.113,4386.0
1302.32,4361.0
1303.528,4349.0
1304.735,4336.0
1305.942,4393.0
1307.148,4352.0
1308.355,4383.0
1309.561,4378.0
1310.767,4399.0
1311.973,4386.0
1313.179,4390.0
1314.384,4439.0
1315.59,4342.0
1316.795,4426.0
1318.0,4419.0
1319.205,4370.0
1320.41,4422.0
1321.614,4419.0
1322.819,4465.0
1324.023,4383.0
1325.227,4487.0
1326.431,4453.0
1327.634,4486.0
1328.838,4535.0
1330.041,4436.0
1331.244,4473.0
1332.447,4428.0
1333.65,4435.0
1334.852,4456.0
1336.055,4498.0
1337.257,4514.0
1338.459,4500.0
1339.661,4498.0
1340.862,4534.0
1342.064,4538.0
1343.265,4480.0
1344.466,4485.0
1345.667,4521.0
1346.868,4516.0
1348.068,4541.0
1349.269,4564.0
1350.469,4551.0
1351.669,4588.0
1352.869,4604.0
1354.069,4632.0
1355.268,4587.0
1356.468,4574.0
1357.667,4622.0
1358.866,4620.0
1360.065,4601.0
1361.263,4597.0
1362.462,4668.0
1363.66,4563.0
1364.858,4663.0
1366.056,4655.0
1367.254,4608.0
1368.451,4654.0
1369.649,4711.0
1370.846,4689.0
1372.043,4693.0
1373.24,4693.0
1374.436,4689.0
1375.633,4648.0
1376.829,4729.0
1378.025,4643.0
1379.221,4709.0
1380.417,4782.0
1381.613,4725.0
1382.808,4787.0
1384.003,4759.0
1385.199,4758.0
1386.393,4798.0
1387.588,4750.0
1388.783,4790.0
1389.977,4840.0
1391.171,4823.0
1392.365,4819.0
1393.559,4840.0
1394.753,4847.0
1395.946,4802.0
1397.14,4814.0
1398.333,4850.0
1399.526,4792.0
1400.719,4913.0
1401.911,4914.0
1403.104,4903.0
1404.296,4903.0
1405.488,4935.0
1406.68,4886.0
1407.872,4964.0
1409.063,4916.0
1410.255,5102.0
1411.446,5154.0
1412.637,5278.0
1413.828,5523.0
1415.018,5760.0
1416.209,6129.0
1417.399,6257.0
1418.589,6161.0
1419.779,5921.0
1420.969,5770.0
1422.159,5486.0
1423.348,5368.0
1424.537,5259.0
1425.726,5277.0
1426.915,5221.0
1428.104,5157.0
1429.293,5131.0
1430.481,5116.0
1431.669,5093.0
1432.857,5156.0
1434.045,5157.0
1435.233,5099.0
1436.42,5100.0
1437.608,5230.0
1438.795,5207.0
1439.982,5146.0
1441.169,5187.0
1442.355,5200.0
1443.542,5219.0
1444.728,5173.0
1445.914,5192.0
1447.1,5220.0
1448.286,5248.0
1449.472,5249.0
1450.657,5209.0
1451.842,5173.0
1453.027,5241.0
1454.212,5216.0
1455.397,5209.0
1456.581,5305.0
1457.766,5208.0
1458.95,5161.0
1460.134,5200.0
1461.318,5266.0
1462.501,5274.0
1463.685,5244.0
1464.868,5201.0
1466.051,5241.0
1467.234,5200.0
1468.417,5276.0
1469.6,5207.0
1470.782,5257.0
1471.965,5380.0
1473.147,5342.0
1474.329,5280.0
1475.51,5314.0
1476.692,5342.0
1477.873,5325.0
1479.055,5283.0
1480.236,5318.0
1481.416,5257.0
1482.597,5337.0
1483.778,5297.0
1484.958,5365.0
1486.138,5392.0
1487.318,5315.0
1488.498,5265.0
1489.678,5440.0
1490.857,5328.0
1492.037,5399.0
1493.216,5352.0
1494.395,5400.0
1495.574,5449.0
1496.752,5376.0
1497.931,5437.0
1499.109,5354.0
1500.287,5428.0
1501.465,5423.0
1502.643,5443.0
1503.82,5367.0
1504.998,5453.0
1506.175,5489.0
1507.352,5385.0
1508.529,5390.0
1509.706,5411.0
1510.882,5479.0
1512.059,5414.0
1513.235,5465.0
1514.411,5458.0
1515.587,5493.0
1516.762,5393.0
1517.938,5553.0
1519.113,5497.0
1520.288,5566.0
1521.463,5541.0
1522.638,5553.0
1523.813,5580.0
1524.987,5532.0
1526.162,5552.0
