Raman Shift,Intensity
166.926,1232.0
168.308,1214.0
169.689,1268.0
171.07,1286.0
172.452,1305.0
173.833,1344.0
175.213,1450.0
176.594,1520.0
177.974,1569.0
179.354,1529.0
180.734,1531.0
182.114,1526.0
183.493,1460.0
184.872,1408.0
186.251,1430.0
187.63,1372.0
189.008,1337.0
190.387,1317.0
191.765,1296.0
193.143,1293.0
194.52,1328.0
195.898,1315.0
197.275,1306.0
198.652,1361.0
200.029,1402.0
201.405,1458.0
202.782,1527.0
204.158,1595.0
205.534,1644.0
206.909,1789.0
208.285,1850.0
209.66,1850.0
211.035,1900.0
212.41,1852.0
213.784,1774.0
215.159,1691.0
216.533,1612.0
217.907,1541.0
219.281,1498.0
220.654,1436.0
222.027,1396.562
223.4,1365.0
224.773,1335.0
226.146,1316.0
227.518,1312.0
228.891,1287.0
230.263,1263.0
231.634,1296.0
233.006,1275.0
234.377,1277.0
235.748,1270.0
237.119,1263.675
238.49,1261.0
239.86,1254.0
241.231,1269.0
242.601,1258.0
243.97,1228.0
245.34,1294.0
246.709,1270.0
248.079,1292.0
249.448,1254.0
250.816,1268.0
252.185,1248.0
253.553,1245.0
254.921,1228.0
256.289,1270.0
257.657,1285.0
259.024,1285.0
260.391,1281.0
261.758,1274.0
263.125,1272.0
264.492,1270.0
265.858,1274.0
267.224,1300.0
268.59,1254.0
269.956,1313.0
271.321,1321.0
272.687,1298.0
274.052,1325.0
275.416,1263.0
276.781,1304.0
278.146,1346.0
279.51,1317.0
280.874,1298.0
282.237,1328.0
283.601,1336.0
284.964,1340.0
286.327,1347.437
287.69,1339.0
289.053,1356.0
290.416,1333.0
291.778,1360.0
293.14,1357.0
294.502,1362.0
295.863,1361.0
297.225,1344.0
298.586,1358.0
299.947,1376.0
301.308,1344.0
302.668,1374.0
304.029,1380.0
305.389,1431.0
306.749,1427.057
308.108,1415.0
309.468,1426.0
310.827,1448.0
312.186,1432.0
313.545,1466.0
314.903,1420.0
316.262,1426.0
317.62,1441.0
318.978,1429.0
320.336,1426.0
321.693,1449.0
323.051,1448.0
324.408,1426.0
325.765,1433.0
327.121,1369.0
328.478,1394.0
329.834,1376.0
331.19,1400.0
332.546,1397.0
333.902,1426.0
335.257,1420.85
336.612,1381.0
337.967,1414.0
339.322,1400.0
340.677,1392.0
342.031,1435.0
343.385,1409.0
344.739,1429.0
346.093,1432.0
347.446,1453.0
348.799,1433.0
350.153,1408.0
351.505,1419.0
352.858,1447.0
354.21,1425.0
355.563,1387.0
356.915,1416.0
358.267,1452.0
359.618,1418.0
360.969,1467.0
362.321,1438.0
363.672,1487.0
365.022,1474.0
366.373,1487.0
367.723,1479.0
369.073,1483.0
370.423,1461.0
371.773,1482.0
373.122,1485.0
374.471,1494.0
375.821,1505.0
377.169,1505.0
378.518,1516.0
379.866,1526.0
381.215,1507.0
382.563,1532.0
383.91,1531.0
385.258,1538.0
386.605,1554.0
387.952,1548.0
389.299,1596.0
390.646,1548.0
391.992,1581.0
393.339,1600.0
394.685,1642.0
396.031,1640.0
397.376,1631.0
398.722,1708.0
400.067,1685.0
401.412,1717.0
402.757,1801.0
404.101,1837.0
405.446,1989.0
406.79,2113.0
408.134,2327.0
409.478,2588.0
410.821,2813.0
412.165,3009.0
413.508,2981.0
414.851,2882.0
416.193,2738.0
417.536,2390.0
418.878,2135.0
420.22,1972.0
421.562,1865.0
422.904,1778.0
424.245,1698.0
425.586,1705.0
426.927,1686.0
428.268,1654.0
429.609,1696.0
430.949,1633.0
432.289,1623.0
433.629,1627.0
434.969,1645.0
436.309,1637.0
437.648,1639.0
438.987,1611.0
440.326,1648.0
441.665,1635.0
443.003,1624.0
444.342,1644.0
445.68,1648.0
447.018,1676.0
448.355,1671.0
449.693,1683.0
451.03,1690.708
452.367,1659.0
453.704,1696.0
455.041,1674.0
456.377,1666.0
457.713,1731.0
459.049,1706.0
460.385,1717.0
461.721,1734.0
463.056,1719.0
464.391,1768.0
465.726,1796.0
467.061,1808.0
468.395,1828.0
469.73,1853.677
471.064,1870.0
472.398,1915.0
473.731,1931.0
475.065,1985.0
476.398,2049.0
477.731,2094.0
479.064,2199.0
480.397,2341.0
481.729,2467.0
483.062,2638.0
484.394,2948.0
485.725,3269.0
487.057,3728.0
488.389,4134.0
489.72,4763.0
491.051,5098.0
492.382,5217.0
493.712,5114.0
495.043,4793.0
496.373,4210.0
497.703,3716.0
499.032,3194.0
500.362,2895.0
501.691,2629.0
503.02,2361.0
504.349,2314.0
505.678,2130.0
507.007,2127.0
508.335,2048.0
509.663,2012.0
510.991,1929.0
512.319,1979.0
513.646,1917.0
514.973,1934.0
516.3,1878.0
517.627,1890.0
518.954,1937.0
520.28,1915.0
521.607,1916.573
522.933,1878.0
524.259,1856.0
525.584,1882.0
526.91,1803.0
528.235,1825.0
529.56,1870.0
530.885,1856.0
532.209,1896.0
533.534,1838.0
534.858,1833.0
536.182,1867.0
537.506,1847.0
538.829,1852.0
540.152,1882.0
541.476,1849.0
542.799,1857.0
544.121,1908.0
545.444,1868.0
546.766,1896.0
548.088,1894.0
549.41,1890.0
550.732,1892.0
552.053,1903.183
553.375,1916.0
554.696,1921.0
556.017,1956.0
557.337,1942.0
558.658,2004.0
559.978,1984.0
561.298,1999.0
562.618,1998.0
563.938,2036.0
565.257,2067.0
566.576,2058.0
567.895,2098.0
569.214,2089.0
570.533,2131.0
571.851,2167.0
573.17,2177.0
574.488,2147.0
575.805,2237.0
577.123,2258.0
578.44,2221.0
579.758,2268.0
581.075,2261.0
582.391,2383.0
583.708,2301.0
585.024,2404.0
586.341,2377.0
587.657,2395.0
588.972,2481.0
590.288,2451.0
591.603,2500.0
592.918,2524.0
594.233,2504.0
595.548,2523.0
596.863,2572.0
598.177,2602.0
599.491,2639.0
600.805,2700.0
602.119,2688.0
603.432,2725.0
604.746,2793.0
606.059,2910.0
607.372,3008.0
608.685,3068.0
609.997,3115.0
611.309,3369.0
612.621,3466.0
613.933,3592.0
615.245,3841.0
616.557,4003.0
617.868,4089.0
619.179,4131.511
620.49,4082.937
621.801,3998.0
623.111,3794.0
624.421,3554.0
625.731,3238.0
627.041,3033.0
628.351,2777.0
629.66,2639.0
630.97,2467.0
632.279,2364.0
633.588,2290.0
634.896,2180.0
636.205,2156.0
637.513,2108.0
638.821,2083.0
640.129,2046.0
641.437,2050.0
642.744,2023.0
644.051,2030.0
645.358,2026.0
646.665,1959.0
647.972,2005.0
649.278,1969.0
650.584,2027.0
651.89,1972.0
653.196,1995.0
654.502,2034.0
655.807,1994.0
657.113,2001.0
658.418,1972.0
659.722,1978.0
661.027,2017.0
662.331,2019.0
663.636,1989.0
664.94,2021.0
666.244,2032.0
667.547,1998.0
668.851,2030.0
670.154,2015.0
671.457,2062.0
672.76,2010.0
674.062,2023.0
675.365,2014.0
676.667,2037.0
677.969,2007.0
679.271,2042.0
680.572,2014.0
681.874,2021.0
683.175,2007.0
684.476,2030.0
685.777,2023.0
687.077,2048.0
688.378,2044.0
689.678,2017.0
690.978,2023.0
692.278,2026.0
693.577,2057.0
694.877,2051.248
696.176,2055.974
697.475,2042.0
698.774,2058.0
700.072,2024.0
701.371,2039.0
702.669,2054.0
703.967,2072.0
705.265,2019.0
706.562,2065.0
707.86,2078.0
709.157,2040.0
710.454,2096.0
711.751,2121.0
713.047,2094.0
714.344,2086.0
715.64,2083.0
716.936,2048.0
718.232,2057.0
719.527,2062.0
720.823,2107.0
722.118,2069.0
723.413,2078.0
724.708,2099.0
726.002,2048.0
727.297,2091.0
728.591,2150.0
729.885,2035.0
731.179,2078.0
732.472,2121.0
733.766,2108.0
735.059,2080.0
736.352,2118.0
737.645,2143.0
738.937,2087.0
740.23,2054.0
741.522,2154.0
742.814,2107.0
744.106,2144.0
745.397,2117.0
746.689,2150.0
747.98,2129.0
749.271,2119.0
750.562,2121.0
751.853,2124.0
753.143,2136.0
754.433,2078.0
755.723,2116.0
757.013,2162.0
758.303,2113.0
759.592,2161.0
760.881,2184.0
762.17,2156.0
763.459,2161.0
764.748,2171.0
766.036,2166.0
767.325,2169.0
768.613,2183.0
769.901,2183.485
771.188,2204.0
772.476,2190.0
773.763,2213.0
775.05,2202.0
776.337,2171.0
777.624,2178.0
778.91,2169.0
780.196,2184.0
781.482,2183.0
782.768,2220.0
784.054,2169.0
785.339,2235.0
786.625,2198.0
787.91,2182.0
789.195,2210.0
790.479,2210.0
791.764,2187.0
793.048,2192.0
794.332,2192.217
795.616,2246.0
796.9,2208.0
798.183,2230.0
799.467,2248.0
800.75,2208.0
802.033,2246.0
803.316,2254.0
804.598,2306.649
805.88,2299.358
807.163,2393.0
808.445,2310.0
809.726,2228.0
811.008,2261.0
812.289,2271.0
813.57,2252.0
814.851,2290.0
816.132,2249.0
817.413,2271.0
818.693,2296.0
819.973,2302.0
821.253,2279.0
822.533,2291.0
823.813,2324.0
825.092,2306.0
826.371,2327.0
827.65,2312.0
828.929,2313.11
830.208,2316.0
831.486,2314.0
832.764,2327.0
834.042,2338.0
835.32,2312.0
836.598,2280.0
837.875,2336.0
839.152,2344.0
840.429,2351.0
841.706,2325.0
842.983,2333.0
844.259,2365.0
845.536,2345.0
846.812,2382.0
848.088,2382.0
849.363,2366.0
850.639,2348.0
851.914,2351.915
853.189,2386.0
854.464,2347.0
855.739,2366.0
857.013,2353.046
858.288,2357.822
859.562,2365.0
860.836,2373.0
862.11,2393.0
863.383,2389.0
864.656,2351.0
865.93,2396.0
867.203,2395.0
868.475,2339.0
869.748,2432.0
871.02,2440.0
872.292,2407.0
873.564,2451.0
874.836,2438.0
876.108,2391.0
877.379,2449.0
878.65,2445.0
879.922,2410.0
881.192,2403.0
882.463,2467.0
883.733,2438.0
885.004,2486.0
886.274,2433.0
887.544,2433.0
888.813,2439.0
890.083,2499.0
891.352,2458.0
892.621,2411.0
893.89,2481.0
895.159,2437.0
896.427,2485.0
897.695,2459.0
898.964,2487.0
900.232,2486.0
901.499,2518.0
902.767,2530.176
904.034,2502.0
905.301,2545.0
906.568,2538.0
907.835,2505.0
909.102,2547.0
910.368,2532.0
911.634,2480.0
912.9,2481.0
914.166,2518.0
915.432,2498.0
916.697,2553.0
917.962,2534.0
919.227,2524.0
920.492,2591.0
921.757,2536.0
923.021,2572.0
924.285,2552.0
925.55,2598.0
926.813,2567.0
928.077,2580.0
929.341,2617.0
930.604,2615.0
931.867,2620.0
933.13,2637.0
934.393,2594.0
935.655,2603.0
936.918,2668.0
938.18,2620.0
939.442,2660.0
940.703,2649.0
941.965,2689.0
943.226,2688.0
944.488,2678.0
945.749,2679.0
947.009,2642.0
948.27,2727.0
949.53,2722.0
950.791,2734.0
952.051,2688.0
953.311,2750.0
954.57,2749.0
955.83,2752.0
957.089,2755.0
958.348,2763.0
959.607,2774.0
960.866,2782.323
962.124,2787.0
963.383,2802.0
964.641,2810.0
965.899,2814.0
967.156,2852.0
968.414,2875.0
969.671,2890.0
970.928,2895.0
972.185,2953.0
973.442,2952.0
974.699,3011.0
975.955,2985.0
977.211,3049.0
978.468,3030.0
979.723,3070.0
980.979,3143.0
982.234,3178.0
983.49,3225.0
984.745,3396.0
986.0,3429.0
987.254,3564.0
988.509,3740.0
989.763,3788.0
991.017,4026.0
992.271,4002.0
993.525,4104.0
994.779,4224.0
996.032,4558.0
997.285,4927.0
998.538,5492.0
999.791,6286.0
1001.044,7255.0
1002.296,9436.0
1003.548,12677.0
1004.8,19224.0
1006.052,30218.0
1007.304,44338.0
1008.555,55213.0
1009.807,51466.0
1011.058,34584.0
1012.309,20412.0
1013.559,13104.0
1014.81,9273.0
1016.06,7099.0
1017.31,5897.0
1018.56,5177.0
1019.81,4667.0
1021.06,4240.0
1022.309,3954.0
1023.558,3841.0
1024.807,3605.0
1026.056,3612.0
1027.305,3401.0
1028.553,3356.0
1029.801,3306.0
1031.049,3270.0
1032.297,3158.0
1033.545,3165.0
1034.793,3081.0
1036.04,3122.0
1037.287,3048.0
1038.534,3015.0
1039.781,2989.0
1041.027,3002.0
1042.274,3027.0
1043.52,2972.0
1044.766,2996.0
1046.012,2966.0
1047.257,2939.0
1048.503,2923.0
1049.748,2905.0
1050.993,2942.0
1052.238,2904.0
1053.483,2911.293
1054.727,2935.0
1055.971,2908.0
1057.216,2896.0
1058.459,2912.0
1059.703,2936.0
1060.947,2940.0
1062.19,2909.0
1063.433,2907.0
1064.676,2916.0
1065.919,2873.0
1067.162,2884.0
1068.404,2888.0
1069.646,2878.11
1070.888,2876.0
1072.13,2878.0
1073.372,2888.0
1074.613,2893.834
1075.855,2903.0
1077.096,2919.0
1078.337,2923.0
1079.578,2943.298
1080.818,2937.0
1082.059,2947.0
1083.299,2945.0
1084.539,2952.299
1085.779,2982.0
1087.018,2956.0
1088.258,2979.0
1089.497,2956.0
1090.736,2938.0
1091.975,2909.0
1093.213,2975.0
1094.452,2910.0
1095.69,2933.0
1096.928,2990.0
1098.166,2907.0
1099.404,3009.0
1100.642,2954.0
1101.879,2973.0
1103.116,2886.0
1104.353,2961.0
1105.59,2986.0
1106.827,2989.0
1108.063,2985.0
1109.299,3008.0
1110.536,3008.0
1111.771,3009.0
1113.007,3017.0
1114.243,3022.199
1115.478,3034.0
1116.713,3045.0
1117.948,3028.0
1119.183,3049.0
1120.418,3132.0
1121.652,3085.0
1122.886,3145.0
1124.12,3207.0
1125.354,3165.0
1126.588,3226.0
1127.821,3169.0
1129.055,3276.0
1130.288,3319.0
1131.521,3444.0
1132.753,3523.0
1133.986,3663.0
1135.218,3834.0
1136.45,4006.0
1137.682,4317.0
1138.914,4523.0
1140.146,4885.0
1141.377,5016.0
1142.609,5162.0
1143.84,5061.0
1145.071,4848.0
1146.301,4542.0
1147.532,4286.0
1148.762,3992.0
1149.992,3752.0
1151.222,3561.0
1152.452,3495.0
1153.682,3300.0
1154.911,3287.0
1156.14,3225.0
1157.369,3217.0
1158.598,3186.0
1159.827,3147.0
1161.055,3127.0
1162.284,3123.0
1163.512,3100.0
1164.74,3150.0
1165.967,3143.0
1167.195,3129.0
1168.422,3084.0
1169.65,3097.0
1170.877,3059.0
1172.103,3087.0
1173.33,3025.0
1174.557,3059.0
1175.783,3088.0
1177.009,3048.0
1178.235,3066.0
1179.461,3025.0
1180.686,3087.0
1181.912,3076.0
1183.137,3063.0
1184.362,3090.0
1185.587,3081.0
1186.811,3093.088
1188.036,3067.0
1189.26,3120.0
1190.484,3126.0
1191.708,3153.0
1192.932,3102.0
1194.155,3120.0
1195.378,3074.0
1196.602,3110.0
1197.825,3146.0
1199.047,3140.0
1200.27,3121.0
1201.492,3126.0
1202.715,3156.0
1203.937,3189.0
1205.159,3104.0
1206.38,3158.0
1207.602,3165.0
1208.823,3195.0
1210.044,3089.0
1211.265,3140.0
1212.486,3161.0
1213.707,3108.0
1214.927,3170.0
1216.147,3193.0
1217.367,3171.0
1218.587,3150.0
1219.807,3164.0
1221.027,3201.0
1222.246,3176.0
1223.465,3159.0
1224.684,3145.0
1225.903,3232.0
1227.121,3161.0
1228.34,3206.0
1229.558,3248.0
1230.776,3162.0
1231.994,3238.0
1233.212,3165.0
1234.429,3206.0
1235.646,3194.0
1236.864,3211.0
1238.081,3235.0
1239.297,3198.0
1240.514,3170.0
1241.73,3221.0
1242.947,3248.0
1244.163,3258.0
1245.378,3284.931
1246.594,3202.0
1247.81,3290.0
1249.025,3228.0
1250.24,3181.0
1251.455,3207.0
1252.67,3251.0
1253.885,3228.0
1255.099,3234.0
1256.313,3233.0
1257.527,3241.0
1258.741,3239.0
1259.955,3247.41
1261.168,3250.001
1262.382,3258.0
1263.595,3257.0
1264.808,3251.0
1266.021,3252.869
1267.233,3257.794
1268.446,3265.0
1269.658,3264.0
1270.87,3271.0
1272.082,3255.0
1273.294,3271.594
1274.505,3278.694
1275.716,3286.0
1276.928,3312.0
1278.139,3300.0
1279.349,3324.0
1280.56,3330.0
1281.77,3324.0
1282.981,3283.0
1284.191,3323.0
1285.401,3300.0
1286.61,3305.0
1287.82,3364.0
1289.029,3353.0
1290.239,3307.0
1291.448,3308.0
1292.656,3367.0
1293.865,3341.0
1295.073,3345.0
1296.282,3328.0
1297.49,3307.0
1298.698,3273.0
1299.906,3330.0
1301.113,3382.0
1302.32,3328.0
1303.528,3404.0
1304.735,3347.0
1305.942,3407.0
1307.148,3392.0
1308.355,3367.0
1309.561,3419.0
1310.767,3384.0
1311.973,3472.0
1313.179,3341.0
1314.384,3416.0
1315.59,3399.0
1316.795,3440.0
1318.0,3387.0
1319.205,3419.0
1320.41,3348.0
1321.614,3445.0
1322.819,3432.0
1324.023,3392.0
1325.227,3403.0
1326.431,3438.0
1327.634,3433.0
1328.838,3382.0
1330.041,3427.0
1331.244,3426.0
1332.447,3427.0
1333.65,3493.0
1334.852,3438.0
1336.055,3452.0
1337.257,3488.0
1338.459,3494.0
1339.661,3465.0
1340.862,3504.0
1342.064,3541.0
1343.265,3517.0
1344.466,3475.0
1345.667,3556.0
1346.868,3568.0
1348.068,3520.0
1349.269,3590.0
1350.469,3481.0
1351.669,3476.0
1352.869,3543.0
1354.069,3548.0
1355.268,3569.0
1356.468,3584.0
1357.667,3521.0
1358.866,3597.0
1360.065,3561.0
1361.263,3512.0
1362.462,3585.0
1363.66,3552.0
1364.858,3591.0
1366.056,3596.0
1367.254,3603.0
1368.451,3547.0
1369.649,3568.0
1370.846,3571.0
1372.043,3626.0
1373.24,3559.0
1374.436,3602.0
1375.633,3612.0
1376.829,3604.0
1378.025,3615.0
1379.221,3623.0
1380.417,3614.0
1381.613,3644.0
1382.808,3690.0
1384.003,3640.0
1385.199,3650.0
1386.393,3621.0
1387.588,3658.0
1388.783,3628.0
1389.977,3693.0
1391.171,3672.0
1392.365,3657.0
1393.559,3624.0
1394.753,3616.0
1395.946,3624.972
1397.14,3675.0
1398.333,3674.0
1399.526,3663.0
1400.719,3715.0
1401.911,3687.0
1403.104,3723.0
1404.296,3715.0
1405.488,3691.0
1406.68,3747.0
1407.872,3731.0
1409.063,3682.0
1410.255,3697.0
1411.446,3726.0
1412.637,3735.0
1413.828,3817.0
1415.018,3750.0
1416.209,3718.0
1417.399,3753.0
1418.589,3791.0
1419.779,3787.0
1420.969,3784.0
1422.159,3734.0
1423.348,3799.0
1424.537,3830.0
1425.726,3793.0
1426.915,3824.0
1428.104,3787.0
1429.293,3790.0
1430.481,3797.0
1431.669,3817.0
1432.857,3852.0
1434.045,3848.0
1435.233,3893.0
1436.42,3889.993
1437.608,3884.0
1438.795,3883.0
1439.982,3851.0
1441.169,3820.0
1442.355,3905.0
1443.542,3831.0
1444.728,3858.0
1445.914,3967.0
1447.1,3856.0
1448.286,3947.0
1449.472,3932.0
1450.657,3881.0
1451.842,3906.0
1453.027,3929.0
1454.212,3943.0
1455.397,3927.0
1456.581,3944.0
1457.766,3904.0
1458.95,3952.0
1460.134,3929.0
1461.318,3941.0
1462.501,3974.0
1463.685,3902.0
1464.868,3944.0
1466.051,3890.0
1467.234,3925.0
1468.417,3924.558
1469.6,3919.0
1470.782,3956.0
1471.965,3988.0
1473.147,4042.0
1474.329,3946.0
1475.51,4003.0
1476.692,3987.0
1477.873,3975.0
1479.055,3979.0
1480.236,3988.0
1481.416,3984.95
1482.597,4027.0
1483.778,3996.0
1484.958,3960.0
1486.138,3972.0
1487.318,4003.0
1488.498,4002.0
1489.678,4006.006
1490.857,4016.0
1492.037,4024.0
1493.216,4012.0
1494.395,4022.276
1495.574,4039.0
1496.752,4017.0
1497.931,4027.0
1499.109,4003.0
1500.287,3999.12
1501.465,4035.0
1502.643,3996.0
1503.82,3999.0
1504.998,4024.0
1506.175,4030.0
1507.352,4039.703
1508.529,4064.0
1509.706,4054.0
1510.882,4107.0
1512.059,4114.0
1513.235,4131.0
1514.411,4124.0
1515.587,4110.0
1516.762,4091.0
1517.938,4194.0
1519.113,4110.0
1520.288,4127.0
1521.463,4068.0
1522.638,4160.0
1523.813,4126.0
1524.987,4124.0
1526.162,4167.0
