Raman Shift,Intensity 
400,3.576798681
401,3.611459879
402,3.611278805
403,3.615406084
404,3.617933232
405,3.600803865
406,3.625521156
407,3.585782749
408,3.589805663
409,3.566623629
410,3.583301116
411,3.620606317
412,3.605633783
413,3.599675439
414,3.603224945
415,3.578612146
416,3.604925468
417,3.615152021
418,3.597294242
419,3.599110287
420,3.614897532
421,3.584910271
422,3.583785309
423,3.590016337
424,3.597315584
425,3.610392322
426,3.622795641
427,3.590181449
428,3.609210296
429,3.583622738
430,3.583968132
431,3.621710018
432,3.629117476
433,3.599693981
434,3.600770083
435,3.600975885
436,3.605822687
437,3.581255627
438,3.595333699
439,3.614234183
440,3.576799689
441,3.591990025
442,3.605553685
443,3.616108838
444,3.59568181
445,3.572763612
446,3.576974054
447,3.607151736
448,3.605305452
449,3.578869486
450,3.617839729
451,3.605866156
452,3.618321608
453,3.606928174
454,3.597887701
455,3.583062082
456,3.624974973
457,3.598820078
458,3.581449632
459,3.59231619
460,3.615911576
461,3.59510442
462,3.573992038
463,3.591961387
464,3.58374724
465,3.582356187
466,3.585741268
467,3.615335097
468,3.631420112
469,3.586930808
470,3.596878604
471,3.576434685
472,3.605053801
473,3.626669858
474,3.60024905
475,3.577553895
476,3.602100099
477,3.590656851
478,3.586819182
479,3.619207761
480,3.59939175
481,3.567878882
482,3.583765023
483,3.598650741
484,3.600481636
485,3.57773874
486,3.594638531
487,3.59719231
488,3.585755326
489,3.596389677
490,3.62356939
491,3.596795426
492,3.60014431
493,3.604503638
494,3.628905498
495,3.587741984
496,3.611462765
497,3.598623282
498,3.595976599
499,3.587770657
500,3.608917206
501,3.582847359
502,3.591930187
503,3.594986602
504,3.570402886
505,3.58865084
506,3.606339095
507,3.595270282
508,3.591339342
509,3.573963283
510,3.572177745
511,3.615035465
512,3.609123389
513,3.598877809
514,3.578503723
515,3.592950576
516,3.594424934
517,3.607452686
518,3.607203138
519,3.599258778
520,3.627022189
521,3.590090819
522,3.599424413
523,3.586580264
524,3.594016793
525,3.598297582
526,3.57899021
527,3.608172989
528,3.600792364
529,3.599497676
530,3.627827257
531,3.597563607
532,3.609619562
533,3.60515797
534,3.591648604
535,3.616139265
536,3.583344559
537,3.606404333
538,3.601688208
539,3.611134165
540,3.608337402
541,3.605000997
542,3.590294208
543,3.59090306
544,3.611174839
545,3.635132386
546,3.609283435
547,3.598584302
548,3.608262757
549,3.600908521
550,3.602433174
551,3.578090128
552,3.597792194
553,3.585549785
554,3.611227115
555,3.584402562
556,3.583385325
557,3.593954662
558,3.592114216
559,3.617709093
560,3.595578573
561,3.622064549
562,3.631765643
563,3.590092706
564,3.599582486
565,3.614796205
566,3.588763759
567,3.628467312
568,3.591695296
569,3.57652233
570,3.61520021
571,3.591838507
572,3.619145287
573,3.63244765
574,3.611735819
575,3.602668071
576,3.615062258
577,3.618701302
578,3.587469908
579,3.626576548
580,3.591440444
581,3.585706291
582,3.590952247
583,3.584035689
584,3.60835627
585,3.604977009
586,3.599735778
587,3.622087828
588,3.595632064
589,3.619803665
590,3.596314629
591,3.598493307
592,3.617407646
593,3.587705941
594,3.575736434
595,3.603434579
596,3.627776744
597,3.591184815
598,3.585085309
599,3.608403261
600,3.631332372
601,3.595443558
602,3.612755984
603,3.602870375
604,3.595440045
605,3.585071916
606,3.601171171
607,3.589750323
608,3.619747642
609,3.604845284
610,3.590659875
611,3.57896838
612,3.596229015
613,3.610927925
614,3.590108235
615,3.606426197
616,3.631750325
617,3.593754774
618,3.639664824
619,3.616440558
620,3.592553952
621,3.610895115
622,3.616320573
623,3.591831169
624,3.591834612
625,3.600878874
626,3.589840791
627,3.612423795
628,3.62871798
629,3.607220276
630,3.61137191
631,3.592393663
632,3.597853462
633,3.561901224
634,3.619573269
635,3.615557861
636,3.626191664
637,3.601239971
638,3.595470769
639,3.587799381
640,3.594051656
641,3.60998957
642,3.597922255
643,3.602636337
644,3.592714485
645,3.608786725
646,3.580209661
647,3.566079236
648,3.598949381
649,3.632922896
650,3.587724771
651,3.578267018
652,3.580686292
653,3.606467884
654,3.608494783
655,3.587707104
656,3.62816864
657,3.59285914
658,3.5873843
659,3.604171235
660,3.58841814
661,3.596733828
662,3.578861964
663,3.563725918
664,3.620059205
665,3.599847331
666,3.611455777
667,3.588532048
668,3.599590052
669,3.590428745
670,3.591595038
671,3.596887307
672,3.588702468
673,3.582959621
674,3.605976597
675,3.593002807
676,3.620534498
677,3.603754874
678,3.640875882
679,3.618966888
680,3.59071784
681,3.605683658
682,3.631321679
683,3.599342062
684,3.563373494
685,3.604182778
686,3.593362424
687,3.60958393
688,3.605407505
689,3.581471365
690,3.616875596
691,3.569887904
692,3.593756836
693,3.619696585
694,3.598225496
695,3.589195054
696,3.626379712
697,3.591444451
698,3.606515358
699,3.621500868
700,3.624707949
701,3.577303007
702,3.627805245
703,3.574124053
704,3.608107967
705,3.61332739
706,3.621647816
707,3.599166285
708,3.569317205
709,3.602723966
710,3.619671716
711,3.6125561
712,3.609116718
713,3.618858109
714,3.585914964
715,3.630760033
716,3.597135023
717,3.597337971
718,3.601499021
719,3.60227483
720,3.579965359
721,3.607915172
722,3.565665278
723,3.613402925
724,3.568413304
725,3.597164078
726,3.587864191
727,3.610562295
728,3.58661061
729,3.612594312
730,3.595291433
731,3.588089637
732,3.60315452
733,3.618785777
734,3.601434957
735,3.602517009
736,3.604521845
737,3.593363946
738,3.582365304
739,3.585466213
740,3.612360812
741,3.563540409
742,3.608557355
743,3.597326813
744,3.59209494
745,3.595008894
746,3.580897442
747,3.613502291
748,3.607819766
749,3.603227426
750,3.621369797
751,3.595399233
752,3.597054616
753,3.586204453
754,3.59743202
755,3.614883414
756,3.605045269
757,3.610175881
758,3.589275672
759,3.608257311
760,3.58774868
761,3.586501184
762,3.602400525
763,3.583553241
764,3.601179526
765,3.598164972
766,3.605211496
767,3.598278803
768,3.610583101
769,3.612155912
770,3.583568465
771,3.602885092
772,3.575803968
773,3.600008763
774,3.587989667
775,3.597886963
776,3.594337277
777,3.576907583
778,3.6235164
779,3.619118838
780,3.600625089
781,3.600800241
782,3.60559942
783,3.622602622
784,3.606034862
785,3.594309296
786,3.568018747
787,3.624053078
788,3.602042404
789,3.63452196
790,3.627765109
791,3.605238754
792,3.620525201
793,3.609288176
794,3.60720773
795,3.574498437
796,3.596073783
797,3.582993317
798,3.567514649
799,3.602043345
800,3.623882707
801,3.59839184
802,3.583930652
803,3.557074046
804,3.574857889
805,3.584537776
806,3.606305595
807,3.602863117
808,3.590132346
809,3.608712532
810,3.578316925
811,3.624108773
812,3.599810047
813,3.628013182
814,3.588965022
815,3.590073312
816,3.613500898
817,3.587477807
818,3.600404882
819,3.589605708
820,3.611834273
821,3.599040702
822,3.605688787
823,3.609224289
824,3.590692304
825,3.580033378
826,3.613561451
827,3.597996367
828,3.588274359
829,3.609772795
830,3.600329428
831,3.586962173
832,3.617738449
833,3.595778863
834,3.630388571
835,3.594771952
836,3.610918768
837,3.593989631
838,3.606112568
839,3.588213639
840,3.604830366
841,3.610910214
842,3.594014829
843,3.586050928
844,3.593595214
845,3.640806808
846,3.591280654
847,3.576233726
848,3.627854473
849,3.615230964
850,3.6060721
851,3.605811152
852,3.626261445
853,3.586417464
854,3.606388402
855,3.601433155
856,3.608758622
857,3.609519483
858,3.613881906
859,3.594350598
860,3.601569861
861,3.579513846
862,3.600170713
863,3.621020154
864,3.600687023
865,3.63965807
866,3.599467408
867,3.576535025
868,3.598304119
869,3.593330915
870,3.601034949
871,3.601026506
872,3.613534431
873,3.607202762
874,3.601920686
875,3.637148979
876,3.595370082
877,3.591016618
878,3.578990643
879,3.611321133
880,3.600596409
881,3.616897176
882,3.617562067
883,3.592039675
884,3.591194162
885,3.600382179
886,3.636455535
887,3.619037448
888,3.60167213
889,3.592709075
890,3.586820928
891,3.60299917
892,3.585807848
893,3.599227783
894,3.591284628
895,3.610568208
896,3.597743996
897,3.603003966
898,3.575002671
899,3.620862836
900,3.608188773
901,3.629303852
902,3.619627167
903,3.589568299
904,3.592803473
905,3.604922697
906,3.600480936
907,3.607645848
908,3.589912452
909,3.595682943
910,3.583778752
911,3.598859608
912,3.602425676
913,3.625310804
914,3.583720412
915,3.599665107
916,3.596857277
917,3.601994279
918,3.599835464
919,3.621039594
920,3.620290115
921,3.5880288
922,3.599906515
923,3.621229775
924,3.604235618
925,3.594247033
926,3.60960894
927,3.582578352
928,3.584728697
929,3.605707317
930,3.594314908
931,3.618904941
932,3.598261253
933,3.603022848
934,3.597989654
935,3.570947367
936,3.603060415
937,3.621924651
938,3.622753
939,3.612190083
940,3.588076784
941,3.60252266
942,3.600159496
943,3.641429413
944,3.586855204
945,3.637565061
946,3.642060644
947,3.640854031
948,3.651948789
949,3.661453694
950,3.707793827
951,3.701553391
952,3.703828225
953,3.754259012
954,3.747225518
955,3.792958598
956,3.792841836
957,3.827793298
958,3.861149932
959,3.874488869
960,3.904728961
961,3.948481293
962,3.965147487
963,3.994016888
964,4.092583888
965,4.075475083
966,4.124195973
967,4.170501903
968,4.227030425
969,4.224097184
970,4.302069057
971,4.293868997
972,4.386309769
973,4.418533888
974,4.442176666
975,4.457989975
976,4.512760407
977,4.536293083
978,4.534424158
979,4.572628051
980,4.574825406
981,4.588516533
982,4.607700823
983,4.615001466
984,4.61373364
985,4.599033047
986,4.5911612
987,4.612513888
988,4.569973269
989,4.582956735
990,4.539103882
991,4.521318089
992,4.458525059
993,4.445154309
994,4.420268482
995,4.398241175
996,4.331885566
997,4.342478766
998,4.308951049
999,4.267901595
1000,4.251876099
1001,4.220864328
1002,4.210295533
1003,4.153133741
1004,4.191248294
1005,4.113060799
1006,4.121869929
1007,4.1211503
1008,4.132840297
1009,4.120378531
1010,4.096078627
1011,4.11150834
1012,4.125042272
1013,4.115511141
1014,4.160321446
1015,4.144086061
1016,4.168618766
1017,4.179159317
1018,4.193390491
1019,4.212382872
1020,4.228017756
1021,4.282726867
1022,4.31020692
1023,4.301101907
1024,4.353307594
1025,4.355554655
1026,4.391703275
1027,4.394191182
1028,4.430689846
1029,4.448730904
1030,4.453989875
1031,4.476368466
1032,4.489613038
1033,4.501911224
1034,4.501414511
1035,4.533200004
1036,4.508311327
1037,4.506661865
1038,4.482873935
1039,4.492089478
1040,4.459000295
1041,4.483714585
1042,4.46815929
1043,4.441182297
1044,4.416873005
1045,4.401697416
1046,4.372792328
1047,4.354255871
1048,4.32834243
1049,4.308053149
1050,4.272301051
1051,4.251766828
1052,4.231359069
1053,4.181733721
1054,4.159576374
1055,4.137284578
1056,4.107498847
1057,4.097217822
1058,4.076929913
1059,4.05512721
1060,3.989389961
1061,3.969389152
1062,3.976460446
1063,3.953146289
1064,3.928146174
1065,3.938740408
1066,3.888507224
1067,3.872923571
1068,3.858155207
1069,3.867888482
1070,3.860234206
1071,3.845631447
1072,3.879908796
1073,3.85107865
1074,3.821213545
1075,3.829362925
1076,3.816400078
1077,3.821284965
1078,3.837588672
1079,3.839043007
1080,3.82041636
1081,3.826359759
1082,3.840558169
1083,3.864228674
1084,3.854467379
1085,3.842729489
1086,3.88422401
1087,3.869216292
1088,3.8756798
1089,3.898665657
1090,3.921665157
1091,3.908796443
1092,3.93745095
1093,3.962712993
1094,3.951264437
1095,3.962742911
1096,4.00427444
1097,3.96714597
1098,4.010178076
1099,3.994318068
1100,3.99749293
1101,4.038504536
1102,4.042297299
1103,4.045059254
1104,4.041769499
1105,4.063839735
1106,4.07417789
1107,4.087381354
1108,4.100660442
1109,4.075986012
1110,4.08384003
1111,4.077308161
1112,4.063205327
1113,4.099321484
1114,4.111732789
1115,4.11448442
1116,4.107810238
1117,4.08848052
1118,4.12219498
1119,4.100080562
1120,4.096763554
1121,4.100257799
1122,4.062302437
1123,4.067336668
1124,4.053747355
1125,4.071552639
1126,4.044494679
1127,4.054866594
1128,4.036441532
1129,4.018676812
1130,4.01373246
1131,4.005925893
1132,3.997967455
1133,3.985898537
1134,3.975313346
1135,3.958109521
1136,3.964811527
1137,3.924157519
1138,3.918014971
1139,3.914961049
1140,3.897053866
1141,3.885718698
1142,3.884603592
1143,3.850306838
1144,3.832559449
1145,3.846599511
1146,3.835390487
1147,3.824337352
1148,3.810220389
1149,3.799284544
1150,3.782988066
1151,3.768396442
1152,3.76409882
1153,3.781249547
1154,3.760334685
1155,3.718103882
1156,3.735196774
1157,3.704754768
1158,3.725652646
1159,3.713856698
1160,3.702399977
1161,3.687362858
1162,3.698102542
1163,3.678223258
1164,3.668908616
1165,3.685642813
1166,3.674173284
1167,3.640890458
1168,3.672106873
1169,3.651647747
1170,3.664089209
1171,3.65396604
1172,3.636929677
1173,3.64169744
1174,3.664157044
1175,3.658379266
1176,3.628385207
1177,3.62514743
1178,3.645142855
1179,3.634122344
1180,3.660783274
1181,3.623058539
1182,3.648268632
1183,3.664964488
1184,3.661132976
1185,3.661027158
1186,3.640126675
1187,3.678010662
1188,3.6180462
1189,3.645171207
1190,3.660449444
1191,3.661848638
1192,3.680477033
1193,3.657820363
1194,3.67403061
1195,3.680510906
1196,3.678975699
1197,3.65861195
1198,3.676552944
1199,3.665593501
1200,3.671380486
1201,3.682347705
1202,3.696398948
1203,3.69402877
1204,3.699212639
1205,3.714216933
1206,3.678578558
1207,3.708299463
1208,3.714890414
1209,3.720027483
1210,3.681351243
1211,3.693547955
1212,3.694489576
1213,3.749417785
1214,3.686578904
1215,3.707602331
1216,3.68903324
1217,3.690705624
1218,3.703331438
1219,3.681905183
1220,3.694930423
1221,3.692218315
1222,3.675823902
1223,3.673000887
1224,3.686642246
1225,3.688789566
1226,3.688970886
1227,3.663256335
1228,3.680409328
1229,3.665499083
1230,3.670429982
1231,3.658192297
1232,3.660247757
1233,3.669373292
1234,3.666125573
1235,3.66168634
1236,3.630065438
1237,3.632342978
1238,3.623101803
1239,3.650256189
1240,3.645510618
1241,3.63265158
1242,3.593634743
1243,3.653309207
1244,3.631703447
1245,3.632570077
1246,3.628318222
1247,3.616584544
1248,3.620823085
1249,3.627096712
1250,3.616229852
1251,3.615918031
1252,3.606841552
1253,3.623866886
1254,3.617179281
1255,3.595861982
1256,3.612684017
1257,3.590547298
1258,3.618567001
1259,3.59434524
1260,3.603359558
1261,3.613030359
1262,3.611226436
1263,3.616988664
1264,3.603497521
1265,3.610725256
1266,3.60948231
1267,3.573627133
1268,3.600104605
1269,3.595241153
1270,3.605112697
1271,3.580675711
1272,3.615880691
1273,3.576716747
1274,3.594516517
1275,3.615693947
1276,3.625298755
1277,3.615086539
1278,3.603571984
1279,3.61376964
1280,3.597562591
1281,3.579637688
1282,3.60596567
1283,3.594863534
1284,3.567671676
1285,3.607853554
1286,3.61544088
1287,3.583489105
1288,3.596607119
1289,3.609919169
1290,3.584710661
1291,3.621851645
1292,3.593478436
1293,3.559589144
1294,3.591023364
1295,3.581652937
1296,3.6345441
1297,3.604398291
1298,3.575969789
1299,3.586942962
1300,3.588233837
1301,3.602010857
1302,3.596340256
1303,3.609234176
1304,3.630434019
1305,3.623190138
1306,3.584969317
1307,3.603378957
1308,3.599143769
1309,3.599471991
1310,3.599305358
1311,3.60478232
1312,3.592080257
1313,3.583860127
1314,3.600325592
1315,3.590653433
1316,3.589395898
1317,3.617221975
1318,3.582776255
1319,3.603545278
1320,3.594846211
1321,3.598004787
1322,3.559402848
1323,3.599529163
1324,3.614012136
1325,3.584876913
1326,3.608356076
1327,3.568022493
1328,3.630255009
1329,3.573227243
1330,3.598444243
1331,3.586358159
1332,3.612912098
1333,3.592754435
1334,3.601825419
1335,3.608114333
1336,3.604831091
1337,3.581281831
1338,3.645928115
1339,3.602506017
1340,3.600233555
1341,3.612188002
1342,3.586809212
1343,3.590313908
1344,3.598539566
1345,3.613222391
1346,3.61836952
1347,3.603821125
1348,3.58504304
1349,3.599408864
1350,3.601059538
1351,3.594257934
1352,3.600302442
1353,3.608933435
1354,3.592503801
1355,3.588626106
1356,3.58013659
1357,3.624818064
1358,3.60928975
1359,3.621097272
1360,3.60744373
1361,3.609803154
1362,3.588602313
1363,3.60417643
1364,3.578217797
1365,3.621497657
1366,3.592025319
1367,3.565072377
1368,3.58575789
1369,3.606186602
1370,3.586948724
1371,3.613983774
1372,3.575080829
1373,3.606860669
1374,3.586512206
1375,3.619485821
1376,3.58491184
1377,3.613721507
1378,3.554094449
1379,3.591366779
1380,3.584555712
1381,3.576399978
1382,3.578682394
1383,3.609568753
1384,3.614603993
1385,3.605445546
1386,3.597302204
1387,3.615433019
1388,3.613845031
1389,3.603503295
1390,3.582876446
1391,3.585870943
1392,3.586275822
1393,3.614330619
1394,3.609264647
1395,3.600277357
1396,3.607120276
1397,3.618805947
1398,3.610624094
1399,3.595549679
1400,3.591568504
1401,3.591925632
1402,3.597821567
1403,3.591538858
1404,3.590410711
1405,3.573760046
1406,3.601822006
1407,3.629950817
1408,3.577938343
1409,3.603957972
1410,3.620492327
1411,3.588885047
1412,3.583612473
1413,3.610168961
1414,3.581343585
1415,3.584893966
1416,3.580124061
1417,3.585462155
1418,3.621761263
1419,3.587464906
1420,3.580595107
1421,3.611302147
1422,3.599479636
1423,3.612495007
1424,3.582301642
1425,3.619174973
1426,3.620862989
1427,3.588232994
1428,3.589841183
1429,3.62497341
1430,3.611016068
1431,3.601419572
1432,3.604522545
1433,3.636346852
1434,3.615412338
1435,3.616673238
1436,3.597252497
1437,3.59070864
1438,3.570388527
1439,3.60144755
1440,3.610802137
1441,3.602182963
1442,3.581337236
1443,3.590597001
1444,3.577141785
1445,3.606084056
1446,3.590944074
1447,3.560533403
1448,3.621663403
1449,3.610846573
1450,3.580160114
1451,3.593236639
1452,3.58216501
1453,3.588393338
1454,3.615585692
1455,3.598655888
1456,3.589163447
1457,3.578030144
1458,3.595719701
1459,3.584560251
1460,3.585296797
1461,3.596566116
1462,3.618949911
1463,3.574879368
1464,3.587066201
1465,3.590186009
1466,3.630038895
1467,3.600246315
1468,3.59898323
1469,3.590216734
1470,3.580935562
1471,3.604543033
1472,3.591677602
1473,3.607276081
1474,3.624611936
1475,3.5674947
1476,3.583520649
1477,3.59854158
1478,3.594891981
1479,3.61232001
1480,3.624323998
1481,3.585817511
1482,3.593818772
1483,3.608140769
1484,3.620536848
1485,3.593922323
1486,3.590175994
1487,3.576415386
1488,3.592862946
1489,3.625989226
1490,3.592441152
1491,3.578853614
1492,3.590972751
1493,3.583091466
1494,3.609316696
1495,3.601869839
1496,3.608927303
1497,3.606428052
1498,3.56783793
1499,3.625752949
1500,3.619068975
1501,3.586970438
1502,3.611690637
1503,3.589234085
1504,3.596705686
1505,3.602290184
1506,3.588332561
1507,3.610761211
1508,3.597290311
1509,3.612641507
1510,3.604632708
1511,3.603605419
1512,3.595511213
1513,3.593181022
1514,3.613202418
1515,3.590984255
1516,3.597200419
1517,3.60350731
1518,3.583742277
1519,3.607783972
1520,3.585229629
1521,3.60572488
1522,3.609150639
1523,3.604006193
1524,3.600624386
1525,3.608473439
1526,3.585786747
1527,3.619346242
1528,3.621874561
1529,3.587206483
1530,3.607122594
1531,3.605949798
1532,3.619678951
1533,3.610754412
1534,3.60664151
1535,3.591995287
1536,3.615780723
1537,3.582412163
1538,3.574017018
1539,3.59732239
1540,3.58451778
1541,3.5957277
1542,3.597894269
1543,3.610884815
1544,3.592614978
1545,3.596907084
1546,3.591015272
1547,3.593955292
1548,3.592092783
1549,3.594957477
1550,3.602890997
1551,3.59827075
1552,3.587551149
1553,3.598022188
1554,3.613749524
1555,3.584604443
1556,3.606761017
1557,3.639166615
1558,3.585123631
1559,3.613118415
1560,3.601988343
1561,3.606573709
1562,3.580813906
1563,3.628285219
1564,3.606521771
1565,3.591199726
1566,3.621339193
1567,3.612219782
1568,3.590099743
1569,3.637124192
1570,3.606563215
1571,3.583788328
1572,3.624233907
1573,3.593279446
1574,3.608967118
1575,3.625770702
1576,3.621381072
1577,3.635107372
1578,3.619462796
1579,3.61180775
1580,3.631508741
1581,3.607694713
1582,3.637692998
1583,3.625054478
1584,3.641219575
1585,3.639195082
1586,3.631297658
1587,3.655694232
1588,3.633942811
1589,3.630138553
1590,3.644697411
1591,3.639553731
1592,3.656208611
1593,3.662581613
1594,3.627328252
1595,3.642786774
1596,3.668518015
1597,3.648212066
1598,3.653859807
1599,3.638445168
1600,3.668778819
1601,3.689637766
1602,3.680517792
1603,3.678261819
1604,3.690782006
1605,3.690959514
1606,3.687037114
1607,3.679675145
1608,3.674615143
1609,3.687102016
1610,3.695344105
1611,3.697318934
1612,3.701739035
1613,3.688038281
1614,3.714096256
1615,3.684916744
1616,3.697998037
1617,3.714688128
1618,3.662657386
1619,3.718934022
1620,3.712122789
1621,3.722808825
1622,3.695550012
1623,3.720237153
1624,3.698929093
1625,3.672273441
1626,3.701004542
1627,3.664794473
1628,3.683630829
1629,3.673947039
1630,3.657400692
1631,3.681728957
1632,3.665118386
1633,3.665109703
1634,3.650684536
1635,3.655950326
1636,3.643300948
1637,3.639498136
1638,3.649552009
1639,3.658781991
1640,3.619982218
1641,3.641437671
1642,3.658301803
1643,3.650212254
1644,3.645042807
1645,3.629265901
1646,3.623585212
1647,3.617832595
1648,3.621247823
1649,3.624087625
1650,3.616251803
1651,3.614161797
1652,3.611168209
1653,3.62939667
1654,3.621524326
1655,3.626089523
1656,3.601309172
1657,3.610106471
1658,3.594718251
1659,3.635218481
1660,3.592582966
1661,3.612756797
1662,3.609260766
1663,3.620232451
1664,3.608051615
1665,3.598190131
1666,3.596203578
1667,3.591112161
1668,3.60473918
1669,3.608782789
1670,3.610070109
1671,3.617383659
1672,3.605873774
1673,3.583537206
1674,3.609346751
1675,3.592955006
1676,3.603538198
1677,3.60977133
1678,3.608323611
1679,3.588270169
1680,3.58398788
1681,3.623706866
1682,3.607628527
1683,3.61047666
1684,3.628454659
1685,3.590074613
1686,3.58731766
1687,3.615234774
1688,3.606492531
1689,3.607740326
1690,3.592690799
1691,3.613413065
1692,3.622338006
1693,3.605490125
1694,3.599976256
1695,3.603705564
1696,3.60118093
1697,3.606356709
1698,3.584534415
1699,3.596341912
1700,3.590706277
1701,3.585319991
1702,3.612756338
1703,3.597742312
1704,3.577687186
1705,3.58736333
1706,3.601582037
1707,3.567569356
1708,3.622413912
1709,3.615845256
1710,3.602350207
1711,3.590146999
1712,3.595678145
1713,3.60114072
1714,3.60552855
1715,3.607399438
1716,3.579758081
1717,3.593420288
1718,3.602748534
1719,3.596835334
1720,3.606382768
1721,3.601070845
1722,3.612899083
1723,3.589291939
1724,3.588829566
1725,3.604487451
1726,3.608291232
1727,3.614202503
1728,3.620180464
1729,3.56555236
1730,3.595393218
1731,3.599161263
1732,3.593597407
1733,3.577856154
1734,3.612306448
1735,3.591625763
1736,3.58746947
1737,3.603155022
1738,3.60624238
1739,3.595052118
1740,3.590485593
1741,3.614723839
1742,3.617265946
1743,3.626889755
1744,3.577967622
1745,3.612049304
1746,3.60658614
1747,3.600421705
1748,3.585050934
1749,3.583068146
1750,3.609992043
1751,3.611457604
1752,3.601145626
1753,3.597735599
1754,3.604276147
1755,3.594078899
1756,3.564753963
1757,3.606027683
1758,3.58969107
1759,3.593520721
1760,3.598525711
1761,3.5921608
1762,3.617068542
1763,3.605724731
1764,3.606909038
1765,3.614894146
1766,3.590347773
1767,3.579791992
1768,3.598612555
1769,3.60784313
1770,3.613033162
1771,3.625843267
1772,3.576322885
1773,3.636433691
1774,3.601006178
1775,3.551345461
1776,3.555415857
1777,3.57194246
1778,3.614190704
1779,3.604434619
1780,3.619976939
1781,3.59886337
1782,3.597440511
1783,3.614780127
1784,3.596637134
1785,3.591278922
1786,3.581079924
1787,3.607510992
1788,3.590213796
1789,3.567910747
1790,3.612510464
1791,3.577261502
1792,3.597922632
1793,3.581957448
1794,3.57655416
1795,3.605908816
1796,3.609201592
1797,3.591940297
1798,3.602961704
1799,3.602081994
1800,3.614351795
1801,3.623856167
1802,3.591600004
1803,3.611713391
1804,3.586127144
1805,3.612131698
1806,3.601884567
1807,3.593375322
1808,3.60755303
1809,3.600548108
1810,3.588511955
1811,3.581552622
1812,3.611488651
1813,3.610948312
1814,3.607271887
1815,3.619884749
1816,3.586054608
1817,3.607283423
1818,3.600748627
1819,3.594684039
1820,3.629374556
1821,3.584463356
1822,3.614928655
1823,3.6032028
1824,3.611664063
1825,3.570737324
1826,3.579526333
1827,3.600993508
1828,3.619682934
1829,3.610342212
1830,3.607051768
1831,3.588425209
1832,3.588565864
1833,3.598401179
1834,3.615586318
1835,3.589907888
1836,3.595517301
1837,3.572410425
1838,3.601105529
1839,3.608637116
1840,3.602703156
1841,3.607547669
1842,3.598580668
1843,3.604501906
1844,3.611071176
1845,3.620802411
1846,3.612245531
1847,3.616562486
1848,3.600391879
1849,3.597176129
1850,3.597692873
1851,3.598235026
1852,3.59370078
1853,3.612469493
1854,3.605749152
1855,3.561726166
1856,3.597031348
1857,3.597591125
1858,3.595850619
1859,3.615456321
1860,3.565810227
1861,3.586086864
1862,3.632832024
1863,3.614369895
1864,3.613274218
1865,3.627401723
1866,3.608526873
1867,3.580469999
1868,3.649634341
1869,3.566885511
1870,3.590247385
1871,3.59915169
1872,3.600550697
1873,3.6216333
1874,3.602623968
1875,3.589387939
1876,3.610163013
1877,3.595618066
1878,3.586647066
1879,3.608242916
1880,3.58432528
1881,3.636690899
1882,3.625807951
1883,3.600336891
1884,3.58657949
1885,3.595134008
1886,3.615256094
1887,3.596808549
1888,3.597100446
1889,3.5975452
1890,3.59094161
1891,3.605527846
1892,3.585767876
1893,3.601634147
1894,3.625055456
1895,3.607096804
1896,3.625702683
1897,3.600854257
1898,3.602331246
1899,3.586579248
1900,3.5768304
1901,3.593133935
1902,3.582084848
1903,3.593011986
1904,3.568238611
1905,3.606586096
1906,3.576101515
1907,3.592841554
1908,3.596680115
1909,3.607106876
1910,3.59771644
1911,3.579945828
1912,3.601967
1913,3.624906282
1914,3.601914314
1915,3.596097987
1916,3.59332598
1917,3.594361683
1918,3.592866426
1919,3.600646518
1920,3.59917837
1921,3.627346503
1922,3.594525968
1923,3.592241209
1924,3.59203887
1925,3.620874022
1926,3.599616318
1927,3.587332054
1928,3.608456551
1929,3.603763745
1930,3.613145993
1931,3.604286779
1932,3.618632622
1933,3.593781696
1934,3.612342827
1935,3.622992644
1936,3.579822121
1937,3.638486599
1938,3.596813328
1939,3.579173811
1940,3.581309416
1941,3.573342706
1942,3.580488844
1943,3.624405568
1944,3.609774193
1945,3.571265191
1946,3.586392059
1947,3.598160781
1948,3.582366235
1949,3.6096774
1950,3.579442756
1951,3.575094441
1952,3.595661807
1953,3.605781892
1954,3.597448859
1955,3.582870444
1956,3.593943011
1957,3.585422222
1958,3.602978969
1959,3.57496981
1960,3.604462438
1961,3.585717103
1962,3.586469697
1963,3.598030469
1964,3.576768521
1965,3.599129745
1966,3.572714975
1967,3.609192238
1968,3.586267352
1969,3.591510576
1970,3.589390537
1971,3.569140395
1972,3.580492969
1973,3.584804235
1974,3.592952542
1975,3.608452327
1976,3.604141591
1977,3.580789273
1978,3.598567617
1979,3.612367977
1980,3.613141974
1981,3.585909964
1982,3.588311624
1983,3.612298806
1984,3.571823909
1985,3.617545
1986,3.603094367
1987,3.584659727
1988,3.630944686
1989,3.600540101
1990,3.60458952
1991,3.610818499
1992,3.598365729
1993,3.604383222
1994,3.600287446
1995,3.605244884
1996,3.608126209
1997,3.584870905
1998,3.587548314
1999,3.627180628
2000,3.624395256
2001,3.594796304
2002,3.578628822
2003,3.620543739
2004,3.629245846
2005,3.5690813
2006,3.581940617
2007,3.612926255
2008,3.577059122
2009,3.597107472
2010,3.601146447
2011,3.60141551
2012,3.58890702
2013,3.591419703
2014,3.593843884
2015,3.607604297
2016,3.604578597
2017,3.597226265
2018,3.612746647
2019,3.599625133
2020,3.574654268
2021,3.602048778
2022,3.584136723
2023,3.604471588
2024,3.605989253
2025,3.617149188
2026,3.574525129
2027,3.600369334
2028,3.599053709
2029,3.593797362
2030,3.622357453
2031,3.580826724
2032,3.604881254
2033,3.615304767
2034,3.609946925
2035,3.559632903
2036,3.61419213
2037,3.619960823
2038,3.602958212
2039,3.589665743
2040,3.587233948
2041,3.58429864
2042,3.607812729
2043,3.600867253
2044,3.589534162
2045,3.600922188
2046,3.578509884
2047,3.586409451
2048,3.60906006
2049,3.596898132
2050,3.611093765
2051,3.587408062
2052,3.612745327
2053,3.618868347
2054,3.593253923
2055,3.597744331
2056,3.57714102
2057,3.622198192
2058,3.593308771
2059,3.613902227
2060,3.593444397
2061,3.592646976
2062,3.587094572
2063,3.5925263
2064,3.610565134
2065,3.598221389
2066,3.642486521
2067,3.595702278
2068,3.600287634
2069,3.609558772
2070,3.603698429
2071,3.618744625
2072,3.596684899
2073,3.612073543
2074,3.603252341
2075,3.576521711
2076,3.602896807
2077,3.571462594
2078,3.59575917
2079,3.567703485
2080,3.60110694
2081,3.593073061
2082,3.573573422
2083,3.633143362
2084,3.590534749
2085,3.59301319
2086,3.607593743
2087,3.611787867
2088,3.588234354
2089,3.594352038
2090,3.592901243
2091,3.607945494
2092,3.585344261
2093,3.604865729
2094,3.615878846
2095,3.580918438
2096,3.610920242
2097,3.598359371
2098,3.602062421
2099,3.608739583
2100,3.614763831
2101,3.59699448
2102,3.585890765
2103,3.576369127
2104,3.56962789
2105,3.597172139
2106,3.577168386
2107,3.601864765
2108,3.608046625
2109,3.589627935
2110,3.595227249
2111,3.59128222
2112,3.594980443
2113,3.591455611
2114,3.584736008
2115,3.609052632
2116,3.624448961
2117,3.604815139
2118,3.605910516
2119,3.590500216
2120,3.606133612
2121,3.584932296
2122,3.577502287
2123,3.615769765
2124,3.596427771
2125,3.564546294
2126,3.593360672
2127,3.59267769
2128,3.587240015
2129,3.603884563
2130,3.578285673
2131,3.599304629
2132,3.56549448
2133,3.601981179
2134,3.642058687
2135,3.588353694
2136,3.572919355
2137,3.598564066
2138,3.59190365
2139,3.601752149
2140,3.610601409
2141,3.60570385
2142,3.59349821
2143,3.606258961
2144,3.580490846
2145,3.611889215
2146,3.576994339
2147,3.590636435
2148,3.632443802
2149,3.577548119
2150,3.587525801
2151,3.607591208
2152,3.633758021
2153,3.602924542
2154,3.588006889
2155,3.646784199
2156,3.598862705
2157,3.607164109
2158,3.585991885
2159,3.601270277
2160,3.589733562
2161,3.601324386
2162,3.625935623
2163,3.57758932
2164,3.610301992
2165,3.608935025
2166,3.589363727
2167,3.59796278
2168,3.613720417
2169,3.591870317
2170,3.578494901
2171,3.608002647
2172,3.585513598
2173,3.599970453
2174,3.573425488
2175,3.606660738
2176,3.605035546
2177,3.605008819
2178,3.618567603
2179,3.605498356
2180,3.606520506
2181,3.620807451
2182,3.601767552
2183,3.59742517
2184,3.597132307
2185,3.60909319
2186,3.622171163
2187,3.616814335
2188,3.616314508
2189,3.611672535
2190,3.601635006
2191,3.600384317
2192,3.593740626
2193,3.575732694
2194,3.604802573
2195,3.587117436
2196,3.624358835
2197,3.602131431
2198,3.575600091
2199,3.603218592
2200,3.619594879
2201,3.600772751
2202,3.591768094
2203,3.592856947
2204,3.612537848
2205,3.58062803
2206,3.584432682
2207,3.606791919
2208,3.60476523
2209,3.63609352
2210,3.604845264
2211,3.62018436
2212,3.617490274
2213,3.605317943
2214,3.588935772
2215,3.60797113
2216,3.618066012
2217,3.602911328
2218,3.570072314
2219,3.605234556
2220,3.615019251
2221,3.575989969
2222,3.600635713
2223,3.618999791
2224,3.599864901
2225,3.596999771
2226,3.625342239
2227,3.612694497
2228,3.598157126
2229,3.598295291
2230,3.598703678
2231,3.611958739
2232,3.601583863
2233,3.5770851
2234,3.6060626
2235,3.591175691
2236,3.616928933
2237,3.610828092
2238,3.618962481
2239,3.581824606
2240,3.592350396
2241,3.574780667
2242,3.619541779
2243,3.588145087
2244,3.605045983
2245,3.595572896
2246,3.587997575
2247,3.585747717
2248,3.564403238
2249,3.6128345
2250,3.595186863
2251,3.599890337
2252,3.61488595
2253,3.614346463
2254,3.593209314
2255,3.614606375
2256,3.614365833
2257,3.588103907
2258,3.592375322
2259,3.594897259
2260,3.615752327
2261,3.58068714
2262,3.588466925
2263,3.608890036
2264,3.585531798
2265,3.596960161
2266,3.598982798
2267,3.57604418
2268,3.583568057
2269,3.605037751
2270,3.587871487
2271,3.5814641
2272,3.627793498
2273,3.585678504
2274,3.584585276
2275,3.606322347
2276,3.579889888
2277,3.580426041
2278,3.610030521
2279,3.589701841
2280,3.601573955
2281,3.602743722
2282,3.609407113
2283,3.621420991
2284,3.596449602
2285,3.603924019
2286,3.603681907
2287,3.58944305
2288,3.576662265
2289,3.595224606
2290,3.599338496
2291,3.593741441
2292,3.608071784
2293,3.620067421
2294,3.596482929
2295,3.594207555
2296,3.585410934
2297,3.590540421
2298,3.586800624
2299,3.595431645
2300,3.593394455
2301,3.642073244
2302,3.600878731
2303,3.604985693
2304,3.593812936
2305,3.583619553
2306,3.573715247
2307,3.584323869
2308,3.575415393
2309,3.600462004
2310,3.603788646
2311,3.586360977
2312,3.599313314
2313,3.58897202
2314,3.606978064
2315,3.597741988
2316,3.60805165
2317,3.610187728
2318,3.581750136
2319,3.614194893
2320,3.58023795
2321,3.590366291
2322,3.58405982
2323,3.582056438
2324,3.615204771
2325,3.613927828
2326,3.617068015
2327,3.592502412
2328,3.629038595
2329,3.59988275
2330,3.596937534
2331,3.584444009
2332,3.608732589
2333,3.624440594
2334,3.600565719
2335,3.600706815
2336,3.624209268
2337,3.605732905
2338,3.60077606
2339,3.602115969
2340,3.617909817
2341,3.58664746
2342,3.584451176
2343,3.574569272
2344,3.608208989
2345,3.621621012
2346,3.610254257
2347,3.594445591
2348,3.61672652
2349,3.60158303
2350,3.611637752
2351,3.579635508
2352,3.590959641
2353,3.596580147
2354,3.604922276
2355,3.599769719
2356,3.617860988
2357,3.594837787
2358,3.592537849
2359,3.621958707
2360,3.612990614
2361,3.584667243
2362,3.589197675
2363,3.58339134
2364,3.575782225
2365,3.590461062
2366,3.607652734
2367,3.625555757
2368,3.592438736
2369,3.592048699
2370,3.571077984
2371,3.59943944
2372,3.610775325
2373,3.616644173
2374,3.5727737
2375,3.606107178
2376,3.602792629
2377,3.598732689
2378,3.590082404
2379,3.600474634
2380,3.587869311
2381,3.616351115
2382,3.587874109
2383,3.582508984
2384,3.608233154
2385,3.600978007
2386,3.588223812
2387,3.58692936
2388,3.616869855
2389,3.619545955
2390,3.597304165
2391,3.630645921
2392,3.594474084
2393,3.604048369
2394,3.601652327
2395,3.598690352
2396,3.596450953
2397,3.603793829
2398,3.61658936
2399,3.585042714
2400,3.591606113
2401,3.597390943
2402,3.571301106
2403,3.587218189
2404,3.579636821
2405,3.588210918
2406,3.608418596
2407,3.604099411
2408,3.602489566
2409,3.583374932
2410,3.62188558
2411,3.60539243
2412,3.578062721
2413,3.581930369
2414,3.566183847
2415,3.607919291
2416,3.598819833
2417,3.596218161
2418,3.607119374
2419,3.616789889
2420,3.591789238
2421,3.589329456
2422,3.585423122
2423,3.60889804
2424,3.632560328
2425,3.609040452
2426,3.591815713
2427,3.585437725
2428,3.591902344
2429,3.583174615
2430,3.613396284
2431,3.603269423
2432,3.591851826
2433,3.574909563
2434,3.602926049
2435,3.566927523
2436,3.581922154
2437,3.608188268
2438,3.589208597
2439,3.611710019
2440,3.580242089
2441,3.586237465
2442,3.599329328
2443,3.582386627
2444,3.593234765
2445,3.629382233
2446,3.59515286
2447,3.619081696
2448,3.627170082
2449,3.578912613
2450,3.593529873
2451,3.564166447
2452,3.577035544
2453,3.604420761
2454,3.603428596
2455,3.618211516
2456,3.604280514
2457,3.61432607
2458,3.617724062
2459,3.588960585
2460,3.580532099
2461,3.600610183
2462,3.611795542
2463,3.588357715
2464,3.587567906
2465,3.625029934
2466,3.624848189
2467,3.590461742
2468,3.593376452
2469,3.579842184
2470,3.628674809
2471,3.59253543
2472,3.579008439
2473,3.59571624
2474,3.591520464
2475,3.598523318
2476,3.597355985
2477,3.600787728
2478,3.597361287
2479,3.603140379
2480,3.599021699
2481,3.560506114
2482,3.609686193
2483,3.583551575
2484,3.583241811
2485,3.59499533
2486,3.611491187
2487,3.606858599
2488,3.614588558
2489,3.604720155
2490,3.59108071
2491,3.628857929
2492,3.597193123
2493,3.597153445
2494,3.609517176
2495,3.604816996
2496,3.596523165
2497,3.601378841
2498,3.593560665
2499,3.606192092
2500,3.602680229
2501,3.614693937
2502,3.604706138
2503,3.599353832
2504,3.604508987
2505,3.589539667
2506,3.610306965
2507,3.599322544
2508,3.613488427
2509,3.638650079
2510,3.600296694
2511,3.600466443
2512,3.595495766
2513,3.583435987
2514,3.589346169
2515,3.591290702
2516,3.61439622
2517,3.566327474
2518,3.577984992
2519,3.584895825
2520,3.611743503
2521,3.610983774
2522,3.591376274
2523,3.582551505
2524,3.610804275
2525,3.606267927
2526,3.618264728
2527,3.608225653
2528,3.617101951
2529,3.611350391
2530,3.601199994
2531,3.616412003
2532,3.594992535
2533,3.603363547
2534,3.589209829
2535,3.618072769
2536,3.6039304
2537,3.589194552
2538,3.604156022
2539,3.610152903
2540,3.621439045
2541,3.595174414
2542,3.614819513
2543,3.598032762
2544,3.617727978
2545,3.61692148
2546,3.595985503
2547,3.617613114
2548,3.596643801
2549,3.61255385
2550,3.593079293
2551,3.608412106
2552,3.588549289
2553,3.595342573
2554,3.596720756
2555,3.600800827
2556,3.581055151
2557,3.629840813
2558,3.573736864
2559,3.610119367
2560,3.593109835
2561,3.605561125
2562,3.613392307
2563,3.581058845
2564,3.606925249
2565,3.618166353
2566,3.588890288
2567,3.618721556
2568,3.610468557
2569,3.591863985
2570,3.595370335
2571,3.5829714
2572,3.581483073
2573,3.604272783
2574,3.615589054
2575,3.614551729
2576,3.593090543
2577,3.609606777
2578,3.616173021
2579,3.60389548
2580,3.616251253
2581,3.600161739
2582,3.613295949
2583,3.596226167
2584,3.609619105
2585,3.594648176
2586,3.61619243
2587,3.601638015
2588,3.603188101
2589,3.570476318
2590,3.597509534
2591,3.597795463
2592,3.597101595
2593,3.599705115
2594,3.585241353
2595,3.607992158
2596,3.617981596
2597,3.629702223
2598,3.596172229
2599,3.614743685
2600,3.585921323
2601,3.608631774
2602,3.587062829
2603,3.612836299
2604,3.611314994
2605,3.598923351
2606,3.590205755
2607,3.598225206
2608,3.597527389
2609,3.593590535
2610,3.614921609
2611,3.608170746
2612,3.587587876
2613,3.612950719
2614,3.600123709
2615,3.589657685
2616,3.590830621
2617,3.621161713
2618,3.603686941
2619,3.611582199
2620,3.602105257
2621,3.606275149
2622,3.579355731
2623,3.593800073
2624,3.59940064
2625,3.59124525
2626,3.598638108
2627,3.60523636
2628,3.595715153
2629,3.597271865
2630,3.594835272
2631,3.568687897
2632,3.562745143
2633,3.585954351
2634,3.583434818
2635,3.581304383
2636,3.603739608
2637,3.575894733
2638,3.61983757
2639,3.588021537
2640,3.577011859
2641,3.62231324
2642,3.583305791
2643,3.616888407
2644,3.58818445
2645,3.609351886
2646,3.593075985
2647,3.587872336
2648,3.606928424
2649,3.605645619
2650,3.579524187
2651,3.594938028
2652,3.584020789
2653,3.587591954
2654,3.607682795
2655,3.625894163
2656,3.614648981
2657,3.604140042
2658,3.602389437
2659,3.623629902
2660,3.60767681
2661,3.605836874
2662,3.596394479
2663,3.598971094
2664,3.604986323
2665,3.609226474
2666,3.616950287
2667,3.618240699
2668,3.589272876
2669,3.602230242
2670,3.571511868
2671,3.621500332
2672,3.631547626
2673,3.600168581
2674,3.616782144
2675,3.593841271
2676,3.581107211
2677,3.592269792
2678,3.581342883
2679,3.624218529
2680,3.620842818
2681,3.612707138
2682,3.586250222
2683,3.592098465
2684,3.623694822
2685,3.563398682
2686,3.603189466
2687,3.620635117
2688,3.61504678
2689,3.616385859
2690,3.592364837
2691,3.57784741
2692,3.600844302
2693,3.593082732
2694,3.594842926
2695,3.584001735
2696,3.600187923
2697,3.599098497
2698,3.597646368
2699,3.588458133
2700,3.623296643
2701,3.614217124
2702,3.62897197
2703,3.601143994
2704,3.610458798
2705,3.584853035
2706,3.58568146
2707,3.58472734
2708,3.584851412
2709,3.580947462
2710,3.601617811
2711,3.615683415
2712,3.598307757
2713,3.579843352
2714,3.591954905
2715,3.592032709
2716,3.574416726
2717,3.592515673
2718,3.610906443
2719,3.58502273
2720,3.618554921
2721,3.583450113
2722,3.615226934
2723,3.591600011
2724,3.629789623
2725,3.626277683
2726,3.60354466
2727,3.570754002
2728,3.567620301
2729,3.613117104
2730,3.59298157
2731,3.588156364
2732,3.58088171
2733,3.617648954
2734,3.596908528
2735,3.582257779
2736,3.628296918
2737,3.601540365
2738,3.612049367
2739,3.571633605
2740,3.609951384
2741,3.61636396
2742,3.598950174
2743,3.594692627
2744,3.594503815
2745,3.573429762
2746,3.600613276
2747,3.596156355
2748,3.595702858
2749,3.604443582
2750,3.559556193
2751,3.614517293
2752,3.61096885
2753,3.604519552
2754,3.589447427
2755,3.616341405
2756,3.611444066
2757,3.610982487
2758,3.596642096
2759,3.576387648
2760,3.604698214
2761,3.619137949
2762,3.595026316
2763,3.588187401
2764,3.632605456
2765,3.600593356
2766,3.599433249
2767,3.592810703
2768,3.619839252
2769,3.614541653
2770,3.576959437
2771,3.564021609
2772,3.603867499
2773,3.609620012
2774,3.553483805
2775,3.587060123
2776,3.605285479
2777,3.598056111
2778,3.591128892
2779,3.637899131
2780,3.614170779
2781,3.622910152
2782,3.607195441
2783,3.597656155
2784,3.616342277
2785,3.61715812
2786,3.568759853
2787,3.57798845
2788,3.621605423
2789,3.588930678
2790,3.610687498
2791,3.610132546
2792,3.617737188
2793,3.578014373
2794,3.606799259
2795,3.5823709
2796,3.605979208
2797,3.614813906
2798,3.579176594
2799,3.605999244
2800,3.593525496
2801,3.601616127
2802,3.583502859
2803,3.606140686
2804,3.601277926
2805,3.62406735
2806,3.602384802
2807,3.614261472
2808,3.612342854
2809,3.59929053
2810,3.621344911
2811,3.593715686
2812,3.589277692
2813,3.608065096
2814,3.595687268
2815,3.595252905
2816,3.583319224
2817,3.574769815
2818,3.597602931
2819,3.600365992
2820,3.605911434
2821,3.598162165
2822,3.587214917
2823,3.60919628
2824,3.603580378
2825,3.606346032
2826,3.605807898
2827,3.587456979
2828,3.599507801
2829,3.587541462
2830,3.574195214
2831,3.598994589
2832,3.589692565
2833,3.601435412
2834,3.604303134
2835,3.591409349
2836,3.616391114
2837,3.616086408
2838,3.590176992
2839,3.600357564
2840,3.626214488
2841,3.602631079
2842,3.620866465
2843,3.585546689
2844,3.570338083
2845,3.615511388
2846,3.598927345
2847,3.609965836
2848,3.620157862
2849,3.599295841
2850,3.589532564
2851,3.635585871
2852,3.605029213
2853,3.564744225
2854,3.592256704
2855,3.599462741
2856,3.564304385
2857,3.588470622
2858,3.592692951
2859,3.602932263
2860,3.596764812
2861,3.580440641
2862,3.582499053
2863,3.606324891
2864,3.634091464
2865,3.605931222
2866,3.609345435
2867,3.585996676
2868,3.604421867
2869,3.586050478
2870,3.570500283
2871,3.59240637
2872,3.585220295
2873,3.60904456
2874,3.601299357
2875,3.586438482
2876,3.597944648
2877,3.595049504
2878,3.61005155
2879,3.611219993
2880,3.611955507
2881,3.620401877
2882,3.5986844
2883,3.591328414
2884,3.599388606
2885,3.592228866
2886,3.606385363
2887,3.595041592
2888,3.628768919
2889,3.599874295
2890,3.606243049
2891,3.592532074
2892,3.601694447
2893,3.616351689
2894,3.599377473
2895,3.614984544
2896,3.623879362
2897,3.614349556
2898,3.597664672
2899,3.597989555
2900,3.611100746
2901,3.598340144
2902,3.593592641
2903,3.617750885
2904,3.617417797
2905,3.612615793
2906,3.593275194
2907,3.61509903
2908,3.608114257
2909,3.631866426
2910,3.587866411
2911,3.604632514
2912,3.589228291
2913,3.60124936
2914,3.613275534
2915,3.603764804
2916,3.620871797
2917,3.603316253
2918,3.612063831
2919,3.598993664
2920,3.607104531
2921,3.5806637
2922,3.592433693
2923,3.615177634
2924,3.598892623
2925,3.588327937
2926,3.597398492
2927,3.621110919
2928,3.621642265
2929,3.600632524
2930,3.603137144
2931,3.608183661
2932,3.589137862
2933,3.585032628
2934,3.628111107
2935,3.605855332
2936,3.60260394
2937,3.618363351
2938,3.61081371
2939,3.610742517
2940,3.614393235
2941,3.614003592
2942,3.603342222
2943,3.594310965
2944,3.639764128
2945,3.622344278
2946,3.616641339
2947,3.598937633
2948,3.613420696
2949,3.586869735
2950,3.613460072
2951,3.619898478
2952,3.607903558
2953,3.620097041
2954,3.586680723
2955,3.59680143
2956,3.606717121
2957,3.61788852
2958,3.607802379
2959,3.617936968
2960,3.625641393
2961,3.606769104
2962,3.625421527
2963,3.604816816
2964,3.595113904
2965,3.614498878
2966,3.611280821
2967,3.581594749
2968,3.623259802
2969,3.627254001
2970,3.612062846
2971,3.603952687
2972,3.60498512
2973,3.602458183
2974,3.608879547
2975,3.628947334
2976,3.615221055
2977,3.596740545
2978,3.611185919
2979,3.594592545
2980,3.659549732
2981,3.61085491
2982,3.641108522
2983,3.61303322
2984,3.613063084
2985,3.60828933
2986,3.593388765
2987,3.618660226
2988,3.622525397
2989,3.603397962
2990,3.639209213
2991,3.602186556
2992,3.621682934
2993,3.607931206
2994,3.625250524
2995,3.609027111
2996,3.583427789
2997,3.6136611
2998,3.618080872
2999,3.638917915
3000,3.610662257
3001,3.612369652
3002,3.617479058
3003,3.612310616
3004,3.635492227
3005,3.612075526
3006,3.589906919
3007,3.619181452
3008,3.612337376
3009,3.63408553
3010,3.609414069
3011,3.642719949
3012,3.617139116
3013,3.625072387
3014,3.628966731
3015,3.593604162
3016,3.635104056
3017,3.603274581
3018,3.629974824
3019,3.620821248
3020,3.634023126
3021,3.642841508
3022,3.622305142
3023,3.647514143
3024,3.626254086
3025,3.638536519
3026,3.641267616
3027,3.616562399
3028,3.617055478
3029,3.648866813
3030,3.630085303
3031,3.628687458
3032,3.635585611
3033,3.640951485
3034,3.628876218
3035,3.631543572
3036,3.599600539
3037,3.628840232
3038,3.607952837
3039,3.639314425
3040,3.633699754
3041,3.624670886
3042,3.593284368
3043,3.63623096
3044,3.623886103
3045,3.640146975
3046,3.659541997
3047,3.625279475
3048,3.648939906
3049,3.627199088
3050,3.637545093
3051,3.634275248
3052,3.640402784
3053,3.618964742
3054,3.631487554
3055,3.650302527
3056,3.655082211
3057,3.669306042
3058,3.611333983
3059,3.636368334
3060,3.601793738
3061,3.626409016
3062,3.621078297
3063,3.643337791
3064,3.652027573
3065,3.677861636
3066,3.625838363
3067,3.645959106
3068,3.663239305
3069,3.648519274
3070,3.633698385
3071,3.632463837
3072,3.648610501
3073,3.612577399
3074,3.612607974
3075,3.640140632
3076,3.639764915
3077,3.642603324
3078,3.649758915
3079,3.657432033
3080,3.665633913
3081,3.677040346
3082,3.673655826
3083,3.653013443
3084,3.657957489
3085,3.664718594
3086,3.646851863
3087,3.649965921
3088,3.657036201
3089,3.666773773
3090,3.641929788
3091,3.680512989
3092,3.669203338
3093,3.646563423
3094,3.676353916
3095,3.659026503
3096,3.674414046
3097,3.666872643
3098,3.647295984
3099,3.677874584
3100,3.654871508
3101,3.688357056
3102,3.641221055
3103,3.689191873
3104,3.667495745
3105,3.658427228
3106,3.675774464
3107,3.669741688
3108,3.680188625
3109,3.682999623
3110,3.671505877
3111,3.681904033
3112,3.682723748
3113,3.696070915
3114,3.666650349
3115,3.673506566
3116,3.674001587
3117,3.672964017
3118,3.684702473
3119,3.704735652
3120,3.660485739
3121,3.699346286
3122,3.710646104
3123,3.703454733
3124,3.696814865
3125,3.698981997
3126,3.68517077
3127,3.688693055
3128,3.706225588
3129,3.692547031
3130,3.731193889
3131,3.708956677
3132,3.688282764
3133,3.72924014
3134,3.693327466
3135,3.733432247
3136,3.703280401
3137,3.741351977
3138,3.697152365
3139,3.723338856
3140,3.699325984
3141,3.734763323
3142,3.753654744
3143,3.724180563
3144,3.720505204
3145,3.744614581
3146,3.730416396
3147,3.734076427
3148,3.733476464
3149,3.720867628
3150,3.713607601
3151,3.744952542
3152,3.719008081
3153,3.737127099
3154,3.735319275
3155,3.756254888
3156,3.732899269
3157,3.775104543
3158,3.76095923
3159,3.754093796
3160,3.749047329
3161,3.728439534
3162,3.758850089
3163,3.760430579
3164,3.749408456
3165,3.763807658
3166,3.745607355
3167,3.765253831
3168,3.799982421
3169,3.752099697
3170,3.782585041
3171,3.752047817
3172,3.783288111
3173,3.759958727
3174,3.766716968
3175,3.770173802
3176,3.789345878
3177,3.773988606
3178,3.78491668
3179,3.775414223
3180,3.791253726
3181,3.798944479
3182,3.812154001
3183,3.786928213
3184,3.801173569
3185,3.78885005
3186,3.793049533
3187,3.817680292
3188,3.801427681
3189,3.81150192
3190,3.810228666
3191,3.81277629
3192,3.793856296
3193,3.803768614
3194,3.780275611
3195,3.815932985
3196,3.808550627
3197,3.814972593
3198,3.810996337
3199,3.850930762
3200,3.822440896
3201,3.825734205
3202,3.842933051
3203,3.839194807
3204,3.842445024
3205,3.826071288
3206,3.826922981
3207,3.859064887
3208,3.850068932
3209,3.83844068
3210,3.824222035
3211,3.850599365
3212,3.854102264
3213,3.853399291
3214,3.867960552
3215,3.843816135
3216,3.866404313
3217,3.857467327
3218,3.842767576
3219,3.860162358
3220,3.873222114
3221,3.879284398
3222,3.866629468
3223,3.856631888
3224,3.878672637
3225,3.900387309
3226,3.890717369
3227,3.877962035
3228,3.896509171
3229,3.894261478
3230,3.876336148
3231,3.87849158
3232,3.900184956
3233,3.910571369
3234,3.903533222
3235,3.906023987
3236,3.918033591
3237,3.91935499
3238,3.896816722
3239,3.882751154
3240,3.905688295
3241,3.886818794
3242,3.900984378
3243,3.89827462
3244,3.917204981
3245,3.908771503
3246,3.946815894
3247,3.946274497
3248,3.923148268
3249,3.941109961
3250,3.926114749
3251,3.92199938
3252,3.955867684
3253,3.930937026
3254,3.943210849
3255,3.964678423
3256,3.974741205
3257,3.961750947
3258,3.953252293
3259,3.930219703
3260,3.984061712
3261,3.97194965
3262,3.989377357
3263,3.975775829
3264,3.939522303
3265,3.969832428
3266,3.993332087
3267,3.952582999
3268,3.999967269
3269,3.977093327
3270,3.976551867
3271,3.970537733
3272,3.976800608
3273,3.975241256
3274,3.993588256
3275,3.977627119
3276,3.998709158
3277,3.999961259
3278,3.97508531
3279,4.004856886
3280,3.987721136
3281,4.034117891
3282,4.016115638
3283,4.035865088
3284,3.989384499
3285,4.027542777
3286,4.027589972
3287,3.987157186
3288,4.030896563
3289,4.03081346
3290,4.035982813
3291,4.018776233
3292,4.051932412
3293,4.033382737
3294,4.041115829
3295,4.030765134
3296,4.052470254
3297,4.046515943
3298,4.049903203
3299,4.060918556
3300,4.039968213
3301,4.077174282
3302,4.073563027
3303,4.03239117
3304,4.076311675
3305,4.064449152
3306,4.074846412
3307,4.072461418
3308,4.054730433
3309,4.071756275
3310,4.094424722
3311,4.077739384
3312,4.078466537
3313,4.110402928
3314,4.089726989
3315,4.088583988
3316,4.106911366
3317,4.096356798
3318,4.115154451
3319,4.097427617
3320,4.095015046
3321,4.109534544
3322,4.104158046
3323,4.091269808
3324,4.116586737
3325,4.130301204
3326,4.102977947
3327,4.108127916
3328,4.117193511
3329,4.158737546
3330,4.10330865
3331,4.136548785
3332,4.133882898
3333,4.142109856
3334,4.111915933
3335,4.132896921
3336,4.141589744
3337,4.134720606
3338,4.133676504
3339,4.1429944
3340,4.125400866
3341,4.134050198
3342,4.132609779
3343,4.151019912
3344,4.14892491
3345,4.131254154
3346,4.134809753
3347,4.143919474
3348,4.145250267
3349,4.148437569
3350,4.165158987
3351,4.166999321
3352,4.147221571
3353,4.164356966
3354,4.151345883
3355,4.152990566
3356,4.173948768
3357,4.145110186
3358,4.166994623
3359,4.158419337
3360,4.177711379
3361,4.181994238
3362,4.164564993
3363,4.15480765
3364,4.163444487
3365,4.206362537
3366,4.175078593
3367,4.189508409
3368,4.1828872
3369,4.183360075
3370,4.182849029
3371,4.168049671
3372,4.178251876
3373,4.204537946
3374,4.168928385
3375,4.178206434
3376,4.186591304
3377,4.167909458
3378,4.190674926
3379,4.206621579
3380,4.209060803
3381,4.21255237
3382,4.196882348
3383,4.170439983
3384,4.177998058
3385,4.191545503
3386,4.211494377
3387,4.187051495
3388,4.168868568
3389,4.202243492
3390,4.177672726
3391,4.217926739
3392,4.222252311
3393,4.177546315
3394,4.189983155
3395,4.21169913
3396,4.204703344
3397,4.198072294
3398,4.180147961
3399,4.215885457
3400,4.191088802
3401,4.19082973
3402,4.206514588
3403,4.166056498
3404,4.186637232
3405,4.215823642
3406,4.197347485
3407,4.177619596
3408,4.226875885
3409,4.183963752
3410,4.193487296
3411,4.198407269
3412,4.201595846
3413,4.202101728
3414,4.222389593
3415,4.191472127
3416,4.190536853
3417,4.19091927
3418,4.222581914
3419,4.183353617
3420,4.172812511
3421,4.200312875
3422,4.196870961
3423,4.237196989
3424,4.205973286
3425,4.195869143
3426,4.227483988
3427,4.222251258
3428,4.199298681
3429,4.201251225
3430,4.196654265
3431,4.196421445
3432,4.2034368
3433,4.175008906
3434,4.20199158
3435,4.176111488
3436,4.174396568
3437,4.152357313
3438,4.191813722
3439,4.171608317
3440,4.191676887
3441,4.184165744
3442,4.18081692
3443,4.182697601
3444,4.194492704
3445,4.193116945
3446,4.20778259
3447,4.175916362
3448,4.164619504
3449,4.167323357
3450,4.16651502
3451,4.177491069
3452,4.177588024
3453,4.190177942
3454,4.167581686
3455,4.171053084
3456,4.190029192
3457,4.194594275
3458,4.180124138
3459,4.16809158
3460,4.161333556
3461,4.141917622
3462,4.171303599
3463,4.176647286
3464,4.146224051
3465,4.166100235
3466,4.192331307
3467,4.14709668
3468,4.175323171
3469,4.169672917
3470,4.146186289
3471,4.134148733
3472,4.171460995
3473,4.15199892
3474,4.156368735
3475,4.174820696
3476,4.152423074
3477,4.141684414
3478,4.124179863
3479,4.12529008
3480,4.147939786
3481,4.165945798
3482,4.168262332
3483,4.113180546
3484,4.139968345
3485,4.140152548
3486,4.120897929
3487,4.123984832
3488,4.114013361
3489,4.11272238
3490,4.10630837
3491,4.095994607
3492,4.13794585
3493,4.089279195
3494,4.089662982
3495,4.111884915
3496,4.110850522
3497,4.113353442
3498,4.101652792
3499,4.110114001
3500,4.109171776
3501,4.124270067
3502,4.089759938
3503,4.103023324
3504,4.078296397
3505,4.107417908
3506,4.10177921
3507,4.095538041
3508,4.06471103
3509,4.089702428
3510,4.073794523
3511,4.067850534
3512,4.08270159
3513,4.106782886
3514,4.095858835
3515,4.067372126
3516,4.095753267
3517,4.053715228
3518,4.055053331
3519,4.060562021
3520,4.047512742
3521,4.072527702
3522,4.039346173
3523,4.040459729
3524,4.063935111
3525,4.056347423
3526,4.076806667
3527,4.042527762
3528,4.032914875
3529,4.032619734
3530,4.043518976
3531,4.042092895
3532,4.032207823
3533,4.042705445
3534,4.002791762
3535,3.980365793
3536,4.034649192
3537,4.000143197
3538,4.014910522
3539,4.027968464
3540,4.005573851
3541,3.986392121
3542,4.036583531
3543,3.993949655
3544,4.009990688
3545,3.993501007
3546,4.000285555
3547,3.992772907
3548,3.971278151
3549,4.005656015
3550,3.997300823
3551,3.993072899
3552,3.991018095
3553,3.976977606
3554,3.966733304
3555,3.974111148
3556,3.988911695
3557,3.974781918
3558,3.956358631
3559,3.963584
3560,3.988998503
3561,3.970259483
3562,3.95271669
3563,3.986089355
3564,3.949078653
3565,3.944176905
3566,3.938913635
3567,3.974295665
3568,3.931427186
3569,3.951482074
3570,3.961772862
3571,3.934896704
3572,3.935013218
3573,3.917916756
3574,3.94323409
3575,3.926630498
3576,3.917274565
3577,3.924391527
3578,3.920752309
3579,3.912162324
3580,3.914905777
3581,3.909319091
3582,3.912076053
3583,3.918615389
3584,3.922007897
3585,3.88630837
3586,3.921992435
3587,3.889530398
3588,3.885318768
3589,3.877506393
3590,3.896266932
3591,3.887865634
3592,3.898531373
3593,3.886320852
3594,3.86844818
3595,3.888112346
3596,3.910514777
3597,3.873399455
3598,3.883946034
3599,3.849537239
3600,3.891133551
3601,3.881100824
3602,3.882367148
3603,3.852502936
3604,3.874411247
3605,3.875035722
3606,3.875932758
3607,3.859475622
3608,3.860835222
3609,3.847921638
3610,3.835354663
3611,3.849907732
3612,3.846658075
3613,3.845690433
3614,3.824871183
3615,3.829990468
3616,3.823264652
3617,3.850018925
3618,3.833118345
3619,3.829125717
3620,3.799437098
3621,3.82328939
3622,3.811721906
3623,3.835692027
3624,3.812136671
3625,3.839521875
3626,3.814257628
3627,3.831413416
3628,3.797741902
3629,3.827296687
3630,3.797054353
3631,3.805664422
3632,3.79918726
3633,3.799520777
3634,3.807326636
3635,3.812057377
3636,3.805418155
3637,3.771564853
3638,3.761926125
3639,3.795699463
3640,3.776696573
3641,3.778637267
3642,3.768391236
3643,3.766972187
3644,3.800279513
3645,3.779032887
3646,3.798426794
3647,3.768144263
3648,3.774984472
3649,3.768759533
3650,3.7538592
3651,3.76960637
3652,3.732430519
3653,3.788007956
3654,3.793364623
3655,3.74945671
3656,3.763996379
3657,3.773594745
3658,3.742687282
3659,3.734661514
3660,3.754390596
3661,3.747998972
3662,3.760063925
3663,3.721481975
3664,3.733186099
3665,3.743363743
3666,3.766525648
3667,3.748185164
3668,3.742393012
3669,3.73402676
3670,3.742375172
3671,3.725089004
3672,3.75020532
3673,3.709558195
3674,3.721179056
3675,3.716166016
3676,3.726323899
3677,3.736111395
3678,3.734605725
3679,3.721763527
3680,3.721098425
3681,3.719279276
3682,3.714580731
3683,3.718730919
3684,3.722057775
3685,3.707575946
3686,3.719238574
3687,3.703856985
3688,3.67741722
3689,3.696160307
3690,3.711831404
3691,3.703358425
3692,3.703195486
3693,3.694515113
3694,3.70254246
3695,3.691408885
3696,3.689868485
3697,3.693524883
3698,3.70171118
3699,3.718208706
3700,3.67879036
3701,3.676578087
3702,3.689360548
3703,3.685980729
3704,3.713648495
3705,3.684863319
3706,3.722580618
3707,3.693455861
3708,3.697870758
3709,3.664803058
3710,3.673795425
3711,3.675061989
3712,3.671505703
3713,3.679143491
3714,3.658613651
3715,3.701554618
3716,3.676910507
3717,3.692627106
3718,3.676440986
3719,3.681080143
3720,3.652078685
3721,3.66950509
3722,3.662686972
3723,3.681786911
3724,3.685906268
3725,3.651768708
3726,3.650989426
3727,3.665394264
3728,3.682150015
3729,3.680917008
3730,3.657914126
3731,3.671349395
3732,3.671477185
3733,3.656552409
3734,3.638492204
3735,3.661963055
3736,3.637404017
3737,3.643396995
3738,3.644227603
3739,3.636433466
3740,3.645603586
3741,3.645412377
3742,3.65618652
3743,3.658899932
3744,3.665489903
3745,3.663465362
3746,3.671627714
3747,3.664033902
3748,3.641453898
3749,3.617262045
3750,3.638782702
3751,3.646252324
3752,3.664435347
3753,3.641706051
3754,3.664224627
3755,3.629652191
3756,3.605031464
3757,3.639154937
3758,3.651871772
3759,3.626945873
3760,3.653149605
3761,3.652126562
3762,3.665247715
3763,3.649773364
3764,3.624647252
3765,3.623565688
3766,3.635503571
3767,3.637185801
3768,3.590114545
3769,3.630478234
3770,3.617766972
3771,3.653294648
3772,3.65056161
3773,3.626378045
3774,3.634479642
3775,3.669305908
3776,3.633737097
3777,3.643779723
3778,3.636888641
3779,3.626652163
3780,3.629601703
3781,3.625647057
3782,3.644064923
3783,3.629678591
3784,3.625638637
3785,3.652544984
3786,3.616512113
3787,3.617319631
3788,3.637713723
3789,3.631457326
3790,3.634313901
3791,3.626240839
3792,3.607624573
3793,3.618517792
3794,3.601258309
3795,3.64131259
3796,3.630548647
3797,3.62321955
3798,3.601829639
3799,3.638520797
3800,3.60291974
3801,3.602064685
3802,3.621227009
3803,3.625003288
3804,3.620323253
3805,3.613114498
3806,3.601452298
3807,3.634919979
3808,3.620207274
3809,3.640362841
3810,3.605592845
3811,3.621837094
3812,3.604881101
3813,3.612651047
3814,3.626876691
3815,3.61997508
3816,3.61228383
3817,3.633826108
3818,3.637175321
3819,3.594276811
3820,3.612029254
3821,3.607801461
3822,3.602693993
3823,3.597872705
3824,3.619408
3825,3.606115328
3826,3.617451443
3827,3.622760506
3828,3.602480317
3829,3.609688018
3830,3.6370151
3831,3.622276911
3832,3.608106841
3833,3.591748015
3834,3.616491372
3835,3.61427602
3836,3.642461411
3837,3.629988219
3838,3.607589655
3839,3.621887767
3840,3.604238084
3841,3.578245573
3842,3.612758017
3843,3.617978179
3844,3.605807065
3845,3.59957804
3846,3.596291527
3847,3.574640102
3848,3.603656566
3849,3.589066142
3850,3.572047496
3851,3.569257221
3852,3.594803393
3853,3.618131669
3854,3.606777837
3855,3.59881197
3856,3.591304329
3857,3.619276087
3858,3.604905476
3859,3.634027116
3860,3.62585449
3861,3.588801917
3862,3.608375061
3863,3.609611082
3864,3.592227883
3865,3.609125299
3866,3.633242178
3867,3.611864304
3868,3.581180122
3869,3.580404735
3870,3.607620008
3871,3.603030671
3872,3.620345823
3873,3.634525584
3874,3.614246082
3875,3.616872728
3876,3.608027111
3877,3.612413478
3878,3.603112822
3879,3.592247276
3880,3.637284665
3881,3.610879371
3882,3.58935609
3883,3.609446456
3884,3.591460732
3885,3.590044651
3886,3.621859427
3887,3.586760848
3888,3.590305426
3889,3.600171407
3890,3.590338752
3891,3.611375344
3892,3.616247389
3893,3.582521097
3894,3.603774797
3895,3.598256947
3896,3.605852369
3897,3.603471067
3898,3.615870626
3899,3.60835319
3900,3.623432759
3901,3.602589065
3902,3.60840529
3903,3.607230196
3904,3.615997296
3905,3.588070201
3906,3.602751428
3907,3.620922591
3908,3.604908556
3909,3.603883964
3910,3.586606684
3911,3.600920534
3912,3.594099225
3913,3.622895409
3914,3.619796989
3915,3.612195437
3916,3.58501134
3917,3.59475182
3918,3.585548693
3919,3.620263962
3920,3.577821009
3921,3.6076666
3922,3.594458069
3923,3.607980793
3924,3.597055362
3925,3.622378275
3926,3.607448204
3927,3.611704065
3928,3.600835074
3929,3.601491213
3930,3.593736211
3931,3.595597284
3932,3.60339599
3933,3.591472785
3934,3.604343473
3935,3.605284949
3936,3.590506621
3937,3.593661284
3938,3.618124288
3939,3.608007879
3940,3.588047222
3941,3.595216569
3942,3.604460168
3943,3.604976003
3944,3.592759981
3945,3.59663515
3946,3.574200041
3947,3.600234113
3948,3.598533957
3949,3.584382202
3950,3.626450963
3951,3.600415876
3952,3.617316356
3953,3.629820073
3954,3.588558509
3955,3.62737642
3956,3.573605031
3957,3.587435155
3958,3.604739004
3959,3.606197136
3960,3.594172252
3961,3.610398546
3962,3.60775279
3963,3.600029182
3964,3.601332495
3965,3.5600403
3966,3.575657236
3967,3.59378052
3968,3.610078151
3969,3.598064362
3970,3.593231099
3971,3.609699742
3972,3.612010877
3973,3.613210508
3974,3.620612456
3975,3.603410006
3976,3.609562499
3977,3.592986139
3978,3.623743073
3979,3.613157532
3980,3.592941385
3981,3.568729879
3982,3.581366233
3983,3.612674909
3984,3.592303262
3985,3.593934019
3986,3.562117332
3987,3.607109259
3988,3.573426174
3989,3.603354904
3990,3.594011849
3991,3.613515749
3992,3.573301453
3993,3.575311494
3994,3.598517369
3995,3.602992391
3996,3.600966435
3997,3.603738456
3998,3.596261869
3999,3.603589967
4000,3.583723022
