Raman Shift,Intensity
92.793,3131.0
94.188,3246.0
95.582,3280.0
96.976,3385.0
98.37,3444.0
99.764,3555.0
101.157,3566.0
102.55,3589.0
103.943,3626.0
105.336,3603.0
106.729,3659.0
108.121,3660.0
109.513,3690.0
110.905,3731.0
112.297,3635.0
113.688,3707.0
115.079,3604.0
116.47,3696.0
117.861,3687.0
119.251,3632.0
120.642,3657.0
122.032,3592.0
123.422,3692.0
124.811,3606.0
126.201,3679.0
127.59,3738.0
128.979,3753.0
130.367,3807.0
131.756,3847.0
133.144,4070.0
134.532,4147.0
135.92,4444.0
137.307,4716.0
138.695,4844.0
140.082,4858.0
141.469,4554.0
142.856,4374.0
144.242,4072.0
145.628,3905.0
147.014,3726.0
148.4,3631.0
149.786,3605.0
151.171,3584.0
152.556,3804.0
153.941,3703.0
155.325,3905.0
156.71,4003.0
158.094,3935.0
159.478,3998.0
160.862,3693.0
162.245,3668.0
163.629,3570.0
165.012,3581.0
166.395,3502.0
167.777,3423.0
169.16,3448.0
170.542,3308.0
171.924,3371.0
173.306,3275.0
174.687,3257.0
176.068,3189.0
177.449,3185.0
178.83,3212.0
180.211,3049.0
181.591,3151.0
182.972,3026.0
184.351,3085.0
185.731,3086.0
187.111,2975.0
188.49,3048.0
189.869,3025.0
191.248,3110.0
192.626,3045.0
194.005,3020.0
195.383,3074.0
196.761,3023.0
198.139,3162.0
199.516,2999.0
200.893,3124.0
202.271,3056.0
203.647,3104.0
205.024,3084.0
206.4,3123.0
207.777,3119.165
209.152,3040.0
210.528,3112.0
211.904,3082.0
213.279,3072.0
214.654,3102.0
216.029,2987.0
217.403,3110.0
218.778,2999.0
220.152,3042.0
221.526,3030.0
222.9,3040.0
224.273,3097.0
225.646,3004.0
227.019,3153.0
228.392,3124.0
229.765,3266.0
231.137,3300.0
232.509,3292.0
233.881,3416.0
235.253,3295.0
236.625,3441.0
237.996,3322.0
239.367,3296.0
240.738,3282.0
242.108,3179.0
243.479,3266.0
244.849,3074.0
246.219,3230.0
247.589,3097.0
248.958,3171.0
250.328,3179.0
251.697,3120.0
253.065,3240.0
254.434,3147.0
255.803,3266.0
257.171,3268.0
258.539,3360.0
259.906,3577.0
261.274,3576.0
262.641,3931.0
264.008,3940.0
265.375,4182.0
266.742,4276.0
268.108,4122.0
269.475,4186.0
270.84,3803.0
272.206,3774.0
273.572,3543.0
274.937,3472.0
276.302,3542.0
277.667,3385.0
279.032,3546.0
280.396,3328.0
281.76,3420.0
283.125,3383.0
284.488,3353.0
285.852,3396.0
287.215,3274.0
288.578,3441.0
289.941,3363.0
291.304,3399.0
292.666,3367.0
294.029,3328.0
295.391,3383.906
296.753,3373.0
298.114,3467.0
299.476,3502.0
300.837,3542.0
302.198,3641.0
303.558,3571.0
304.919,3775.0
306.279,3700.0
307.639,3842.0
308.999,3855.0
310.359,3770.0
311.718,3904.0
313.077,3662.0
314.436,3799.0
315.795,3578.0
317.154,3533.0
318.512,3517.0
319.87,3382.0
321.228,3491.0
322.586,3366.0
323.943,3464.0
325.3,3354.0
326.657,3364.0
328.014,3475.0
329.371,3305.0
330.727,3439.0
332.083,3280.0
333.439,3394.0
334.795,3420.0
336.15,3310.0
337.506,3560.0
338.861,3260.0
340.215,3459.0
341.57,3396.0
342.924,3409.0
344.279,3524.0
345.633,3350.0
346.986,3488.0
348.34,3402.0
349.693,3462.0
351.046,3503.0
352.399,3429.0
353.752,3574.0
355.104,3435.0
356.457,3536.0
357.809,3521.0
359.16,3475.0
360.512,3599.0
361.863,3482.0
363.214,3591.0
364.565,3426.0
365.916,3625.0
367.267,3558.0
368.617,3509.0
369.967,3641.0
371.317,3503.0
372.666,3650.0
374.016,3595.0
375.365,3587.0
376.714,3678.0
378.063,3558.0
379.411,3725.0
380.76,3579.0
382.108,3661.0
383.456,3677.0
384.803,3534.0
386.151,3814.0
387.498,3579.0
388.845,3729.0
390.192,3675.0
391.539,3674.0
392.885,3768.0
394.231,3621.0
395.577,3851.0
396.923,3793.0
398.269,3737.0
399.614,3851.0
400.959,3729.0
402.304,3892.0
403.649,3723.0
404.993,3896.0
406.337,3919.0
407.681,3857.0
409.025,3979.0
410.369,3844.0
411.712,4010.0
413.055,4005.0
414.398,3995.0
415.741,4085.0
417.084,3960.0
418.426,4215.0
419.768,4123.0
421.11,4235.0
422.452,4297.0
423.793,4214.0
425.134,4517.0
426.475,4356.0
427.816,4635.0
429.157,4646.0
430.497,4687.0
431.837,4877.0
433.177,4721.0
434.517,5026.0
435.857,4956.0
437.196,5048.0
438.535,5308.0
439.874,5292.0
441.213,5799.0
442.551,5688.0
443.889,6091.0
445.227,6111.0
446.565,5953.0
447.903,6308.0
449.24,5888.0
450.577,5962.0
451.914,5760.0
453.251,5521.0
454.588,5562.0
455.924,5205.0
457.26,5326.0
458.596,4988.0
459.932,5052.0
461.267,4943.0
462.602,4751.0
463.938,4985.0
465.272,4620.0
466.607,4778.0
467.941,4722.0
469.276,4533.0
470.61,4744.0
471.943,4566.0
473.277,4715.0
474.61,4578.0
475.944,4580.0
477.276,4725.0
478.609,4483.0
479.942,4766.0
481.274,4567.0
482.606,4593.0
483.938,4773.0
485.27,4497.0
486.601,4774.0
487.932,4590.0
489.263,4659.0
490.594,4700.0
491.925,4583.0
493.255,4763.0
494.585,4587.0
495.915,4740.0
497.245,4711.0
498.575,4716.0
499.904,4824.0
501.233,4628.0
502.562,4840.0
503.891,4762.0
505.219,4788.0
506.548,4874.0
507.876,4708.0
509.203,4958.0
510.531,4734.0
511.859,4785.0
513.186,4954.0
514.513,4755.0
515.84,5008.0
517.166,4791.0
518.493,4962.0
519.819,5013.0
521.145,4923.0
522.47,5205.0
523.796,4955.0
525.121,5148.0
526.446,5098.0
527.771,5035.0
529.096,5140.0
530.421,4919.0
531.745,5122.0
533.069,5062.0
534.393,5046.0
535.716,5240.0
537.04,4986.0
538.363,5257.0
539.686,5078.0
541.009,5174.0
542.331,5306.0
543.654,4984.0
544.976,5413.0
546.298,5181.0
547.62,5298.0
548.941,5287.0
550.263,5164.0
551.584,5364.0
552.905,5236.0
554.225,5284.0
555.546,5334.0
556.866,5324.0
558.186,5519.0
559.506,5357.0
560.826,5606.0
562.145,5553.0
563.465,5438.0
564.784,5822.0
566.103,5544.0
567.421,5801.0
568.74,5799.0
570.058,5760.0
571.376,6083.0
572.694,5776.0
574.011,6310.0
575.329,6319.0
576.646,6774.0
577.963,7805.0
579.279,8079.0
580.596,8039.848
581.912,8270.0
583.228,7400.0
584.544,6958.0
585.86,6378.0
587.175,6530.0
588.491,6411.0
589.806,6482.0
591.121,6713.0
592.435,6287.0
593.75,6439.0
595.064,6010.0
596.378,6126.0
597.692,6078.0
599.006,5946.0
600.319,6354.0
601.632,6125.0
602.945,6772.0
604.258,7298.0
605.571,7637.0
606.883,7690.889
608.195,7644.0
609.507,7375.0
610.819,6811.0
612.131,6433.0
613.442,6837.0
614.753,6479.0
616.064,6821.0
617.375,6614.0
618.685,6374.0
619.995,6484.0
621.306,6055.0
622.615,6224.0
623.925,6176.0
625.235,5875.0
626.544,6243.0
627.853,5892.0
629.162,6151.0
630.471,6030.0
631.779,5885.0
633.087,6259.0
634.395,5934.0
635.703,6174.0
637.011,6063.0
638.318,6024.0
639.625,6231.0
640.932,5931.0
642.239,6266.0
643.546,6046.0
644.852,6161.0
646.158,6440.0
647.464,6117.0
648.77,6474.0
650.076,6326.0
651.381,6327.0
652.686,6452.0
653.991,6250.0
655.296,6572.0
656.6,6428.0
657.905,6392.0
659.209,6615.0
660.513,6274.0
661.817,6704.0
663.12,6417.0
664.423,6542.0
665.726,6720.0
667.029,6409.0
668.332,6756.0
669.635,6495.0
670.937,6522.0
672.239,6709.0
673.541,6367.0
674.842,6785.0
676.144,6558.0
677.445,6592.0
678.746,6668.0
680.047,6436.0
681.348,6883.0
682.648,6486.0
683.948,6620.0
685.248,6833.0
686.548,6446.0
687.848,6945.0
689.147,6649.0
690.447,6748.0
691.746,6936.0
693.044,6525.0
694.343,7031.0
695.641,6645.0
696.94,6770.0
698.238,7026.0
699.535,6742.0
700.833,7029.0
702.13,6860.0
703.427,6931.0
704.724,7076.0
706.021,6708.0
707.318,7108.0
708.614,6926.0
709.91,6945.0
711.206,7186.0
712.502,6820.0
713.798,7255.0
715.093,6986.0
716.388,6969.0
717.683,7286.0
718.978,6908.0
720.272,7365.0
721.567,7086.0
722.861,7132.0
724.155,7397.0
725.448,7016.0
726.742,7419.0
728.035,7234.0
729.328,7230.0
730.621,7526.0
731.914,7074.0
733.206,7447.0
734.499,7340.0
735.791,7430.0
737.083,7521.0
738.374,7220.0
739.666,7617.0
740.957,7478.0
742.248,7450.0
743.539,7680.0
744.83,7378.0
746.12,7657.0
747.41,7495.0
748.701,7518.0
749.99,7855.0
751.28,7417.0
752.57,7639.0
753.859,7783.0
755.148,7514.0
756.437,7869.0
757.725,7603.0
759.014,7892.0
760.302,7806.0
761.59,7577.0
762.878,8108.0
764.166,7649.0
765.453,7871.0
766.74,7976.0
768.027,7780.0
769.314,8243.0
770.601,7780.0
771.887,8016.0
773.174,8041.0
774.46,7818.0
775.745,8314.0
777.031,7942.0
778.316,8086.0
779.602,8342.0
780.887,7863.0
782.172,8236.0
783.456,7988.0
784.741,8064.0
786.025,8266.0
787.309,8023.0
788.593,8336.0
789.876,8136.0
791.16,8167.0
792.443,8511.0
793.726,8066.0
795.009,8623.0
796.291,8281.0
797.574,8404.0
798.856,8645.0
800.138,8195.0
801.42,8629.0
802.702,8470.0
803.983,8411.0
805.264,8699.0
806.545,8258.0
807.826,8720.0
809.107,8596.0
810.387,8486.0
811.667,8917.0
812.947,8458.0
814.227,8762.0
815.507,8807.0
816.786,8472.0
818.065,8940.0
819.344,8542.0
820.623,8847.0
821.902,8744.0
823.18,8547.0
824.459,9105.0
825.737,8642.0
827.014,9031.0
828.292,9039.0
829.569,8819.0
830.847,9348.0
832.124,8991.0
833.401,8877.0
834.677,9462.0
835.954,8884.0
837.23,9390.0
838.506,9020.0
839.782,9055.0
841.057,9427.0
842.333,8926.0
843.608,9472.0
844.883,9302.0
846.158,9132.0
847.433,9728.0
848.707,9132.0
849.981,9569.0
851.255,9545.0
852.529,9323.0
853.803,9807.0
855.076,9523.0
856.35,9796.0
857.623,9910.0
858.895,9478.0
860.168,10180.0
861.441,9570.0
862.713,9744.0
863.985,9904.0
865.257,9398.0
866.528,9921.0
867.8,9678.0
869.071,9665.0
870.342,10110.0
871.613,9526.0
872.884,10120.0
874.154,9967.0
875.425,9718.0
876.695,10180.0
877.965,9830.0
879.234,10000.0
880.504,10120.0
881.773,9815.0
883.042,10520.0
884.311,9936.0
885.58,10130.0
886.848,10450.0
888.117,9865.0
889.385,10580.0
890.653,10180.0
891.92,10270.0
893.188,10540.0
894.455,10010.0
895.722,10550.0
896.989,10430.0
898.256,10160.0
899.523,10820.0
900.789,10090.0
902.055,10620.0
903.321,10600.0
904.587,10220.0
905.852,10750.0
907.118,10380.0
908.383,10680.0
909.648,10840.0
910.913,10340.0
912.177,11090.0
913.442,10650.0
914.706,10830.0
915.97,11220.0
917.233,10450.0
918.497,11210.0
919.76,11010.0
921.024,10830.0
922.287,11280.0
923.55,10820.0
924.812,11360.0
926.075,11380.0
927.337,10870.0
928.599,11600.0
929.861,10970.0
931.122,11390.0
932.384,11620.0
933.645,11150.0
934.906,11880.0
936.167,11400.0
937.428,11500.0
938.688,12100.0
939.948,11480.0
941.208,12260.0
942.468,12180.0
943.728,12080.0
944.987,12850.0
946.247,12450.0
947.506,13060.0
948.765,13490.0
950.023,13050.0
951.282,14430.0
952.54,14230.0
953.798,15160.0
955.056,17050.0
956.314,17950.0
957.572,22620.0
958.829,26910.0
960.086,35030.0
961.343,49970.0
962.6,60510.0
963.856,65540.0
965.113,63030.0
966.369,45920.0
967.625,37450.0
968.881,27520.0
970.136,23240.0
971.392,20560.0
972.647,17540.0
973.902,16920.0
975.157,15010.0
976.411,14200.0
977.666,14020.0
978.92,12740.0
980.174,13290.0
981.428,12850.0
982.682,12500.0
983.935,13130.0
985.188,12350.0
986.441,12940.0
987.694,12920.0
988.947,12370.0
990.199,13180.0
991.452,12540.0
992.704,12780.0
993.956,12900.0
995.207,12490.0
996.459,13190.0
997.71,12920.0
998.961,12550.0
1000.212,13430.0
1001.463,12740.0
1002.714,13300.0
1003.964,13280.0
1005.214,13070.0
1006.464,13960.0
1007.714,13570.0
1008.964,13760.0
1010.213,14320.0
1011.462,13340.0
1012.711,13970.0
1013.96,13580.0
1015.209,13080.0
1016.457,13750.0
1017.705,13010.0
1018.954,13430.0
1020.201,13650.0
1021.449,12990.0
1022.697,13860.0
1023.944,13480.0
1025.191,13520.0
1026.438,14290.0
1027.685,13680.0
1028.931,14680.0
1030.177,14910.0
1031.423,14520.0
1032.669,15730.0
1033.915,14830.0
1035.161,15060.0
1036.406,15000.0
1037.651,14180.0
1038.896,15120.0
1040.141,14570.0
1041.386,14430.0
1042.63,14980.0
1043.874,14240.0
1045.118,14520.0
1046.362,14590.0
1047.606,13860.0
1048.849,15000.0
1050.092,14220.0
1051.336,14350.0
1052.578,14960.0
1053.821,14270.0
1055.064,15090.0
1056.306,14920.0
1057.548,14780.0
1058.79,15920.0
1060.032,15030.0
1061.273,15230.0
1062.515,15540.0
1063.756,14190.0
1064.997,15220.0
1066.237,14750.0
1067.478,14520.0
1068.718,15040.0
1069.959,14370.0
1071.199,14910.0
1072.438,14990.0
1073.678,14500.0
1074.918,15440.0
1076.157,14830.0
1077.396,15500.0
1078.635,15850.0
1079.873,14830.0
1081.112,15720.0
1082.35,15140.0
1083.588,14630.0
1084.826,15450.0
1086.064,14520.0
1087.301,15080.0
1088.539,15260.0
1089.776,14350.0
1091.013,15550.0
1092.25,14780.0
1093.486,14910.0
1094.723,15480.0
1095.959,14690.0
1097.195,15430.0
1098.431,15440.0
1099.666,14860.0
1100.902,15640.0
1102.137,15180.0
1103.372,15190.0
1104.607,15660.0
1105.842,14890.0
1107.076,15890.0
1108.311,15450.0
1109.545,14810.0
1110.779,16100.0
1112.012,15220.0
1113.246,15380.0
1114.479,15890.0
1115.712,15040.0
1116.945,15890.0
1118.178,15380.0
1119.411,15340.0
1120.643,16080.0
1121.875,15320.0
1123.108,15810.0
1124.339,15970.0
1125.571,15110.0
1126.802,16420.0
1128.034,15710.0
1129.265,15420.0
1130.496,16540.0
1131.727,15420.0
1132.957,16200.0
1134.187,16270.0
1135.418,15520.0
1136.648,16760.0
1137.877,15870.0
1139.107,15590.0
1140.336,16800.0
1141.566,15660.0
1142.795,16510.0
1144.023,16330.0
1145.252,15830.0
1146.48,16890.0
1147.709,16180.0
1148.937,16160.0
1150.165,16950.0
1151.392,15910.0
1152.62,16870.0
1153.847,16690.0
1155.074,16150.0
1156.301,17150.0
1157.528,16230.0
1158.755,16730.0
1159.981,17140.0
1161.207,16000.0
1162.433,17220.0
1163.659,16960.0
1164.885,16490.0
1166.11,17410.0
1167.336,16450.0
1168.561,16750.0
1169.786,17440.0
1171.01,16280.0
1172.235,17370.0
1173.459,17580.0
1174.683,17150.0
1175.907,17790.0
1177.131,16570.0
1178.355,17310.0
1179.578,17630.0
1180.801,16580.0
1182.024,17890.0
1183.247,17350.0
1184.47,16920.0
1185.692,18130.0
1186.915,16720.0
1188.137,17310.0
1189.359,17840.0
1190.58,16720.0
1191.802,17970.0
1193.023,17450.0
1194.244,17020.0
1195.465,18270.0
1196.686,17340.0
1197.907,17510.0
1199.127,18070.0
1200.347,17110.0
1201.567,18290.0
1202.787,17610.0
1204.007,17260.0
1205.226,18720.0
1206.446,17390.0
1207.665,17830.0
1208.884,18510.0
1210.102,17330.0
1211.321,18600.0
1212.539,18230.0
1213.758,17540.0
1214.976,19120.0
1216.193,17880.0
1217.411,18760.0
1218.628,19480.0
1219.846,17650.0
1221.063,19190.0
1222.28,18690.0
1223.496,17860.0
1224.713,19520.0
1225.929,18060.0
1227.145,18590.0
1228.361,19290.0
1229.577,18150.0
1230.793,19310.0
1232.008,18970.0
1233.223,17890.0
1234.438,19780.0
1235.653,18440.0
1236.868,18510.0
1238.082,19630.0
1239.297,18300.0
1240.511,19380.0
1241.725,19260.0
1242.938,18370.0
1244.152,19760.0
1245.365,18970.0
1246.578,18790.0
1247.791,19950.0
1249.004,18320.0
1250.217,19810.0
1251.429,19390.0
1252.642,18740.0
1253.854,20330.0
1255.066,18960.0
1256.277,19190.0
1257.489,20370.0
1258.7,18730.0
1259.911,19580.0
1261.122,20080.0
1262.333,18890.0
1263.544,20600.0
1264.754,19600.0
1265.964,19020.0
1267.174,20900.0
1268.384,19230.0
1269.594,19940.0
1270.803,20580.0
1272.013,19030.0
1273.222,20520.0
1274.431,20080.0
1275.64,19320.0
1276.848,21000.0
1278.057,19830.0
1279.265,20040.0
1280.473,20820.0
1281.681,19500.0
1282.888,21160.0
1284.096,20520.0
1285.303,19560.0
1286.51,21110.0
1287.717,19820.0
1288.924,20350.0
1290.131,20950.0
1291.337,19840.0
1292.543,20790.0
1293.749,20920.0
1294.955,19660.0
1296.161,21160.0
1297.366,20620.0
1298.571,19990.0
1299.777,21470.0
1300.981,19900.0
1302.186,20610.0
1303.391,21080.0
1304.595,19630.0
1305.799,21320.0
1307.003,20640.0
1308.207,20160.0
1309.411,21980.0
1310.614,20480.0
1311.818,20810.0
1313.021,21670.0
1314.224,20670.0
1315.426,21550.0
1316.629,21750.0
1317.831,20420.0
1319.033,22340.0
1320.235,21150.0
1321.437,21030.0
1322.639,22520.0
1323.84,20700.0
1325.042,21910.0
1326.243,22130.0
1327.444,20600.0
1328.644,22520.0
1329.845,21810.0
1331.045,21220.0
1332.245,23130.0
1333.445,21300.0
1334.645,21820.0
1335.845,22810.0
1337.044,21260.0
1338.244,22740.0
1339.443,22630.0
1340.642,21380.0
1341.84,23250.0
1343.039,22020.0
1344.237,21770.0
1345.435,23100.0
1346.633,21430.0
1347.831,22630.0
1349.029,23070.0
1350.226,21550.0
1351.424,23340.0
1352.621,22920.0
1353.818,21740.0
1355.014,24180.0
1356.211,22360.0
1357.407,22450.0
1358.604,24150.0
1359.8,22050.0
1360.995,23550.0
1362.191,23640.0
1363.387,22250.0
1364.582,24530.0
1365.777,23290.0
1366.972,22710.0
1368.167,24560.0
1369.361,23000.0
1370.556,23110.0
1371.75,24730.0
1372.944,22240.0
1374.138,23930.0
1375.331,23840.0
1376.525,22250.0
1377.718,24670.0
1378.911,23610.0
1380.104,23480.0
1381.297,25160.0
1382.49,23100.0
1383.682,24320.0
1384.874,24850.0
1386.066,22900.0
1387.258,24870.0
1388.45,24230.0
1389.641,23280.0
1390.833,25590.0
1392.024,24030.0
1393.215,23890.0
1394.406,25720.0
1395.596,23560.0
1396.787,25200.0
1397.977,25300.0
1399.167,23340.0
1400.357,25660.0
1401.547,24990.0
1402.736,24000.0
1403.925,25910.0
1405.115,24270.0
1406.304,24620.0
1407.492,26250.0
1408.681,23740.0
1409.87,25780.0
1411.058,25860.0
1412.246,24000.0
1413.434,26780.0
1414.622,25270.0
1415.809,24450.0
1416.997,27010.0
1418.184,24830.0
1419.371,25110.0
1420.558,26610.0
1421.744,24790.0
1422.931,25960.0
1424.117,26500.0
1425.303,24490.0
1426.489,27130.0
1427.675,25710.0
1428.861,24900.0
1430.046,27280.0
1431.231,25630.0
1432.416,25710.0
1433.601,27400.0
1434.786,25120.0
1435.97,26780.0
1437.155,27340.0
1438.339,25100.0
1439.523,27320.0
1440.707,26560.0
1441.89,25660.0
1443.074,28100.0
1444.257,25740.0
1445.44,26430.0
1446.623,28020.0
1447.806,25610.0
1448.989,27310.0
1450.171,27860.0
1451.353,25590.0
1452.535,28240.0
1453.717,27110.0
1454.899,26140.0
1456.08,29010.0
1457.262,26680.0
1458.443,26670.0
1459.624,28970.0
1460.805,26340.0
1461.985,27980.0
1463.166,28630.0
1464.346,26630.0
1465.526,28790.0
1466.706,28240.0
1467.886,26480.0
1469.065,29750.0
1470.245,27580.0
1471.424,27190.0
1472.603,29970.0
1473.782,27230.0
1474.96,28450.0
1476.139,29350.0
1477.317,26870.0
1478.495,28930.0
1479.673,29260.0
1480.851,26990.0
1482.029,30210.0
1483.206,28300.0
1484.383,27610.0
1485.56,30500.0
1486.737,27800.0
1487.914,28470.0
1489.091,30560.0
1490.267,27620.0
1491.443,29560.0
1492.619,29780.0
1493.795,27840.0
1494.971,30240.0
1496.146,29000.0
1497.322,27940.0
1498.497,31130.0
1499.672,28530.0
1500.846,28770.0
1502.021,31300.0
1503.196,27970.0
1504.37,29940.0
1505.544,30850.0
1506.718,28260.0
1507.892,31020.0
1509.065,30170.0
1510.238,28650.0
1511.412,31180.0
1512.585,29770.0
1513.758,28710.0
1514.93,31980.0
1516.103,29260.0
1517.275,29770.0
1518.447,31620.0
1519.619,28760.0
1520.791,30780.0
