Raman Shift,Intensity
146.5045,0.052035999
146.9866,0.079643004
147.4688,0.021106999
147.9509,0.0057660001
148.433,0.148994
148.9151,0.488197
149.3972,0.777233
149.8793,0.820303
150.3615,0.752344
150.8436,0.809755
151.3257,0.817768
151.8078,0.831036
152.2899,0.893387
152.772,1.097603
153.2542,1.214594
153.7363,1.137392
154.2184,0.934475
154.7005,0.687725
155.1826,0.407282
155.6647,0.110172
156.1469,0.015797
156.629,0.215706
157.1111,0.488405
157.5932,0.719202
158.0753,0.886993
158.5574,0.988506
159.0396,1.077171
159.5217,1.178604
160.0038,1.1276
160.4859,1.172586
160.968,1.24538
161.4501,1.376854
161.9323,1.585724
162.4144,1.782318
162.8965,1.833147
163.3786,1.465218
163.8607,1.281385
164.3428,1.477053
164.825,1.727165
165.3071,1.795536
165.7892,1.643259
166.2713,1.379892
166.7534,1.115656
167.2355,0.84351
167.7177,0.640947
168.1998,0.479298
168.6819,0.40439
169.164,0.529926
169.6461,0.92786
170.1282,1.348326
170.6104,1.492052
171.0925,1.396584
171.5746,1.153849
172.0567,0.611511
172.5388,0.072525002
173.0209,0.386761
173.5031,0.038125999
173.9852,0.432079
174.4673,0.497974
174.9494,0.199936
175.4315,0.081867002
175.9136,0.041779
176.3958,0.307959
176.8779,0.614273
177.36,0.918911
177.8421,1.074259
178.3242,0.910782
178.8063,0.457836
179.2885,0.017542001
179.7706,0.225864
180.2527,0.103319
180.7348,0.012367
181.2169,0.072315
181.699,0.138693
182.1812,0.259899
182.6633,0.436895
183.1454,0.619213
183.6275,0.732199
184.1096,0.734138
184.5917,0.751577
185.0738,0.768475
185.556,0.808207
186.0381,0.904221
186.5202,1.058498
187.0023,1.227522
187.4844,1.336443
187.9665,1.348007
188.4487,1.349583
188.9308,1.359007
189.4129,1.351442
189.895,1.283993
190.3771,1.144733
190.8592,0.989422
191.3414,0.932533
191.8235,1.040144
192.3056,1.121183
192.7877,1.072985
193.2698,1.010191
193.7519,1.119492
194.2341,1.490572
194.7162,1.972099
195.1983,2.249067
195.6804,2.311825
196.1625,2.305235
196.6446,2.235025
197.1268,2.126783
197.6089,2.045818
198.091,2.031349
198.5731,2.023218
199.0552,1.889151
199.5373,1.583672
200.0195,1.386652
200.5016,1.512342
200.9837,1.90246
201.4658,2.251886
201.9479,2.439337
202.43,2.584801
202.9122,2.831987
203.3943,3.208838
203.8764,3.585777
204.3585,3.839754
204.8406,3.972382
205.3227,4.190886
205.8048,4.678638
206.287,5.168911
206.7691,5.461372
207.2512,5.533468
207.7333,5.508196
208.2154,5.469521
208.6975,5.391178
209.1797,5.45569
209.6618,5.879749
210.1439,6.331913
210.626,6.592842
211.1081,6.640062
211.5902,6.658062
212.0724,6.932856
212.5545,7.579084
213.0366,8.043716
213.5187,8.173389
214.0008,8.217806
214.4829,8.342489
214.9651,8.57192
215.4472,8.826324
215.9293,8.971819
216.4114,8.878286
216.8935,8.934715
217.3756,9.16901
217.8578,9.504448
218.3399,9.972889
218.822,10.54366
219.3041,11.07167
219.7862,11.25886
220.2683,10.72869
220.7505,10.55227
221.2326,11.00718
221.7147,11.60401
222.1968,12.04541
222.6789,12.23522
223.161,12.13899
223.6432,11.66845
224.1253,10.46145
224.6074,9.639845
225.0895,9.452448
225.5716,9.502325
226.0537,9.452364
226.5358,9.22094
227.018,8.91559
227.5001,8.69335
227.9822,8.614124
228.4643,8.411064
228.9464,7.957886
229.4285,7.423992
229.9107,6.995905
230.3928,6.703859
230.8749,6.453178
231.357,6.156984
231.8391,5.788656
232.3212,5.527447
232.8034,5.50094
233.2855,5.548532
233.7676,5.48407
234.2497,5.270241
234.7318,4.998501
235.2139,4.759085
235.6961,4.548656
236.1782,4.369205
236.6603,4.243546
237.1424,4.133339
237.6245,3.963831
238.1066,3.718647
238.5888,3.533035
239.0709,3.595249
239.553,3.824282
240.0351,3.998259
240.5172,4.001141
240.9993,3.911327
241.4815,3.892183
241.9636,3.986814
242.4457,4.063667
242.9278,4.022661
243.4099,3.894148
243.892,3.73674
244.3742,3.53006
244.8563,3.317591
245.3384,3.214455
245.8205,3.268711
246.3026,3.334896
246.7847,3.325041
247.2668,3.272943
247.749,3.23554
248.2311,3.280119
248.7132,3.35508
249.1953,3.278671
249.6774,2.940071
250.1595,2.67741
250.6417,2.763788
251.1238,2.963324
251.6059,2.93712
252.088,2.454763
252.5701,1.749844
253.0522,1.436836
253.5344,1.741652
254.0165,2.008224
254.4986,2.074776
254.9807,1.992136
255.4628,1.77739
255.9449,1.41671
256.4271,1.006496
256.9092,0.77285
257.3913,0.781895
257.8734,0.859335
258.3555,1.052437
258.8376,1.243534
259.3198,1.300026
259.8019,1.168261
260.284,0.947243
260.7661,0.857885
261.2482,1.023766
261.7303,1.082932
262.2125,0.933302
262.6946,0.713692
263.1767,0.510736
263.6588,0.357857
264.1409,0.282776
264.623,0.365911
265.1052,0.80571
265.5873,1.00289
266.0694,0.753214
266.5515,0.410835
267.0336,0.259508
267.5157,0.351721
267.9979,0.512386
268.48,0.459795
268.9621,0.001589
269.4442,0.243194
269.9263,0.168402
270.4084,0.0081230002
270.8906,0.200516
271.3727,0.369823
271.8548,0.465237
272.3369,0.400823
272.819,0.070331998
273.3011,0.053541999
273.7833,0.21125
274.2654,0.489338
274.7475,0.57135
275.2296,0.452734
275.7117,0.235918
276.1938,0.00496
276.676,0.316926
277.1581,0.336536
277.6402,0.0081306472
278.1223,0.25521
278.6044,0.3937025
279.0865,0.4294431
279.5686,0.054678187
280.0508,0.2099956
280.5329,0.1528803
281.015,0.087054074
281.4971,0.3169786
281.9792,0.0019209053
282.4613,0.2271553
282.9435,0.4388236
283.4256,0.5704005
283.9077,0.5986297
284.3898,0.2139769
284.8719,0.3624763
285.354,0.297312
285.8362,0.2233847
286.3183,0.4469231
286.8004,0.1223226
287.2825,0.3411437
287.7646,0.343041
288.2467,0.4442184
288.7289,0.3304113
289.211,0.2830077
289.6931,0.4506554
290.1752,0.4992277
290.6573,0.3606748
291.1394,0.4681631
291.6216,0.222396
292.1037,0.255265
292.5858,0.268933
293.0679,0.241159
293.55,0.237494
294.0321,0.322574
294.5143,0.409863
294.9964,0.375591
295.4785,0.18714
295.9606,0.039218999
296.4427,0.143068
296.9248,0.092882
297.407,0.0094090002
297.8891,0.280048
298.3712,0.530345
298.8533,0.554768
299.3354,0.334368
299.8175,0.054593001
300.2997,0.102038
300.7818,0.111891
301.2639,0.115201
301.746,0.136409
302.2281,0.132483
302.7102,0.042371001
303.1924,0.119438
303.6745,0.253055
304.1566,0.285538
304.6387,0.213901
305.1208,0.095574997
305.6029,0.23926
306.0851,0.456536
306.5672,0.291629
307.0493,0.152001
307.5314,0.536679
308.0135,0.667656
308.4956,0.596539
308.9778,0.549689
309.4599,0.518906
309.942,0.516018
310.4241,0.587211
310.9062,0.685906
311.3883,0.69793
311.8705,0.558449
312.3526,0.365803
312.8347,0.356808
313.3168,0.603075
313.7989,0.827428
314.281,0.988028
314.7632,1.092481
315.2453,1.136101
315.7274,1.114576
316.2095,1.077916
316.6916,1.111332
317.1737,1.254921
317.6559,1.278966
318.138,1.00602
318.6201,0.700217
319.1022,0.614091
319.5843,0.776431
320.0664,1.057415
320.5485,1.378123
321.0306,1.738982
321.5128,1.914227
321.9949,1.777521
322.477,1.570369
322.9591,1.407619
323.4412,1.302995
323.9233,1.278026
324.4055,1.369603
324.8876,1.550402
325.3697,1.622252
325.8518,1.470844
326.3339,1.35036
326.816,1.368676
327.2982,1.474194
327.7803,1.610662
328.2624,1.759572
328.7445,1.887384
329.2266,1.915512
329.7087,1.777435
330.1909,1.673568
330.673,1.621533
331.1551,1.627989
331.6372,1.757519
332.1193,2.02775
332.6014,2.285644
333.0836,2.291203
333.5657,1.914495
334.0478,1.652903
334.5299,1.626789
335.012,1.64514
335.4941,1.517952
335.9763,1.22086
336.4584,0.954577
336.9405,0.924883
337.4226,1.159095
337.9047,1.259938
338.3868,1.046161
338.869,0.884809
339.3511,0.8484709
339.8332,1.109538
340.3153,1.26139
340.7974,1.309894
341.2795,0.9455158
341.7617,1.114292
342.2438,1.069403
342.7259,1.015752
343.208,1.259566
343.6901,0.9552399
344.1722,1.194336
344.6544,1.21651
345.1365,1.337963
345.6186,1.344748
346.1007,1.399188
346.5828,1.040743
347.0649,1.215452
347.5471,1.1765
348.0292,1.128785
348.5113,1.378532
348.9934,1.080141
349.4755,1.325171
349.9576,1.353278
350.4398,1.480668
350.9219,1.393073
351.404,1.371878
351.8861,1.565736
352.3682,2.073901
352.8503,2.725983
353.3325,3.02563
353.8146,3.00797
354.2967,2.968042
354.7788,2.799915
355.2609,2.707142
355.743,2.746507
356.2252,2.889075
356.7073,3.11302
357.1894,3.410628
357.6715,3.705784
358.1536,3.79048
358.6357,3.380854
359.1179,3.208532
359.5999,3.503131
360.0821,3.912453
360.5642,4.101723
361.0463,4.004212
361.5284,3.839806
362.0105,3.885839
362.4926,4.225823
362.9748,4.452786
363.4569,4.508271
363.939,4.489058
364.4211,4.401381
364.9032,4.298462
365.3853,4.267916
365.8675,4.396209
366.3496,4.664959
366.8317,4.899726
367.3138,5.187857
367.7959,5.317385
368.278,5.098373
368.7602,4.749998
369.2423,4.57495
369.7244,4.711884
370.2065,4.964708
370.6886,4.907691
371.1707,4.351484
371.6529,3.967526
372.135,4.071466
372.6171,4.208149
373.0992,4.023038
373.5813,3.496936
374.0634,2.934008
374.5456,2.691944
375.0277,2.792661
375.5098,2.739225
375.9919,2.350513
376.474,1.988528
376.9561,1.849394
377.4383,1.864675
377.9204,1.868421
378.4025,1.757473
378.8846,1.57413
379.3667,1.436748
379.8488,1.359534
380.331,1.294022
380.8131,1.250417
381.2952,1.194981
381.7773,1.062469
382.2594,0.811746
382.7415,0.596623
383.2237,0.637677
383.7058,0.933101
384.1879,1.137148
384.67,1.111646
385.1521,1.023491
385.6342,1.032995
386.1164,1.134235
386.5985,1.225425
387.0806,1.230242
387.5627,1.186193
388.0448,1.217613
388.5269,1.383186
389.0091,1.457279
389.4912,1.117021
389.9733,0.560086
390.4554,0.235808
390.9375,0.356058
391.4196,0.630169
391.9018,0.86426
392.3839,1.048965
392.866,1.056499
393.3481,0.726532
393.8302,0.286305
394.3123,0.209311
394.7945,0.613402
395.2766,0.958041
395.7587,0.965279
396.2408,0.791964
396.7229,0.710948
397.205,0.787987
397.6872,0.900768
398.1693,0.910744
398.6514,0.806687
399.1335,0.729976
399.6156,0.690263
400.0977,0.676797
400.5798,0.697705
401.062,0.742751
401.5441,0.777075
402.0262,0.782199
402.5083,0.757279
402.9904,0.694596
403.4725,0.466602
403.9547,0.362597
404.4368,0.609923
404.9189,0.946
405.401,1.019305
405.8831,0.726524
406.3652,0.238132
406.8474,0.238376
407.3295,0.846479
407.8116,0.968176
408.2937,0.116879
408.7758,0.732458
409.2579,1.029762
409.7401,0.823071
410.2222,0.431978
410.7043,0.060880002
411.1864,0.274195
411.6685,0.438869
412.1506,0.325005
412.6328,0.157644
413.1149,0.10326
413.597,0.367274
414.0791,0.533578
414.5612,0.569124
415.0433,0.529711
415.5255,0.5158
416.0076,0.567023
416.4897,0.5082
416.9718,0.116583
417.4539,0.205432
417.936,0.219941
418.4182,0.020206001
418.9003,0.290566
419.3824,0.433996
419.8645,0.478312
420.3466,0.555429
420.8287,0.701178
421.3109,0.80266
421.793,0.766466
422.2751,0.684216
422.7572,0.681357
423.2393,0.815401
423.7214,0.925602
424.2036,0.748733
424.6857,0.302567
425.1678,0.098114997
425.6499,0.377844
426.132,0.776628
426.6141,0.957654
427.0963,0.942035
427.5784,0.889335
428.0605,0.851615
428.5426,0.82611
429.0247,0.797454
429.5068,0.757319
429.989,0.756544
430.4711,0.86668
430.9532,1.033096
431.4353,1.081294
431.9174,0.932227
432.3995,0.776205
432.8817,0.696597
433.3638,0.683142
433.8459,0.728241
434.328,0.83607
434.8101,0.960983
435.2922,1.049006
435.7744,1.104928
436.2565,1.083138
436.7386,0.864972
437.2207,0.661879
437.7028,0.6506
438.1849,0.802418
438.6671,0.972287
439.1492,1.066737
439.6313,1.088131
440.1134,1.044399
440.5955,0.76445
441.0776,0.631815
441.5598,0.776465
442.0418,1.046247
442.524,1.323422
443.0061,1.560142
443.4882,1.716362
443.9703,1.711534
444.4524,1.486477
444.9345,1.379333
445.4167,1.542483
445.8988,1.674405
446.3809,1.670672
446.863,1.555523
447.3451,1.368037
447.8272,1.10609
448.3094,0.843966
448.7915,0.80038
449.2736,1.066525
449.7557,1.297247
450.2378,1.402499
450.7199,1.439721
451.2021,1.447133
451.6842,1.427552
452.1663,1.360936
452.6484,1.148189
453.1305,0.857413
453.6126,0.849569
454.0948,1.282827
454.5769,1.652369
455.059,1.449884
455.5411,0.967006
456.0232,0.727551
456.5053,0.97628
456.9875,1.320619
457.4696,1.444524
457.9517,1.381036
458.4338,1.274058
458.9159,1.157524
459.398,1.050913
459.8802,0.977776
460.3623,0.915016
460.8444,0.90376
461.3265,1.020334
461.8086,1.139077
462.2907,1.134516
462.7729,1.010142
463.255,0.83775
463.7371,0.643333
464.2192,0.452438
464.7013,0.406934
465.1834,0.6618
465.6656,0.837317
466.1477,0.922281
466.6298,0.928481
467.1119,0.843347
467.594,0.693322
468.0761,0.625114
468.5583,0.6561659
469.0404,1.01678
469.5225,1.268173
470.0046,1.416228
470.4867,1.151395
470.9688,0.910121
471.451,0.524162
471.9331,0.347205
472.4152,0.489317
472.8973,0.798198
473.3794,1.010686
473.8615,1.133501
474.3437,1.128376
474.8258,0.8109
475.3079,0.489216
475.79,0.397273
476.2721,0.532864
476.7542,0.70316
477.2364,0.817007
477.7185,0.881831
478.2006,0.906929
478.6827,0.892135
479.1648,0.859945
479.6469,0.828868
480.1291,0.774777
480.6112,0.636434
481.0933,0.356486
481.5754,0.151069
482.0575,0.189332
482.5396,0.36066
483.0217,0.452657
483.5038,0.423779
483.986,0.382426
484.4681,0.454296
484.9502,0.642924
485.4323,0.661668
485.9144,0.268735
486.3965,0.000401
486.8787,0.168427
487.3608,0.575886
487.8429,0.772119
488.325,0.578879
488.8071,0.24375
489.2892,0.219825
489.7714,0.725718
490.2535,0.992452
490.7356,0.858289
491.2177,0.68093
491.6998,0.637968
492.1819,0.704785
492.6641,0.772724
493.1462,0.77172
493.6283,0.743619
494.1104,0.827938
494.5925,1.11398
495.0746,1.233217
495.5568,0.803376
496.0389,0.406116
496.521,0.615582
497.0031,1.202057
497.4852,1.240209
497.9673,1.169135
498.4495,0.994652
498.9316,0.233636
499.4137,0.116046
499.8958,0.235698
500.3779,0.672533
500.86,1.212976
501.3422,1.400689
501.8243,1.060643
502.3064,0.701968
502.7885,0.580214
503.2706,0.609541
503.7527,0.644605
504.2349,0.654533
504.717,0.658471
505.1991,0.686156
505.6812,0.73881
506.1633,0.689968
506.6454,0.371379
507.1276,0.152096
507.6097,0.255451
508.0918,0.519939
508.5739,0.703777
509.056,0.715653
509.5381,0.608735
510.0203,0.4342
510.5024,0.109733
510.9845,0.034099001
511.4666,0.47458
511.9487,0.849125
512.4308,0.933546
512.913,0.81731
513.3951,0.67837
513.8772,0.593201
514.3593,0.568749
514.8414,0.678285
515.3235,0.968463
515.8057,1.022676
516.2878,0.557216
516.7699,0.0097859995
517.252,0.277983
517.7341,0.317902
518.2162,0.231544
518.6984,0.013381
519.1805,0.310528
519.6626,0.533979
520.1447,0.682573
520.6268,0.774868
521.1089,0.805399
521.5911,0.800442
522.0732,0.820312
522.5553,0.871696
523.0374,0.927277
523.5195,1.059704
524.0016,1.145985
524.4838,0.971988
524.9659,0.597422
525.448,0.388591
525.9301,0.648969
526.4122,1.246303
526.8943,1.493549
527.3765,1.04098
527.8586,0.733796
528.3407,0.73095
528.8228,0.83171
529.3049,0.880277
529.787,0.867794
530.2692,0.859487
530.7513,0.918537
531.2334,1.017447
531.7155,1.050278
532.1976,1.031058
532.6797,0.94358
533.1619,0.623226
533.644,0.298875
534.1261,0.268833
534.6082,0.620152
535.0903,0.911752
535.5724,0.732366
536.0546,0.314485
536.5367,0.201051
537.0188,0.478654
537.5009,0.767147
537.983,0.759748
538.4651,0.519956
538.9473,0.455345
539.4294,0.779572
539.9115,1.006627
540.3936,0.89224
540.8757,0.657918
541.3578,0.630984
541.84,0.848039
542.3221,1.007026
542.8042,0.747779
543.2863,0.056185
543.7684,0.218969
544.2505,0.454078
544.7326,0.916763
545.2147,0.785592
545.6968,0.416091
546.179,0.178182
546.6611,0.168481
547.1432,0.304397
547.6253,0.595191
548.1074,1.012709
548.5895,1.172807
549.0717,0.983041
549.5538,0.703698
550.0359,0.414967
550.518,0.153683
551.0001,0.016737999
551.4822,0.085322998
551.9644,0.047228001
552.4465,0.23758
552.9286,0.605421
553.4107,0.651569
553.8928,0.292887
554.3749,0.064985
554.8571,0.047339
555.3392,0.337404
555.8213,0.594164
556.3034,0.669759
556.7855,0.711987
557.2676,0.725649
557.7498,0.717215
558.2319,0.715867
558.714,0.725904
559.1961,0.748325
559.6782,0.799573
560.1603,0.880712
560.6425,0.857444
561.1246,0.652991
561.6067,0.455572
562.0888,0.286366
562.5709,0.171468
563.053,0.154615
563.5352,0.249102
564.0173,0.372016
564.4994,0.440297
564.9815,0.478284
565.4636,0.61215
565.9457,0.893028
566.4279,1.059259
566.91,0.882167
567.3921,0.454062
567.8742,0.122694
568.3563,0.1778
568.8384,0.280531
569.3206,0.080801003
569.8027,0.571641
570.2848,0.715483
570.7669,0.485338
571.249,0.300377
571.7311,0.556457
572.2133,1.193161
572.6954,1.533032
573.1775,1.420712
573.6596,1.204412
574.1417,0.768807
574.6238,0.351518
575.106,0.18176
575.5881,0.280811
576.0702,0.448801
576.5523,0.547824
577.0344,0.575565
577.5165,0.546213
577.9987,0.447524
578.4808,0.340252
578.9629,0.232876
579.445,0.14375
579.9271,0.11368
580.4092,0.158901
580.8914,0.150681
581.3735,0.039310001
581.8556,0.257439
582.3377,0.331628
582.8198,0.263285
583.3019,0.136334
583.7841,0.0096070003
584.2662,0.170249
584.7483,0.342725
585.2304,0.662496
585.7125,0.758456
586.1946,0.462318
586.6768,0.106425
587.1589,0.154378
587.641,0.297669
588.1231,0.319987
588.6052,0.201249
589.0873,0.016344
589.5695,0.052701999
590.0516,0.022952
590.5337,0.0075659999
591.0158,0.28573
591.4979,0.570777
591.98,0.665461
592.4622,0.606316
592.9443,0.520341
593.4264,0.451789
593.9085,0.362273
594.3906,0.177514
594.8727,0.045593999
595.3549,0.162765
595.837,0.126018
596.3191,0.003031
596.8012,0.136209
597.2833,0.302119
597.7654,0.423414
598.2476,0.512028
598.7297,0.549735
599.2118,0.514036
599.6939,0.432338
600.176,0.314372
600.6581,0.17147
601.1403,0.057549998
601.6224,0.084876001
602.1045,0.283335
602.5866,0.309531
603.0687,0.073090002
603.5508,0.141398
604.033,0.198458
604.5151,0.149791
604.9972,0.01928
605.4793,0.225581
605.9614,0.374204
606.4435,0.226575
606.9257,0.032173
607.4078,0.160319
607.8899,0.136709
608.372,0.011405
608.8541,0.305383
609.3362,0.647083
609.8184,0.714387
610.3005,0.228305
610.7826,0.106518
611.2647,0.286963
611.7468,0.33409
612.2289,0.151452
612.7111,0.158489
613.1932,0.301765
613.6753,0.051376
614.1574,0.347715
614.6395,0.396664
615.1216,0.063528001
615.6038,0.191195
616.0859,0.26611
616.568,0.267669
617.0501,0.275262
617.5322,0.284139
618.0143,0.275154
618.4965,0.20086
618.9786,0.156246
619.4607,0.194176
619.9428,0.301105
620.4249,0.513268
620.907,0.827588
621.3892,1.028706
621.8713,0.848794
622.3534,0.295052
622.8355,0.074832998
623.3176,0.617455
623.7997,0.944613
624.2819,0.729314
624.764,0.361461
625.2461,0.161882
625.7282,0.179066
626.2103,0.306451
626.6924,0.552264
627.1745,0.871759
627.6566,1.057708
628.1387,1.097192
628.6208,1.084304
629.103,1.013115
629.5851,0.954688
630.0672,1.021544
630.5493,1.210524
631.0314,1.452826
631.5135,1.837492
631.9957,2.179193
632.4778,2.335468
632.9599,2.364561
633.442,2.372948
633.9241,2.404346
634.4063,2.498938
634.8884,2.746911
635.3705,3.188585
635.8526,3.448319
636.3347,3.415965
636.8168,3.347881
637.299,3.338526
637.7811,3.343815
638.2632,3.294344
638.7453,3.171232
639.2274,3.077263
639.7095,3.047888
640.1917,3.112129
640.6738,3.367564
641.1559,3.811213
641.638,4.23501
642.1201,4.527964
642.6022,4.710884
643.0844,4.833113
643.5665,4.843794
644.0486,4.898161
644.5307,4.956907
645.0128,5.084869
645.4949,5.374311
645.9771,5.767532
646.4592,6.148279
646.9413,6.462828
647.4234,6.749776
647.9055,7.096714
648.3876,7.50459
648.8698,7.738593
649.3519,7.639129
649.834,7.687067
650.3161,8.388831
650.7982,9.386827
651.2803,9.918503
651.7625,9.733093
652.2446,9.598867
652.7267,9.836931
653.2088,10.25452
653.6909,10.66984
654.173,11.06923
654.6552,11.51025
655.1373,12.03907
655.6194,12.59024
656.1015,12.98349
656.5836,13.13441
657.0657,13.34307
657.5479,13.57753
658.03,13.92338
658.5121,14.47901
658.9942,15.16682
659.4763,15.83566
659.9584,16.44231
660.4406,17.00284
660.9227,17.53067
661.4048,18.01764
661.8869,18.43854
662.369,18.79103
662.8511,19.20194
663.3333,19.776
663.8154,20.46348
664.2975,21.05228
664.7796,21.44074
665.2617,21.86684
665.7438,22.40808
666.226,22.94152
666.7081,23.28391
667.1902,23.54476
667.6723,24.05683
668.1544,25.04763
668.6365,26.12807
669.1187,26.60817
669.6008,26.52586
670.0829,26.68181
670.565,27.27007
671.0471,27.85482
671.5292,28.03831
672.0114,27.95415
672.4935,28.14511
672.9756,28.83971
673.4577,29.44988
673.9398,29.8224
674.4219,30.01571
674.9041,30.03494
675.3862,29.92207
675.8683,29.76234
676.3504,29.59363
676.8325,29.48491
677.3146,29.67329
677.7968,30.28469
678.2789,30.57116
678.761,30.3098
679.2431,29.89282
679.7252,29.5482
680.2073,29.22971
680.6895,28.84284
681.1716,28.3598
681.6537,27.8284
682.1358,27.14465
682.6179,26.4923
683.1,26.27689
683.5822,26.44521
684.0643,26.36751
684.5464,25.59878
685.0285,24.4197
685.5106,23.64542
685.9927,23.49072
686.4749,23.23981
686.957,22.85832
687.4391,22.38614
687.9212,21.70023
688.4033,20.96754
688.8854,20.5343
689.3676,20.58848
689.8497,20.61421
690.3318,20.11765
690.8139,19.30499
691.296,18.56556
691.7781,17.93812
692.2603,17.38329
692.7424,16.89026
693.2245,16.4255
693.7066,15.87043
694.1887,15.05555
694.6708,14.4882
695.153,14.34799
695.6351,14.26279
696.1172,14.10477
696.5993,13.86123
697.0814,13.51364
697.5635,13.0518
698.0457,12.59544
698.5278,12.30394
699.0099,12.11205
699.492,11.7522
699.9741,11.19535
700.4562,10.72498
700.9384,10.53233
701.4205,10.45554
701.9026,10.13408
702.3847,9.403722
702.8668,8.871165
703.3489,8.664235
703.8311,8.524369
704.3132,8.325295
704.7953,8.111686
705.2774,7.972184
705.7595,7.933058
706.2416,7.910728
706.7238,7.841053
707.2059,7.71582
707.688,7.482484
708.1701,7.121809
708.6522,6.803723
709.1343,6.634132
709.6164,6.521744
710.0985,6.354858
710.5806,6.1563
711.0627,5.901011
711.5449,5.462643
712.027,5.100285
712.5091,4.951323
712.9912,4.948824
713.4733,5.038712
713.9554,5.184835
714.4376,5.286289
714.9197,5.259386
715.4018,5.107428
715.8839,4.771992
716.366,4.197519
716.8481,3.867604
717.3303,4.051905
717.8124,4.389709
718.2945,4.481966
718.7766,4.340721
719.2587,4.176984
719.7408,4.069304
720.223,3.86974
720.7051,3.364875
721.1872,2.828194
721.6693,2.621073
722.1514,2.75134
722.6335,2.930603
723.1157,2.953629
723.5978,2.850592
724.0799,2.68859
724.562,2.455281
725.0441,2.276977
725.5262,2.173735
726.0084,2.140067
726.4905,2.229641
726.9726,2.396545
727.4547,2.459651
727.9368,2.291566
728.4189,2.144438
728.9011,2.073636
729.3832,2.067736
729.8653,2.230119
730.3474,2.468381
730.8295,2.494204
731.3116,2.1261
731.7938,1.56735
732.2759,1.132106
732.758,0.820543
733.2401,0.734784
733.7222,0.951728
734.2043,1.220263
734.6865,1.454569
735.1686,1.617815
735.6507,1.629728
736.1328,1.447131
736.6149,1.265162
737.097,1.007268
737.5792,0.86991
738.0613,1.161437
738.5434,1.634877
739.0255,1.766464
739.5076,1.38503
739.9897,0.880444
740.4719,0.73259
740.954,0.890344
741.4361,1.013716
741.9182,1.126176
742.4003,1.05478
742.8824,0.592748
743.3646,0.080530003
743.8467,0.047254998
744.3288,0.498423
744.8109,0.756379
745.293,0.631326
745.7751,0.461594
746.2573,0.403996
746.7394,0.370192
747.2215,0.189723
747.7036,0.128592
748.1857,0.341106
748.6678,0.228119
749.15,0.043019
749.6321,0.063951001
750.1142,0.165085
750.5963,0.301101
751.0784,0.270795
751.5605,0.151356
752.0427,0.020602001
752.5248,0.232368
753.0069,0.430836
753.489,0.715549
753.9711,0.788915
754.4532,0.370303
754.9354,0.058954999
755.4175,0.096762002
755.8996,0.130404
756.3817,0.26787
756.8638,0.162886
757.3459,0.016832
757.8281,0.065513998
758.3102,0.021808
758.7923,0.044009998
759.2744,0.1461
759.7565,0.225571
760.2386,0.233924
760.7208,0.189633
761.2029,0.113253
761.685,0.023212001
762.1671,0.074601002
762.6492,0.049410999
763.1313,0.14363
763.6135,0.144247
764.0956,0.081826001
764.5777,0.064450003
765.0598,0.263288
765.5419,0.331202
766.024,0.012535
766.5062,0.382011
766.9883,0.343445
767.4704,0.021601999
767.9525,0.263246
768.4346,0.272009
768.9167,0.20908
769.3989,0.215557
769.881,0.274558
770.3631,0.281367
770.8452,0.191689
771.3273,0.129977
771.8094,0.135977
772.2916,0.140258
772.7737,0.085410997
773.2558,0.0055650002
773.7379,0.014791
774.22,0.067539997
774.7021,0.125966
775.1843,0.031049
775.6664,0.109834
776.1485,0.147467
776.6306,0.088523
777.1127,0.010112
777.5948,0.053860001
778.077,0.119785
778.5591,0.227352
779.0412,0.384064
779.5233,0.407468
780.0054,0.187474
780.4875,0.067720003
780.9697,0.25219
781.4518,0.516777
781.9339,0.658644
782.416,0.679658
782.8981,0.638182
783.3802,0.568412
783.8624,0.416767
784.3445,0.021009
784.8266,0.399569
785.3087,0.541412
785.7908,0.398114
786.2729,0.156764
786.7551,0.077707
787.2372,0.261674
787.7193,0.240206
788.2014,0.017909
788.6835,0.032979999
789.1656,0.406544
789.6478,0.753966
790.1299,0.810859
790.612,0.703217
791.0941,0.759883
791.5762,1.118046
792.0583,1.221855
792.5404,0.723769
793.0225,0.31286
793.5046,0.433715
793.9868,0.776055
794.4689,0.908572
794.951,0.744625
795.4331,0.493893
795.9152,0.244763
796.3973,0.054313
796.8795,0.058598999
797.3616,0.21988
797.8437,0.343506
798.3258,0.379304
798.8079,0.439023
799.29,0.645913
799.7722,0.945894
800.2543,1.019525
800.7364,0.715067
801.2185,0.495193
801.7006,0.456987
802.1827,0.44896
802.6649,0.422132
803.147,0.372162
803.6291,0.270351
804.1112,0.081448004
804.5933,0.002787
805.0754,0.227174
805.5576,0.532115
806.0397,0.718826
806.5218,0.807461
807.0039,0.815472
807.486,0.751417
807.9681,0.73732
808.4503,0.986471
808.9324,1.39582
809.4145,1.247127
809.8966,0.391504
810.3787,0.073491
810.8608,0.288249
811.343,0.81779
811.8251,0.91263
812.3072,0.641397
812.7893,0.509206
813.2714,0.638133
813.7535,0.727419
814.2357,0.647691
814.7178,0.588091
815.1999,0.74431
815.682,1.005466
816.1641,1.111802
816.6462,0.965561
817.1284,0.812978
817.6105,0.967793
818.0926,1.242343
818.5747,1.213575
819.0568,0.926712
819.5389,0.750567
820.0211,0.812386
820.5032,0.93561
820.9853,0.912166
821.4674,0.760993
821.9495,0.696124
822.4316,0.693608
822.9138,0.837143
823.3959,1.431941
823.878,1.883995
824.3601,1.550157
824.8422,0.793529
825.3243,0.578488
825.8065,1.321407
826.2886,1.910203
826.7707,1.78948
827.2528,1.446082
827.7349,1.262147
828.217,1.218546
828.6992,1.174857
829.1813,1.084278
829.6634,1.033047
830.1455,1.163147
830.6276,1.396345
831.1097,1.436624
831.5919,1.289215
832.074,1.197122
832.5561,1.239678
833.0382,1.282278
833.5203,1.17111
834.0024,0.945415
834.4846,0.870205
834.9667,1.082883
835.4488,1.223197
835.9309,1.252682
836.413,1.228203
836.8951,1.080869
837.3773,0.931353
837.8594,1.035345
838.3415,1.487268
838.8236,1.8428
839.3057,1.76623
839.7878,1.573923
840.27,1.54122
840.7521,1.642702
841.2342,1.85602
841.7163,2.140451
842.1984,2.269561
842.6805,1.965379
843.1627,1.421379
843.6448,1.216696
844.1269,1.354654
844.609,1.56244
845.0911,1.828815
845.5732,1.972844
846.0554,1.827456
846.5375,1.301296
847.0196,1.610275
847.5017,1.810037
847.9838,1.906451
848.4659,1.589973
848.9481,1.80667
849.4302,1.80968
849.9123,1.803934
850.3944,2.065054
850.8765,2.086713
851.3586,2.057286
851.8408,2.023478
852.3229,1.952113
852.805,1.764587
853.2871,1.537468
853.7692,1.392943
854.2513,1.344333
854.7335,1.383182
855.2156,1.518941
855.6977,1.452378
856.1798,1.710814
856.6619,1.860034
857.144,1.905907
857.6262,1.5389
858.1083,1.705042
858.5904,1.657522
859.0725,1.601241
859.5546,1.842423
860.0367,1.535466
860.5189,1.771933
861.001,1.791473
861.4831,1.910295
861.9652,1.814134
862.4473,1.784374
862.9294,1.913275
863.4116,1.80956
863.8937,1.645642
864.3758,1.370307
864.8579,1.191555
865.34,1.310313
865.8221,1.509597
866.3043,1.329742
866.7864,1.554587
867.2685,1.670214
867.7506,1.682494
868.2327,1.281892
868.7148,1.414446
869.197,1.333327
869.6791,1.243457
870.1612,1.451047
870.6433,1.110499
871.1254,1.313373
871.6075,1.321466
872.0897,1.530514
872.5718,1.630362
873.0539,1.626857
873.536,1.21047
874.0181,1.327234
874.5002,1.23034
874.9823,1.124679
875.4644,1.316482
875.9465,0.9601513
876.4286,1.147236
876.9108,1.117387
877.3929,1.186833
877.875,1.041291
878.3571,0.9621509
878.8392,1.098067
879.3214,1.334397
879.8035,1.56918
880.2856,1.582701
880.7677,1.336933
881.2498,0.783739
881.7319,0.29966
882.2141,0.512511
882.6962,1.149619
883.1783,1.326217
883.6604,1.053933
884.1425,0.864151
884.6246,0.952675
885.1068,1.109717
885.5889,1.101245
886.071,0.950935
886.5531,0.836162
887.0352,0.752953
887.5173,0.726645
887.9995,0.827227
888.4816,0.887053
888.9637,0.711618
889.4458,0.456156
889.9279,0.4687
890.41,0.861849
890.8922,1.081872
891.3743,0.958873
891.8564,0.754451
892.3385,0.515392
892.8206,0.303752
893.3027,0.190289
893.7849,0.170588
894.267,0.18126
894.7491,0.182296
895.2312,0.222989
895.7133,0.372326
896.1954,0.582202
896.6776,0.808726
897.1597,1.021389
897.6418,1.128914
898.1239,1.093451
898.606,1.014308
899.0881,1.059717
899.5703,1.164329
900.0524,0.899904
900.5345,0.238278
901.0166,0.213073
901.4987,0.299538
901.9808,0.195324
902.463,0.004342
902.9451,0.242284
903.4272,0.438497
903.9093,0.585611
904.3914,0.681184
904.8735,0.741537
905.3557,0.727904
905.8378,0.555311
906.3199,0.349972
906.802,0.250607
907.2841,0.261338
907.7662,0.309541
908.2484,0.424852
908.7305,0.471147
909.2126,0.306221
909.6947,0.157202
910.1768,0.296885
910.6589,0.626381
911.1411,0.866421
911.6232,0.911778
912.1053,0.872891
912.5874,0.775816
913.0695,0.707527
913.5516,0.913059
914.0338,1.227004
914.5159,1.137669
914.998,0.591736
915.4801,0.104266
915.9622,0.088104002
916.4443,0.358705
916.9265,0.493015
917.4086,0.490422
917.8907,0.433228
918.3728,0.308255
918.8549,0.269288
919.337,0.451502
919.8192,0.595513
920.3013,0.259051
920.7834,0.585718
921.2655,0.818858
921.7476,0.050735999
922.2297,0.682049
922.7119,0.752595
923.194,0.672078
923.6761,0.643999
924.1582,0.637336
924.6403,0.568108
925.1224,0.403933
925.6046,0.290151
926.0867,0.228527
926.5688,0.281896
927.0509,0.656345
927.533,1.021233
928.0151,0.888029
928.4973,0.345909
928.9794,0.035672002
929.4615,0.349382
929.9436,0.764588
930.4257,0.808029
930.9078,0.679659
931.39,0.663064
931.8721,0.751126
932.3542,0.858408
932.8363,0.948246
933.3184,0.974879
933.8005,0.86958
934.2827,0.693053
934.7648,0.625638
935.2469,0.651782
935.729,0.607467
936.2111,0.463746
936.6932,0.326755
937.1754,0.257247
937.6575,0.234414
938.1396,0.211169
938.6217,0.17862
939.1038,0.285639
939.5859,0.640633
940.0681,0.84046
940.5502,0.725891
941.0323,0.504313
941.5144,0.307025
941.9965,0.146471
942.4786,0.080535002
942.9608,0.158435
943.4429,0.223945
943.925,0.295441
944.4071,0.324987
944.8892,0.191906
945.3713,0.072089002
945.8535,0.210831
946.3356,0.58848
946.8177,0.901728
947.2998,1.047788
947.7819,1.120062
948.264,1.168785
948.7462,1.157695
949.2283,0.979724
949.7104,0.73405
950.1925,0.664048
950.6746,0.824819
951.1567,0.929425
951.6389,0.617349
952.121,0.250027
952.6031,0.374979
953.0852,0.776973
953.5673,0.979012
954.0494,0.94184
954.5316,0.883873
955.0137,0.911765
955.4958,0.986989
955.9779,1.097465
956.46,1.20456
956.9421,1.049619
957.4242,0.646076
957.9063,0.408315
958.3884,0.451627
958.8705,0.538714
959.3527,0.493806
959.8348,0.399121
960.3169,0.505005
960.799,0.884611
961.2811,0.985239
961.7632,0.685093
962.2454,0.42523
962.7275,0.389217
963.2096,0.434433
963.6917,0.413733
964.1738,0.331111
964.6559,0.215165
965.1381,0.135788
965.6202,0.189182
966.1023,0.400329
966.5844,0.90557
967.0665,0.959871
967.5486,0.775925
968.0308,0.623164
968.5129,0.520974
968.995,0.43201
969.4771,0.417071
969.9592,0.322789
970.4413,0.099977002
970.9235,0.445072
971.4056,0.304642
971.8877,0.146762
972.3698,0.570812
972.8519,0.877853
973.334,0.964353
973.8162,0.571676
974.2983,0.151555
974.7804,0.092514999
975.2625,0.222454
975.7446,0.301139
976.2267,0.313828
976.7089,0.373703
977.191,0.539088
977.6731,0.677883
978.1552,0.564038
978.6373,0.343645
979.1194,0.450916
979.6016,0.827249
980.0837,0.971844
980.5658,0.811759
981.0479,0.659154
981.53,0.737983
982.0121,0.864509
982.4943,0.660152
982.9764,0.200556
983.4585,0.116976
983.9406,0.275697
984.4227,0.21901
984.9048,0.087242
985.387,0.411578
985.8691,0.534629
986.3512,0.529167
986.8333,0.670775
987.3154,1.015532
987.7975,1.076924
988.2797,0.73632
988.7618,0.498686
989.2439,0.60495
989.726,0.809653
990.2081,0.827868
990.6902,0.681385
991.1724,0.572128
991.6545,0.472319
992.1366,0.48439
992.6187,0.742508
993.1008,0.918193
993.5829,0.782712
994.0651,0.536046
994.5472,0.434494
995.0293,0.478822
995.5114,0.620499
995.9935,1.108648
996.4756,1.329432
996.9578,0.889115
997.4399,0.496419
997.922,0.650845
998.4041,1.06255
998.8862,1.271032
999.3683,1.220639
999.8505,1.109286
1000.333,0.913372
1000.815,0.763144
1001.297,0.718797
1001.779,0.727495
1002.261,0.756102
1002.743,0.798522
1003.225,0.861983
1003.707,0.952577
1004.19,1.026557
1004.672,1.094576
1005.154,1.098918
1005.636,0.908072
1006.118,0.696606
1006.6,0.71872
1007.082,0.905773
1007.564,1.016397
1008.046,0.962987
1008.529,0.805742
1009.011,0.475956
1009.493,0.170491
1009.975,0.193859
1010.457,0.362002
1010.939,0.259735
1011.421,0.063262001
1011.903,0.137645
1012.385,0.272625
1012.868,0.758722
1013.35,0.905792
1013.832,0.805632
1014.314,0.500131
1014.796,0.111616
1015.278,0.054618999
1015.76,0.34747
1016.242,0.586029
1016.725,0.529305
1017.207,0.342475
1017.689,0.205371
1018.171,0.144704
1018.653,0.371665
1019.135,0.809209
1019.617,0.844027
1020.099,0.358197
1020.581,0.027607
1021.064,0.128386
1021.546,0.532536
1022.028,0.622051
1022.51,0.429333
1022.992,0.334751
1023.474,0.350493
1023.956,0.414795
1024.438,0.493957
1024.921,0.583208
1025.403,0.69475
1025.885,0.77095
1026.367,0.625905
1026.849,0.231173
1027.331,0.121159
1027.813,0.35869
1028.295,0.499317
1028.777,0.389874
1029.26,0.256124
1029.742,0.260777
1030.224,0.361641
1030.706,0.506392
1031.188,0.714728
1031.67,0.868624
1032.152,0.978169
1032.634,0.989387
1033.116,0.834713
1033.599,0.687084
1034.081,0.733135
1034.563,0.87125
1035.045,0.752002
1035.527,0.210465
1036.009,0.00655
1036.491,0.281297
1036.973,0.553958
1037.456,0.694726
1037.938,0.732815
1038.42,0.604479
1038.902,0.408454
1039.384,0.518305
1039.866,1.185495
1040.348,1.444185
1040.83,0.962745
1041.313,0.539037
1041.795,0.410469
1042.277,0.394755
1042.759,0.364242
1043.241,0.316485
1043.723,0.262144
1044.205,0.118845
1044.687,0.201475
1045.169,0.854923
1045.651,1.29893
1046.134,1.188106
1046.616,0.897366
1047.098,0.695543
1047.58,0.557217
1048.062,0.415298
1048.544,0.234581
1049.026,0.20096
1049.508,0.523201
1049.991,0.757684
1050.473,0.700849
1050.955,0.546961
1051.437,0.411112
1051.919,0.331742
1052.401,0.363068
1052.883,0.542766
1053.365,0.648543
1053.848,0.556748
1054.33,0.485907
1054.812,0.498508
1055.294,0.585224
1055.776,0.854206
1056.258,1.164886
1056.74,1.12037
1057.222,0.561239
1057.704,0.252527
1058.187,0.703349
1058.669,1.099165
1059.151,0.981754
1059.633,0.736036
1060.115,0.666945
1060.597,0.735741
1061.079,0.797725
1061.561,0.823397
1062.043,0.849135
1062.526,0.957974
1063.008,0.979762
1063.49,0.724653
1063.972,0.450295
1064.454,0.424403
1064.936,0.546427
1065.418,0.574897
1065.9,0.450467
1066.383,0.313773
1066.865,0.178617
1067.347,0.096331
1067.829,0.068291001
1068.311,0.124249
1068.793,0.36108
1069.275,0.692433
1069.757,0.93491
1070.24,1.048708
1070.722,1.050918
1071.204,0.912439
1071.686,0.775896
1072.168,0.723171
1072.65,0.683748
1073.132,0.583626
1073.614,0.461759
1074.096,0.388475
1074.578,0.374369
1075.061,0.382033
1075.543,0.44105
1076.025,0.450974
1076.507,0.209865
1076.989,0.05291
1077.471,0.388689
1077.953,0.91415
1078.435,1.113668
1078.918,0.964202
1079.4,0.868378
1079.882,1.034901
1080.364,1.158873
1080.846,1.064972
1081.328,0.90735
1081.81,0.714872
1082.292,0.579787
1082.774,0.684649
1083.257,0.973934
1083.739,1.117081
1084.221,0.959109
1084.703,0.779326
1085.185,0.648368
1085.667,0.601481
1086.149,0.743272
1086.631,0.924084
1087.114,0.967761
1087.596,0.886454
1088.078,0.788162
1088.56,0.694996
1089.042,0.631563
1089.524,0.57334
1090.006,0.584269
1090.488,0.890716
1090.97,1.156903
1091.453,0.93012
1091.935,0.394988
1092.417,0.084542997
1092.899,0.135854
1093.381,0.25071
1093.863,0.345039
1094.345,0.440551
1094.827,0.560171
1095.309,0.673896
1095.792,0.785978
1096.274,0.861517
1096.756,0.811317
1097.238,0.621796
1097.72,0.499212
1098.202,0.596112
1098.684,0.644419
1099.166,0.483996
1099.649,0.318209
1100.131,0.281945
1100.613,0.335728
1101.095,0.392282
1101.577,0.451786
1102.059,0.631334
1102.541,1.281602
1103.023,1.524218
1103.505,0.743002
1103.988,0.025612
1104.47,0.259908
1104.952,0.155293
1105.434,0.157969
1105.916,0.593759
1106.398,0.834999
1106.88,0.773934
1107.362,0.660121
1107.844,0.512443
1108.327,0.344064
1108.809,0.070065998
1109.291,0.146749
1109.773,0.168167
1110.255,0.013984
1110.737,0.278899
1111.219,0.793526
1111.701,1.114907
1112.184,1.134923
1112.666,1.068148
1113.148,0.899022
1113.63,0.720125
1114.112,0.629831
1114.594,0.555699
1115.076,0.285852
1115.558,0.241076
1116.041,0.33241
1116.523,0.37188
1117.005,0.900244
1117.487,1.170064
1117.969,1.222143
1118.451,0.927958
1118.933,0.563165
1119.415,0.504703
1119.897,0.720214
1120.38,0.856779
1120.862,0.953247
1121.344,0.850905
1121.826,0.39951
1122.308,0.055491999
1122.79,0.037409
1123.272,0.07559
1123.754,0.434258
1124.236,0.909294
1124.719,1.04966
1125.201,0.800998
1125.683,0.474396
1126.165,0.010196
1126.647,0.309984
1127.129,0.433362
1127.611,0.328045
1128.093,0.083676003
1128.576,0.615071
1129.058,0.925782
1129.54,1.019825
1130.022,0.993268
1130.504,0.839275
1130.986,0.60053
1131.468,0.258008
1131.95,0.132637
1132.432,0.409086
1132.915,0.770315
1133.397,0.831858
1133.879,0.666932
1134.361,0.509638
1134.843,0.362341
1135.325,0.26967
1135.807,0.234958
1136.289,0.276568
1136.771,0.400896
1137.254,0.603854
1137.736,0.899103
1138.218,1.191066
1138.7,1.318925
1139.182,1.296233
1139.664,1.106122
1140.146,0.803319
1140.628,0.593188
1141.111,0.52036
1141.593,0.602501
1142.075,0.852826
1142.557,1.078953
1143.039,0.977221
1143.521,0.779243
1144.003,0.986556
1144.485,1.346119
1144.968,1.30987
1145.45,0.923987
1145.932,0.46661
1146.414,0.061859
1146.896,0.072985001
1147.378,0.375808
1147.86,0.847663
1148.342,0.711264
1148.824,0.378994
1149.307,0.323693
1149.789,0.422714
1150.271,0.34537
1150.753,0.116765
1151.235,0.115053
1151.717,0.551917
1152.199,0.948389
1152.681,1.02645
1153.163,0.979925
1153.646,0.917838
1154.128,0.811947
1154.61,0.539978
1155.092,0.220001
1155.574,0.140068
1156.056,0.360388
1156.538,0.567865
1157.02,0.610879
1157.503,0.716902
1157.985,1.109587
1158.467,1.410094
1158.949,1.317332
1159.431,1.048825
1159.913,0.857338
1160.395,0.757634
1160.877,0.766071
1161.359,1.042948
1161.842,1.098875
1162.324,0.732877
1162.806,0.435666
1163.288,0.310089
1163.77,0.329437
1164.252,0.564501
1164.734,0.872246
1165.216,0.912985
1165.698,0.657631
1166.181,0.524474
1166.663,0.556234
1167.145,0.533221
1167.627,0.416752
1168.109,0.328984
1168.591,0.311082
1169.073,0.354948
1169.555,0.466321
1170.037,0.617519
1170.52,0.71801
1171.002,0.76594
1171.484,0.666645
1171.966,0.424768
1172.448,0.392294
1172.93,0.658982
1173.412,0.928454
1173.894,1.034136
1174.377,1.003328
1174.859,0.69922
1175.341,0.281742
1175.823,0.264368
1176.305,0.525838
1176.787,0.715813
1177.269,0.795442
1177.751,0.822745
1178.234,0.825756
1178.716,0.855223
1179.198,0.992354
1179.68,1.080005
1180.162,0.857839
1180.644,0.552593
1181.126,0.44915
1181.608,0.493843
1182.09,0.566929
1182.573,0.658307
1183.055,0.867545
1183.537,1.273568
1184.019,1.483434
1184.501,1.08023
1184.983,0.663017
1185.465,0.624433
1185.947,0.694834
1186.429,0.552946
1186.912,0.334049
1187.394,0.310436
1187.876,0.506847
1188.358,0.764328
1188.84,1.283372
1189.322,1.522722
1189.804,1.112382
1190.286,0.761991
1190.769,0.866567
1191.251,1.010898
1191.733,0.795582
1192.215,0.375029
1192.697,0.144813
1193.179,0.109163
1193.661,0.262334
1194.143,0.699908
1194.625,0.952822
1195.108,0.917853
1195.59,0.835529
1196.072,0.821223
1196.554,0.798729
1197.036,0.663961
1197.518,0.483931
1198.0,0.519007
1198.482,0.727231
1198.964,0.683288
1199.447,0.410071
1199.929,0.233984
1200.411,0.233321
1200.893,0.382882
1201.375,0.673134
1201.857,0.967905
1202.339,1.168149
1202.821,1.220996
1203.304,0.964433
1203.786,0.543648
1204.268,0.11153
1204.75,0.233928
1205.232,0.245347
1205.714,0.074152999
1206.196,0.412808
1206.678,0.639091
1207.161,0.760148
1207.643,0.707785
1208.125,0.638263
1208.607,0.685262
1209.089,0.750401
1209.571,0.680771
1210.053,0.552418
1210.535,0.580816
1211.017,0.806627
1211.5,0.97729
1211.982,1.123353
1212.464,1.107863
1212.946,0.787493
1213.428,0.461021
1213.91,0.180844
1214.392,0.015827
1214.874,0.079755999
1215.356,0.282511
1215.839,0.322418
1216.321,0.15586
1216.803,0.307982
1217.285,0.869069
1217.767,1.082043
1218.249,0.770352
1218.731,0.64704
1219.213,1.085787
1219.696,1.48434
1220.178,1.123053
1220.66,0.390296
1221.142,0.218456
1221.624,0.431084
1222.106,0.401383
1222.588,0.211233
1223.07,0.309133
1223.552,0.711617
1224.035,1.036271
1224.517,1.104578
1224.999,1.058697
1225.481,0.958257
1225.963,0.87046
1226.445,0.920928
1226.927,0.948682
1227.409,0.602923
1227.891,0.198825
1228.374,0.390091
1228.856,1.100555
1229.338,1.497086
1229.82,1.279691
1230.302,1.019485
1230.784,0.856997
1231.266,0.654077
1231.748,0.225947
1232.231,0.093774997
1232.713,0.056364998
1233.195,0.172404
1233.677,0.395876
1234.159,0.600023
1234.641,0.636474
1235.123,0.443731
1235.605,0.37949
1236.088,0.469126
1236.57,0.63839
1237.052,0.891237
1237.534,0.962868
1238.016,0.656434
1238.498,0.292807
1238.98,0.351684
1239.462,0.670936
1239.944,0.877797
1240.427,0.960749
1240.909,0.795785
1241.391,0.476238
1241.873,0.322243
1242.355,0.386414
1242.837,0.452077
1243.319,0.389157
1243.801,0.419103
1244.283,0.935154
1244.766,1.343946
1245.248,1.105946
1245.73,0.593433
1246.212,0.067739002
1246.694,0.308183
1247.176,0.311219
1247.658,0.032280002
1248.14,0.220413
1248.622,0.0086430004
1249.105,0.0096570002
1249.587,0.523798
1250.069,0.803445
1250.551,0.50461
1251.033,0.241552
1251.515,0.423835
1251.997,0.806534
1252.479,1.044906
1252.962,1.141289
1253.444,1.075482
1253.926,0.851201
1254.408,0.686623
1254.89,0.594992
1255.372,0.626541
1255.854,0.773888
1256.336,0.80049
1256.818,0.564695
1257.301,0.380187
1257.783,0.719244
1258.265,1.161043
1258.747,1.089241
1259.229,0.790122
1259.711,0.502185
1260.193,0.389987
1260.675,0.69716
1261.157,1.315589
1261.64,1.669215
1262.122,1.567708
1262.604,1.271518
1263.086,0.598807
1263.568,0.116401
1264.05,0.018027
1264.532,0.154855
1265.014,0.652057
1265.497,1.12959
1265.979,1.083063
1266.461,0.663584
1266.943,0.402443
1267.425,0.572984
1267.907,0.735876
1268.389,0.907039
1268.871,1.090653
1269.354,1.293911
1269.836,1.228043
1270.318,0.756442
1270.8,0.282639
1271.282,0.196576
1271.764,0.343085
1272.246,0.562711
1272.728,0.779332
1273.21,0.856112
1273.693,0.829133
1274.175,0.740481
1274.657,0.627867
1275.139,0.543502
1275.621,0.499555
1276.103,0.552475
1276.585,0.865676
1277.067,0.996021
1277.549,0.596147
1278.032,0.219631
1278.514,0.114258
1278.996,0.167977
1279.478,0.350575
1279.96,0.571689
1280.442,0.652037
1280.924,0.596439
1281.406,0.56011
1281.889,0.557688
1282.371,0.394112
1282.853,0.025211999
1283.335,0.027146
1283.817,0.366316
1284.299,0.798707
1284.781,0.953743
1285.263,0.741035
1285.745,0.440848
1286.228,0.0
