Raman Shift,Intensity
92.45416,61.39433
92.93628,59.85627
93.4184,59.28521
93.90051,60.2609
94.38263,61.73992
94.86475,61.78512
95.34686,60.41201
95.82898,59.1043
96.3111,59.25942
96.79321,60.73144
97.27533,61.99325
97.75745,62.68782
98.23956,62.90818
98.72168,62.94321
99.2038,62.74844
99.68591,62.50676
100.168,62.44473
100.6501,62.6115
101.1323,62.70287
101.6144,62.47233
102.0965,61.83092
102.5786,62.03309
103.0607,63.40697
103.5428,65.33571
104.025,66.83352
104.5071,67.72935
104.9892,68.4563
105.4713,69.0973
105.9534,69.37135
106.4355,70.17974
106.9177,71.72355
107.3998,73.80757
107.8819,75.87998
108.364,77.90341
108.8461,79.92126
109.3282,81.98161
109.8104,83.85046
110.2925,85.98006
110.7746,88.44347
111.2567,91.20063
111.7388,94.04757
112.2209,96.91123
112.7031,99.85375
113.1852,102.9523
113.6673,106.8406
114.1494,110.2663
114.6315,112.8027
115.1136,114.4397
115.5958,115.8865
116.0779,116.7908
116.56,117.7963
117.0421,119.6157
117.5242,123.4856
118.0063,127.5171
118.4885,130.6745
118.9706,132.7346
119.4527,134.6372
119.9348,136.3223
120.4169,138.2077
120.899,141.0998
121.3812,146.0724
121.8633,151.9237
122.3454,157.5953
122.8275,163.1192
123.3096,168.0518
123.7917,171.7168
124.2739,174.3584
124.756,176.8729
125.2381,179.5947
125.7202,182.6194
126.2023,186.1124
126.6844,190.3045
127.1666,194.7688
127.6487,199.0874
128.1308,203.2605
128.6129,206.9958
129.095,210.0689
129.5771,212.5397
130.0593,214.5683
130.5414,215.814
131.0235,216.7802
131.5056,218.7977
131.9877,221.1872
132.4698,222.6512
132.952,222.7973
133.4341,221.713
133.9162,220.7575
134.3983,220.1718
134.8804,220.0115
135.3625,221.0378
135.8447,223.5384
136.3268,226.4837
136.8089,228.2857
137.291,228.7041
137.7731,229.4969
138.2552,231.4651
138.7374,234.7333
139.2195,238.0005
139.7016,241.3385
140.1837,244.648
140.6658,247.6539
141.1479,250.3181
141.6301,252.8234
142.1122,255.2845
142.5943,257.7706
143.0764,260.099
143.5585,262.5914
144.0406,264.9161
144.5228,265.8923
145.0049,264.9471
145.487,263.3832
145.9691,261.9583
146.4512,261.2013
146.9333,259.6929
147.4155,257.18
147.8976,253.7377
148.3797,250.2375
148.8618,246.1088
149.3439,242.2881
149.826,239.3729
150.3082,237.8076
150.7903,236.6083
151.2724,235.704
151.7545,235.0987
152.2366,234.6552
152.7188,233.9256
153.2009,233.5546
153.683,234.0704
154.1651,237.5235
154.6472,239.9072
155.1293,239.8433
155.6115,236.9727
156.0936,234.5295
156.5757,233.0701
157.0578,232.2939
157.5399,231.8971
158.022,232.1916
158.5042,232.5319
158.9863,232.6967
159.4684,232.6604
159.9505,232.5235
160.4326,232.1441
160.9147,231.7175
161.3969,231.5321
161.879,232.1144
162.3611,232.659
162.8432,232.6238
163.3253,231.6967
163.8074,230.9426
164.2896,231.0432
164.7717,231.656
165.2538,232.1004
165.7359,231.9969
166.218,231.6438
166.7001,231.1975
167.1823,230.5501
167.6644,230.1218
168.1465,230.2921
168.6286,230.9138
169.1107,231.5764
169.5928,232.1766
170.075,232.6525
170.5571,232.9639
171.0392,233.1436
171.5213,233.0885
172.0034,232.4184
172.4855,231.3126
172.9677,230.5723
173.4498,231.1654
173.9319,232.3264
174.414,232.946
174.8961,232.5515
175.3782,231.7137
175.8604,230.9221
176.3425,230.1843
176.8246,229.5972
177.3067,229.1909
177.7888,228.98
178.2709,229.0176
178.7531,229.4551
179.2352,230.0409
179.7173,230.3993
180.1994,230.5384
180.6815,230.6075
181.1636,230.6894
181.6458,230.7983
182.1279,230.9963
182.61,231.5405
183.0921,232.0871
183.5742,231.688
184.0563,230.3009
184.5385,228.9544
185.0206,228.7579
185.5027,229.5386
185.9848,230.4994
186.4669,231.6111
186.949,232.6714
187.4312,233.0174
187.9133,232.5835
188.3954,231.8307
188.8775,231.1255
189.3596,230.4928
189.8417,230.1691
190.3239,230.3701
190.806,230.9917
191.2881,231.5391
191.7702,232.0257
192.2523,232.3774
192.7344,232.4981
193.2166,232.389
193.6987,232.1109
194.1808,231.5378
194.6629,230.7261
195.145,230.3517
195.6271,230.4979
196.1093,230.8685
196.5914,230.9862
197.0735,230.8184
197.5556,230.7875
198.0377,231.1545
198.5198,231.9249
199.002,232.5392
199.4841,233.0282
199.9662,233.3024
200.4483,233.1015
200.9304,232.3282
201.4125,231.6646
201.8947,231.4405
202.3768,231.6874
202.8589,231.9784
203.341,232.3263
203.8231,232.7017
204.3052,233.0733
204.7874,233.4714
205.2695,233.7578
205.7516,233.8408
206.2337,233.6875
206.7158,233.5154
207.1979,233.2172
207.6801,233.0086
208.1622,233.4845
208.6443,234.9355
209.1264,236.1834
209.6085,236.5772
210.0906,235.8674
210.5728,235.4702
211.0549,235.5171
211.537,235.8094
212.0191,235.8851
212.5012,235.6717
212.9833,235.4282
213.4655,235.2595
213.9476,235.153
214.4297,235.1726
214.9118,235.333
215.3939,235.615
215.876,236.0249
216.3581,236.688
216.8403,237.2116
217.3224,237.3372
217.8045,236.8559
218.2866,236.5873
218.7687,236.4578
219.2508,236.5804
219.733,237.4459
220.2151,239.6873
220.6972,241.4871
221.1793,241.7212
221.6614,239.4062
222.1435,238.235
222.6257,238.6843
223.1078,240.1831
223.5899,241.134
224.072,241.2197
224.5541,241.2726
225.0362,241.7411
225.5184,242.9463
226.0005,243.7609
226.4826,244.0583
226.9647,243.9922
227.4468,243.9953
227.9289,244.1362
228.4111,244.2527
228.8932,244.2014
229.3753,243.6667
229.8574,243.778
230.3395,244.9469
230.8216,246.6786
231.3038,247.5496
231.7859,246.9689
232.268,246.3838
232.7501,246.4847
233.2322,247.6749
233.7143,248.6494
234.1965,249.4599
234.6786,250.0407
235.1607,250.1512
235.6428,249.3705
236.1249,248.7235
236.607,248.621
237.0892,249.0242
237.5713,250.1116
238.0534,252.2924
238.5355,255.0475
239.0176,257.051
239.4997,258.1715
239.9819,258.7561
240.464,258.8426
240.9461,257.9953
241.4282,257.7071
241.9103,258.2006
242.3924,259.1842
242.8746,259.9368
243.3567,260.2315
243.8388,260.6465
244.3209,261.4851
244.803,263.0504
245.2851,264.1856
245.7673,264.6274
246.2494,264.7512
246.7315,265.4058
247.2136,266.9315
247.6957,268.448
248.1778,269.5361
248.66,269.8527
249.1421,270.7699
249.6242,272.4077
250.1063,274.5833
250.5884,277.0639
251.0705,280.3419
251.5527,283.0795
252.0348,284.5618
252.5169,284.2218
252.999,284.7769
253.4811,286.6009
253.9632,289.0811
254.4454,291.0082
254.9275,291.8288
255.4096,293.1805
255.8917,295.8263
256.3738,300.1924
256.856,303.778
257.3381,306.3421
257.8202,308.3575
258.3023,310.5628
258.7844,312.9438
259.2665,315.5018
259.7487,318.2949
260.2308,321.3593
260.7129,324.3355
261.195,327.2607
261.6771,330.045
262.1592,332.4868
262.6414,334.3596
263.1235,336.4092
263.6056,338.8422
264.0877,341.7021
264.5698,344.7027
265.0519,348.0805
265.5341,351.2678
266.0162,353.5405
266.4983,354.6093
266.9804,355.6327
267.4625,357.0796
267.9446,358.9197
268.4268,359.724
268.9089,359.2213
269.391,358.1384
269.8731,357.2996
270.3552,356.9243
270.8373,355.8755
271.3195,353.6557
271.8016,350.4219
272.2837,347.8451
272.7658,346.1081
273.2479,344.541
273.73,342.4262
274.2122,339.6569
274.6943,337.0481
275.1764,334.7267
275.6585,332.7107
276.1406,331.2858
276.6227,330.6981
277.1049,329.9004
277.587,327.698
278.0691,323.8972
278.5512,321.0113
279.0333,319.6631
279.5154,319.3883
279.9976,318.6737
280.4797,317.4687
280.9618,316.0687
281.4439,314.4946
281.926,312.7467
282.4081,311.4736
282.8903,310.8655
283.3724,310.6541
283.8545,310.1982
284.3366,309.4759
284.8187,308.7357
285.3008,308.1348
285.783,307.6621
286.2651,307.1989
286.7472,306.6536
287.2293,306.2589
287.7114,306.6291
288.1935,307.7556
288.6757,308.7591
289.1578,309.1487
289.6399,308.9866
290.122,308.4752
290.6041,307.5299
291.0862,306.5429
291.5684,306.1248
292.0505,306.2262
292.5326,306.3969
293.0147,306.209
293.4968,305.9117
293.9789,306.4945
294.4611,308.127
294.9432,309.7356
295.4253,309.7154
295.9074,308.4565
296.3895,307.6391
296.8716,308.3641
297.3538,309.9164
297.8359,310.7837
298.318,310.9487
298.8001,311.0003
299.2822,311.6283
299.7643,312.5975
300.2465,313.2696
300.7286,313.1548
301.2107,312.7993
301.6928,312.9966
302.1749,313.717
302.657,314.5251
303.1392,314.9986
303.6213,315.3344
304.1034,315.8531
304.5855,316.6449
305.0676,317.6669
305.5497,319.047
306.0319,320.6998
306.514,322.2505
306.9961,323.3286
307.4782,324.1886
307.9603,325.1643
308.4424,326.4032
308.9246,327.6144
309.4067,328.4988
309.8888,329.1515
310.3709,329.8671
310.853,331.3139
311.3351,332.5986
311.8173,332.7611
312.2994,331.2515
312.7815,329.8643
313.2636,330.1779
313.7457,331.326
314.2278,331.7495
314.71,329.8963
315.1921,327.7624
315.6742,326.6291
316.1563,326.7751
316.6384,327.0023
317.1205,326.8125
317.6027,326.4102
318.0848,326.0539
318.5669,326.2674
319.049,326.1457
319.5311,324.9779
320.0132,322.6754
320.4954,321.0675
320.9775,321.1996
321.4596,321.9961
321.9417,322.5467
322.4238,322.6709
322.9059,322.525
323.3881,321.8651
323.8702,320.782
324.3523,320.2498
324.8344,321.1729
325.3165,322.1886
325.7986,322.5002
326.2808,320.9778
326.7629,320.0146
327.245,320.1855
327.7271,321.1425
328.2092,321.4981
328.6913,320.1373
329.1735,319.1509
329.6556,319.4974
330.1377,322.6745
330.6198,324.273
331.1019,323.0882
331.584,320.6786
332.0662,320.1053
332.5483,322.9654
333.0304,325.3522
333.5125,325.7326
333.9946,323.5126
334.4767,322.5568
334.9589,323.6187
335.441,325.2151
335.9231,325.2312
336.4052,322.7292
336.8873,321.1799
337.3694,321.8484
337.8516,324.5456
338.3336,325.8335
338.8158,325.3392
339.2979,324.2424
339.78,323.4641
340.2621,322.993
340.7442,323.0292
341.2263,323.7247
341.7085,324.899
342.1906,325.9652
342.6727,326.9415
343.1548,327.7605
343.6369,328.3835
344.119,328.8063
344.6012,329.014
345.0833,328.9061
345.5654,328.7591
346.0475,329.1581
346.5296,330.0634
347.0117,330.9261
347.4939,331.3244
347.976,331.4283
348.4581,331.9315
348.9402,332.9614
349.4223,333.8252
349.9044,333.3711
350.3866,332.0186
350.8687,331.1978
351.3508,331.7174
351.8329,333.0157
352.315,334.5766
352.7971,336.3777
353.2793,337.5133
353.7614,336.5161
354.2435,334.5508
354.7256,333.5562
355.2077,334.605
355.6898,336.1728
356.172,337.0168
356.6541,337.2487
357.1362,337.3597
357.6183,337.4565
358.1004,337.6553
358.5826,338.1238
359.0647,339.0496
359.5468,339.8406
360.0289,340.1293
360.511,340.0621
360.9931,339.9171
361.4753,339.6178
361.9574,339.4171
362.4395,339.4533
362.9216,339.7577
363.4037,340.1817
363.8858,340.7369
364.368,341.3714
364.8501,342.0334
365.3322,342.8072
365.8143,343.5102
366.2964,344.0459
366.7785,344.4259
367.2607,344.916
367.7428,345.8739
368.2249,346.7406
368.707,347.1712
369.1891,346.7206
369.6712,346.4245
370.1534,346.4028
370.6355,346.5538
371.1176,346.5241
371.5997,345.8953
372.0818,345.613
372.5639,346.1583
373.0461,347.9291
373.5282,349.2067
374.0103,349.9091
374.4924,350.2104
374.9745,350.2758
375.4566,349.9427
375.9388,349.903
376.4209,350.4858
376.903,351.6427
377.3851,352.3317
377.8672,352.4424
378.3493,352.4949
378.8315,353.2005
379.3136,354.5948
379.7957,355.2356
380.2778,354.6164
380.7599,353.3437
381.242,352.8137
381.7242,353.0337
382.2063,353.657
382.6884,354.8644
383.1705,356.3434
383.6526,356.817
384.1347,355.986
384.6169,354.8321
385.099,354.4383
385.5811,354.7199
386.0632,355.4444
386.5453,357.1069
387.0274,358.8747
387.5096,359.4073
387.9917,358.7043
388.4738,357.9326
388.9559,358.0712
389.438,358.6799
389.9201,359.184
390.4023,359.3762
390.8844,359.4476
391.3665,359.3895
391.8486,359.2805
392.3307,359.4073
392.8128,360.2987
393.295,361.2103
393.7771,361.5432
394.2592,360.8737
394.7413,360.492
395.2234,361.2453
395.7055,362.453
396.1877,363.0654
396.6698,362.1802
397.1519,361.3036
397.634,360.9464
398.1161,361.2
398.5982,361.328
399.0804,361.0505
399.5625,360.7814
400.0446,360.8301
400.5267,361.4925
401.0088,362.0755
401.4909,362.6409
401.9731,363.1043
402.4552,362.9635
402.9373,361.5698
403.4194,360.6375
403.9015,361.252
404.3836,364.0975
404.8658,365.6086
405.3479,365.2562
405.83,364.2564
406.3121,364.5751
406.7942,366.4299
407.2763,368.0361
407.7585,368.7581
408.2406,368.7423
408.7227,368.8497
409.2048,369.1094
409.6869,369.214
410.169,368.7076
410.6512,367.7464
411.1333,367.0755
411.6154,366.8587
412.0975,366.9531
412.5796,367.2726
413.0617,367.7627
413.5439,368.1512
414.026,368.17
414.5081,368.044
414.9902,368.071
415.4723,368.2754
415.9544,368.6296
416.4366,369.33
416.9187,370.1203
417.4008,370.6134
417.8829,370.299
418.365,369.9634
418.8471,370.2164
419.3293,370.9325
419.8114,371.3739
420.2935,370.6477
420.7756,369.904
421.2577,370.0211
421.7398,371.7991
422.222,373.1557
422.7041,373.6664
423.1862,373.4767
423.6683,372.8613
424.1504,370.8771
424.6325,369.4332
425.1147,369.07
425.5968,369.8551
426.0789,371.0683
426.561,373.0587
427.0431,375.1616
427.5252,376.8774
428.0074,378.3239
428.4895,379.0628
428.9716,378.8419
429.4537,377.9351
429.9358,377.1036
430.4179,376.2552
430.9001,375.7982
431.3822,376.2799
431.8643,377.7289
432.3464,377.9256
432.8285,376.5704
433.3106,374.9263
433.7928,374.841
434.2749,376.1006
434.757,376.8489
435.2391,376.182
435.7212,374.9196
436.2033,374.8596
436.6855,375.8818
437.1676,376.7556
437.6497,376.1844
438.1318,375.0283
438.6139,374.6696
439.096,375.4646
439.5782,376.569
440.0603,377.4483
440.5424,378.1323
441.0245,378.6655
441.5066,378.8941
441.9887,379.1261
442.4709,379.6241
442.953,380.376
443.4351,380.9482
443.9172,381.0913
444.3993,381.0321
444.8814,380.9351
445.3636,380.9533
445.8457,380.7603
446.3278,379.9343
446.8099,378.8648
447.292,378.5186
447.7741,379.8462
448.2563,380.8633
448.7384,380.9503
449.2205,380.013
449.7026,378.9264
450.1847,377.5654
450.6668,376.237
451.149,375.1087
451.6311,374.01
452.1132,373.9167
452.5953,375.3987
453.0774,377.6582
453.5595,378.4166
454.0417,377.5194
454.5238,376.5607
455.0059,376.7362
455.488,377.6949
455.9701,377.4206
456.4522,375.7157
456.9344,373.6893
457.4165,372.6252
457.8986,372.2039
458.3807,371.5419
458.8628,370.1293
459.3449,368.5972
459.8271,367.7938
460.3092,367.5485
460.7913,367.1129
461.2734,365.8701
461.7555,364.3615
462.2376,363.0295
462.7198,361.9776
463.2019,360.9612
463.684,360.0673
464.1661,359.0851
464.6482,357.7588
465.1303,355.0445
465.6125,352.9903
466.0946,352.5922
466.5767,353.6212
467.0588,353.9439
467.5409,352.9042
468.023,351.5703
468.5052,350.3695
468.9873,349.2737
469.4694,348.3683
469.9515,347.5482
470.4336,347.015
470.9157,347.2442
471.3979,348.6334
471.88,349.4072
472.3621,348.9852
472.8442,347.6078
473.3263,346.257
473.8084,344.8914
474.2906,343.8653
474.7727,343.5609
475.2548,343.8506
475.7369,344.1288
476.219,344.3235
476.7011,344.5355
477.1833,344.8929
477.6654,345.3688
478.1475,345.8942
478.6296,346.5744
479.1117,347.1979
479.5938,347.4085
480.076,347.2884
480.5581,347.3731
481.0402,348.1843
481.5223,349.2022
482.0044,349.9009
482.4865,349.8546
482.9687,350.3801
483.4508,352.8123
483.9329,355.8586
484.415,357.646
484.8971,356.563
485.3792,355.5597
485.8614,355.4948
486.3435,356.2751
486.8256,356.4713
487.3077,355.8749
487.7898,354.9405
488.2719,353.8633
488.7541,352.6106
489.2362,351.3674
489.7183,350.0748
490.2004,348.8696
490.6825,348.0303
491.1646,347.6063
491.6468,347.0245
492.1289,346.2016
492.611,345.0555
493.0931,343.2032
493.5752,340.64
494.0573,337.8146
494.5395,334.7214
495.0216,331.6353
495.5037,329.2921
495.9858,328.009
496.4679,326.3911
496.95,322.9258
497.4322,318.3223
497.9143,313.8158
498.3964,309.6517
498.8785,305.9311
499.3606,302.9165
499.8427,300.4632
500.3249,298.105
500.807,296.3023
501.2891,294.036
501.7712,290.5323
502.2533,284.8952
502.7354,280.4009
503.2176,278.1339
503.6997,276.7134
504.1818,274.7609
504.6639,271.9796
505.146,269.2388
505.6281,266.8573
506.1103,264.5667
506.5924,261.1584
507.0745,256.1858
507.5566,251.6619
508.0387,249.0656
508.5208,248.2476
509.003,245.9587
509.4851,241.9849
509.9672,237.7439
510.4493,234.7406
510.9314,232.7281
511.4135,230.8943
511.8957,229.1422
512.3778,227.3495
512.8599,225.466
513.342,223.4483
513.8242,221.1731
514.3063,218.1883
514.7884,215.1601
515.2705,212.668
515.7526,210.7615
516.2347,208.8956
516.7169,206.6427
517.199,204.4688
517.6811,202.7512
518.1632,202.3732
518.6453,201.3257
519.1274,198.8464
519.6096,195.6604
520.0917,193.1039
520.5738,191.3025
521.0559,189.9425
521.538,189.0639
522.0201,188.6326
522.5023,188.0744
522.9844,187.4086
523.4665,186.5538
523.9486,185.3908
524.4307,183.9327
524.9128,182.4898
525.395,181.0796
525.8771,179.763
526.3592,178.6113
526.8413,177.6298
527.3234,176.7953
527.8055,176.0839
528.2877,175.542
528.7698,175.4603
529.2519,175.6749
529.734,175.4894
530.2161,174.1489
530.6982,172.5051
531.1804,171.1708
531.6625,170.2864
532.1446,169.463
532.6267,168.4375
533.1088,167.4943
533.5909,166.9111
534.0731,167.3918
534.5552,167.3907
535.0373,166.49
535.5194,165.0883
536.0015,164.175
536.4836,163.9958
536.9658,163.8195
537.4479,163.389
537.93,162.7177
538.4121,162.0635
538.8942,161.4175
539.3763,160.8322
539.8585,160.3553
540.3406,159.9782
540.8227,159.6899
541.3048,159.5176
541.7869,159.3131
542.269,158.8347
542.7512,158.175
543.2333,157.5668
543.7154,157.1436
544.1975,156.7811
544.6796,156.5095
545.1617,156.2551
545.6439,155.7006
546.126,154.2639
546.6081,152.819
547.0902,151.9355
547.5723,151.8403
548.0544,151.6446
548.5366,151.2278
549.0187,150.6527
549.5008,149.9567
549.9829,148.9579
550.465,148.1638
550.9471,147.5959
551.4293,147.2694
551.9114,147.3737
552.3935,148.0957
552.8756,148.3159
553.3577,147.2982
553.8398,145.4349
554.322,144.6301
554.8041,144.9085
555.2862,145.4773
555.7683,145.8667
556.2504,146.0723
556.7325,146.0724
557.2147,145.8472
557.6968,145.5088
558.1789,145.0258
558.661,144.5183
559.1431,144.168
559.6252,144.1494
560.1074,144.1852
560.5895,144.2031
561.0716,144.1942
561.5537,144.1317
562.0358,144.0338
562.5179,143.8572
563.0001,143.6327
563.4822,143.3876
563.9643,142.7847
564.4464,141.5081
564.9285,140.3191
565.4106,139.8479
565.8928,140.2195
566.3749,140.4772
566.857,140.5246
567.3391,140.4973
567.8212,140.6128
568.3033,140.8529
568.7855,141.0969
569.2676,141.4463
569.7497,141.6352
570.2318,140.9724
570.7139,139.6974
571.196,138.8053
571.6782,139.3215
572.1603,140.176
572.6424,140.4592
573.1245,140.0604
573.6066,139.675
574.0887,139.7033
574.5709,139.7701
575.053,139.5726
575.5351,138.5914
576.0172,138.0497
576.4993,138.1996
576.9814,138.697
577.4636,138.9604
577.9457,138.8359
578.4278,138.9204
578.9099,139.5071
579.392,140.3574
579.8741,140.3989
580.3563,139.5619
580.8384,138.8471
581.3205,138.8371
581.8026,139.4109
582.2847,140.4774
582.7668,142.0525
583.249,143.2065
583.7311,142.5005
584.2132,141.156
584.6953,140.8459
585.1774,142.3641
585.6595,144.001
586.1416,144.9356
586.6237,145.4064
587.1058,145.7917
587.588,146.076
588.0701,146.3968
588.5522,146.7779
589.0343,147.2189
589.5164,147.7388
589.9985,148.4142
590.4807,149.034
590.9628,149.4441
591.4449,149.6332
591.927,150.2711
592.4091,151.4792
592.8912,152.6099
593.3734,152.8799
593.8555,152.5105
594.3376,152.5911
594.8197,153.3416
595.3018,154.2654
595.7839,154.8773
596.2661,155.2618
596.7482,155.5819
597.2303,155.9687
597.7124,156.2439
598.1945,156.3448
598.6766,156.2613
599.1588,155.9528
599.6409,154.8392
600.123,154.038
600.6051,154.2008
601.0872,155.4141
601.5693,156.0586
602.0515,155.9042
602.5336,155.4836
603.0157,155.0449
603.4978,154.538
603.9799,154.4059
604.462,154.8044
604.9442,155.1649
605.4263,154.6556
605.9084,153.4053
606.3905,152.1817
606.8726,151.0676
607.3547,150.2158
607.8369,150.0757
608.319,150.3557
608.8011,150.307
609.2832,149.2662
609.7653,148.0441
610.2474,147.0575
610.7296,146.309
611.2117,145.7746
611.6938,145.6026
612.1759,145.5033
612.658,145.4034
613.1401,145.3993
613.6223,144.9156
614.1044,143.7036
614.5865,142.3587
615.0686,141.4468
615.5507,141.0315
616.0328,140.5166
616.515,139.8303
616.9971,139.0791
617.4792,138.3252
617.9613,137.6177
618.4434,137.225
618.9255,137.5408
619.4077,137.846
619.8898,136.9874
620.3719,135.3678
620.854,134.2415
621.3361,134.8568
621.8182,135.6196
622.3004,135.6261
622.7825,134.8394
623.2646,133.98
623.7467,132.8615
624.2288,131.983
624.7109,131.6451
625.1931,132.0699
625.6752,132.2079
626.1573,131.8318
626.6394,131.5419
627.1215,132.2205
627.6036,133.8906
628.0858,134.7563
628.5679,134.3958
629.05,133.5092
629.5321,133.0325
630.0142,132.8974
630.4963,132.9009
630.9785,132.9369
631.4606,133.1021
631.9427,133.3669
632.4248,133.8121
632.9069,134.698
633.389,137.1646
633.8712,139.1518
634.3533,139.3618
634.8354,137.5689
635.3175,136.7874
635.7996,137.845
636.2817,139.0915
636.7639,139.6083
637.246,139.1978
637.7281,138.953
638.2102,138.7905
638.6923,139.0111
639.1744,140.3789
639.6566,142.5913
640.1387,143.8046
640.6208,143.456
641.1029,142.6434
641.585,142.6298
642.0671,143.0851
642.5493,143.3456
643.0314,143.0964
643.5135,142.6259
643.9956,141.7926
644.4777,140.8205
644.9598,140.3919
645.442,141.4909
645.9241,142.2911
646.4062,142.1374
646.8883,141.0821
647.3704,140.2543
647.8525,139.7101
648.3347,139.2832
648.8168,139.0371
649.2989,138.9474
649.781,138.1242
650.2631,136.4792
650.7452,134.8363
651.2274,134.2634
651.7095,134.2481
652.1916,133.6625
652.6737,132.1918
653.1558,130.5898
653.6379,129.1505
654.1201,127.9865
654.6022,127.2354
655.0843,127.2648
655.5664,127.3323
656.0485,127.571
656.5306,127.6956
657.0128,127.0063
657.4949,124.8137
657.977,123.1532
658.4591,122.7855
658.9412,123.3018
659.4233,122.6726
659.9055,120.7603
660.3876,119.2111
660.8697,119.3796
661.3518,120.4822
661.8339,120.4999
662.316,119.4797
662.7982,118.3128
663.2803,117.5098
663.7624,116.9374
664.2445,116.4852
664.7266,116.1365
665.2087,115.8975
665.6909,116.063
666.173,116.1655
666.6551,115.7727
667.1372,114.229
667.6193,113.3666
668.1014,113.5216
668.5836,114.0268
669.0657,113.8992
669.5478,113.0692
670.0299,112.4677
670.512,112.3586
670.9941,112.4377
671.4763,112.0567
671.9584,111.3651
672.4405,110.9367
672.9226,111.3138
673.4047,111.8265
673.8868,111.8403
674.369,111.4839
674.8511,111.216
675.3332,111.5247
675.8153,111.6687
676.2974,111.1241
676.7795,109.841
677.2617,109.255
677.7438,109.7662
678.2259,110.358
678.708,110.497
679.1901,110.1524
679.6722,109.7858
680.1544,109.3599
680.6365,109.0991
681.1186,109.4533
681.6007,110.1141
682.0828,110.1444
682.5649,109.2748
683.0471,108.5839
683.5292,109.5072
684.0113,110.9154
684.4934,111.3879
684.9755,109.6737
685.4576,108.3546
685.9398,108.3839
686.4219,109.1036
686.904,109.3897
687.3861,108.9386
687.8682,108.6841
688.3503,108.8764
688.8325,109.2809
689.3146,109.2138
689.7967,108.6686
690.2788,108.2579
690.7609,108.4019
691.243,108.7083
691.7252,108.3629
692.2073,107.4964
692.6894,106.7118
693.1715,106.1591
693.6536,105.9675
694.1357,106.4762
694.6179,107.6446
695.1,108.3776
695.5821,108.1252
696.0642,107.6138
696.5463,107.1137
697.0284,106.5796
697.5106,106.3989
697.9927,106.6811
698.4748,107.0642
698.9569,107.3044
699.439,107.4003
699.9211,107.2359
700.4033,106.7648
700.8854,106.3557
701.3675,106.5087
701.8496,106.933
702.3317,107.1688
702.8138,107.0727
703.296,106.867
703.7781,106.5738
704.2602,106.2668
704.7423,106.0361
705.2244,105.6378
705.7065,105.691
706.1887,106.5409
706.6708,107.6846
707.1529,108.2212
707.635,108.0886
708.1171,107.6725
708.5992,106.9571
709.0814,106.1545
709.5635,105.5903
710.0456,105.2915
710.5277,105.3897
711.0098,106.4148
711.4919,107.4964
711.9741,107.9042
712.4562,107.7149
712.9383,107.2679
713.4204,106.1159
713.9025,105.2702
714.3846,105.2722
714.8668,106.0755
715.3489,106.9691
715.831,108.2779
716.3131,109.0317
716.7952,108.4111
717.2773,106.5734
717.7595,105.7556
718.2416,105.9969
718.7237,106.6897
719.2058,107.7906
719.6879,108.8603
720.17,108.9677
720.6522,107.9625
721.1343,107.1611
721.6164,107.7375
722.0985,108.5795
722.5806,108.7236
723.0627,107.5204
723.5449,106.8033
724.027,106.8606
724.5091,107.2275
724.9912,107.4924
725.4733,107.6397
725.9554,107.8049
726.4376,108.0154
726.9197,108.2023
727.4018,108.2122
727.8839,108.1135
728.366,108.1424
728.8481,108.4213
729.3303,108.6973
729.8124,108.7022
730.2945,108.5746
730.7766,108.5266
731.2587,108.7985
731.7408,108.9476
732.223,108.7605
732.7051,108.4139
733.1872,108.2366
733.6693,108.2836
734.1514,108.3607
734.6335,108.4738
735.1157,108.5423
735.5978,108.1616
736.0799,107.4249
736.562,107.1289
737.0441,108.1105
737.5262,109.3476
738.0084,109.5664
738.4905,109.0258
738.9726,108.6064
739.4547,108.8757
739.9368,109.1674
740.4189,109.0294
740.9011,108.5174
741.3832,108.6746
741.8653,110.0699
742.3474,111.0859
742.8295,110.866
743.3116,109.613
743.7938,108.9911
744.2759,109.0128
744.758,109.2317
745.2401,109.5333
745.7222,109.75
746.2043,109.5236
746.6865,108.8659
747.1686,108.278
747.6507,107.7087
748.1328,107.5499
748.6149,108.2767
749.097,110.2364
749.5792,111.474
750.0613,111.7196
750.5434,111.5136
751.0255,111.0288
751.5076,110.1951
751.9897,110.0793
752.4719,110.8092
752.954,111.59
753.4361,111.6406
753.9182,111.2137
754.4003,110.665
754.8824,109.9732
755.3646,109.7969
755.8467,111.1926
756.3288,112.973
756.8109,113.9695
757.293,113.582
757.7751,113.298
758.2573,113.3894
758.7394,113.449
759.2215,112.9262
759.7036,111.6284
760.1857,111.1954
760.6678,111.9249
761.15,113.0226
761.6321,113.5715
762.1142,113.6828
762.5963,113.4838
763.0784,112.6924
763.5605,112.4998
764.0427,114.4915
764.5248,117.2872
765.0069,119.158
765.489,119.1499
765.9711,118.8973
766.4532,118.2765
766.9354,117.6527
767.4175,117.573
767.8996,118.1009
768.3817,118.815
768.8638,119.6851
769.3459,120.6184
769.8281,121.4428
770.3102,122.1955
770.7923,122.9741
771.2744,123.7561
771.7565,124.6664
772.2386,126.0969
772.7208,127.6601
773.2029,128.6816
773.685,128.2685
774.1671,128.233
774.6492,128.9374
775.1313,130.1034
775.6135,131.1535
776.0956,132.0544
776.5777,133.0111
777.0598,134.0993
777.5419,135.2384
778.024,136.4311
778.5062,137.5862
778.9883,138.4192
779.4704,138.4406
779.9525,138.4569
780.4346,139.1093
780.9167,140.1277
781.3989,140.8562
781.881,140.9895
782.3631,141.0143
782.8452,140.9075
783.3273,140.7842
783.8094,141.0268
784.2916,141.6702
784.7737,142.3693
785.2558,143.0978
785.7379,143.7183
786.22,143.8332
786.7021,143.591
787.1843,143.4866
787.6664,143.8181
788.1485,144.2964
788.6306,144.883
789.1127,145.5078
789.5948,145.8893
790.077,145.8555
790.5591,145.8219
791.0412,145.9959
791.5233,146.2046
792.0054,145.6122
792.4875,144.1978
792.9697,143.1459
793.4518,143.0818
793.9339,143.6023
794.416,144.1873
794.8981,144.8313
795.3802,145.5173
795.8624,146.6349
796.3445,147.3976
796.8266,147.2764
797.3087,146.4171
797.7908,145.6215
798.2729,144.8329
798.7551,144.2854
799.2372,144.1478
799.7193,144.2528
800.2014,143.7684
800.6835,142.7708
801.1656,142.3122
801.6478,143.4338
802.1299,144.9961
802.612,145.6015
803.0941,145.5094
803.5762,145.5607
804.0583,146.5395
804.5405,147.259
805.0226,147.114
805.5047,146.3132
805.9868,145.6377
806.4689,145.1443
806.951,144.5938
807.4332,143.8132
807.9153,142.9832
808.3974,142.743
808.8795,142.9965
809.3616,143.1934
809.8438,143.1006
810.3259,142.7873
810.808,142.0317
811.2901,141.0679
811.7722,140.6288
812.2543,141.4677
812.7365,142.2107
813.2186,142.4625
813.7007,142.3758
814.1828,142.5621
814.6649,143.0861
815.147,143.3657
815.6292,143.1359
816.1113,142.581
816.5934,141.8008
817.0755,140.9479
817.5576,140.5422
818.0397,141.5555
818.5219,142.3525
819.004,141.8295
819.4861,140.3943
819.9682,139.4233
820.4503,139.263
820.9324,139.0766
821.4146,138.5884
821.8967,138.0503
822.3788,138.2663
822.8609,139.1796
823.343,139.9711
823.8251,140.5017
824.3073,140.5357
824.7894,139.228
825.2715,137.264
825.7536,136.0742
826.2357,136.9322
826.7178,137.8048
827.2,138.3246
827.6821,138.42
828.1642,137.7544
828.6463,135.9216
829.1284,134.8031
829.6105,134.9162
830.0927,135.6702
830.5748,136.2152
831.0569,136.5104
831.539,136.3811
832.0211,135.4689
832.5032,134.6139
832.9854,134.5524
833.4675,134.8945
833.9496,135.0529
834.4317,134.9229
834.9138,134.5618
835.3959,133.8814
835.8781,133.0615
836.3602,132.3911
836.8423,131.8766
837.3244,131.1334
837.8065,129.9414
838.2886,129.0025
838.7708,129.5682
839.2529,130.828
839.735,131.4301
840.2171,130.7387
840.6992,129.8951
841.1813,129.2378
841.6635,128.6274
842.1456,127.8663
842.6277,126.7806
843.1098,126.1531
843.5919,126.1391
844.074,126.2828
844.5562,126.1376
845.0383,125.709
845.5204,124.9014
846.0025,123.6328
846.4846,122.4982
846.9667,121.9927
847.4489,121.7848
847.931,121.5826
848.4131,121.3464
848.8952,121.1214
849.3773,121.0486
849.8594,120.7891
850.3416,119.8613
850.8237,118.2993
851.3058,117.6384
851.7879,117.9697
852.27,118.566
852.7521,119.255
853.2343,119.6214
853.7164,118.8697
854.1985,116.8803
854.6806,115.4375
855.1627,115.9211
855.6448,116.3563
856.127,115.5436
856.6091,113.4324
857.0912,112.5615
857.5733,113.1228
858.0554,113.8799
858.5375,114.2989
859.0197,114.277
859.5018,113.2922
859.9839,111.5264
860.466,110.0539
860.9481,109.5934
861.4302,109.4714
861.9124,109.4409
862.3945,109.4591
862.8766,109.2337
863.3587,108.5141
863.8408,108.1909
864.3229,108.7981
864.8051,109.87
865.2872,109.865
865.7693,108.9507
866.2514,108.1067
866.7335,107.9221
867.2156,107.8951
867.6978,107.6657
868.1799,107.3037
868.662,106.9644
869.1441,106.5864
869.6262,106.3804
870.1083,106.4511
870.5905,106.6482
871.0726,106.6352
871.5547,106.4204
872.0368,106.3468
872.5189,106.5567
873.001,106.7784
873.4832,106.6266
873.9653,106.2922
874.4474,106.0966
874.9295,106.251
875.4116,106.3357
875.8937,106.1634
876.3759,105.937
876.858,105.8386
877.3401,105.8773
877.8222,106.0433
878.3043,106.3902
878.7864,106.6217
879.2686,106.3051
879.7507,105.6885
880.2328,105.181
880.7149,104.8322
881.197,104.6964
881.6791,104.9103
882.1613,105.2674
882.6434,105.7087
883.1255,106.3031
883.6076,106.4109
884.0897,105.9535
884.5718,105.2684
885.054,104.2893
885.5361,103.2838
886.0182,103.2306
886.5003,104.0486
886.9824,105.0845
887.4645,106.5009
887.9467,107.5119
888.4288,107.3834
888.9109,106.2192
889.393,105.4414
889.8751,105.2211
890.3572,105.1111
890.8394,104.9702
891.3215,104.9776
891.8036,104.9134
892.2857,105.1396
892.7678,105.3723
893.2499,105.6116
893.7321,105.7492
894.2142,105.6258
894.6963,105.3601
895.1784,105.1794
895.6605,105.0282
896.1426,105.1546
896.6248,105.7812
897.1069,106.4623
897.589,106.4074
898.0711,105.7045
898.5532,105.2642
899.0353,105.3022
899.5175,105.3577
899.9996,104.7821
900.4817,104.075
900.9638,103.8461
901.4459,104.3345
901.928,104.9336
902.4102,105.7992
902.8923,106.4848
903.3744,106.5631
903.8565,106.0156
904.3386,105.9004
904.8207,106.2339
905.3029,106.6453
905.785,106.893
906.2671,107.0287
906.7492,107.1162
907.2313,107.1549
907.7134,107.0922
908.1956,106.5869
908.6777,106.364
909.1598,106.7917
909.6419,107.6892
910.124,108.2879
910.6061,108.5952
911.0883,108.1891
911.5704,106.3054
912.0525,104.3153
912.5346,104.2424
913.0167,105.3854
913.4988,106.2228
913.981,105.9168
914.4631,105.6393
914.9452,105.6732
915.4273,105.8313
915.9094,105.8354
916.3915,105.6706
916.8737,105.5212
917.3558,105.3855
917.8379,105.3954
918.32,105.8451
918.8021,106.4789
919.2842,106.8473
919.7664,106.7368
920.2485,106.9548
920.7306,108.3056
921.2127,109.5744
921.6948,109.9764
922.1769,109.451
922.6591,109.0233
923.1412,108.7007
923.6233,108.3806
924.1054,107.9508
924.5875,107.4987
925.0696,107.089
925.5518,106.7482
926.0339,106.5946
926.516,106.5114
926.9981,106.8464
927.4802,107.9558
927.9623,109.4831
928.4445,110.3664
928.9266,110.5849
929.4087,110.3531
929.8908,109.5308
930.3729,108.7054
930.855,108.889
931.3372,109.59
931.8193,109.8933
932.3014,109.0014
932.7835,108.5719
933.2656,109.4574
933.7477,110.6094
934.2299,111.1026
934.712,110.8776
935.1941,110.4422
935.6762,109.7809
936.1583,109.2787
936.6404,109.469
937.1226,109.9472
937.6047,110.0494
938.0868,109.72
938.5689,109.8558
939.051,111.6116
939.5331,112.9351
940.0153,112.8513
940.4974,111.6149
940.9795,111.0422
941.4616,111.1377
941.9437,111.2821
942.4258,111.2437
942.908,111.0486
943.3901,110.5087
943.8722,109.8603
944.3543,109.6089
944.8364,110.4427
945.3185,110.9752
945.8007,110.896
946.2828,110.5459
946.7649,110.2812
947.247,110.1097
947.7291,110.4055
948.2112,111.2782
948.6934,112.176
949.1755,112.5894
949.6576,112.7393
950.1397,112.8624
950.6218,112.993
951.1039,113.0782
951.5861,113.043
952.0682,113.0612
952.5503,113.2426
953.0324,113.5566
953.5145,113.8659
953.9966,114.1506
954.4788,114.1922
954.9609,113.7585
955.443,113.132
955.9251,112.4017
956.4072,111.6598
956.8893,111.1468
957.3715,110.9266
957.8536,110.8895
958.3357,111.0308
958.8178,111.3369
959.2999,111.9392
959.782,112.721
960.2642,113.0876
960.7463,112.868
961.2284,112.589
961.7105,112.5849
962.1926,112.7251
962.6747,112.9331
963.1569,113.2473
963.639,113.3848
964.1211,113.3511
964.6032,113.1242
965.0853,112.5529
965.5674,111.8181
966.0496,111.4329
966.5317,111.3764
967.0138,111.5287
967.4959,112.1917
967.978,112.668
968.4601,112.3986
968.9423,111.7382
969.4244,111.515
969.9065,111.836
970.3886,112.1571
970.8707,112.4168
971.3528,112.5619
971.835,112.4368
972.3171,112.1731
972.7992,112.0419
973.2813,112.1499
973.7634,112.1181
974.2455,111.7103
974.7277,111.1958
975.2098,110.7254
975.6919,110.2988
976.174,109.9001
976.6561,109.5265
977.1382,109.2338
977.6204,109.0669
978.1025,108.9887
978.5846,108.8508
979.0667,108.7559
979.5488,109.0089
980.0309,110.5837
980.5131,111.2735
980.9952,110.411
981.4773,108.8538
981.9594,107.8881
982.4415,107.4975
982.9236,107.6811
983.4058,108.5438
983.8879,109.2899
984.37,109.0331
984.8521,108.4789
985.3342,108.3204
985.8163,108.7624
986.2985,108.9888
986.7806,108.9429
987.2627,108.8004
987.7448,108.6867
988.2269,108.5348
988.709,108.0223
989.1912,107.2535
989.6733,106.6601
990.1554,106.625
990.6375,106.636
991.1196,106.3141
991.6017,105.941
992.0839,106.06
992.566,106.8469
993.0481,107.313
993.5302,107.2991
994.0123,107.1402
994.4944,107.2338
994.9766,107.4256
995.4587,107.3939
995.9408,107.0686
996.4229,107.0446
996.905,108.0687
997.3871,108.8357
997.8693,108.7143
998.3514,107.8634
998.8335,107.1046
999.3156,106.4578
999.7977,106.2802
1000.28,107.0932
1000.762,107.9556
1001.244,107.8847
1001.726,107.2926
1002.208,106.8764
1002.69,106.9753
1003.173,106.8711
1003.655,106.4473
1004.137,106.0188
1004.619,105.8508
1005.101,105.9495
1005.583,106.5016
1006.065,107.487
1006.547,108.2062
1007.029,108.0818
1007.512,107.7252
1007.994,107.3089
1008.476,106.9334
1008.958,107.1286
1009.44,108.0063
1009.922,108.7694
1010.404,109.2069
1010.886,109.3603
1011.369,109.1001
1011.851,108.6565
1012.333,108.4485
1012.815,108.7683
1013.297,108.8676
1013.779,108.4613
1014.261,107.9963
1014.743,107.7366
1015.225,107.6824
1015.708,107.9824
1016.19,108.6064
1016.672,109.0459
1017.154,108.7819
1017.636,108.3792
1018.118,108.1084
1018.6,108.0302
1019.082,108.3297
1019.565,109.2475
1020.047,109.8758
1020.529,110.0186
1021.011,109.9493
1021.493,110.0971
1021.975,110.3071
1022.457,110.1779
1022.939,109.5874
1023.421,109.1571
1023.904,109.361
1024.386,109.5909
1024.868,109.444
1025.35,109.0049
1025.832,109.1613
1026.314,109.9063
1026.796,110.558
1027.278,110.7328
1027.76,110.7665
1028.243,110.856
1028.725,111.0789
1029.207,111.5795
1029.689,112.8893
1030.171,113.5833
1030.653,113.4871
1031.135,113.1091
1031.617,112.8923
1032.1,112.8014
1032.582,112.7318
1033.064,112.6761
1033.546,112.6267
1034.028,112.2566
1034.51,112.2386
1034.992,113.217
1035.474,114.7327
1035.957,115.3952
1036.439,115.1655
1036.921,114.9056
1037.403,114.7937
1037.885,114.807
1038.367,114.9901
1038.849,115.2491
1039.331,115.3987
1039.813,115.2791
1040.296,115.7249
1040.778,117.1978
1041.26,118.3631
1041.742,118.3596
1042.224,117.5205
1042.706,116.9364
1043.188,116.5346
1043.67,116.0005
1044.152,114.5166
1044.635,113.6509
1045.117,114.6808
1045.599,116.3627
1046.081,117.133
1046.563,116.9082
1047.045,116.3393
1047.527,115.4203
1048.009,114.7361
1048.492,115.0371
1048.974,115.6951
1049.456,116.1532
1049.938,116.3648
1050.42,116.2192
1050.902,115.1767
1051.384,114.9413
1051.866,116.2306
1052.349,118.0864
1052.831,118.6124
1053.313,118.198
1053.795,117.8828
1054.277,117.9052
1054.759,118.0908
1055.241,118.4776
1055.723,118.8984
1056.205,119.2663
1056.688,119.5784
1057.17,119.7978
1057.652,119.924
1058.134,119.7548
1058.616,118.715
1059.098,117.847
1059.58,118.5641
1060.062,120.0441
1060.544,120.7051
1061.027,119.7999
1061.509,119.1523
1061.991,118.8381
1062.473,118.7656
1062.955,119.0426
1063.437,119.4348
1063.919,119.4007
1064.401,118.9471
1064.884,118.4053
1065.366,117.7656
1065.848,117.2549
1066.33,116.9513
1066.812,116.8062
1067.294,116.7422
1067.776,116.7538
1068.258,116.7377
1068.74,116.639
1069.223,116.7097
1069.705,117.6156
1070.187,118.4403
1070.669,118.1533
1071.151,116.6425
1071.633,115.969
1072.115,116.2432
1072.597,116.8311
1073.079,117.6779
1073.562,118.381
1074.044,118.1161
1074.526,117.3106
1075.008,116.7568
1075.49,116.8446
1075.972,116.9459
1076.454,117.115
1076.936,117.107
1077.419,116.5621
1077.901,115.6576
1078.383,115.2177
1078.865,115.2127
1079.347,115.3823
1079.829,115.7665
1080.311,116.087
1080.793,116.1857
1081.275,116.1518
1081.758,116.1244
1082.24,116.1084
1082.722,115.9952
1083.204,115.7723
1083.686,115.433
1084.168,114.7868
1084.65,114.1522
1085.132,113.7633
1085.615,113.6654
1086.097,114.0514
1086.579,115.2745
1087.061,115.8607
1087.543,115.2811
1088.025,114.1022
1088.507,112.8681
1088.989,111.8035
1089.471,111.3553
1089.953,111.7433
1090.436,112.318
1090.918,113.2415
1091.4,113.8974
1091.882,113.888
1092.364,113.3643
1092.846,112.9836
1093.328,112.721
1093.81,112.4476
1094.293,112.0818
1094.775,111.7209
1095.257,111.3563
1095.739,111.0537
1096.221,110.8165
1096.703,110.5947
1097.185,111.1086
1097.667,112.4019
1098.15,113.364
1098.632,112.8954
1099.114,111.9685
1099.596,111.3243
1100.078,110.9136
1100.56,110.5166
1101.042,110.2281
1101.524,109.5206
1102.006,108.1283
1102.489,106.9758
1102.971,107.4457
1103.453,108.6574
1103.935,109.3675
1104.417,109.4568
1104.899,109.0292
1105.381,107.3839
1105.863,106.3522
1106.345,106.5621
1106.828,107.479
1107.31,108.1676
1107.792,108.5986
1108.274,108.5333
1108.756,107.7391
1109.238,107.298
1109.72,108.2075
1110.202,109.1619
1110.685,109.4621
1111.167,109.1579
1111.649,108.3352
1112.131,107.0966
1112.613,106.4975
1113.095,107.3623
1113.577,108.3745
1114.059,108.7418
1114.542,108.6387
1115.024,108.2032
1115.506,107.2858
1115.988,106.9505
1116.47,107.257
1116.952,107.54
1117.434,107.1825
1117.916,106.706
1118.398,106.626
1118.88,106.8823
1119.363,107.3682
1119.845,108.5661
1120.327,108.751
1120.809,107.4773
1121.291,106.234
1121.773,107.0772
1122.255,108.7089
1122.737,108.4618
1123.22,106.5699
1123.702,105.4885
1124.184,106.9086
1124.666,108.0909
1125.148,108.6171
1125.63,108.6088
1126.112,107.8454
1126.594,106.7347
1127.077,106.7806
1127.559,108.2465
1128.041,109.3147
1128.523,108.5405
1129.005,107.8096
1129.487,108.1257
1129.969,107.4889
1130.451,108.7322
1130.933,107.5011
1131.416,107.0532
1131.898,108.0216
1132.38,109.0911
1132.862,109.4827
1133.344,109.5158
1133.826,109.3739
1134.308,109.0838
1134.79,109.0248
1135.272,109.204
1135.755,109.2139
1136.237,108.6993
1136.719,108.2859
1137.201,108.5801
1137.683,109.3153
1138.165,110.3182
1138.647,111.8932
1139.129,112.0278
1139.612,110.4967
1140.094,109.0406
1140.576,108.7551
1141.058,109.1676
1141.54,110.0942
1142.022,111.1933
1142.504,111.7349
1142.986,111.4038
1143.469,110.7323
1143.951,109.5177
1144.433,108.6025
1144.915,108.9966
1145.397,110.0412
1145.879,110.6834
1146.361,110.8988
1146.843,110.7527
1147.325,109.6103
1147.807,109.0986
1148.29,109.5972
1148.772,110.4429
1149.254,110.905
1149.736,111.0561
1150.218,111.0055
1150.7,110.7937
1151.182,110.7505
1151.664,111.1535
1152.147,111.6016
1152.629,112.0893
1153.111,112.438
1153.593,112.1902
1154.075,111.4952
1154.557,110.9028
1155.039,110.4897
1155.521,110.3315
1156.004,110.7192
1156.486,111.1031
1156.968,111.1904
1157.45,111.098
1157.932,111.2087
1158.414,111.4927
1158.896,111.7863
1159.378,112.1108
1159.86,112.1347
1160.343,111.1824
1160.825,110.2609
1161.307,110.0448
1161.789,110.4812
1162.271,111.3282
1162.753,112.5586
1163.235,113.5588
1163.717,114.1421
1164.199,114.3491
1164.682,113.8637
1165.164,113.2519
1165.646,113.1983
1166.128,113.7699
1166.61,113.5019
1167.092,112.359
1167.574,111.3595
1168.056,110.8686
1168.539,110.943
1169.021,112.1464
1169.503,113.7054
1169.985,114.4948
1170.467,114.3141
1170.949,114.1399
1171.431,113.9961
1171.913,113.6711
1172.396,112.7066
1172.878,111.7929
1173.36,111.7653
1173.842,112.2845
1174.324,112.692
1174.806,112.8215
1175.288,113.1195
1175.77,113.6223
1176.252,114.1366
1176.734,114.7672
1177.217,115.1288
1177.699,114.4334
1178.181,113.0679
1178.663,112.1901
1179.145,112.011
1179.627,112.1553
1180.109,112.5974
1180.591,113.3511
1181.074,114.8769
1181.556,116.43
1182.038,116.9592
1182.52,116.5444
1183.002,115.7695
1183.484,114.3053
1183.966,113.4863
1184.448,113.6022
1184.931,114.0105
1185.413,113.9032
1185.895,113.6413
1186.377,113.8817
1186.859,114.5962
1187.341,115.1706
1187.823,115.5241
1188.305,115.6531
1188.787,115.536
1189.27,115.227
1189.752,114.5515
1190.234,113.8459
1190.716,113.7808
1191.198,114.4018
1191.68,114.9286
1192.162,115.3713
1192.644,115.3188
1193.126,114.4644
1193.609,113.4847
1194.091,113.7385
1194.573,114.5679
1195.055,114.5979
1195.537,113.5686
1196.019,113.1445
1196.501,114.173
1196.983,114.9425
1197.466,114.8828
1197.948,114.4021
1198.43,113.9532
1198.912,113.734
1199.394,114.4048
1199.876,116.3063
1200.358,117.2145
1200.84,116.1826
1201.323,115.0258
1201.805,114.3646
1202.287,114.0095
1202.769,113.439
1203.251,112.9119
1203.733,113.1088
1204.215,114.4327
1204.697,115.2928
1205.179,115.2895
1205.661,115.0766
1206.144,114.8673
1206.626,114.7137
1207.108,114.7732
1207.59,114.9749
1208.072,115.1958
1208.554,115.4749
1209.036,115.4757
1209.518,114.9473
1210.001,114.5743
1210.483,114.8492
1210.965,115.3744
1211.447,115.0675
1211.929,114.2768
1212.411,113.7396
1212.893,113.6369
1213.375,113.9695
1213.858,115.0714
1214.34,115.8284
1214.822,115.4013
1215.304,114.3649
1215.786,114.0445
1216.268,114.2269
1216.75,114.4524
1217.232,114.5675
1217.714,114.7939
1218.197,115.2719
1218.679,115.5906
1219.161,115.4723
1219.643,115.0288
1220.125,114.3642
1220.607,113.5796
1221.089,112.8863
1221.571,112.0628
1222.053,112.0095
1222.536,113.0634
1223.018,114.0812
1223.5,114.1903
1223.982,113.8213
1224.464,113.7114
1224.946,113.8108
1225.428,114.0069
1225.91,114.4257
1226.393,114.7182
1226.875,114.9702
1227.357,114.8231
1227.839,113.6928
1228.321,112.1975
1228.803,111.0955
1229.285,110.4727
1229.767,110.5638
1230.25,112.0479
1230.732,113.0257
1231.214,113.4479
1231.696,113.4829
1232.178,113.0905
1232.66,112.5134
1233.142,112.0746
1233.624,111.7172
1234.106,111.2714
1234.589,110.3995
1235.071,110.376
1235.553,111.3917
1236.035,112.3841
1236.517,112.5522
1236.999,112.231
1237.481,111.5346
1237.963,110.6969
1238.445,110.2527
1238.928,110.3405
1239.41,110.3792
1239.892,110.3301
1240.374,110.3986
1240.856,110.947
1241.338,111.4914
1241.82,111.5269
1242.302,111.651
1242.785,111.1066
1243.267,111.1893
1243.749,110.8946
1244.231,110.1688
1244.713,109.8311
1245.195,110.9807
1245.677,112.2343
1246.159,112.5558
1246.641,112.2378
1247.124,111.848
1247.606,111.37
1248.088,111.1406
1248.57,111.166
1249.052,110.8498
1249.534,108.8695
1250.016,107.4246
1250.498,108.4071
1250.98,110.3991
1251.463,111.5365
1251.945,111.8326
1252.427,112.5994
1252.909,113.7968
1253.391,114.3259
1253.873,112.66
1254.355,111.2001
1254.837,111.338
1255.32,111.9066
1255.802,111.4622
1256.284,110.2444
1256.766,109.8457
1257.248,110.2344
1257.73,110.6838
1258.212,111.0586
1258.694,111.0851
1259.177,110.5339
1259.659,109.8821
1260.141,109.6178
1260.623,109.6644
1261.105,109.8918
1261.587,110.2172
1262.069,110.3013
1262.551,109.6032
1263.033,109.2732
1263.516,109.5501
1263.998,109.9991
1264.48,110.3092
1264.962,110.4308
1265.444,110.099
1265.926,109.469
1266.408,109.1052
1266.89,109.3463
1267.372,109.4886
1267.855,109.4389
1268.337,109.4876
1268.819,110.1476
1269.301,110.8773
1269.783,110.8103
1270.265,110.1951
1270.747,109.7381
1271.229,109.5141
1271.712,109.4734
1272.194,109.6397
1272.676,109.7881
1273.158,109.8716
1273.64,109.7366
1274.122,108.9503
1274.604,107.9468
1275.086,107.5881
1275.568,107.9921
1276.051,108.314
1276.533,108.5321
1277.015,108.7504
1277.497,109.1792
1277.979,109.4815
1278.461,109.4124
1278.943,109.1153
1279.425,108.6501
1279.907,108.0272
1280.39,108.2131
1280.872,109.1045
1281.354,109.7466
1281.836,109.3018
1282.318,108.9289
1282.8,109.1029
1283.282,109.4342
1283.764,109.4757
1284.247,109.3855
1284.729,110.2591
1285.211,111.7551
1285.693,112.5723
1286.175,111.6923
1286.657,110.762
1287.139,109.8491
1287.621,109.2185
1288.104,109.1778
1288.586,109.5037
1289.068,109.7865
1289.55,110.0415
1290.032,110.3229
1290.514,111.0346
1290.996,110.7969
1291.478,109.3062
1291.96,108.1325
1292.443,108.5212
1292.925,109.4929
1293.407,110.0613
1293.889,110.2949
1294.371,110.2613
1294.853,109.9608
1295.335,109.5023
1295.817,108.8724
1296.299,108.4724
1296.782,108.4632
1297.264,108.8263
1297.746,109.904
1298.228,111.0812
1298.71,111.8658
1299.192,112.2383
1299.674,111.6132
1300.156,110.1596
1300.639,108.8839
1301.121,108.0186
1301.603,107.7848
1302.085,109.1801
1302.567,110.3396
1303.049,110.4127
1303.531,109.3786
