Raman Shift,Intensity
166.926,2840.0
168.308,2851.203
169.689,2835.391
171.07,2825.487
172.452,2799.0
173.833,2801.0
175.213,2803.0
176.594,2780.0
177.974,2804.0
179.354,2782.0
180.734,2778.0
182.114,2735.0
183.493,2767.0
184.872,2758.385
186.251,2852.0
187.63,2788.0
189.008,2795.0
190.387,2828.0
191.765,3399.0
193.143,3002.0
194.52,3457.0
195.898,3234.0
197.275,3158.0
198.652,3082.0
200.029,3030.0
201.405,3099.0
202.782,3023.0
204.158,3202.0
205.534,3242.0
206.909,3344.0
208.285,3500.0
209.66,3214.228
211.035,2954.0
212.41,2754.0
213.784,2811.0
215.159,2885.0
216.533,2982.0
217.907,3153.0
219.281,3435.0
220.654,3669.792
222.027,3966.0
223.4,4383.0
224.773,4903.0
226.146,5483.0
227.518,5406.0
228.891,4827.0
230.263,4078.0
231.634,3603.0
233.006,3283.0
234.377,3137.0
235.748,3072.0
237.119,3078.0
238.49,3164.0
239.86,3344.0
241.231,3572.0
242.601,4160.0
243.97,4493.0
245.34,4509.0
246.709,4488.0
248.079,4073.0
249.448,3733.0
250.816,3278.0
252.185,3044.0
253.553,2934.0
254.921,2833.0
256.289,2795.0
257.657,2678.0
259.024,2721.0
260.391,2681.0
261.758,2689.0
263.125,2638.0
264.492,2670.0
265.858,2691.0
267.224,2699.0
268.59,2783.0
269.956,2758.0
271.321,2766.0
272.687,2826.0
274.052,2906.0
275.416,2950.0
276.781,3063.0
278.146,3145.0
279.51,3238.0
280.874,3399.0
282.237,3648.0
283.601,3910.0
284.964,4263.0
286.327,4709.0
287.69,5328.0
289.053,6008.0
290.416,6570.0
291.778,7369.0
293.14,7572.0
294.502,7444.0
295.863,7132.0
297.225,6823.0
298.586,6582.0
299.947,6214.0
301.308,5637.0
302.668,5105.0
304.029,4585.0
305.389,4183.0
306.749,3753.0
308.108,3479.0
309.468,3336.0
310.827,3151.0
312.186,2967.0
313.545,2898.0
314.903,2838.0
316.262,2754.0
317.62,2721.0
318.978,2696.0
320.336,2702.0
321.693,2667.0
323.051,2564.0
324.408,2612.0
325.765,2556.0
327.121,2597.0
328.478,2606.0
329.834,2538.0
331.19,2515.0
332.546,2517.0
333.902,2519.0
335.257,2508.0
336.612,2501.0
337.967,2527.0
339.322,2475.0
340.677,2473.0
342.031,2502.0
343.385,2486.0
344.739,2466.0
346.093,2480.0
347.446,2496.0
348.799,2508.0
350.153,2526.0
351.505,2520.35
352.858,2546.0
354.21,2522.0
355.563,2523.0
356.915,2558.0
358.267,2511.0
359.618,2523.0
360.969,2576.0
362.321,2564.0
363.672,2560.769
365.022,2549.783
366.373,2610.0
367.723,2603.0
369.073,2610.721
370.423,2616.251
371.773,2631.0
373.122,2621.0
374.471,2674.0
375.821,2734.0
377.169,2697.0
378.518,2734.0
379.866,2708.0
381.215,2768.0
382.563,2794.0
383.91,2767.0
385.258,2793.0
386.605,2814.0
387.952,2867.0
389.299,2894.0
390.646,2988.0
391.992,2982.0
393.339,3097.0
394.685,3193.0
396.031,3307.0
397.376,3439.0
398.722,3562.0
400.067,3911.0
401.412,4217.0
402.757,4652.0
404.101,5132.0
405.446,5774.0
406.79,6454.0
408.134,7070.0
409.478,7661.0
410.821,8041.0
412.165,7894.0
413.508,7340.0
414.851,6799.0
416.193,5996.0
417.536,5312.0
418.878,4791.0
420.22,4378.0
421.562,3981.0
422.904,3707.0
424.245,3525.0
425.586,3371.0
426.927,3250.0
428.268,3125.994
429.609,3100.0
430.949,2979.0
432.289,2948.0
433.629,2988.0
434.969,2894.0
436.309,2854.0
437.648,2827.0
438.987,2810.0
440.326,2797.0
441.665,2785.286
443.003,2737.0
444.342,2775.0
445.68,2727.0
447.018,2723.0
448.355,2723.0
449.693,2698.0
451.03,2708.0
452.367,2696.155
453.704,2711.0
455.041,2645.0
456.377,2606.181
457.713,2654.032
459.049,2680.845
460.385,2687.75
461.721,2615.12
463.056,2645.193
464.391,2634.108
465.726,2621.334
467.061,2665.862
468.395,2643.0
469.73,2662.0
471.064,2688.0
472.398,2642.0
473.731,2706.0
475.065,2708.0
476.398,2720.0
477.731,2727.0
479.064,2757.0
480.397,2727.0
481.729,2758.0
483.062,2843.0
484.394,2836.0
485.725,2894.0
487.057,3065.0
488.389,3035.362
489.72,3178.0
491.051,3110.0
492.382,3231.0
493.712,3339.0
495.043,3432.0
496.373,3504.0
497.703,3499.0
499.032,3588.0
500.362,3604.0
501.691,3531.0
503.02,3489.0
504.349,3408.0
505.678,3329.0
507.007,3212.0
508.335,3170.0
509.663,3159.0
510.991,3076.0
512.319,3051.0
513.646,2989.0
514.973,2960.0
516.3,2873.0
517.627,2889.0
518.954,2886.0
520.28,2804.0
521.607,2832.0
522.933,2839.0
524.259,2779.0
525.584,2779.0
526.91,2779.0
528.235,2810.0
529.56,2719.0
530.885,2790.0
532.209,2777.0
533.534,2743.0
534.858,2770.0
536.182,2750.0
537.506,2838.0
538.829,2748.0
540.152,2810.0
541.476,2755.0
542.799,2782.0
544.121,2732.0
545.444,2756.0
546.766,2797.0
548.088,2780.0
549.41,2772.0
550.732,2790.0
552.053,2771.0
553.375,2816.0
554.696,2808.0
556.017,2797.0
557.337,2830.0
558.658,2856.0
559.978,2830.0
561.298,2806.0
562.618,2830.0
563.938,2854.0
565.257,2877.0
566.576,2865.0
567.895,2870.0
569.214,2891.0
570.533,2903.0
571.851,2854.0
573.17,2912.0
574.488,2949.0
575.805,2928.0
577.123,2882.0
578.44,2913.0
579.758,2910.0
581.075,2942.0
582.391,2933.0
583.708,2950.0
585.024,2952.0
586.341,2969.493
587.657,3021.0
588.972,3017.0
590.288,3050.0
591.603,3088.0
592.918,3092.603
594.233,3122.0
595.548,3126.081
596.863,3187.713
598.177,3215.0
599.491,3356.0
600.805,3434.0
602.119,3552.0
603.432,3683.0
604.746,3865.0
606.059,4050.0
607.372,4212.0
608.685,4422.021
609.997,4620.0
611.309,4745.0
612.621,4758.0
613.933,4714.0
615.245,4620.0
616.557,4463.096
617.868,4322.0
619.179,4060.0
620.49,3886.0
621.801,3718.0
623.111,3627.0
624.421,3479.0
625.731,3541.0
627.041,3344.0
628.351,3342.0
629.66,3535.0
630.97,3304.0
632.279,3259.0
633.588,3185.0
634.896,3143.0
636.205,3166.0
637.513,3194.0
638.821,3172.0
640.129,3220.0
641.437,3274.0
642.744,3240.0
644.051,3244.0
645.358,3309.0
646.665,3335.0
647.972,3330.0
649.278,3320.0
650.584,3418.0
651.89,3490.0
653.196,3522.098
654.502,3574.0
655.807,3602.0
657.113,3577.0
658.418,3567.0
659.722,3690.0
661.027,3604.0
662.331,3640.0
663.636,3670.0
664.94,3613.0
666.244,3509.0
667.547,3536.0
668.851,3410.0
670.154,3434.0
671.457,3399.0
672.76,3349.0
674.062,3396.0
675.365,3342.0
676.667,3243.0
677.969,3222.0
679.271,3150.0
680.572,3170.0
681.874,3116.0
683.175,3200.0
684.476,3159.0
685.777,3132.668
687.077,3127.649
688.378,3069.0
689.678,3058.0
690.978,3066.0
692.278,3043.0
693.577,3006.0
694.877,3020.0
696.176,3011.0
697.475,3042.0
698.774,3043.0
700.072,3046.0
701.371,3042.0
702.669,3040.0
703.967,2974.0
705.265,3017.0
706.562,3000.0
707.86,3019.0
709.157,2952.0
710.454,2972.0
711.751,2994.0
713.047,3027.0
714.344,2980.0
715.64,3008.0
716.936,3029.0
718.232,3002.0
719.527,3017.0
720.823,3047.0
722.118,2991.0
723.413,3030.0
724.708,3014.0
726.002,3032.0
727.297,3035.0
728.591,2990.0
729.885,3030.0
731.179,3029.0
732.472,2995.0
733.766,3077.0
735.059,3050.256
736.352,3050.0
737.645,3063.0
738.937,3039.0
740.23,3044.0
741.522,3031.0
742.814,3048.0
744.106,3077.0
745.397,3077.0
746.689,3084.0
747.98,3108.0
749.271,3114.0
750.562,3102.0
751.853,3132.0
753.143,3064.0
754.433,3129.0
755.723,3116.0
757.013,3108.0
758.303,3160.0
759.592,3080.0
760.881,3111.0
762.17,3136.0
763.459,3119.0
764.748,3121.0
766.036,3109.0
767.325,3155.0
768.613,3099.0
769.901,3158.0
771.188,3173.0
772.476,3062.0
773.763,3164.0
775.05,3176.0
776.337,3187.0
777.624,3161.0
778.91,3207.0
780.196,3200.0
781.482,3205.0
782.768,3229.0
784.054,3252.0
785.339,3209.655
786.625,3210.0
787.91,3160.0
789.195,3250.0
790.479,3322.0
791.764,3241.0
793.048,3344.0
794.332,3275.0
795.616,3325.0
796.9,3305.0
798.183,3304.0
799.467,3302.0
800.75,3310.094
802.033,3318.0
803.316,3344.0
804.598,3368.69
805.88,3393.921
807.163,3430.0
808.445,3442.0
809.726,3441.0
811.008,3469.0
812.289,3551.0
813.57,3459.0
814.851,3548.0
816.132,3507.0
817.413,3533.0
818.693,3502.0
819.973,3561.0
821.253,3496.0
822.533,3563.0
823.813,3569.0
825.092,3526.0
826.371,3520.0
827.65,3525.0
828.929,3514.0
830.208,3581.0
831.486,3562.0
832.764,3488.0
834.042,3460.0
835.32,3547.0
836.598,3490.0
837.875,3514.0
839.152,3481.0
840.429,3516.0
841.706,3504.0
842.983,3481.0
844.259,3487.0
845.536,3543.0
846.812,3459.0
848.088,3580.0
849.363,3458.0
850.639,3536.0
851.914,3494.0
853.189,3569.0
854.464,3562.152
855.739,3487.0
857.013,3551.0
858.288,3508.0
859.562,3500.976
860.836,3516.45
862.11,3526.463
863.383,3531.306
864.656,3515.502
865.93,3526.0
867.203,3527.0
868.475,3542.0
869.748,3531.0
871.02,3502.0
872.292,3511.0
873.564,3491.561
874.836,3516.0
876.108,3483.0
877.379,3521.0
878.65,3546.0
879.922,3532.0
881.192,3597.0
882.463,3543.0
883.733,3571.0
885.004,3542.0
886.274,3582.0
887.544,3568.0
888.813,3568.751
890.083,3576.0
891.352,3570.0
892.621,3582.401
893.89,3623.0
895.159,3611.0
896.427,3617.0
897.695,3648.0
898.964,3637.131
900.232,3637.0
901.499,3657.0
902.767,3649.0
904.034,3691.0
905.301,3686.0
906.568,3796.0
907.835,3721.0
909.102,3755.0
910.368,3728.0
911.634,3704.0
912.9,3804.0
914.166,3778.0
915.432,3762.0
916.697,3757.0
917.962,3740.0
919.227,3852.0
920.492,3814.0
921.757,3828.0
923.021,3791.0
924.285,3826.0
925.55,3857.0
926.813,3844.0
928.077,3868.0
929.341,3833.0
930.604,3865.0
931.867,3862.0
933.13,3908.0
934.393,3915.296
935.655,3966.0
936.918,3902.0
938.18,3972.0
939.442,3877.0
940.703,3967.0
941.965,3970.0
943.226,3943.0
944.488,3926.0
945.749,3947.0
947.009,4023.0
948.27,3976.0
949.53,4018.0
950.791,4047.0
952.051,4061.0
953.311,4057.0
954.57,4039.0
955.83,4065.0
957.089,4010.0
958.348,4080.0
959.607,4072.0
960.866,4052.0
962.124,4016.0
963.383,4064.0
964.641,4069.0
965.899,4070.0
967.156,4068.0
968.414,4108.0
969.671,4089.0
970.928,4093.057
972.185,4063.0
973.442,4077.0
974.699,4042.0
975.955,4033.0
977.211,4122.0
978.468,4054.0
979.723,4096.0
980.979,4107.0
982.234,4058.0
983.49,4156.0
984.745,4062.0
986.0,4097.0
987.254,4118.0
988.509,4030.0
989.763,4100.0
991.017,4099.0
992.271,4145.0
993.525,4149.0
994.779,4193.0
996.032,4160.0
997.285,4165.0
998.538,4142.0
999.791,4109.0
1001.044,4200.0
1002.296,4176.0
1003.548,4231.0
1004.8,4241.0
1006.052,4233.0
1007.304,4263.0
1008.555,4241.0
1009.807,4265.0
1011.058,4278.0
1012.309,4258.0
1013.559,4331.0
1014.81,4333.396
1016.06,4349.538
1017.31,4371.0
1018.56,4380.0
1019.81,4355.0
1021.06,4373.0
1022.309,4382.0
1023.558,4401.0
1024.807,4491.0
1026.056,4463.0
1027.305,4507.0
1028.553,4553.0
1029.801,4556.0
1031.049,4597.0
1032.297,4597.0
1033.545,4557.0
1034.793,4695.0
1036.04,4687.0
1037.287,4664.0
1038.534,4771.0
1039.781,4818.0
1041.027,4846.0
1042.274,4853.0
1043.52,4782.0
1044.766,4870.0
1046.012,4868.0
1047.257,4917.0
1048.503,4845.0
1049.748,4932.0
1050.993,4874.0
1052.238,4895.0
1053.483,4925.0
1054.727,4975.0
1055.971,4974.535
1057.216,5003.0
1058.459,4981.0
1059.703,4951.0
1060.947,4939.0
1062.19,4988.0
1063.433,4973.0
1064.676,4990.0
1065.919,4952.0
1067.162,4941.0
1068.404,5032.0
1069.646,4971.0
1070.888,4971.0
1072.13,4975.0
1073.372,4931.0
1074.613,4972.0
1075.855,4947.559
1077.096,4924.0
1078.337,4933.0
1079.578,4945.0
1080.818,4936.0
1082.059,4935.0
1083.299,4950.0
1084.539,4963.0
1085.779,4972.0
1087.018,4967.727
1088.258,4939.0
1089.497,4938.0
1090.736,4949.0
1091.975,4909.0
1093.213,4903.0
1094.452,4970.0
1095.69,4986.0
1096.928,4928.0
1098.166,5057.0
1099.404,5004.134
1100.642,4987.0
1101.879,4982.0
1103.116,4969.0
1104.353,4943.0
1105.59,4969.0
1106.827,4943.0
1108.063,4954.0
1109.299,4878.0
1110.536,4969.0
1111.771,4887.0
1113.007,4914.0
1114.243,5012.0
1115.478,4886.0
1116.713,4945.0
1117.948,4963.0
1119.183,4912.0
1120.418,4905.0
1121.652,4898.0
1122.886,4957.0
1124.12,4926.0
1125.354,4956.0
1126.588,4809.0
1127.821,4894.0
1129.055,4815.0
1130.288,4773.0
1131.521,4836.0
1132.753,4793.0
1133.986,4770.0
1135.218,4849.0
1136.45,4877.0
1137.682,4752.0
1138.914,4862.0
1140.146,4751.0
1141.377,4807.0
1142.609,4779.0
1143.84,4813.0
1145.071,4815.0
1146.301,4840.0
1147.532,4848.0
1148.762,4847.0
1149.992,4863.0
1151.222,4892.0
1152.452,4854.0
1153.682,4918.0
1154.911,4871.0
1156.14,4965.0
1157.369,4921.0
1158.598,4933.0
1159.827,4919.0
1161.055,4905.138
1162.284,5017.0
1163.512,4918.0
1164.74,4938.0
1165.967,5009.0
1167.195,4968.0
1168.422,5077.0
1169.65,5101.0
1170.877,5068.0
1172.103,5058.0
1173.33,5110.0
1174.557,5144.0
1175.783,5215.0
1177.009,5238.0
1178.235,5166.0
1179.461,5258.0
1180.686,5254.0
1181.912,5248.0
1183.137,5330.0
1184.362,5312.0
1185.587,5303.0
1186.811,5349.0
1188.036,5387.0
1189.26,5342.0
1190.484,5455.0
1191.708,5409.0
1192.932,5486.0
1194.155,5401.0
1195.378,5427.002
1196.602,5539.0
1197.825,5471.0
1199.047,5452.0
1200.27,5564.0
1201.492,5455.0
1202.715,5543.0
1203.937,5525.0
1205.159,5612.0
1206.38,5598.0
1207.602,5624.0
1208.823,5557.0
1210.044,5556.0
1211.265,5622.0
1212.486,5715.0
1213.707,5636.0
1214.927,5814.0
1216.147,5932.0
1217.367,5696.0
1218.587,5756.0
1219.807,5841.0
1221.027,5774.0
1222.246,5822.0
1223.465,5839.0
1224.684,5865.0
1225.903,5931.0
1227.121,5887.0
1228.34,5893.0
1229.558,6025.0
1230.776,5962.0
1231.994,6049.0
1233.212,6078.0
1234.429,6160.0
1235.646,6175.385
1236.864,6217.578
1238.081,6252.0
1239.297,6258.0
1240.514,6321.499
1241.73,6387.0
1242.947,6425.0
1244.163,6505.0
1245.378,6549.0
1246.594,6562.0
1247.81,6605.0
1249.025,6588.0
1250.24,6769.0
1251.455,6858.0
1252.67,6931.0
1253.885,6959.0
1255.099,6958.0
1256.313,7100.0
1257.527,7153.0
1258.741,7321.0
1259.955,7416.0
1261.168,7432.0
1262.382,7601.0
1263.595,7638.0
1264.808,7734.405
1266.021,7798.289
1267.233,7902.0
1268.446,7921.0
1269.658,7975.0
1270.87,8106.0
1272.082,8268.0
1273.294,8264.0
1274.505,8390.0
1275.716,8521.0
1276.928,8598.0
1278.139,8727.111
1279.349,8758.0
1280.56,8909.0
1281.77,9020.0
1282.981,9027.0
1284.191,9089.0
1285.401,9270.0
1286.61,9352.0
1287.82,9494.0
1289.029,9616.0
1290.239,9735.997
1291.448,9900.0
1292.656,10038.0
1293.865,10195.863
1295.073,10374.0
1296.282,10513.0
1297.49,10695.0
1298.698,10840.0
1299.906,11089.0
1301.113,11306.0
1302.32,11493.0
1303.528,11792.0
1304.735,12076.0
1305.942,12145.0
1307.148,12428.0
1308.355,12652.0
1309.561,12771.0
1310.767,13216.0
1311.973,13259.0
1313.179,13408.0
1314.384,13641.0
1315.59,13979.0
1316.795,13968.0
1318.0,14123.0
1319.205,14131.0
1320.41,14260.0
1321.614,14223.0
1322.819,14114.0
1324.023,14068.0
1325.227,13992.0
1326.431,13946.0
1327.634,13706.0
1328.838,13502.0
1330.041,13404.0
1331.244,13230.0
1332.447,13032.0
1333.65,12830.236
1334.852,12526.0
1336.055,12345.0
1337.257,12058.0
1338.459,11798.0
1339.661,11613.0
1340.862,11411.0
1342.064,11136.0
1343.265,10850.0
1344.466,10659.0
1345.667,10526.0
1346.868,10228.0
1348.068,10172.0
1349.269,9884.0
1350.469,9685.0
1351.669,9547.0
1352.869,9350.0
1354.069,9198.134
1355.268,9079.0
1356.468,8870.0
1357.667,8814.0
1358.866,8620.0
1360.065,8532.0
1361.263,8445.0
1362.462,8265.0
1363.66,8201.0
1364.858,8165.0
1366.056,7908.0
1367.254,7839.0
1368.451,7868.0
1369.649,7735.0
1370.846,7575.0
1372.043,7543.6
1373.24,7458.2
1374.436,7360.0
1375.633,7378.0
1376.829,7255.0
1378.025,7196.0
1379.221,7105.0
1380.417,7139.0
1381.613,7059.0
1382.808,6907.0
1384.003,6921.0
1385.199,6814.0
1386.393,6762.0
1387.588,6732.0
1388.783,6657.0
1389.977,6679.0
1391.171,6683.0
1392.365,6514.0
1393.559,6471.0
1394.753,6539.0
1395.946,6527.0
1397.14,6471.0
1398.333,6386.0
1399.526,6425.0
1400.719,6384.0
1401.911,6412.0
1403.104,6327.0
1404.296,6265.0
1405.488,6244.0
1406.68,6305.0
1407.872,6231.0
1409.063,6223.0
1410.255,6239.0
1411.446,6146.0
1412.637,6250.0
1413.828,6183.0
1415.018,6167.0
1416.209,6067.0
1417.399,6205.0
1418.589,6105.0
1419.779,6109.0
1420.969,6081.0
1422.159,6101.0
1423.348,6059.0
1424.537,6073.0
1425.726,6099.0
1426.915,6089.0
1428.104,6022.0
1429.293,6027.0
1430.481,6011.0
1431.669,6050.0
1432.857,5994.0
1434.045,5987.0
1435.233,6044.0
1436.42,6063.0
1437.608,6080.0
1438.795,5994.0
1439.982,6031.871
1441.169,6024.322
1442.355,6050.0
1443.542,6046.0
1444.728,6086.0
1445.914,6086.0
1447.1,6066.0
1448.286,6031.0
1449.472,6047.0
1450.657,6042.0
1451.842,6095.0
1453.027,6097.0
1454.212,6023.0
1455.397,6123.0
1456.581,6068.0
1457.766,6025.0
1458.95,6085.0
1460.134,6098.0
1461.318,6043.0
1462.501,6030.0
1463.685,6100.0
1464.868,6072.0
1466.051,6053.0
1467.234,6123.0
1468.417,6060.0
1469.6,6113.0
1470.782,6076.0
1471.965,6052.0
1473.147,6048.0
1474.329,6121.0
1475.51,6111.0
1476.692,6133.0
1477.873,6096.0
1479.055,6154.0
1480.236,6067.0
1481.416,6159.0
1482.597,6133.0
1483.778,6147.0
1484.958,6153.0
1486.138,6146.167
1487.318,6126.0
1488.498,6160.0
1489.678,6141.0
1490.857,6172.0
1492.037,6163.089
1493.216,6162.0
1494.395,6150.0
1495.574,6150.808
1496.752,6146.0
1497.931,6145.0
1499.109,6146.0
1500.287,6093.0
1501.465,6134.0
1502.643,6069.0
1503.82,6199.0
1504.998,6122.0
1506.175,6122.0
1507.352,6078.0
1508.529,6088.465
1509.706,6101.91
1510.882,6137.0
1512.059,6152.0
1513.235,6189.0
1514.411,6210.0
1515.587,6154.0
1516.762,6238.0
1517.938,6108.0
1519.113,6133.0
1520.288,6246.0
