Raman Shift,Intensity 
400,5.998813341
401,6.013093173
402,6.088958765
403,5.952081434
404,5.956574023
405,6.07314209
406,6.019433708
407,5.943481799
408,5.985415492
409,5.909374386
410,5.989440338
411,6.145278803
412,5.939923727
413,6.015044913
414,5.942987842
415,5.969363277
416,5.942642072
417,6.041375091
418,6.03535132
419,5.939543876
420,5.971256558
421,5.941565161
422,6.020417471
423,5.977452987
424,5.997367072
425,5.993554827
426,5.89828623
427,6.026424851
428,5.95097036
429,5.999757875
430,6.032388289
431,5.958830323
432,6.061311075
433,5.987139759
434,6.030621767
435,6.038749547
436,6.066570876
437,5.926365139
438,5.955778291
439,6.001003966
440,6.034977841
441,5.92062274
442,6.064578317
443,5.929790038
444,6.018707861
445,6.0485694
446,5.957663894
447,6.057503834
448,5.940176378
449,6.06605639
450,6.032251378
451,5.997943801
452,5.981090385
453,5.933922209
454,6.044799642
455,6.015228377
456,5.927932758
457,5.973262345
458,5.97383679
459,5.989081991
460,6.058314738
461,6.058589864
462,6.148387178
463,5.965330546
464,5.980592159
465,6.012665392
466,6.033050309
467,5.974282633
468,6.014714923
469,6.031738163
470,6.033849347
471,6.029563448
472,6.009976108
473,5.998438956
474,5.967793093
475,6.024318219
476,6.03118516
477,6.061524816
478,5.868689928
479,6.011018855
480,5.993115676
481,5.967783492
482,6.045268091
483,6.023002563
484,5.991308068
485,6.037928288
486,5.971238282
487,5.852577615
488,5.951104346
489,6.029859103
490,5.907123411
491,6.057306462
492,5.961861925
493,6.013865766
494,5.947968124
495,6.046537704
496,6.03923984
497,5.947819879
498,6.03719847
499,5.945402042
500,5.983357935
501,6.090217839
502,5.993975644
503,5.949036408
504,5.957205409
505,6.028663417
506,5.980246993
507,6.010367452
508,6.028751736
509,5.957062344
510,6.057504675
511,5.925800015
512,5.990369098
513,5.969183539
514,6.015548405
515,6.022984852
516,6.031372719
517,5.992493679
518,5.93098804
519,6.038520655
520,6.019906056
521,5.98165919
522,6.01209072
523,5.97390396
524,6.034618089
525,5.969974024
526,6.028814997
527,5.939363482
528,5.987854207
529,6.023928215
530,5.96718761
531,6.003215074
532,6.044065126
533,5.989800433
534,6.035993457
535,5.968858003
536,5.984782341
537,5.934119888
538,5.938777915
539,6.042623168
540,6.055912286
541,5.995715109
542,6.072736502
543,5.946432132
544,5.98279479
545,6.003677963
546,5.989461222
547,6.006755697
548,5.987520647
549,6.03308998
550,5.984956222
551,6.082721927
552,5.918738057
553,6.018641704
554,6.00309174
555,5.9366914
556,6.036991909
557,6.092980248
558,5.986841134
559,6.020876027
560,6.02178281
561,6.016043284
562,5.989170543
563,6.028536293
564,5.963820174
565,5.995887124
566,5.996622772
567,5.981837646
568,6.008761707
569,5.938186034
570,6.020445066
571,6.014730804
572,5.937243979
573,5.919908939
574,5.94975245
575,6.036747943
576,6.023581127
577,6.058580558
578,5.970943749
579,5.975085601
580,5.988298429
581,5.999574544
582,5.977842523
583,5.972721906
584,5.954058474
585,5.890191676
586,5.980321069
587,5.993077389
588,6.006511054
589,6.116066201
590,5.928438989
591,6.041988394
592,6.072949248
593,6.037270899
594,5.975371286
595,5.938192847
596,6.002079601
597,6.072699341
598,6.017828186
599,6.042716726
600,6.000888642
601,6.007868508
602,6.034049928
603,6.002926157
604,5.995775416
605,5.933740673
606,6.017643636
607,6.064951192
608,6.049177135
609,6.036540721
610,5.943288289
611,5.984380723
612,6.039992664
613,5.918156173
614,6.015186495
615,5.966823513
616,5.99918924
617,5.926276532
618,6.064820165
619,5.995836944
620,5.894459901
621,6.00757146
622,6.007018177
623,5.845914511
624,5.985675909
625,5.900445335
626,6.008086692
627,6.073439114
628,5.937471918
629,6.001821416
630,5.997171706
631,6.081575007
632,5.98412214
633,6.033213371
634,5.914235527
635,6.080813725
636,6.031509809
637,6.125829712
638,5.999028231
639,5.904482918
640,5.990764533
641,6.038748545
642,5.947631687
643,5.953538121
644,6.007615628
645,6.040065141
646,5.9641861
647,6.01937717
648,6.010192694
649,5.970738394
650,5.95692536
651,5.978647038
652,5.972182227
653,5.903633774
654,6.039754883
655,6.049332027
656,6.116858217
657,5.976882877
658,5.975781017
659,6.103867204
660,5.980188518
661,6.02147097
662,6.059374246
663,6.027913416
664,5.977507688
665,5.908580398
666,5.938790423
667,5.99391569
668,6.02668616
669,6.009217035
670,6.047977984
671,5.965247789
672,5.979312586
673,5.96995252
674,5.991373725
675,6.051342569
676,6.001926099
677,6.080949077
678,5.974190963
679,6.065360402
680,6.051890083
681,6.018387555
682,5.915904783
683,6.050129911
684,5.99204979
685,6.024265109
686,6.055918302
687,5.992397851
688,5.969044377
689,5.947662454
690,6.064004227
691,5.967444514
692,5.975865433
693,6.097818029
694,6.084704411
695,6.04356087
696,6.014881057
697,6.023582109
698,5.961106543
699,6.032014888
700,5.982714259
701,5.948371272
702,6.059985044
703,6.019833691
704,5.920711488
705,5.985273475
706,6.011695537
707,6.017763761
708,6.047164356
709,6.032811855
710,5.848852623
711,5.946873567
712,6.05211895
713,5.950196279
714,5.927260992
715,6.00327176
716,6.013228674
717,6.072459034
718,5.989368604
719,6.040677576
720,5.96414467
721,5.98662135
722,6.045253398
723,6.105472443
724,6.008960605
725,6.056765329
726,6.087168643
727,6.002129669
728,6.011772873
729,6.005134688
730,6.085574284
731,5.976987923
732,6.072102
733,5.983586003
734,6.009874765
735,5.927362668
736,5.997500096
737,6.000522606
738,6.067877255
739,5.987382696
740,6.003825837
741,6.029473324
742,6.04779698
743,6.017596347
744,5.973816241
745,6.004196597
746,6.070618496
747,5.933899316
748,5.971460598
749,6.024378405
750,6.056231436
751,5.975939432
752,5.848922182
753,6.011531014
754,5.96013696
755,6.072687282
756,6.063859183
757,5.981011715
758,5.950579712
759,5.978095934
760,5.888124642
761,5.986364417
762,6.011536455
763,6.056384996
764,6.05410893
765,6.00656754
766,5.924524181
767,6.074351814
768,6.015301688
769,6.041740667
770,6.061120123
771,6.06469568
772,5.959634459
773,6.002690472
774,5.999306671
775,5.905374873
776,5.930679588
777,6.031979103
778,6.073285873
779,6.059634658
780,6.001656081
781,6.030832979
782,6.103763296
783,6.01046225
784,6.007614229
785,6.003866929
786,5.936815288
787,5.953414149
788,6.012274315
789,5.988850265
790,5.99063811
791,6.000141418
792,5.969778841
793,6.01013369
794,6.02946457
795,6.043791552
796,5.982864121
797,6.010847841
798,6.023963447
799,6.033541482
800,5.942997038
801,6.035754197
802,5.940938978
803,5.943325694
804,6.074200608
805,5.992111365
806,5.961041727
807,5.860746167
808,5.928982043
809,5.900051105
810,6.012725624
811,5.894132011
812,5.986081938
813,5.900831077
814,5.95760804
815,6.079605507
816,5.978470626
817,6.053821197
818,5.998926373
819,6.010764092
820,6.039013566
821,5.926618764
822,6.063946425
823,6.014798163
824,5.942983526
825,6.051154578
826,5.957567877
827,5.975620764
828,6.00229758
829,6.019095286
830,6.073741218
831,5.938636658
832,5.938566738
833,6.051737162
834,6.071682984
835,5.938083696
836,5.936841396
837,5.993589907
838,6.037510438
839,6.034107407
840,5.958176427
841,5.907627498
842,5.957443119
843,5.978669646
844,6.058289523
845,6.040154474
846,6.014653891
847,6.060568999
848,5.993636315
849,5.979672263
850,6.073665108
851,5.963106242
852,5.911302306
853,6.096593187
854,6.014548838
855,5.870871968
856,6.017597866
857,6.137054379
858,6.015994387
859,6.001925218
860,5.994664671
861,6.025303185
862,5.997938153
863,6.021475105
864,6.038971465
865,5.984124193
866,6.101183731
867,6.025115738
868,5.998855515
869,6.098787526
870,5.966024817
871,6.144727168
872,6.034571511
873,6.008527238
874,6.043169521
875,6.044578381
876,6.043049122
877,5.946276057
878,6.065261986
879,6.062523672
880,6.038472003
881,5.979642537
882,6.0270689
883,6.002993019
884,6.02929611
885,6.019249952
886,5.914203297
887,5.963451783
888,6.007386394
889,5.95752421
890,6.029481183
891,5.962885415
892,5.945604837
893,6.080937633
894,5.973420396
895,6.00291624
896,6.12062466
897,5.980362085
898,5.956217778
899,6.031846001
900,5.953419462
901,5.9760396
902,6.084288669
903,5.939275223
904,6.000528869
905,6.049679103
906,6.050197064
907,5.948252165
908,5.965264192
909,6.01083348
910,6.00804571
911,6.019856405
912,6.016732874
913,6.026646597
914,6.009467876
915,5.99638059
916,6.018247966
917,6.018555199
918,6.037157263
919,5.982892253
920,6.04795321
921,6.026386902
922,5.987869688
923,6.023399053
924,5.951422228
925,5.991096324
926,6.019818162
927,5.965319297
928,5.981638301
929,6.005156595
930,6.000502877
931,5.950642722
932,5.933587899
933,5.953274448
934,6.086208731
935,5.979232194
936,5.990858723
937,5.955262314
938,6.02535831
939,6.105455378
940,6.014875207
941,6.068753817
942,5.969675107
943,6.072387988
944,5.970104518
945,6.008636709
946,6.013165663
947,5.953930521
948,6.037186877
949,5.998106568
950,5.910642329
951,5.914308914
952,6.033940129
953,6.01560297
954,6.016467366
955,6.065904619
956,6.001356982
957,6.021722603
958,5.887837459
959,6.055607227
960,5.945368954
961,5.993517584
962,6.02866372
963,6.047560762
964,5.977452313
965,5.942290556
966,5.973375982
967,5.953033967
968,6.005332699
969,5.978509938
970,6.049651028
971,6.046157586
972,5.908489159
973,5.99364863
974,6.018196841
975,6.062499469
976,5.955818854
977,5.981325805
978,5.974274387
979,6.027606868
980,5.979713
981,6.044420478
982,6.078522924
983,6.041620784
984,5.952549845
985,5.931947029
986,6.078262493
987,6.040303847
988,6.000269054
989,5.952327128
990,6.083548456
991,5.973917154
992,6.019946191
993,6.058441717
994,5.988829729
995,6.098974461
996,6.023766643
997,6.04351651
998,5.94688555
999,6.090689578
1000,6.034785109
1001,6.023175334
1002,5.980283108
1003,6.045380743
1004,5.920926575
1005,5.952638218
1006,6.105767082
1007,6.047438607
1008,6.055116153
1009,5.969020138
1010,6.037459262
1011,6.023747298
1012,5.989825948
1013,5.921115762
1014,5.937090591
1015,6.048914978
1016,5.871475853
1017,5.95882125
1018,6.046277287
1019,5.930483734
1020,5.927285341
1021,5.887143579
1022,6.047564109
1023,6.01272043
1024,6.05445217
1025,6.038638023
1026,5.932659826
1027,5.962092326
1028,5.996182003
1029,5.906852091
1030,6.074381824
1031,6.060410734
1032,6.054830081
1033,5.965430472
1034,6.006471949
1035,5.942874848
1036,6.018047952
1037,5.990891684
1038,6.017615114
1039,6.019899685
1040,6.068405402
1041,5.964734651
1042,6.044281527
1043,5.967419208
1044,5.967119449
1045,5.90379159
1046,5.971690017
1047,5.991206617
1048,6.051836674
1049,6.04679083
1050,6.034160972
1051,6.017081842
1052,6.006273289
1053,6.0589475
1054,5.89709925
1055,6.05913744
1056,5.882744337
1057,6.047928168
1058,5.966075195
1059,5.9600425
1060,5.999963791
1061,6.065819941
1062,6.052979482
1063,6.000437291
1064,6.044920996
1065,5.964702343
1066,6.056401114
1067,5.994804828
1068,6.003292277
1069,5.986980071
1070,5.94863462
1071,5.958210401
1072,6.106126413
1073,6.011850621
1074,6.114156834
1075,5.883270782
1076,6.057857047
1077,5.920915081
1078,6.077547636
1079,6.018555415
1080,6.011832618
1081,6.024005645
1082,5.998181138
1083,5.961966
1084,5.997455608
1085,5.945973372
1086,6.04408579
1087,6.05929589
1088,5.975716903
1089,6.014664351
1090,5.970795116
1091,5.962609273
1092,6.019626056
1093,5.952145575
1094,6.000339487
1095,6.051304185
1096,6.034433897
1097,5.988385292
1098,5.985439322
1099,5.948621749
1100,6.114932293
1101,5.956379142
1102,5.996140772
1103,5.978885913
1104,6.039627195
1105,5.977126533
1106,6.016250011
1107,6.003387106
1108,5.912661344
1109,6.098860134
1110,5.98633414
1111,6.059700485
1112,5.968906909
1113,5.977599208
1114,5.977293314
1115,5.968091275
1116,5.988919791
1117,5.978345927
1118,6.000185166
1119,5.968187577
1120,6.118499091
1121,5.991843913
1122,5.964725157
1123,6.028107007
1124,5.932084162
1125,5.908756035
1126,6.009768198
1127,6.112774793
1128,6.099308316
1129,6.022272072
1130,5.964834991
1131,6.059719788
1132,5.961867414
1133,6.016946799
1134,6.083409916
1135,5.975917935
1136,6.024322904
1137,6.097658505
1138,6.040687959
1139,6.027409574
1140,6.021337747
1141,6.029567821
1142,5.984511999
1143,6.015374955
1144,6.042942562
1145,6.000779274
1146,5.953603946
1147,6.002882961
1148,5.997853355
1149,6.008746847
1150,6.046726413
1151,5.994267124
1152,5.993927669
1153,5.899878338
1154,5.894645933
1155,6.03059883
1156,5.971288463
1157,5.966045854
1158,6.083500143
1159,6.068415889
1160,6.099963288
1161,6.057772779
1162,6.022927358
1163,6.096735351
1164,5.991778662
1165,6.030486002
1166,5.901233745
1167,6.025743916
1168,5.968863702
1169,5.938131141
1170,5.972311704
1171,5.945583387
1172,5.917459234
1173,5.96134298
1174,5.969207919
1175,6.01068298
1176,6.062196101
1177,5.959715278
1178,6.008663768
1179,6.038523938
1180,5.940723157
1181,6.067455221
1182,6.047180047
1183,5.985109009
1184,6.009854103
1185,6.003738151
1186,5.944260147
1187,6.043649088
1188,5.994949813
1189,5.95543746
1190,6.029894685
1191,6.053038894
1192,6.073705457
1193,5.991861792
1194,5.993177766
1195,5.939266622
1196,6.004091711
1197,6.000179979
1198,5.968594334
1199,5.912568705
1200,5.924753154
1201,6.014676557
1202,6.059545849
1203,5.952297712
1204,6.110676629
1205,5.994198217
1206,6.003072305
1207,5.977714482
1208,6.06944794
1209,5.953900058
1210,5.977810635
1211,6.033438984
1212,6.035328449
1213,5.98717318
1214,6.009840307
1215,5.974862207
1216,6.026699969
1217,6.018399003
1218,5.920388548
1219,6.055133727
1220,5.929894235
1221,6.063536864
1222,6.075670896
1223,6.039356952
1224,6.096069134
1225,6.029452234
1226,5.958257266
1227,6.010740666
1228,6.022084227
1229,5.953159274
1230,6.02515476
1231,5.963835881
1232,6.000309578
1233,6.012634153
1234,5.954373376
1235,6.040785641
1236,6.05177629
1237,5.902791504
1238,6.020413444
1239,5.950201471
1240,5.965134525
1241,5.962920303
1242,5.987987287
1243,6.08545939
1244,5.948860883
1245,6.100914512
1246,5.993195086
1247,5.998495039
1248,5.941798283
1249,6.071363685
1250,5.983243625
1251,6.052749505
1252,5.982287887
1253,6.040939606
1254,5.904779797
1255,6.024779468
1256,5.996436668
1257,6.016956483
1258,6.026890607
1259,5.970369842
1260,6.057759033
1261,6.044721175
1262,6.011914627
1263,6.002479175
1264,5.994977123
1265,6.064903161
1266,5.92137477
1267,6.00578822
1268,5.962784349
1269,5.956062784
1270,5.944043532
1271,5.956338555
1272,6.001542502
1273,5.9905455
1274,6.000704137
1275,5.975412918
1276,5.93094807
1277,5.993926645
1278,5.931231075
1279,5.937836822
1280,6.008354371
1281,5.979844596
1282,6.057875822
1283,6.034817216
1284,5.959019598
1285,6.008823402
1286,6.001319182
1287,6.024661842
1288,6.05063663
1289,5.983934268
1290,5.911615541
1291,6.069185633
1292,6.035133446
1293,6.086151757
1294,5.996691418
1295,5.939826471
1296,6.05807428
1297,6.058670905
1298,6.039494849
1299,6.003002325
1300,5.985681722
1301,5.900339373
1302,5.968707589
1303,5.972575701
1304,6.118949953
1305,5.934272703
1306,5.950799642
1307,6.030103586
1308,6.001537057
1309,6.002147174
1310,6.008287944
1311,5.942786117
1312,6.000250011
1313,5.973389233
1314,5.977926035
1315,6.017746748
1316,6.080043696
1317,6.023869069
1318,6.027488272
1319,5.928382056
1320,5.98487353
1321,6.107982156
1322,6.005307524
1323,6.030231863
1324,6.046797042
1325,5.980964012
1326,5.952049753
1327,6.01593839
1328,5.961949373
1329,5.960031524
1330,5.977024017
1331,5.963427694
1332,5.999960775
1333,5.951764925
1334,6.025774073
1335,5.932996887
1336,6.036349064
1337,6.000330199
1338,6.00220803
1339,6.005001235
1340,6.030171164
1341,6.017534211
1342,6.028299695
1343,5.988927481
1344,6.002944572
1345,5.965193227
1346,6.049796374
1347,6.023246745
1348,5.993732022
1349,5.912232521
1350,6.049255969
1351,5.961089803
1352,6.004632357
1353,6.013937008
1354,5.995276287
1355,6.050962451
1356,5.970866445
1357,5.973672418
1358,5.964376109
1359,6.053425174
1360,6.084639949
1361,6.057034771
1362,6.079884913
1363,5.976879138
1364,6.037346113
1365,6.047119205
1366,5.987395662
1367,5.926277504
1368,6.077725988
1369,6.01582574
1370,5.910649025
1371,6.097290471
1372,6.074411391
1373,5.942997878
1374,5.97004003
1375,6.01208297
1376,5.967932725
1377,5.971406153
1378,6.076068131
1379,5.977582076
1380,6.035927041
1381,5.985929213
1382,5.949021217
1383,5.944688438
1384,6.014009403
1385,5.963085826
1386,5.956231459
1387,6.055865233
1388,6.019655494
1389,5.984126731
1390,6.030120449
1391,5.966515023
1392,6.079028801
1393,5.937731403
1394,5.979972378
1395,5.948935757
1396,6.014322488
1397,6.042620609
1398,6.033429969
1399,5.999164041
1400,6.007519662
1401,5.989744364
1402,6.005646591
1403,6.005546631
1404,6.025134955
1405,6.062550231
1406,5.997002278
1407,6.047583671
1408,6.02081546
1409,5.982964054
1410,6.00764979
1411,6.038771389
1412,5.972416438
1413,5.968954461
1414,5.988481301
1415,5.954268401
1416,5.999347641
1417,5.992852218
1418,6.099800959
1419,5.985206942
1420,6.082354415
1421,5.944483133
1422,6.057720977
1423,5.954726677
1424,6.027871779
1425,5.956355589
1426,6.01616569
1427,5.976957321
1428,6.013209628
1429,6.06072747
1430,5.95009444
1431,5.995855961
1432,6.022228432
1433,5.936797328
1434,5.978498243
1435,5.997636239
1436,5.994494304
1437,6.12120112
1438,6.01921742
1439,5.9889107
1440,6.027312454
1441,6.01844098
1442,6.003013988
1443,6.005679212
1444,5.961240275
1445,6.070935279
1446,6.036111602
1447,6.036718635
1448,5.924064907
1449,6.020085477
1450,5.948645457
1451,5.994502068
1452,5.979482343
1453,6.010163368
1454,6.060515643
1455,5.972787933
1456,5.986734842
1457,5.953935554
1458,6.009623064
1459,6.089656875
1460,6.082787882
1461,6.003270489
1462,6.038541595
1463,5.918451414
1464,5.989920315
1465,6.040170188
1466,6.016656621
1467,6.037914612
1468,6.01674141
1469,5.86688572
1470,5.934830931
1471,5.958204887
1472,5.939773917
1473,6.029792648
1474,5.963980213
1475,5.942642791
1476,5.998475461
1477,6.054173825
1478,5.990280439
1479,5.973332467
1480,5.984542337
1481,6.005795787
1482,6.027665646
1483,5.956936394
1484,6.019443927
1485,6.061923111
1486,6.015273269
1487,6.005186335
1488,5.987909932
1489,5.879650036
1490,6.039962543
1491,6.034632877
1492,5.93955574
1493,6.005703628
1494,6.001237705
1495,6.008226486
1496,5.967977387
1497,5.991271351
1498,6.020742255
1499,6.068939984
1500,5.997547447
1501,6.060890577
1502,5.977235996
1503,5.965226323
1504,5.987709074
1505,5.965323342
1506,6.009688362
1507,5.975504307
1508,5.997794419
1509,5.999304621
1510,5.998161269
1511,5.977724921
1512,6.022111668
1513,6.034593462
1514,5.982702352
1515,5.972214951
1516,6.043554236
1517,5.931641074
1518,5.927131527
1519,5.956648101
1520,5.963105871
1521,6.022722317
1522,5.946360659
1523,5.989078991
1524,5.893932916
1525,5.918424938
1526,5.998231742
1527,6.030468498
1528,6.06782704
1529,5.988029944
1530,5.920609064
1531,5.939280302
1532,5.927310153
1533,6.060275406
1534,5.976211654
1535,6.028971952
1536,6.055008792
1537,5.906136296
1538,6.020267041
1539,6.012357071
1540,6.027498249
1541,5.989070891
1542,5.934138767
1543,6.039321724
1544,6.029369981
1545,5.916435741
1546,5.994611583
1547,5.971800449
1548,6.007768727
1549,6.048454242
1550,6.065061767
1551,6.095750622
1552,6.04801002
1553,6.006996516
1554,6.002368687
1555,6.009552676
1556,5.978304321
1557,6.004102471
1558,6.015611553
1559,5.94629876
1560,5.966810672
1561,6.00716536
1562,5.995095484
1563,5.959877841
1564,6.054759576
1565,5.941512995
1566,6.034417401
1567,6.027154964
1568,5.97790611
1569,6.017832257
1570,6.06202913
1571,5.982923697
1572,5.960407926
1573,6.009832843
1574,5.918313539
1575,6.022427766
1576,5.95181827
1577,5.998682808
1578,5.941776222
1579,5.979867158
1580,6.042537207
1581,5.886709245
1582,5.995880173
1583,5.956708404
1584,6.086431852
1585,6.081873851
1586,5.966676165
1587,5.950054559
1588,5.968518227
1589,6.035933659
1590,6.080891252
1591,6.053599512
1592,6.003431216
1593,6.042492743
1594,5.874098757
1595,6.011576001
1596,5.968044607
1597,5.997269952
1598,5.943640008
1599,5.88887215
1600,5.96041401
1601,6.022714873
1602,6.040322127
1603,5.954949559
1604,5.989950069
1605,6.043625788
1606,5.925003894
1607,6.00353427
1608,5.955812686
1609,5.967832815
1610,5.94108374
1611,5.99347094
1612,6.055394486
1613,6.00697335
1614,6.035736524
1615,6.004969613
1616,6.038525899
1617,5.980345366
1618,5.923009473
1619,6.009416726
1620,5.934147607
1621,5.914790868
1622,6.025001114
1623,5.980542622
1624,6.028306135
1625,5.969403121
1626,6.025633234
1627,6.069004539
1628,6.008678305
1629,6.019156835
1630,5.969683919
1631,5.998550611
1632,6.061401119
1633,5.94859276
1634,5.930841144
1635,6.001859224
1636,5.971357736
1637,6.012726429
1638,5.98103313
1639,6.011371409
1640,5.94837109
1641,6.025325562
1642,6.037979874
1643,5.9931287
1644,6.01842212
1645,5.939660531
1646,5.980625957
1647,6.053333926
1648,5.989099092
1649,5.965154905
1650,5.986072505
1651,5.976604289
1652,6.034482334
1653,6.028768642
1654,5.971667051
1655,5.983889765
1656,6.129746549
1657,5.975232285
1658,6.035941968
1659,6.02971437
1660,5.964697207
1661,5.935927128
1662,6.080225187
1663,6.02978017
1664,5.96681003
1665,6.008397406
1666,5.992113354
1667,5.998705568
1668,5.966308941
1669,6.023005786
1670,6.001145691
1671,5.984866537
1672,6.08156847
1673,6.034975406
1674,6.071314227
1675,5.992027245
1676,6.010018178
1677,6.056028885
1678,5.961715142
1679,5.971858367
1680,6.0279705
1681,6.085660848
1682,5.943905487
1683,5.974184947
1684,5.975472769
1685,5.961607801
1686,5.930126573
1687,5.977643126
1688,6.078350239
1689,6.094063242
1690,6.032588197
1691,6.007135853
1692,6.022699869
1693,6.046530502
1694,5.962647412
1695,5.963176238
1696,6.105855919
1697,6.096156036
1698,6.02828039
1699,5.99975057
1700,6.014787779
1701,5.945296859
1702,6.009410051
1703,6.036404583
1704,5.91092957
1705,6.000157702
1706,5.980189631
1707,5.99798518
1708,5.980556299
1709,6.052947281
1710,6.01956472
1711,6.013425322
1712,6.001411988
1713,6.029393216
1714,6.013324895
1715,5.964514416
1716,6.004168376
1717,6.021988919
1718,5.958069293
1719,5.914172818
1720,6.037402317
1721,6.024457112
1722,5.992966647
1723,5.963036268
1724,5.970033337
1725,6.000717873
1726,5.982612321
1727,6.001512731
1728,5.966737974
1729,5.921405127
1730,5.994715277
1731,5.94530771
1732,5.969742048
1733,6.00495103
1734,6.016146289
1735,6.022092318
1736,6.06922975
1737,5.931283187
1738,6.005312293
1739,5.903454214
1740,6.059197277
1741,6.024777763
1742,6.005238701
1743,6.025014589
1744,5.999546154
1745,5.972489204
1746,5.995401503
1747,6.003373792
1748,6.033561943
1749,5.973781458
1750,5.941532994
1751,5.991192523
1752,5.950572884
1753,5.971630964
1754,5.960688574
1755,5.981407496
1756,5.964133109
1757,6.006207455
1758,5.950398196
1759,6.02018369
1760,6.074344492
1761,6.005545549
1762,6.045461114
1763,6.004925465
1764,6.003706752
1765,5.943635803
1766,6.02683887
1767,6.021389269
1768,5.979553621
1769,6.005262413
1770,6.002452336
1771,6.039439738
1772,5.981103556
1773,6.020726575
1774,6.086604453
1775,5.931034112
1776,6.043318801
1777,6.069817899
1778,5.926520018
1779,6.045044718
1780,5.924659514
1781,5.92712617
1782,5.957281076
1783,6.166108185
1784,5.966618411
1785,6.078762649
1786,5.979091441
1787,6.037055528
1788,5.899489945
1789,6.02431014
1790,5.952084394
1791,5.932497347
1792,5.978268447
1793,5.973800802
1794,6.078305303
1795,6.012935209
1796,6.103596351
1797,5.960857543
1798,6.019723345
1799,6.007312406
1800,5.967683845
1801,6.052736445
1802,5.936165276
1803,5.992116296
1804,6.050339525
1805,6.019549816
1806,6.00548108
1807,5.951846565
1808,5.956465712
1809,5.997978199
1810,6.014865807
1811,6.031180117
1812,5.999789384
1813,6.010562977
1814,6.010188676
1815,5.986243383
1816,6.005621675
1817,5.955337837
1818,6.02150704
1819,5.909693162
1820,6.060216383
1821,6.059698515
1822,5.893753354
1823,6.028834303
1824,5.961093928
1825,6.041781733
1826,6.026334556
1827,6.010920145
1828,6.011149243
1829,5.900695333
1830,5.997724008
1831,5.993469714
1832,5.959411604
1833,5.963617186
1834,6.03599935
1835,6.059576744
1836,5.998995564
1837,5.971608144
1838,6.031320886
1839,5.940655495
1840,6.017131807
1841,6.007506923
1842,6.029147877
1843,6.043988761
1844,5.952421147
1845,6.016646252
1846,6.013592458
1847,5.953613339
1848,6.143322681
1849,5.999261823
1850,5.980207737
1851,6.057349376
1852,6.052908433
1853,6.040852172
1854,6.049909995
1855,5.962180487
1856,5.965923563
1857,5.901849866
1858,5.978147414
1859,5.985714904
1860,5.996358361
1861,5.976629533
1862,5.957985227
1863,6.012432989
1864,6.078308878
1865,6.005977327
1866,6.13963278
1867,6.100222312
1868,5.917651168
1869,5.995031568
1870,5.903157556
1871,5.956795277
1872,5.95276648
1873,5.892245138
1874,6.00105305
1875,5.962246881
1876,5.982865624
1877,5.961920102
1878,5.989353099
1879,6.095381183
1880,5.929045396
1881,5.956462287
1882,5.993733033
1883,5.986024201
1884,6.061509004
1885,6.088538208
1886,5.929074756
1887,6.021381755
1888,6.154362939
1889,6.040671595
1890,5.923513631
1891,5.948547527
1892,5.901041017
1893,5.998476152
1894,5.908050002
1895,5.98329232
1896,5.985054134
1897,5.912723078
1898,5.962933051
1899,5.976163549
1900,6.026672051
1901,5.982702695
1902,5.940932546
1903,6.061987126
1904,5.992920798
1905,6.049211399
1906,5.892212553
1907,6.059333131
1908,6.007471558
1909,6.030886732
1910,6.011851903
1911,6.095168837
1912,5.973826907
1913,5.971826307
1914,5.959041045
1915,5.875376708
1916,6.044161264
1917,6.023682954
1918,6.039263842
1919,6.05153059
1920,5.975761548
1921,6.069517005
1922,6.0276799
1923,6.058272747
1924,6.047715925
1925,5.978088486
1926,5.962080473
1927,6.034168564
1928,6.028357376
1929,6.126172493
1930,5.981733085
1931,6.047261461
1932,5.939309972
1933,6.023779753
1934,5.907586198
1935,6.066698171
1936,5.912472553
1937,6.021622375
1938,5.953468004
1939,6.044948145
1940,6.043637894
1941,6.045051674
1942,6.10124639
1943,5.975076328
1944,6.008088517
1945,6.020244416
1946,6.043535734
1947,5.93666708
1948,6.038677249
1949,5.954558657
1950,5.961349182
1951,6.035863487
1952,5.998407416
1953,5.953079917
1954,6.013669304
1955,5.986252549
1956,6.024086529
1957,5.99147179
1958,5.887497025
1959,6.018193857
1960,6.071523939
1961,5.950189997
1962,6.036733156
1963,6.012236818
1964,5.896218259
1965,6.015039301
1966,5.958341404
1967,5.956880797
1968,5.984774553
1969,5.947562469
1970,6.015273603
1971,6.013930469
1972,6.090007526
1973,6.009863795
1974,6.071401939
1975,6.073438773
1976,5.941748498
1977,5.93388085
1978,6.062798946
1979,6.067749331
1980,6.03403203
1981,6.065024247
1982,6.018834771
1983,5.928084998
1984,6.032224239
1985,5.98478551
1986,5.978398672
1987,6.067833288
1988,6.105252802
1989,6.036847036
1990,6.017683329
1991,5.975352524
1992,6.064539151
1993,6.102613326
1994,5.93092341
1995,6.015123526
1996,6.027232003
1997,5.947823455
1998,6.036084003
1999,5.992676982
2000,5.92831277
2001,6.098739394
2002,5.985268932
2003,6.04191543
2004,6.046712367
2005,6.00221799
2006,5.927711975
2007,5.928394512
2008,6.006295975
2009,6.001533683
2010,5.99431811
2011,6.066934063
2012,5.913028905
2013,5.948463836
2014,6.018342469
2015,5.999244187
2016,5.929535205
2017,6.028562474
2018,5.992843865
2019,5.949835739
2020,6.095821949
2021,5.954674543
2022,6.086579171
2023,6.02136434
2024,5.929722895
2025,5.953462532
2026,6.017725095
2027,6.018335817
2028,5.856574671
2029,5.988600953
2030,5.998794993
2031,5.975385441
2032,6.029612748
2033,5.970859477
2034,6.066761021
2035,6.029704265
2036,5.853057017
2037,5.931930679
2038,5.952159754
2039,5.976599477
2040,5.962224792
2041,5.911514141
2042,5.966347118
2043,6.00395892
2044,5.966493827
2045,5.983805149
2046,5.96674881
2047,5.871237804
2048,5.916481436
2049,5.945621027
2050,6.063148871
2051,5.954733138
2052,6.096445081
2053,6.065220682
2054,6.046511013
2055,5.971926456
2056,6.024560463
2057,5.992803859
2058,5.894058776
2059,6.06278274
2060,5.989805002
2061,5.977002755
2062,6.07875398
2063,6.121299683
2064,6.018928788
2065,5.986562823
2066,5.966820887
2067,6.034689781
2068,5.988511966
2069,5.974340094
2070,5.96491738
2071,6.037990096
2072,5.925410675
2073,5.954812305
2074,5.979696299
2075,6.023576926
2076,6.077900524
2077,6.066259828
2078,6.015520555
2079,5.952565642
2080,5.987348461
2081,5.938358048
2082,6.009915625
2083,5.975759442
2084,5.97654435
2085,5.943226261
2086,5.984008618
2087,5.98788539
2088,6.035824796
2089,6.123287413
2090,5.933827905
2091,6.024972436
2092,5.977147858
2093,6.01099156
2094,5.964322731
2095,6.024966753
2096,6.067493192
2097,6.034654676
2098,6.048741181
2099,5.979930205
2100,6.090893721
2101,5.978746209
2102,6.01258212
2103,5.976460739
2104,5.96068499
2105,6.004035825
2106,6.002416573
2107,6.01865242
2108,5.939390383
2109,5.997198242
2110,5.970844421
2111,5.984703711
2112,6.025145937
2113,5.983683814
2114,5.976745898
2115,6.012926013
2116,6.011289119
2117,5.979130519
2118,6.104051626
2119,5.985601755
2120,5.987914381
2121,6.109598066
2122,6.014312784
2123,6.04082748
2124,6.069924248
2125,5.975535611
2126,6.021910649
2127,6.123371234
2128,5.956767051
2129,6.042626716
2130,5.988829564
2131,6.025943006
2132,6.02756003
2133,6.027758508
2134,6.028725253
2135,5.975414018
2136,6.018824047
2137,6.007524054
2138,5.987135527
2139,6.106842628
2140,5.967031358
2141,6.057435222
2142,5.936694875
2143,6.008929246
2144,6.058680525
2145,5.977824285
2146,6.018773355
2147,6.037788457
2148,6.000791604
2149,6.08526051
2150,5.960587768
2151,5.874883488
2152,6.028848229
2153,6.09150012
2154,6.02313017
2155,5.935061638
2156,5.970625436
2157,5.935169614
2158,6.006736904
2159,5.993346729
2160,6.00974893
2161,5.981304658
2162,5.973620957
2163,5.966880505
2164,5.960679273
2165,6.066153095
2166,6.044858436
2167,5.929539334
2168,6.038123024
2169,5.947887511
2170,5.90297935
2171,6.017235411
2172,6.031643293
2173,5.977201463
2174,5.984646559
2175,6.006478568
2176,5.998589775
2177,5.972934613
2178,6.065455865
2179,5.961883857
2180,5.944814586
2181,5.993565698
2182,5.945669669
2183,5.944088621
2184,5.933692402
2185,5.949693208
2186,6.044248381
2187,5.923229741
2188,5.986073974
2189,6.012898573
2190,5.977949118
2191,5.854784103
2192,5.945346695
2193,5.998839796
2194,5.966102844
2195,6.008004051
2196,6.021946167
2197,6.100360893
2198,6.048406957
2199,6.077740832
2200,5.986136016
2201,5.965696605
2202,5.956707852
2203,5.927908315
2204,6.040613448
2205,5.989737079
2206,5.988628976
2207,6.02453548
2208,6.046566738
2209,5.96091862
2210,6.109076491
2211,5.949763312
2212,6.004621486
2213,6.063379251
2214,6.030377207
2215,5.996391062
2216,6.005166544
2217,6.021083893
2218,6.006246948
2219,5.999358557
2220,5.983197653
2221,6.02913816
2222,5.979130226
2223,5.99333801
2224,6.028574378
2225,6.092626756
2226,6.031189446
2227,5.942581988
2228,6.018002628
2229,6.097086263
2230,5.991285404
2231,6.003757888
2232,5.901499549
2233,6.049036956
2234,6.006189804
2235,5.987031958
2236,6.003499091
2237,5.915018958
2238,5.910490969
2239,6.001007882
2240,6.050570033
2241,5.999911418
2242,6.002547491
2243,6.048315945
2244,5.980366469
2245,5.971445729
2246,5.972321184
2247,6.025805933
2248,6.034357443
2249,6.025638634
2250,6.04173484
2251,5.913827764
2252,6.071924414
2253,6.013436404
2254,5.954963069
2255,6.039708421
2256,5.95715092
2257,5.932932545
2258,5.981887757
2259,6.073120157
2260,5.991033026
2261,5.991388841
2262,6.062392091
2263,5.999933848
2264,5.958513389
2265,6.011501496
2266,5.951113433
2267,6.012526964
2268,5.963972967
2269,5.984852913
2270,6.009193343
2271,6.025364089
2272,5.965446908
2273,6.063201173
2274,6.006614998
2275,6.007103306
2276,6.025727749
2277,6.011611659
2278,6.038611984
2279,5.992159026
2280,6.0711308
2281,5.999130833
2282,5.952886315
2283,6.009296183
2284,6.006036441
2285,5.987598692
2286,5.963093979
2287,5.991415759
2288,5.972197352
2289,5.928891219
2290,6.047850953
2291,5.934283902
2292,6.080179014
2293,5.911543329
2294,6.005873718
2295,6.082460246
2296,6.073514608
2297,6.042538557
2298,6.02380755
2299,5.942824365
2300,6.023178099
2301,6.068750981
2302,6.012310058
2303,5.912389404
2304,5.906426074
2305,5.899233955
2306,6.048136026
2307,5.961200875
2308,5.900326007
2309,6.031248011
2310,6.009688865
2311,6.036331384
2312,5.986154014
2313,5.980735722
2314,5.950735733
2315,5.954410004
2316,6.018383213
2317,5.997965689
2318,6.029498144
2319,6.012303494
2320,5.947836383
2321,6.144687937
2322,6.049776114
2323,6.015806952
2324,6.092857241
2325,6.004521358
2326,6.101906414
2327,5.988259673
2328,6.017918013
2329,6.009926563
2330,5.971076891
2331,6.010742048
2332,6.037908844
2333,5.932896379
2334,5.989621028
2335,6.023267102
2336,5.999307525
2337,5.986399987
2338,5.972936343
2339,6.0444972
2340,5.981684173
2341,6.052660484
2342,6.015112616
2343,5.959959547
2344,5.995922502
2345,6.003519468
2346,5.962213884
2347,6.023366112
2348,5.951676286
2349,6.075343811
2350,6.073707309
2351,6.036674364
2352,5.963124788
2353,5.974755111
2354,6.039756947
2355,6.087080051
2356,5.95939769
2357,6.019809619
2358,5.978129482
2359,6.003834313
2360,6.027547925
2361,6.060119854
2362,6.144137177
2363,5.994062435
2364,6.040737678
2365,6.051334428
2366,6.020160318
2367,5.960407541
2368,6.102605187
2369,6.026792076
2370,6.020361988
2371,5.980249622
2372,5.988007564
2373,5.971890173
2374,5.992776906
2375,6.036439428
2376,5.853032134
2377,6.004623996
2378,5.965922349
2379,5.993094725
2380,5.967656467
2381,6.029619746
2382,5.952180071
2383,5.988451843
2384,6.105304861
2385,5.939230928
2386,6.037296012
2387,5.989552828
2388,5.981480696
2389,5.980595068
2390,5.952480376
2391,6.044055108
2392,6.0695457
2393,6.068500018
2394,5.992124713
2395,5.932342127
2396,6.008964053
2397,6.041405761
2398,6.006595765
2399,6.028013487
2400,5.94552262
2401,6.000257156
2402,5.960249347
2403,5.987620321
2404,6.026650344
2405,6.031353966
2406,6.013392827
2407,6.027458413
2408,6.032065171
2409,5.988399588
2410,5.992349825
2411,5.97073813
2412,6.053360009
2413,6.009543555
2414,6.037884422
2415,5.972121359
2416,6.0500778
2417,5.929265821
2418,6.036638766
2419,6.040709976
2420,5.964419752
2421,5.942312596
2422,5.97901319
2423,5.941523199
2424,6.059034031
2425,6.03514871
2426,6.011177061
2427,6.039435542
2428,5.933828089
2429,5.923553215
2430,5.989376999
2431,6.010864632
2432,5.991985859
2433,6.018211508
2434,6.042337573
2435,6.014914006
2436,6.04664927
2437,6.033541999
2438,6.092836041
2439,5.997963116
2440,5.989670357
2441,5.950653153
2442,6.035452527
2443,6.028480161
2444,5.957572808
2445,5.974843705
2446,5.96984683
2447,6.105615511
2448,5.983259186
2449,5.995084337
2450,6.059303568
2451,5.971544522
2452,5.954716852
2453,6.018380104
2454,5.960456568
2455,6.040510796
2456,5.984999133
2457,6.03132864
2458,5.964181035
2459,5.989102507
2460,6.006155039
2461,6.047869991
2462,6.041290224
2463,5.996143
2464,6.02825094
2465,6.007638984
2466,5.992805171
2467,5.969121502
2468,5.964710298
2469,5.924387256
2470,6.010805669
2471,6.038466282
2472,6.058976769
2473,5.993119533
2474,6.005638312
2475,6.002747118
2476,6.034449193
2477,5.954214103
2478,6.049435509
2479,6.022110721
2480,5.997610763
2481,5.878649106
2482,6.033421494
2483,6.035071215
2484,5.943502881
2485,6.040704866
2486,6.011627948
2487,5.992960948
2488,5.985991966
2489,5.929752177
2490,6.05292713
2491,5.972205841
2492,6.071213456
2493,5.897697266
2494,5.952364098
2495,5.954695604
2496,5.990823673
2497,6.094868843
2498,6.000594802
2499,6.032788465
2500,6.017223553
2501,6.054774751
2502,6.029910209
2503,5.994794509
2504,6.025994644
2505,6.091161245
2506,6.032230705
2507,6.064951039
2508,6.06750542
2509,6.006854191
2510,6.023418884
2511,5.923195958
2512,6.032273728
2513,5.864587013
2514,5.966273548
2515,5.9334339
2516,5.986001326
2517,5.954046006
2518,5.843970388
2519,5.983827692
2520,5.982987119
2521,6.103417097
2522,5.969717238
2523,5.952691645
2524,5.996098349
2525,6.052570751
2526,6.032917594
2527,6.022403724
2528,5.978570114
2529,5.972920325
2530,5.937221641
2531,6.010534283
2532,5.964665414
2533,5.972062798
2534,5.972439584
2535,5.971585716
2536,5.937619784
2537,5.980582821
2538,6.041053288
2539,6.052687454
2540,6.02660285
2541,6.011493583
2542,6.010550005
2543,6.01759967
2544,6.097214706
2545,6.041152037
2546,5.988840899
2547,5.989942748
2548,5.946570112
2549,6.02896856
2550,5.929859182
2551,6.013438434
2552,6.022172343
2553,5.948989392
2554,5.997895194
2555,5.925505248
2556,5.960136947
2557,5.974754402
2558,6.085828074
2559,5.994155936
2560,6.041180893
2561,5.947334362
2562,5.957625944
2563,6.009802617
2564,6.03578225
2565,5.939811596
2566,5.959073695
2567,6.038779637
2568,5.96410702
2569,5.992354982
2570,6.072441027
2571,5.940249987
2572,6.045852371
2573,6.013896381
2574,6.024519235
2575,5.976115639
2576,5.938008651
2577,5.885247203
2578,6.025801281
2579,6.010733349
2580,6.017132993
2581,5.985436702
2582,6.021405399
2583,6.057485209
2584,5.926966582
2585,5.938267443
2586,6.034897693
2587,6.022986283
2588,6.013472164
2589,6.029927089
2590,6.085105916
2591,5.994291549
2592,5.969898736
2593,5.923914602
2594,6.055662076
2595,5.963268994
2596,5.999320999
2597,5.955634593
2598,5.942502372
2599,5.994387571
2600,6.015610298
2601,6.075121408
2602,5.972468163
2603,5.908053113
2604,6.024376041
2605,5.967767451
2606,5.928112665
2607,5.983072787
2608,5.954872467
2609,6.049576524
2610,5.95749511
2611,5.977885743
2612,6.002679688
2613,5.938262095
2614,5.988724439
2615,5.987032204
2616,5.952662019
2617,5.962178718
2618,5.962410598
2619,6.06551878
2620,6.029217813
2621,6.052360434
2622,5.965973679
2623,5.959991619
2624,5.988137814
2625,5.983680356
2626,5.982196943
2627,6.002498375
2628,6.061154823
2629,6.096854783
2630,5.974308945
2631,5.978014201
2632,5.954728725
2633,5.983254703
2634,6.011769947
2635,5.964282299
2636,5.960247935
2637,6.011363008
2638,5.97202436
2639,5.994072204
2640,6.088357721
2641,5.972699456
2642,5.951712933
2643,6.011582176
2644,5.97115106
2645,5.986891705
2646,5.971084803
2647,5.903465103
2648,6.01225347
2649,5.967005446
2650,5.979552683
2651,6.0682946
2652,6.084647443
2653,6.005173567
2654,6.020236796
2655,5.972974299
2656,5.937334398
2657,5.95748147
2658,5.983727547
2659,6.054559308
2660,5.998859218
2661,5.973245182
2662,6.010186843
2663,5.957400067
2664,5.994718337
2665,6.015384054
2666,5.93352827
2667,5.937799843
2668,5.984810417
2669,6.000458372
2670,6.119560871
2671,6.052300711
2672,6.003538347
2673,5.944923479
2674,6.058010283
2675,6.037384126
2676,6.092542558
2677,6.008198632
2678,5.99040364
2679,6.026258815
2680,5.912339061
2681,6.088901125
2682,5.850966039
2683,5.966860442
2684,5.989104789
2685,5.938488653
2686,6.024590518
2687,5.933333652
2688,6.005380963
2689,6.097393813
2690,6.07161068
2691,6.088370903
2692,6.012684659
2693,5.942182696
2694,6.058487416
2695,6.049457038
2696,5.919702755
2697,5.909732762
2698,6.068738511
2699,6.033376663
2700,6.011294595
2701,6.003369708
2702,5.988646947
2703,5.935611887
2704,5.987295475
2705,5.958946911
2706,5.991465478
2707,5.972933249
2708,6.054958704
2709,6.062115837
2710,5.930839099
2711,6.034938098
2712,5.93845539
2713,5.975306069
2714,6.026716043
2715,6.110645438
2716,6.040156042
2717,6.031521023
2718,6.018970815
2719,6.007614461
2720,5.975080277
2721,5.983210156
2722,6.036098768
2723,6.087797766
2724,5.988682743
2725,6.015313029
2726,6.068546632
2727,6.002409402
2728,5.985564919
2729,6.031590003
2730,5.997967254
2731,6.024563574
2732,5.90478284
2733,5.870784083
2734,5.996294171
2735,6.022099947
2736,5.977512952
2737,6.011662507
2738,5.905746253
2739,5.906090009
2740,6.019404276
2741,5.949091389
2742,5.973095644
2743,5.92430182
2744,6.039259248
2745,6.046199584
2746,6.069279816
2747,6.00815777
2748,6.035453913
2749,5.961893342
2750,6.039657773
2751,6.029462873
2752,5.962168779
2753,5.983425597
2754,6.014803735
2755,6.021728574
2756,5.954303605
2757,5.976012219
2758,6.075945926
2759,5.997655772
2760,5.898860672
2761,6.00937634
2762,5.947870911
2763,6.04981577
2764,6.014629416
2765,6.05198331
2766,6.003213029
2767,5.968050272
2768,5.914920477
2769,5.904673357
2770,5.953319012
2771,5.920591467
2772,6.077137286
2773,5.962558406
2774,5.989598105
2775,6.084099324
2776,6.001539038
2777,6.068279142
2778,6.006672634
2779,5.95581551
2780,6.037593155
2781,5.936148882
2782,6.06971207
2783,6.04478362
2784,6.04974009
2785,5.998216057
2786,5.970617653
2787,6.015328762
2788,5.927819561
2789,6.038507738
2790,6.022609322
2791,6.077278999
2792,6.061056022
2793,5.958465201
2794,5.908015891
2795,5.977483986
2796,5.895786353
2797,5.980654955
2798,5.947971682
2799,5.996253626
2800,5.972656297
2801,5.990797275
2802,6.031909364
2803,5.979315852
2804,5.95623473
2805,6.084546059
2806,5.85056022
2807,5.950691582
2808,6.045291974
2809,6.085675578
2810,5.995878395
2811,5.975393049
2812,5.956509106
2813,6.014039855
2814,5.985416044
2815,6.031158378
2816,5.933458123
2817,6.048293793
2818,5.967569403
2819,5.905592376
2820,6.014929231
2821,5.995938514
2822,5.966734437
2823,6.083606563
2824,6.024385277
2825,6.00894141
2826,6.132932703
2827,6.020590349
2828,6.003214367
2829,5.93512366
2830,5.978056724
2831,5.98635068
2832,6.021144365
2833,5.956808375
2834,5.98109
2835,6.051522172
2836,5.947913077
2837,5.987691556
2838,5.963656834
2839,6.015200485
2840,5.951937747
2841,6.017262091
2842,5.950830061
2843,5.980009757
2844,6.020683345
2845,5.989415651
2846,5.988154475
2847,5.98821825
2848,6.063897072
2849,6.119483751
2850,5.91803927
2851,6.035425541
2852,6.029767409
2853,5.962372283
2854,5.933994888
2855,5.983805429
2856,5.98291067
2857,5.894683337
2858,5.950713055
2859,5.981048515
2860,5.980608885
2861,6.010454071
2862,6.023686843
2863,6.018426035
2864,5.901239942
2865,6.039263625
2866,5.991952992
2867,6.02190166
2868,5.904133181
2869,5.953388699
2870,6.010891382
2871,6.055996088
2872,6.041213611
2873,6.053492158
2874,5.874284391
2875,6.034401124
2876,5.992792606
2877,5.899129266
2878,6.06854926
2879,6.087231682
2880,5.988727694
2881,6.083328041
2882,6.005849612
2883,5.985694558
2884,6.040399286
2885,5.989886647
2886,6.08469424
2887,5.987114575
2888,5.898072767
2889,6.024595456
2890,5.990274348
2891,6.028950158
2892,5.991598293
2893,6.043485485
2894,5.945670734
2895,6.063671052
2896,6.059316282
2897,5.957311017
2898,6.003213803
2899,6.061542242
2900,5.935981901
2901,6.111047929
2902,6.034749013
2903,5.996493278
2904,5.986693379
2905,6.069022623
2906,5.933757052
2907,5.953214449
2908,5.922338543
2909,6.000977414
2910,5.977932232
2911,5.927438786
2912,6.046798922
2913,6.017034449
2914,6.072251537
2915,6.001406613
2916,5.924897982
2917,5.991279053
2918,5.941868686
2919,6.061498927
2920,5.992484737
2921,5.989987414
2922,6.007091045
2923,6.031948872
2924,5.967043641
2925,6.005347489
2926,5.956799157
2927,5.982408752
2928,5.949657548
2929,5.997267913
2930,6.05659633
2931,6.024251902
2932,5.947172324
2933,6.036700836
2934,6.024632093
2935,5.97471248
2936,5.998171672
2937,5.975903595
2938,5.948691123
2939,6.009411324
2940,5.973007495
2941,5.984003538
2942,6.103577412
2943,6.013264709
2944,5.973398127
2945,5.993866574
2946,6.044103098
2947,6.01424352
2948,5.905802686
2949,6.033311684
2950,5.95325319
2951,5.97329702
2952,5.943380242
2953,6.036228546
2954,6.00423251
2955,5.863641728
2956,5.947381371
2957,5.995124264
2958,5.935764623
2959,5.999675391
2960,6.037467736
2961,5.937827879
2962,6.082454009
2963,6.007742822
2964,5.931028435
2965,6.036848222
2966,5.926515816
2967,6.031265422
2968,5.963764804
2969,6.015115711
2970,5.952116773
2971,5.910022839
2972,6.035370632
2973,5.969097402
2974,6.076955563
2975,6.003932446
2976,5.973748238
2977,5.956680975
2978,6.016362144
2979,5.9494554
2980,6.055441725
2981,5.932859662
2982,5.967942355
2983,6.02012036
2984,5.998734961
2985,6.011897218
2986,5.98297755
2987,6.000291328
2988,6.035397981
2989,6.065125573
2990,5.906397115
2991,5.994348912
2992,5.98904883
2993,5.952702511
2994,6.04126833
2995,5.959730361
2996,6.009255885
2997,5.95352408
2998,5.960517222
2999,6.059823952
3000,6.028062086
3001,5.973984483
3002,6.042891725
3003,6.056268042
3004,5.999101534
3005,6.027087977
3006,5.963182639
3007,6.031270027
3008,6.00645792
3009,5.986872013
3010,6.050213341
3011,5.911041195
3012,5.958618831
3013,5.979803491
3014,6.058882279
3015,6.041827835
3016,6.028719201
3017,5.918724359
3018,6.150258918
3019,5.950484861
3020,5.955552432
3021,6.042688974
3022,5.951415004
3023,5.990510158
3024,5.993484239
3025,5.925437761
3026,6.04811662
3027,5.997175055
3028,5.913073708
3029,5.953863609
3030,6.02374404
3031,6.045336723
3032,5.99545001
3033,5.955334912
3034,6.026261563
3035,5.918956463
3036,6.032795505
3037,5.931482531
3038,5.997699093
3039,5.959369473
3040,6.016199003
3041,6.018453455
3042,5.964643763
3043,5.925170111
3044,6.008965272
3045,6.031271267
3046,5.979320683
3047,5.923592125
3048,6.003847333
3049,6.007892426
3050,5.994671248
3051,6.043810454
3052,5.981344127
3053,5.973621368
3054,5.939784148
3055,5.967830083
3056,6.005320702
3057,5.991250789
3058,6.018377206
3059,5.973444127
3060,6.055359661
3061,6.009432026
3062,6.02698194
3063,5.974933938
3064,6.02543987
3065,5.958571881
3066,6.058833468
3067,5.953186037
3068,5.936679351
3069,5.941910045
3070,6.037087378
3071,6.050892731
3072,6.010081572
3073,6.05827424
3074,5.909676595
3075,5.990292485
3076,6.07768573
3077,6.066658317
3078,5.933159543
3079,6.052810687
3080,5.929217297
3081,6.015101945
3082,5.992112424
3083,5.961523864
3084,6.051550728
3085,6.034257684
3086,5.962131985
3087,5.98401126
3088,6.032388523
3089,6.016204299
3090,5.929325849
3091,6.043709909
3092,6.042865586
3093,5.980184591
3094,6.051070491
3095,5.962274364
3096,6.051080304
3097,6.027124293
3098,5.916308278
3099,5.992035191
3100,5.942004458
3101,5.975449602
3102,6.006178023
3103,5.971287842
3104,6.079010405
3105,5.965402248
3106,5.984326022
3107,5.996268677
3108,6.040354288
3109,6.032790136
3110,6.012452758
3111,5.981044617
3112,6.02733229
3113,5.923185734
3114,5.998311474
3115,5.987880504
3116,5.989454503
3117,5.938954616
3118,6.081278132
3119,6.041672334
3120,6.039324185
3121,6.042062806
3122,5.90862686
3123,5.968453082
3124,5.979472281
3125,6.005713708
3126,6.048853342
3127,5.986253822
3128,6.005072188
3129,6.035326637
3130,5.957693054
3131,6.006333464
3132,5.95104065
3133,5.955325707
3134,6.031350028
3135,6.036261825
3136,6.012313833
3137,6.051464776
3138,5.972532504
3139,5.85135059
3140,6.060512467
3141,6.094662117
3142,5.984992621
3143,5.994744156
3144,6.024262873
3145,6.014435673
3146,6.007925212
3147,6.082190173
3148,5.993548464
3149,5.956473539
3150,6.002162486
3151,6.011325739
3152,5.964386339
3153,5.960958687
3154,6.022082042
3155,6.054037399
3156,5.97964514
3157,5.995775599
3158,5.971501399
3159,5.94502482
3160,5.85447062
3161,6.007534551
3162,6.039675885
3163,6.058435891
3164,5.917887373
3165,5.957784174
3166,5.955084454
3167,6.084917157
3168,6.063301605
3169,6.034992219
3170,6.007281389
3171,5.994652819
3172,5.920774695
3173,5.899683608
3174,5.975537946
3175,5.9501723
3176,5.970155398
3177,6.002070784
3178,5.997719641
3179,5.953197316
3180,5.997597861
3181,5.93762935
3182,5.927933122
3183,6.027803354
3184,6.008113459
3185,5.929975371
3186,6.059157128
3187,5.985389546
3188,5.98427389
3189,6.051145975
3190,6.042203804
3191,6.041959328
3192,6.079121706
3193,5.963240635
3194,6.085482014
3195,5.961722704
3196,5.989560968
3197,6.017597029
3198,6.0040841
3199,6.021853072
3200,5.964184278
3201,5.96391966
3202,5.903220375
3203,5.959087097
3204,6.031399826
3205,6.01603537
3206,5.91758809
3207,6.06104372
3208,6.083435262
3209,6.021170445
3210,5.962874651
3211,6.050810677
3212,6.038691094
3213,5.84159281
3214,5.963416899
3215,6.043995717
3216,5.978526256
3217,6.043252674
3218,5.960899487
3219,5.973256157
3220,5.941055388
3221,6.041346511
3222,6.014434711
3223,6.060127468
3224,5.977565507
3225,5.939636126
3226,5.912621021
3227,6.020151131
3228,5.985032293
3229,5.928765519
3230,5.986865697
3231,5.987119904
3232,5.92782965
3233,6.043401716
3234,5.935572441
3235,5.990316843
3236,5.978541381
3237,5.931363492
3238,6.038795808
3239,6.065974603
3240,5.977367008
3241,6.00707295
3242,5.96105743
3243,6.053409767
3244,5.885236668
3245,5.964813061
3246,5.93685628
3247,6.034281603
3248,6.02563367
3249,6.099608052
3250,5.978229071
3251,5.973034249
3252,6.05936474
3253,5.971431694
3254,5.85792265
3255,6.034749534
3256,5.934019383
3257,5.856223028
3258,6.025876876
3259,6.040644786
3260,5.975675916
3261,5.948482774
3262,5.924214036
3263,5.96057012
3264,5.978727646
3265,5.994753232
3266,6.002717328
3267,6.011267746
3268,5.974334711
3269,5.957027155
3270,5.967529443
3271,5.914869473
3272,6.083609025
3273,6.066755401
3274,6.031378732
3275,5.987424924
3276,5.978116112
3277,6.011191771
3278,6.059589177
3279,6.038713067
3280,5.970922944
3281,5.992228949
3282,5.968987606
3283,6.096207606
3284,5.949424699
3285,5.978786545
3286,5.932585192
3287,5.97574963
3288,6.03287318
3289,6.070272792
3290,5.909625615
3291,6.081712107
3292,5.969971164
3293,5.982126881
3294,5.892928087
3295,5.98662396
3296,5.990731775
3297,6.175502853
3298,6.020035266
3299,6.01810277
3300,6.027835882
3301,5.938614663
3302,6.036617449
3303,5.930762993
3304,5.995849009
3305,5.961548167
3306,6.039168286
3307,5.949126677
3308,6.022825713
3309,6.076567071
3310,5.987953583
3311,5.909871829
3312,5.969063357
3313,6.052077322
3314,5.900899491
3315,6.011305867
3316,6.021715088
3317,6.003640172
3318,5.99117841
3319,6.035274039
3320,5.941007512
3321,6.03753435
3322,5.965718198
3323,6.01525733
3324,5.95428113
3325,6.05523801
3326,5.959025202
3327,5.987513954
3328,5.984730734
3329,5.991982382
3330,6.043955386
3331,5.957989863
3332,5.971163836
3333,6.043458307
3334,6.007081368
3335,6.04917683
3336,6.036709031
3337,5.995077531
3338,5.943515255
3339,6.020401664
3340,5.954164089
3341,6.031541428
3342,6.023428823
3343,5.973395684
3344,6.003442288
3345,6.014897158
3346,5.941990307
3347,5.907919024
3348,5.942732333
3349,5.987722715
3350,6.106024476
3351,5.978509329
3352,6.063205563
3353,5.999149614
3354,6.013366649
3355,6.005210233
3356,6.029210962
3357,6.025847113
3358,5.969924941
3359,6.018591999
3360,5.977407885
3361,5.973186077
3362,6.013648769
3363,5.876003512
3364,5.965748935
3365,6.013482962
3366,5.989626336
3367,6.068672059
3368,5.939555663
3369,5.908090842
3370,6.010125599
3371,6.028154533
3372,6.044026221
3373,6.025343255
3374,6.006762837
3375,6.0654298
3376,5.959944081
3377,5.985689466
3378,6.001930023
3379,6.022894463
3380,5.950490939
3381,5.998131001
3382,6.092768068
3383,5.953097304
3384,5.991725791
3385,6.036818063
3386,5.917037399
3387,6.115369672
3388,5.916996239
3389,6.002214623
3390,5.99271084
3391,6.048750429
3392,5.969738909
3393,6.014544484
3394,5.988313503
3395,5.924736138
3396,6.070609672
3397,5.954953473
3398,6.082544798
3399,6.056208304
3400,5.96009999
3401,6.002815836
3402,6.134574047
3403,5.982517683
3404,5.979980616
3405,6.017076085
3406,5.967245322
3407,6.017793441
3408,5.942085717
3409,5.886604045
3410,5.941054552
3411,6.005904551
3412,5.978387479
3413,6.097809271
3414,6.01186898
3415,6.043728798
3416,5.960941616
3417,5.997792627
3418,6.064953201
3419,5.920012764
3420,6.09877706
3421,6.014716319
3422,5.963980193
3423,6.061107989
3424,6.072913822
3425,6.011448059
3426,5.992774385
3427,5.95118458
3428,5.892504964
3429,5.960835984
3430,5.985513379
3431,6.024532645
3432,5.984480766
3433,5.987525643
3434,6.036326938
3435,5.947049126
3436,5.993132393
3437,6.036407752
3438,5.969099239
3439,6.030949294
3440,6.02481067
3441,6.006660589
3442,5.981462602
3443,6.051702827
3444,5.926811088
3445,6.015973132
3446,5.93383613
3447,6.063927015
3448,5.952417982
3449,5.936008635
3450,5.891958267
3451,5.956633686
3452,5.951177064
3453,6.062806024
3454,6.004371158
3455,6.049363156
3456,6.078303734
3457,6.108996414
3458,6.087003935
3459,5.99873659
3460,5.96460278
3461,6.072781217
3462,5.978129083
3463,6.039951521
3464,5.933251658
3465,5.945590221
3466,6.024968929
3467,6.037169541
3468,5.91874004
3469,5.981670099
3470,6.016773656
3471,5.963382491
3472,6.039543149
3473,5.946628141
3474,6.069642596
3475,6.04079352
3476,6.100159566
3477,5.974564685
3478,6.030788321
3479,5.968331167
3480,6.005008913
3481,6.009644788
3482,6.061990686
3483,5.96427628
3484,5.940480875
3485,6.01212512
3486,6.082393332
3487,5.939155156
3488,6.0076192
3489,5.968281998
3490,5.904919191
3491,6.023124575
3492,5.957616951
3493,5.973046922
3494,6.06990399
3495,6.026610765
3496,6.013406734
3497,5.900225733
3498,6.016642675
3499,6.111263737
3500,5.999584467
3501,6.024684492
3502,5.990988627
3503,6.020108416
3504,6.045828562
3505,6.039130367
3506,6.026535622
3507,5.936009582
3508,6.017707567
3509,5.955308176
3510,5.978234973
3511,6.012754055
3512,5.969001198
3513,6.044863925
3514,5.892454341
3515,6.032555598
3516,6.014804594
3517,6.024829046
3518,6.074723289
3519,6.025437053
3520,5.979591607
3521,5.924650438
3522,5.982073902
3523,5.947906984
3524,6.028955949
3525,6.048721925
3526,5.980679547
3527,6.02904616
3528,5.984354107
3529,6.044728846
3530,5.898932183
3531,5.970639124
3532,5.992772392
3533,6.029880407
3534,5.973382834
3535,6.077475201
3536,5.972201732
3537,5.99963042
3538,5.974714218
3539,6.128408499
3540,5.996940147
3541,5.971810625
3542,5.991227574
3543,5.993250203
3544,6.006426734
3545,5.986709282
3546,5.950685734
3547,6.027152501
3548,6.047040245
3549,6.013305197
3550,6.010891925
3551,6.011479423
3552,6.023281449
3553,6.001977961
3554,5.955063231
3555,5.983810179
3556,6.089883525
3557,5.948195705
3558,6.030782582
3559,6.071247029
3560,6.065463432
3561,6.12098187
3562,6.042808375
3563,5.973278329
3564,5.999507759
3565,5.994553873
3566,6.034008114
3567,6.041778094
3568,6.018342396
3569,6.018838788
3570,5.96731403
3571,6.004574015
3572,6.050204168
3573,6.017652451
3574,6.014880125
3575,6.000747919
3576,5.96554728
3577,6.02791272
3578,5.991323708
3579,5.996155517
3580,6.02221525
3581,6.046685681
3582,5.942908042
3583,6.046089063
3584,6.058623057
3585,5.949778203
3586,6.012199679
3587,6.019807557
3588,5.914412525
3589,5.854636787
3590,5.99676
3591,6.0117538
3592,5.995754006
3593,5.955028925
3594,5.927767958
3595,6.011661145
3596,5.963025021
3597,5.94827956
3598,5.962974644
3599,6.011846174
3600,5.916428077
3601,6.02862784
3602,5.943500672
3603,5.890881628
3604,5.970526753
3605,6.088315693
3606,5.979850928
3607,6.045901748
3608,6.022514195
3609,6.088252342
3610,5.969440547
3611,5.9377711
3612,6.049393978
3613,5.916590652
3614,5.955741505
3615,5.95004011
3616,6.069428517
3617,6.031177847
3618,6.022197448
3619,5.98811215
3620,6.011253223
3621,5.987967482
3622,6.027913849
3623,5.997850117
3624,6.033016156
3625,6.023826672
3626,6.011582568
3627,6.097218963
3628,6.060387289
3629,5.905710023
3630,6.013759354
3631,6.009486401
3632,6.126154729
3633,5.920840633
3634,5.962035595
3635,6.050318145
3636,5.990646624
3637,5.932426177
3638,5.921387968
3639,5.918262894
3640,5.945455711
3641,5.956526676
3642,6.070076172
3643,5.977485319
3644,5.940105727
3645,5.969547243
3646,5.941439822
3647,5.960226783
3648,6.023933188
3649,6.042779679
3650,6.052138989
3651,6.008937405
3652,6.000741297
3653,5.867339079
3654,6.033488478
3655,5.98291318
3656,6.068872832
3657,5.947183286
3658,6.076121613
3659,6.001087013
3660,6.006510123
3661,6.107571153
3662,5.957343782
3663,6.000404061
3664,5.928597784
3665,5.98923765
3666,6.009210254
3667,5.969507899
3668,6.053345452
3669,6.000875945
3670,5.986047214
3671,6.035526088
3672,6.032409263
3673,5.972377831
3674,6.03317859
3675,5.910165554
3676,6.062823474
3677,6.083743764
3678,6.026264158
3679,6.070782089
3680,5.976625735
3681,6.05181327
3682,6.055066659
3683,6.017020486
3684,5.981552303
3685,5.892232563
3686,6.023356683
3687,6.069682037
3688,5.963527175
3689,6.012536421
3690,5.971671251
3691,5.993640496
3692,6.04366124
3693,5.947218798
3694,6.09421712
3695,6.003259245
3696,6.048148759
3697,5.98761967
3698,6.026126983
3699,6.045319678
3700,5.930926296
3701,5.963702104
3702,5.985798009
3703,6.054146174
3704,5.971059751
3705,5.958089414
3706,5.935844935
3707,6.051844326
3708,6.001209553
3709,5.942915521
3710,6.057062018
3711,6.075566779
3712,5.966878365
3713,6.045772964
3714,5.997735324
3715,6.012475006
3716,5.957109799
3717,5.948761835
3718,5.976145023
3719,6.098658186
3720,6.009014097
3721,5.937047793
3722,5.969999934
3723,5.94122043
3724,6.011942363
3725,6.0240293
3726,5.989905381
3727,5.961997429
3728,6.077912588
3729,5.978003238
3730,6.026978723
3731,6.014796551
3732,6.032188131
3733,5.936538959
3734,5.953764005
3735,5.920847725
3736,6.033993114
3737,6.004274017
3738,6.030656997
3739,6.060966417
3740,5.899864412
3741,5.984302815
3742,6.001584508
3743,5.958328373
3744,5.931983718
3745,6.065497465
3746,5.985520858
3747,5.957148871
3748,5.956723541
3749,6.103863302
3750,5.981780658
3751,5.966088617
3752,5.892025243
3753,6.00338846
3754,5.997407965
3755,5.981693089
3756,6.010954129
3757,5.940384076
3758,6.030562958
3759,5.890254493
3760,6.031833014
3761,5.991544291
3762,5.975919639
3763,6.050898236
3764,5.992767609
3765,6.011654473
3766,6.018815397
3767,6.059597655
3768,6.004317249
3769,6.059397071
3770,5.923438307
3771,6.008998635
3772,6.07740172
3773,5.920054238
3774,5.969457334
3775,5.985401837
3776,5.893972373
3777,5.92836643
3778,6.097729911
3779,5.990575774
3780,6.024371487
3781,5.96769423
3782,6.070508513
3783,5.998182072
3784,6.05696454
3785,5.921156612
3786,6.055671168
3787,6.032248677
3788,6.018359876
3789,6.011467784
3790,5.95240104
3791,6.009067684
3792,6.031460543
3793,6.069129252
3794,6.062366745
3795,6.132900741
3796,6.017370447
3797,6.053033032
3798,5.982396148
3799,6.088097777
3800,5.986054085
3801,5.965753378
3802,5.943665086
3803,5.93922439
3804,5.958542663
3805,6.01956446
3806,6.004468757
3807,5.992130556
3808,5.951017061
3809,5.969096009
3810,5.984927639
3811,5.944944777
3812,6.002347113
3813,5.994254801
3814,5.970178315
3815,5.942631358
3816,5.905521056
3817,5.953735069
3818,6.052776525
3819,5.966366566
3820,5.88993083
3821,5.970961117
3822,6.031213668
3823,6.012213745
3824,6.003488471
3825,5.969064052
3826,5.972401711
3827,5.947047259
3828,6.062632126
3829,6.028695533
3830,5.994917003
3831,5.976616649
3832,6.0009705
3833,6.059237369
3834,6.020724595
3835,5.960526179
3836,6.054059348
3837,5.967794725
3838,5.982474653
3839,6.03042264
3840,6.00800402
3841,5.99477195
3842,6.051714801
3843,6.066229479
3844,5.942685555
3845,6.091139652
3846,6.131839601
3847,6.041044359
3848,6.028607994
3849,6.028356846
3850,5.941678271
3851,5.997797676
3852,5.935329044
3853,6.121504886
3854,6.042332839
3855,5.946812072
3856,5.98610808
3857,5.990749527
3858,5.996682834
3859,5.908833542
3860,6.012104211
3861,6.005464198
3862,5.983979651
3863,5.919254083
3864,5.985864992
3865,6.019179813
3866,5.933699807
3867,5.983517801
3868,6.01840397
3869,5.971995249
3870,6.010240367
3871,5.982689663
3872,6.000354735
3873,5.982738063
3874,5.9131605
3875,5.902509074
3876,5.962375045
3877,6.003981598
3878,6.055599353
3879,5.972041098
3880,6.060109803
3881,6.032013939
3882,5.999089876
3883,5.997815411
3884,5.938028895
3885,6.064165055
3886,5.96578793
3887,5.952933248
3888,6.036392403
3889,5.982100812
3890,5.9980682
3891,6.034949748
3892,5.948620326
3893,5.942327728
3894,6.028110075
3895,6.052911729
3896,6.071139498
3897,6.009305377
3898,5.971851786
3899,6.005003964
3900,6.055560028
3901,5.972740718
3902,5.982511623
3903,5.994281925
3904,6.027020551
3905,6.081109339
3906,6.003873869
3907,6.035842199
3908,6.034253942
3909,6.041432248
3910,5.975528665
3911,6.018887923
3912,6.021226882
3913,5.979290736
3914,6.018474345
3915,6.044039077
3916,5.952671404
3917,5.998953183
3918,6.009509594
3919,5.961073886
3920,6.023312556
3921,5.99437976
3922,6.005615356
3923,6.001434008
3924,5.994446032
3925,6.027786551
3926,5.940143659
3927,6.062427032
3928,6.092567118
3929,6.004216914
3930,5.907689774
3931,5.955408478
3932,5.946882937
3933,6.001320897
3934,6.072908569
3935,5.974888595
3936,5.998889454
3937,6.00179624
3938,5.996488902
3939,5.933520646
3940,6.03487671
3941,6.016797479
3942,6.037115608
3943,6.001691602
3944,6.012724855
3945,6.072231792
3946,5.98983908
3947,5.984310295
3948,6.050674808
3949,6.017377661
3950,6.059672049
3951,6.037495834
3952,6.049854184
3953,5.985075573
3954,6.012810516
3955,5.945518434
3956,5.852270792
3957,6.066994499
3958,6.008442232
3959,5.991774991
3960,5.964594499
3961,5.92936193
3962,6.026522016
3963,6.020544267
3964,6.100223148
3965,6.063165442
3966,6.000428011
3967,5.917508695
3968,6.020101076
3969,6.001596197
3970,6.021883601
3971,5.992491454
3972,5.918601951
3973,6.096242996
3974,6.076386185
3975,5.935676883
3976,6.058502368
3977,6.060867468
3978,6.006959159
3979,5.956243716
3980,6.007823359
3981,6.056966662
3982,6.062751869
3983,5.98624989
3984,6.014067485
3985,6.017031209
3986,6.065930822
3987,6.060257521
3988,6.008590648
3989,5.910371863
3990,5.883043772
3991,5.997583469
3992,5.990464994
3993,5.938047161
3994,5.958266064
3995,6.020536975
3996,6.001921304
3997,5.98480746
3998,6.043781224
3999,5.932551935
4000,6.104688267
