Raman Shift,Intensity
214.3785040343428,138.815
224.78145843945092,-85.425
235.01908334044856,146.824
245.41130867789616,323.012
255.63837774522108,-77.416
265.8602158678186,40.043
276.23642015571386,170.849
286.44772684514464,-5.339
296.8132434111685,-18.687
307.0140349346475,-26.695
317.209615658554,106.781
327.399989574551,186.867
337.7442627077253,125.468
347.9241537664129,53.39
358.09885002992814,42.712
368.2683554736213,381.742
378.5914504125685,-37.373
388.7505051753542,-37.373
398.90438108190574,-72.077
409.0530820913264,-13.348
419.196612158652,85.425
429.3349752349313,205.553
439.626465572117,160.171
449.75442592354375,42.712
459.8772311743669,48.051
469.994885259468,64.069
480.1073921097559,266.952
490.2147556521086,272.291
500.31697980943136,285.639
510.41406850063504,288.308
520.5060256406359,352.377
530.5928551403995,416.446
540.6745609068894,379.072
550.7511468431039,339.029
560.8226168481124,253.605
570.888974816975,373.733
580.9502246408374,285.639
590.8492821665859,368.394
600.9004070215597,357.716
610.9464353206786,576.617
620.9873709393651,549.922
631.0232177491416,1179.929
641.0539796175653,1585.696
650.9230482019848,2245.069
660.9437310766662,1337.431
670.9593405290361,547.252
680.9698804110958,597.973
690.8190579752118,579.286
700.8195493193562,651.364
710.8149825658329,312.334
720.805361551138,266.952
730.6347081696804,723.441
740.6150689503047,325.682
750.4345613154874,453.819
760.404918953056,400.428
770.3702413346182,485.853
780.174941402227,507.209
790.1302832356378,523.226
799.925166080895,603.312
809.8705423523497,512.548
819.6556227125038,448.48
829.5910483782136,603.312
839.3663409610526,397.759
849.2918309472952,266.952
859.0573504311833,328.351
868.972919634427,264.283
878.7286806683987,389.75
888.6343439553166,467.166
898.3803611591502,277.63
908.12155022542,290.978
918.0124213310264,381.742
927.743888384779,373.733
937.4705381077074,240.257
947.3466501411676,32.034
957.0635996041163,515.218
966.7757425107702,822.213
976.6371284824854,784.84
986.3395928168538,950.35
996.0372613373548,1625.739
1005.7301375988682,2741.6
1015.5719657306544,2426.596
1025.255192198514,1430.864
1034.9336371072422,918.316
1044.6073039976543,648.694
1054.2761964070742,646.024
1063.9403178693246,528.565
1073.5996719147442,565.939
1083.4074711432768,763.483
1093.057225399156,461.827
1102.70222286418,384.411
1112.3424670547538,451.149
1121.9779614837898,592.634
1131.6087096607444,539.244
1141.2347150916105,229.579
1150.855981278939,387.081
1160.4725117218331,517.887
1170.0843099159465,405.767
1179.6913793534914,98.772
1189.293723523253,-105.77
1198.739039559725,-163.193
1208.3320185130287,-112.835
1217.9202825891407,5.974
1227.5038352631818,153.903
1237.0826800068826,291.615
1246.6568202885535,379.786
1256.226259573108,379.072
1265.639216696829,320.343
1275.1993388504195,349.707
1284.7547703264208,21.356
1294.3055145761757,58.729
1303.7000868433097,280.3
1313.241541245312,232.248
1322.778318700337,266.952
1332.310422646282,248.266
1341.686663866676,357.716
1351.2095051416618,355.047
1360.727683146746,290.978
1370.0902294598782,178.858
1379.5991650801443,144.154
1388.9526223370776,210.892
1398.4523290278594,379.072
1407.7967104575073,96.103
1417.287201648047,240.257
1426.7730533080105,317.673
1436.1038095471376,184.197
1445.5804658554116,392.42
1454.9021792800197,77.416
1464.369653600741,176.188
1473.6823373500883,136.146
1482.9905472474493,224.24
1492.444310209452,339.029
1501.7435100404182,266.952
1511.1881242589734,221.57
1520.4783270994303,218.901
1529.764072276041,-240.257
1539.1950247490097,117.459
1548.4717924494323,221.57
1557.7441121511074,232.248
1567.1614324998736,242.927
1576.4247941832873,456.488
1585.6837175051332,285.639
1594.9382056544855,264.283
1604.3374199708342,160.171
1613.5829759239496,85.425
1622.8241063047317,186.867
1632.0608142900164,80.086
1641.2931030535765,293.647
1650.6697762525291,264.283
1659.8931649322622,170.849
1669.1121439444323,120.129
1678.3267164506542,435.132
1687.53688560953,373.733
1696.7426545766284,154.832
1705.9440265045123,347.038
1715.1410045427183,48.051
1724.3335918377925,104.111
1733.5217915332687,272.291
1742.705606769683,309.665
1751.8850406845886,221.57
1761.0600964125188,253.605
1770.230777085024,122.798
1779.397085830693,200.214
1788.55902577511,205.553
1797.7166000408906,226.909
1806.8698117476447,-125.468
1816.0186640120735,269.622
1825.163159947857,221.57
1834.1559155330324,389.75
1843.29177827917,269.622
1852.4232939699289,216.231
1861.550465707216,395.089
1870.673296589972,96.103
1879.644751645923,344.368
1888.758979994156,229.579
1897.8688767172423,242.927
1906.974444902422,112.12
1915.9289277003045,173.519
1925.025917750907,200.214
1934.118588458099,136.146
1943.060390766601,-96.103
1952.144501554074,421.785
1961.2243021666216,216.231
1970.153450902042,90.764
1979.224709758193,168.18
1988.1454604369865,144.154
1997.208189584475,261.613
2006.120554048888,144.154
2015.1747655127983,194.875
2024.0787555828572,117.459
2033.12446136566,125.468
2042.0200888391555,-77.416
2051.057300920809,125.468
2059.9445775734057,194.875
2068.9733079113576,72.077
2077.852245496608,165.51
2086.8725060258803,216.231
2095.743116275291,184.197
2104.6096010526526,189.536
2113.6172135316083,112.12
2122.4753884816528,194.875
2131.329446630596,64.069
2140.324437642892,125.468
2149.170203423979,112.12
2158.011861050589,40.043
2166.994257105456,282.969
2175.8276397748195,112.12
2184.656922912145,133.476
2193.48210937062,181.528
2202.303202000803,157.502
2211.2647105948345,173.519
2220.077557114586,232.248
2228.886318388424,290.978
2237.6909972563008,26.695
2246.4915965555265,224.24
2255.2881191208,197.545
2264.0805677841927,264.283
2272.8689453751285,-144.154
2281.6532547204406,152.163
2290.5774032157133,248.266
2299.353517963282,266.952
2308.125572976198,64.069
2316.893571070781,178.858
2325.6575150607823,205.553
2334.273835606975,136.146
2343.029746164546,213.562
2351.781610997117,165.51
2360.5294329081007,205.553
2369.273214698267,290.978
2378.0129591658333,210.892
2386.7486691064114,224.24
2395.48034731306,296.317
2404.2079965762314,395.089
2412.788641914361,445.81
2421.5083075861257,240.257
2430.2239526247795,178.858
2438.9355798105607,208.223
2447.64319192111,229.579
2456.204142101211,104.111
2464.9037980916983,162.841
2473.5994472792227,125.468
2482.148638712344,82.755
2490.836348166158,229.579
2499.5200590665554,181.528
2508.0575159626023,248.266
2516.7333034706826,-5.339
2525.405100652257,136.146
2533.930847154741,141.485
2542.5947372405863,152.163
2551.112711590584,208.223
2559.768705390503,50.721
2568.2789182109263,184.197
2576.927026515033,26.695
2585.5711635713087,80.086
2594.069721988235,277.63
2602.5644435408976,184.197
2611.196813145194,232.248
2619.683804921093,-42.712
2628.3083212822166,317.673
2636.7875938271245,114.789
2645.404267656864,77.416
2653.875831497382,224.24
2662.343576738021,128.137
2670.948539131641,-16.017
2679.408591378582,50.721
2687.8648328054915,349.707
2696.4581076233444,408.437
2704.906671724595,266.952
2713.351432764532,152.163
2721.792393310454,173.519
2730.370143142005,277.63
2738.8034471581705,74.747
2747.232958411034,165.51
2755.658679458633,205.553
2764.220946338093,232.248
2772.639031576786,205.553
2781.053334313052,82.755
2789.463857095703,146.824
2797.8706024712737,189.536
2806.2735729839987,149.493
2814.672771175843,157.502
2823.0681995864725,-2.67
2831.459860753297,272.291
2839.847757211428,258.944
2848.231891493713,315.004
2856.612266130724,112.12
2864.988883650767,261.613
2873.3617465798743,90.764
2881.7308574418275,210.892
2890.096218758139,176.188
2898.457833048058,77.0
2906.815702828586,-26.588
2915.169830614461,-118.299
2923.5202189181878,-181.864
2931.8668702499926,-201.004
2940.209787117892,-159.447
2948.41001618022,-40.922
2956.7455337723804,170.849
2965.077324369493,349.707
2973.405390470638,109.45
2981.7297345726547,160.171
2989.9117125592966,258.944
2998.2286820744484,210.892
3006.5419370261297,296.317
3014.8514799023105,184.197
3023.0189130185245,395.089
3031.3211009634906,98.772
3039.619584242202,309.665
3047.776149306213,200.214
3056.067292329164,467.166
3064.2166442633534,397.759
3072.500456765243,213.562
3080.780576892153,445.81
3088.919096831967,547.252
3097.1919010483834,440.471
3105.3232317767324,515.218
3113.588729774354,413.776
3121.712880813,589.965
3129.9710822664056,675.389
3138.0880631202745,752.805
3146.338977686973,699.415
3154.448797844241,891.621
3162.692435164703,1003.741
3170.7951040967964,1025.097
3178.894230970407,1179.929
3187.127000956163,912.977
3195.218990740796,878.273
3203.3074454664093,990.393
3211.5293695924192,1289.379
3219.610701328027,961.028
3227.688504985643,784.84
3235.899604670318,798.187
3243.9702993997853,880.942
3252.03747301393,918.316
3260.1011278165533,854.247
3268.297848330192,699.415
3276.354412870096,947.681
3284.407465536773,806.196
3292.4570086259846,704.754
3300.5030444314834,1022.427
3308.545575245,902.299
3316.720827896272,1139.886
3324.756296283769,646.024
3332.788266581294,851.578
3340.816741072602,811.535
3348.8417220394404,926.324
3356.8632117615925,1289.379
3364.8812125168406,985.054
3372.895726580995,894.29
3380.906756227865,1390.821
3388.91430372934,998.401
3396.918371355256,755.475
3404.9189613735507,712.763
3412.9160760501472,776.831
3420.909717649003,1006.41
3428.8998884321263,718.102
3436.886590659553,597.973
3444.734546370892,654.033
3452.714376952972,611.321
3460.690745709508,547.252
3468.663654892749,579.286
3476.633106752961,306.995
3484.5991035384795,413.776
3492.4267178764712,536.574
3500.385869715596,266.952
3508.341573175334,266.952
3516.293830496281,397.759
3524.1079469444667,363.055
3532.0533770164475,336.36
3539.9953676218797,218.901
3547.7993978646555,328.351
3555.734574435446,464.497
3563.666318194715,173.519
3571.460281747888,226.909
3579.385224652753,352.377
3587.30674138396,122.798
3595.090657713052,114.789
3603.00538673612,176.188
3610.782634691175,186.867
3618.6905847266535,160.171
3626.461172873067,176.188
3634.362352626544,144.154
3642.1262895150494,152.163
3650.020707677235,293.647
3657.778001843908,42.712
3665.665667090652,168.18
3673.416327056992,122.798
3681.163701429177,317.673
3689.041282322214,200.214
3696.782035212709,469.836
3704.6528847781447,136.146
3712.3870246721344,-40.043
3720.117889469839,146.824
3727.845481251112,194.875
3735.702951367959,24.026
3743.4239470074463,-5.339
3751.141675895298,138.815
3758.989119491133,349.707
3766.700264858686,-181.528
3774.408149723422,-617.036
3782.1127761528696,-824.469
3789.814146212797,-847.849
3797.644959575024,-731.2
3805.339767031168,-518.544
3813.03132434014,-253.909
3820.7196335607214,18.687
3828.404696749953,224.24
3836.086515963114,181.528
3843.76509325378,-250.935
3851.4404306737633,141.485
3859.112530273167,138.815
3866.7813941003615,170.849
3874.4470242019815,69.408
3882.109422622947,24.026
3889.7685914064414,125.468
3897.4245325939337,-109.45
3905.0772482251705,13.348
3912.7267403381848,189.536
3920.373010969284,240.257
3928.016062153074,184.197
3935.655895922435,157.502
3943.292514308545,448.48
3950.925919340858,272.291
3958.424585178429,-53.39
3966.051624900327,208.223
3973.675457311714,130.807
3981.296084435249,133.476
3988.913508291902,64.069
3996.396478310664,-29.365
4004.007556831755,-176.188
4011.615438103967,146.824
4019.220124141517,405.767
4026.690583777876,93.433
4034.288940385857,2.67
4041.8841077570687,419.115
4049.3452186808136,309.665
4056.934068499933,168.18
4064.519735065173,184.197
4071.971514814119,16.017
4079.550875675057,120.129
4086.996462302253,144.154
4094.5695253181984,170.849
4102.008926541021,64.069
4109.575699558212,32.034
4117.008923081237,547.252
4124.569413932906,114.789
4131.996467447912,13.348
4139.550683954272,112.12
4146.971575140262,184.197
4154.519525108568,229.579
4161.93426163181,114.789
4169.475952856366,157.502
4228.011654085007,315.004
4235.396210255021,168.18
4242.907210725418,37.373
4250.415076793586,168.18
4257.7904449892885,10.678
4265.292102093408,146.824
4272.790630641473,96.103
4280.156827999919,245.596
4287.649159161061,42.712
4295.138367597785,69.408
4302.4954112134365,104.111
4309.978433811593,189.536
4317.329402006981,160.171
4324.8062464273535,61.399
4332.151146724958,365.725
4339.621820615692,74.747
4346.960660525576,96.103
4354.425171522191,48.051
4361.757958542046,189.536
4369.216314267462,77.416
4376.543055882612,264.283
4383.9952639471885,218.901
4391.315967630617,-133.476
4398.762035632179,64.069
4406.07670884455,2.67
4413.516644368407,117.459
4420.825294558097,-34.704
4428.130962180556,210.892
4435.561739780205,130.807
4442.861395497304,229.579
4450.1580741507205,90.764
4457.579710724684,117.459
4464.870388562711,128.137
4472.158094827057,50.721
4479.570607232323,146.824
4486.852323743988,117.459
4494.131074158497,339.029
4501.534479210626,-42.712
4508.807250907994,168.18
4516.077061971264,117.459
4523.3439142079005,-93.433
4530.735219799091,256.274
4537.996107969229,-181.528
4545.254042757973,253.605
4552.509025966887,208.223
4559.888261734326,32.034
4567.13729547953,74.747
4574.383383072374,42.712
4581.626526308552,184.197
4588.866726982291,208.223
4596.103986886381,234.918
4603.338307812148,144.154
4610.69653172473,136.146
4617.92492857972,160.171
4625.150391852971,112.12
4632.372923329975,218.901
4639.592524794789,186.867
4646.809198030001,144.154
4654.022944816745,58.729
4661.233766934747,90.764
4668.441666162253,18.687
4675.646644276094,-82.755
4682.8487030516335,16.017
4690.047844262837,133.476
4697.244069682201,93.433
4704.437381080781,109.45
4711.627780228235,144.154
4718.815268892759,-2.67
4725.999848841122,98.772
4733.181521838655,128.137
4740.3602896492885,109.45
4747.536154035501,58.729
4754.583300303697,242.927
4761.753413983191,149.493
4768.9206294863325,200.214
4776.084948569973,165.51
4783.246372989488,61.399
4790.404904498872,128.137
4797.435032206777,-50.721
4804.5878338284165,325.682
4811.73774776268,181.528
4818.884775757928,379.072
4826.028919561082,120.129
4833.044920461813,141.485
4840.183351639585,240.257
4847.3189038270575,186.867
4854.451578765569,154.832
4861.456318765864,739.458
4868.58329482688,165.51
4875.707398824052,-8.009
4882.703723295803,173.519
4889.822138682386,152.163
4896.937687177771,-272.291
4903.925611277555,34.704
4911.035481404608,56.06
4918.142489800703,0.0
4925.122028648751,56.06
4932.223368894192,168.18
4939.197342363797,-114.789
4946.293021236786,181.528
4953.385846941688,128.137
4960.35146024984,528.565
4967.43863475923,189.536
4974.398699333346,10.678
4981.480229398396,48.051
4988.43475186592,120.129
4995.510644227063,277.63
5002.459631204903,40.043
5009.529892591847,69.408
5016.473350686378,122.798
5023.537987818112,8.009
5030.475923625207,-907.638
5037.534943210041,112.12
5044.467363315067,149.493
5051.397052412052,37.373
5058.447683028528,253.605
5065.371866252855,298.987
5072.416896017057,45.382
5079.335579928018,69.408
5086.251540943114,74.747
5093.288206657562,-85.425
5100.198678149784,-90.764
5107.106431592307,90.764
5114.134748143202,120.129
5121.037021830118,-56.06
5127.93658230202,216.231
5134.833431158368,80.086
5141.85065500065,117.459
5148.742037069234,109.45
5155.630712341699,96.103
5162.516682412504,165.51
5169.522839786696,90.764
5176.403355996677,24.026
5183.281171809234,82.755
5190.156288813778,90.764
5197.028708598496,-8.009
5204.021081907653,-45.382
5210.888063918697,64.069
5217.752353495271,210.892
5224.613952220541,64.069
5231.472861676462,216.231
5238.329083443728,32.034
5245.182619101804,125.468
5252.033470228904,37.373
5258.881638402017,229.579
5265.727125196914,112.12
5272.569932188097,-186.867
5279.532181775125,112.12
5286.369586094326,117.459
5293.204315354014,48.051
5300.036371123795,82.755
5306.865754971979,106.781
5313.692468465706,34.704
5320.516513170878,120.129
5327.216103720151,77.416
5334.034863128356,-117.459
5340.850958410447,74.747
5347.664391127459,160.171
5354.475162839211,178.858
5361.283275104273,-32.034
5368.088729480027,-5.339
5374.891527522632,197.545
5381.6916707870405,120.129
5388.489160826968,-61.399
5395.162686039381,53.39
5401.954921596684,122.798
5408.744508555763,141.485
5415.531448465517,216.231
5422.31574287366,-2.67
5428.976315601984,90.764
5435.7553708175255,216.231
5442.531785139763,157.502
5449.305560111599,-117.459
5456.076697274744,96.103
5462.724355191152,61.399
5469.490268392445,0.0
5476.253548375513,74.747
5482.893493883399,-29.365
5489.651558992991,117.459
5496.406995464167,128.137
5503.039241977291,-85.425
5509.789472642318,96.103
5516.5370792381145,8.009
5523.161640139158,82.755
5529.904049975114,96.103
5536.643840300443,234.918
5543.260728941095,120.129
5549.995331531944,-237.588
5556.607128017575,77.416
5563.336548861262,48.051
5569.943259067753,240.257
5576.667504142417,64.069
5583.269133936614,16.017
5589.988209211173,-53.39
5596.58476445092,93.433
5603.298675885118,13.348
5609.890162419251,202.884
5616.598915963696,104.111
5623.185339632037,141.485
5629.888941228186,-189.536
5636.470307861637,240.257
5643.16876344182,114.789
5649.745078862296,50.721
5656.438394349752,24.026
5663.009664370256,128.137
5669.578436568787,160.171
5676.264076103718,50.721
5682.827811578958,-21.356
5689.3890535265455,48.051
5696.067030305661,173.519
5702.623244186747,40.043
5709.176968824671,-34.704
5715.847296014435,-5.339
5722.39600122282,101.442
5728.942221462719,58.729
5735.4859581482815,170.849
5742.146121627004,82.755
5748.684850350968,258.944
5755.221099782248,178.858
5761.754871330697,424.454
5768.404894310675,66.738
5774.933669330552,72.077
5781.459970716278,90.764
5787.983799873429,40.043
5794.505158206499,168.18
5801.142549523138,58.729
5807.658925557145,0.0
5814.172834999641,45.382
5820.684279250832,69.408
5827.193259709879,-210.892
5833.699777774898,69.408
5840.203834842934,48.051
5846.7054323099655,61.399
5853.204571570954,130.807
5859.701254019747,125.468
5866.195481049195,154.832
5872.687254051074,-154.832
5879.176574416102,-10.678
5885.663443533944,0.0
5892.14786279323,61.399
5898.629833581537,69.408
5905.109357285379,80.086
5911.586435290243,56.06
5918.061068980562,-88.094
5924.533259739736,58.729
5931.003008950094,2.67
5937.470317992949,136.146
5943.935188248557,96.103
5950.397621096134,58.729
5956.857617913869,122.798
5963.315180078898,154.832
5969.7703089673305,114.789
5976.105705888956,10.678
5982.556016527509,85.425
5989.003897986593,82.755
5995.449351638199,-82.755
6001.8923788532775,21.356
6008.215900781644,416.446
6014.654123287393,85.425
6021.089923438405,125.468
6027.523302601519,29.365
6033.954262142564,146.824
6040.265942433929,-296.317
6046.692110755517,29.365
6053.115863521547,-13.348
6059.420472023492,176.188
6065.839441620141,-18.687
6072.255999718647,173.519
6078.553548309683,133.476
6084.965331270854,2.67
6091.374706782226,154.832
6097.665207314269,72.077
6104.06981570238,213.562
6110.472020679961,-64.069
6116.755484978421,152.163
6123.152930828903,331.021
6129.431725134898,-93.433
6135.824417162912,149.493
6142.098546680769,253.605
6148.486490183052,192.206
6154.872039648391,221.57
6161.139160374798,64.069
6167.519969269015,10.678
6173.782438208022,120.129
6180.158511808193,-16.017
6186.416334137088,10.678
6192.787677712448,77.416
6199.040858600842,104.111
6205.291741972564,149.493
6211.656022022646,256.274
6217.902271670246,18.687
6224.261834810408,189.536
6230.503455884398,69.408
6236.742785809074,136.146
6243.095304999864,26.695
6249.330014038809,40.043
6255.677829386121,13.348
6261.907922670827,8.009
6268.1357311500615,66.738
6274.476522051649,0.0
6280.699722436162,117.459
6286.920641805642,96.103
6293.139281413962,-42.712
6299.470738832184,106.781
6305.684780516531,32.034
6311.896546218988,117.459
6318.106037189755,50.721
6324.428181717434,128.137
6330.633084905065,106.781
6336.835717129172,240.257
6343.036079636258,-58.729
6349.234173671932,40.043
6355.544716640681,96.103
6361.738235515753,173.519
6367.929489673777,125.468
6374.118480356665,50.721
6380.305208805476,170.849
6386.489676260331,2.67
6392.671883960451,85.425
6398.851833144166,-48.051
6405.143905470883,66.738
6411.319299566196,205.553
6417.492438877496,173.519
6423.663324639478,45.382
6429.831958085924,248.266
6435.998340449718,37.373
6442.162472962846,298.987
6448.324356856407,-74.747
6454.483993360576,202.884
6460.641383704664,106.781
6466.79652911704,130.807
6472.949430825232,2.67
6479.100090055821,90.764
6485.248508034543,261.613
6491.280888225534,181.528
6497.424868822251,104.111
6503.5666118162335,-2.67
6509.706118429633,-152.163
6515.843389883739,74.747
6521.978427398899,50.721
6528.111232194642,205.553
6534.241805489546,74.747
6540.256680928833,-48.051
6546.382836142315,56.06
6552.506763482961,53.39
6558.628464165849,205.553
6564.747939405184,333.69
6570.751928194237,-50.721
6576.866997341494,104.111
6582.979844660076,-21.356
6589.090471360658,2.67
6595.0857801617385,96.103
6601.192010321647,90.764
6607.296023467985,29.365
6613.39782080795,88.094
6619.384468430493,98.772
6625.481878753591,80.086
6631.577076864334,202.884
6637.5572509579,34.704
6643.64806916556,176.188
6649.623946782151,221.57
6655.71038980603,96.103
6661.794626582923,144.154
6667.764048126817,64.069
6673.843916808139,162.841
6679.809053455574,77.416
6685.884558743659,21.356
6691.957863728712,170.849
6697.916561697035,-85.425
6703.985510351609,58.729
6709.939934962422,192.206
6716.004531971987,373.733
6721.954687820689,16.017
6728.014937863976,168.18
6733.960829539363,88.094
6739.904610751524,0.0
6745.95836937274,61.399
6751.897893261092,162.841
6757.947316561804,128.137
6763.8825876987685,40.043
6769.927680334353,-66.738
6775.858703285812,141.485
6781.787623684751,85.425
6787.826249230238,61.399
6793.750928258974,96.103
6799.673508107371,-176.188
6805.705676935038,53.39
6811.624022213946,304.326
6817.540271677499,202.884
6823.5659941374615,-451.149
6829.478015817709,40.043
6835.387945040406,117.459
6841.407231460638,32.034
6847.312939671727,24.026
6853.216558775894,-37.373
6859.118089881435,210.892
6865.017534095896,234.918
6871.026143398485,114.789
6876.921377827312,-50.721
6882.814528703813,114.789
6888.705597132364,-2.67
6894.594584216582,32.034
6900.592544785228,32.034
6906.477333270021,82.755
6912.360043737404,50.721
6918.240677287846,-29.365
6924.119235021055,58.729
6929.995718035963,146.824
6935.870127430717,29.365
6941.742464302697,-152.163
6947.6127297485,186.867
6953.480924863958,69.408
6959.347050744116,-90.764
6965.21110848328,218.901
6971.073099174937,77.416
6976.93302391185,-42.712
6982.79088378598,112.12
6988.64667988853,106.781
6994.500413309928,58.729
7000.35208513985,368.394
7006.201696467178,64.069
7012.049248380063,-186.867
7017.894741965851,72.077
7023.738178311156,61.399
7029.579558501813,-48.051
7035.418883622879,-101.442
7041.2561547586665,-184.197
7047.091372992727,29.365
7052.924539407839,53.39
7058.645653010426,90.764
7064.474757695687,-109.45
7070.301813785409,170.849
7076.126822359336,149.493
7081.949784496486,93.433
7087.660891581778,112.12
7093.479802640664,90.764
7099.296670474898,192.206
7105.111496160462,16.017
7110.814624476749,133.476
7116.625407570507,331.021
7122.434151718757,136.146
7128.2408579944895,0.0
7133.936024250346,74.747
7139.73869639702,-21.356
7145.53933386541,125.468
7151.22854892195,253.605
7157.025158582874,24.026
7162.819736753059,130.807
7168.503009933542,-10.678
7174.293566604632,176.188
7180.082094965896,-66.738
7185.759435574095,186.867
7191.54394873148,202.884
7197.2173519438,-16.017
7202.997854073568,-32.034
7208.667323984642,42.712
7214.443819257263,157.502
7220.109359956041,-32.034
7225.881852536215,-21.356
7231.54346810597,77.416
7237.311962152613,144.154
7242.969656670975,146.824
7248.734156337254,101.442
7254.387933876205,77.416
7260.148443309525,66.738
7265.798307935409,90.764
7271.554831277448,266.952
7277.20078705097,138.815
7282.953328437674,-16.017
7288.59537941395,-138.815
7294.235498085545,112.12
7299.982093204053,-80.086
7305.618313131272,29.365
7311.252603748333,-104.111
7316.993261813666,-24.026
7322.623659726734,96.103
7328.252131317968,45.382
7333.9868615261075,-34.704
7339.611446441268,16.017
7345.234108016753,-16.017
7350.962919544712,253.605
7356.581700459581,50.721
7362.198561010817,181.528
7367.813502182726,-5.339
7373.426524958988,130.807
7379.145517410223,208.223
7384.7546694986595,88.094
7390.361906157261,160.171
7395.967228366993,80.086
7401.570637108154,29.365
7407.279835705631,8.009
7412.879383697611,85.425
7418.477021176703,218.901
7424.072749120482,-40.043
7429.666568505905,194.875
7435.258480309247,120.129
7440.848485506111,13.348
7446.436585071431,101.442
7452.022779979503,176.188
7457.607071203925,165.51
7463.296794702215,-29.365
7468.877244915177,192.206
7474.455794380043,8.009
7480.032444067743,2.67
7485.607194948596,176.188
7491.18004799222,109.45
7496.751004167574,104.111
7502.2129850032,-90.764
7507.7801867781745,125.468
7513.345494569261,173.519
7518.908909342786,88.094
7524.470432064445,133.476
7530.03006369928,165.51
7535.587805211653,-10.678
7541.1436575652915,106.781
7546.697621723266,58.729
7552.249698647978,53.39
7557.693172648,29.365
7563.241514237732,93.433
7568.787971459049,88.094
7574.332545271769,32.034
7579.87523663506,34.704
7585.416046507413,146.824
7590.848475703144,72.077
7596.385561603231,69.408
7601.920768865631,42.712
7607.454098446255,53.39
7612.879194899509,197.545
7618.4088080453,149.493
7623.936546354853,2.67
7629.462410781522,-133.476
7634.880189328982,109.45
7640.402344837916,58.729
7645.9226293018255,2.67
7651.334937948188,189.536
7656.851519109852,186.867
7662.260197498763,-77.416
7667.773079083498,85.425
7673.284094334183,32.034
7678.687316594296,80.086
7684.194637864675,122.798
7689.7000956236625,82.755
7695.097870006797,-26.695
7700.599639370841,42.712
7705.993798107356,192.206
7711.491882781789,88.094
7716.882429503323,50.721
7722.376833188511,37.373
7727.763771521855,-232.248
7733.254497913214,-37.373
7738.637831480286,29.365
7744.124884268305,125.468
7749.504616686187,-53.39
7754.987999556393,146.824
7760.364134437317,122.798
7765.738489349154,-90.764
7771.216392021717,34.704
7776.587154788423,29.365
7782.061396717661,66.738
7787.428570939446,53.39
7792.793969640064,173.519
7798.262745065967,88.094
7803.624560595526,125.468
7808.984603262106,58.729
7814.447920368751,50.721
7819.804385227417,82.755
7825.159079875983,82.755
7830.616946831127,69.408
7835.968069024231,114.789
7841.317423654822,165.51
7846.665011598543,117.459
7852.115636126822,18.687
7857.459658723532,208.223
7862.801917273948,66.738
7868.142412651388,-133.476
7873.481145728587,160.171
7878.922746278997,29.365
7884.257922859626,165.51
7889.59133977185,261.613
7894.922997886111,8.009
7900.252898072242,45.382
7905.581041199541,24.026
7910.907428136696,48.051
7916.336446752692,66.738
7921.65928952102,-280.3
7926.980378718883,120.129
7932.29971521271,40.043
7937.617299868325,18.687
7942.933133550996,16.017
7948.247217125423,218.901
7953.559551455743,200.214
7958.870137405502,112.12
7964.178975837705,98.772
7969.486067614758,42.712
7974.791413598527,269.622
7980.0950146503055,21.356
7985.396871630804,117.459
7990.696985400187,165.51
7995.995356818043,112.12
8001.291986743403,178.858
8006.586876034729,120.129
8011.880025549901,536.574
8017.067699705829,64.069
8022.357406311574,-50.721
8027.645375694708,77.416
8032.931608710882,88.094
8038.216106215201,485.853
8043.498869062179,72.077
8048.779898105804,82.755
8053.955695240969,-26.695
8059.233293192043,96.103
8064.509159881611,85.425
8069.783296161415,77.416
8074.952338977277,0.0
8080.223050878609,125.468
8085.492034905405,96.103
8090.759291907168,146.824
8095.921593616502,226.909
8101.185432936367,56.06
8106.447547759821,178.858
8111.604810570996,317.673
8116.863512715307,53.39
8122.120492886879,325.682
8127.272724173963,-125.468
8132.526296659391,-85.425
8137.778149690843,98.772
8142.925356813517,128.137
8148.173807142077,53.39
8153.4205405305,136.146
8158.562730834117,-13.348
8163.806066493191,312.334
8168.944927307508,162.841
8174.184868536668,-45.382
8179.32040309432,106.781
8184.55695318873,165.51
8189.689164718173,-34.704
8194.922326968728,213.562
8200.051218694258,245.596
8205.280996387602,77.416
8210.406571529322,-205.553
8215.632967947844,-45.382
8220.7552297217,77.416
8225.978248143558,-74.747
8231.097199761349,122.798
8236.316843460441,261.613
8241.43248812982,-50.721
8246.546496881761,26.695
8251.76110130029,317.673
8256.871807891675,0.0
8261.98088093357,96.103
8267.190453365733,181.528
8272.296229025691,264.283
8277.400373499535,-72.077
8282.604921225458,-133.476
8287.705773086778,58.729
8292.804996120794,-18.687
8298.004526406577,98.772
8303.100461588281,312.334
8308.194770296956,-21.356
8313.28745331115,58.729
8318.48031600209,-24.026
8323.569717486189,48.051
8328.657495624051,53.39
8333.743651192239,21.356
8338.828184966831,-21.356
8344.012739449463,0.0
8349.093999566121,-74.747
8354.17364022991,85.425
8359.251662214898,-5.339
8364.328066294685,61.399
8369.402853242376,-34.704
8374.476023830553,66.738
8379.547578831349,109.45
8384.718901354245,61.399
8389.787195221597,-2.67
8394.853875830348,18.687
8399.91894395064,56.06
8404.98240035212,16.017
8410.044245803958,-40.043
8415.104481074803,16.017
8420.163106932847,-50.721
8425.220124145773,-42.712
8430.275533480788,56.06
8435.32933570461,40.043
8440.381531583458,-53.39
8445.432121883085,-109.45
8450.48110736873,-149.493
8455.528488805172,133.476
8460.473367100913,-32.034
8465.51757477424,80.086
8470.560180674485,261.613
8475.601185564497,-104.111
8480.64059020661,42.712
8485.67839536271,269.622
8490.714601794163,61.399
8495.749210261878,-178.858
8500.681576948675,-170.849
8505.713023691114,152.163
8510.742874734438,-37.373
8515.771130837642,69.408
8520.797792759218,-66.738
8525.722375497866,-136.146
8530.745883175656,-29.365
8535.7677989293,29.365
8540.788123515384,42.712
8545.706498587671,80.086
8550.723674892208,-34.704
8555.739262280982,117.459
8560.652997083213,104.111
8565.665440644778,-29.365
8570.676297538128,189.536
8575.585398634048,144.154
8580.593116146138,128.137
8585.599249233324,-37.373
8590.503723174297,173.519
8595.506721317797,-66.738
8600.508137275468,-202.884
8605.40799060051,37.373
8610.406276043708,-13.348
8615.303062904772,26.695
8620.298220771765,-146.824
8625.191944046568,149.493
8630.18397727198,-90.764
8635.074639834631,-50.721
8640.063551349394,88.094
8644.951156070434,157.502
8649.936948801806,24.026
8654.821498548154,-576.617
8659.804175419777,258.944
8664.685673054784,-16.017
8669.665236986599,-200.214
8674.543685370048,53.39
8679.520139278378,-72.077
8684.395541266465,266.952
8689.2694364983,-98.772
8694.241246509358,-101.442
8699.112099609058,16.017
8703.981448060618,-40.043
8708.948620671701,-21.356
8713.81493124642,197.545
8718.779005433622,77.416
8723.642280973501,-50.721
8728.504055374753,189.536
8733.364329332315,85.425
8738.32224658698,26.695
8743.179491154478,24.026
8748.035237374625,114.789
8752.889485940628,-24.026
8757.8412577103,-162.841
8762.692482517024,162.841
8767.542211760752,-85.425
8772.39044613298,93.433
8777.336083836857,-40.043
8782.18130006664,24.026
8787.02502351089,80.086
8791.867254859393,-130.807
8796.707994801498,48.051
8801.547244026118,5.339
8806.385003221756,-120.129
8811.319956958603,-130.807
8816.154707786565,-48.051
8820.987970662514,-32.034
8825.819746273257,98.772
8830.650035305174,-32.034
8835.478838444196,-32.034
8840.306156375878,5.339
8845.131989785303,50.721
8849.956339357173,61.399
8854.779205775758,-16.017
8859.60058972489,80.086
8864.420491888006,-112.12
8869.238912948098,74.747
8874.055853587757,82.755
8878.871314489159,0.0
8883.685296334032,-42.712
8888.497799803714,-64.069
8893.308825579123,-74.747
8898.118374340735,45.382
8902.926446768637,-16.017
8907.634964476681,93.433
8912.440116370435,37.373
8917.243793954342,90.764
8922.045997906822,85.425
8926.846728905857,-16.017
8931.645987629043,-101.442
8936.443774753548,56.06
8941.142221650607,61.399
8945.937097605834,-66.738
8950.73050397759,16.017
8955.522441441404,-13.348
8960.215160665939,10.678
8965.004192282166,-42.712
8969.791757000756,101.442
8974.577855495572,-5.339
8979.26485751475,2.67
8984.048055470721,-72.077
8988.829789208343,-45.382
8993.51251749025,-69.408
8998.291354655303,26.695
9003.068729603765,-40.043
9007.747189991118,-40.043
9012.521672326067,74.747
9017.294694442531,-26.695
9021.968892767374,-357.716
9026.739026222178,96.103
9031.41039612206,93.433
9036.17764353675,-69.408
9040.943434050514,205.553
9045.610551571128,-197.545
9050.373459984672,120.129
9055.037755503963,-69.408
9059.797784430888,-32.034
9064.45926050758,-133.476
9069.216412558366,8.009
9073.87507174812,-74.747
9078.629349530078,-2.67
9083.285194385431,-50.721
9088.036600502714,104.111
9092.689633573158,373.733
9097.438170626783,120.129
9102.088394458704,-37.373
9106.73722909284,-157.502
9111.481482183284,16.017
9116.12751137963,-64.069
9120.868901881862,-74.747
9125.512128179163,-125.468
9130.153968412898,8.009
9134.891084617178,13.348
9139.53012574118,-205.553
9144.167782675046,-16.017
9148.9006303586,10.678
9153.535491965213,8.009
9158.168971251744,232.248
9162.801068836525,13.348
9167.528243916331,117.459
9172.157551197888,-37.373
9176.785478643267,-21.356
9181.412026869286,-80.086
9186.13353953768,-85.425
9190.757302472506,8.009
9195.37968804908,197.545
9200.000696882766,2.67
9204.620329588544,-8.009
9209.334785850184,-72.077
9213.951639506451,85.425
9218.567118890363,-277.63
9223.181224615444,32.034
9227.79395729483,-26.695
9232.40531754132,-472.506
9237.015305967328,-16.017
9241.623923184923,0.0
9246.23116980579,112.12
9250.932987640888,88.094
9255.537466379788,224.24
9260.140576367572,0.0
9264.742318214474,-261.613
9269.342692530376,66.738
9273.941699924766,274.961
9278.539341006806,-58.729
9283.135616385269,-61.399
9287.730526668583,34.704
9292.324072464791,-98.772
9296.91625438162,98.772
9301.411444872112,-125.468
9306.00092923447,-352.66
9310.589051525738,-454.331
9315.175812352172,-457.546
9319.761212319692,-389.361
9324.345252033823,-276.846
9328.927932099774,-147.061
9333.509253122353,-27.071
9338.08921570604,56.06
9342.572446701386,34.704
9347.149722488744,-152.163
9351.7256416359,69.408
9356.300204745894,98.772
9360.873412421412,205.553
9365.350032145325,88.094
9369.920558965528,-5.339
9374.489732144635,130.807
9379.05755228394,-21.356
9383.528899030936,181.528
9388.09404305015,-56.06
9392.657835818722,-117.459
9397.125240831178,26.695
9401.6863610176,77.416
9406.246131739394,-34.704
9410.80455359534,-168.18
9415.266701898625,10.678
9419.822455888205,-13.348
9424.281993052333,-5.339
9428.835081516963,-146.824
9433.38682407955,-160.171
9437.84243511156,13.348
9442.391515668474,-128.137
9446.84452129656,-34.704
9451.390942182352,-2.67
9455.93602012123,5.339
9460.385108237591,5.339
9464.927530014324,-24.026
9469.374018445214,-66.738
9473.913786387537,-42.712
9478.35767741084,-24.026
9482.894793843763,-77.416
9487.33608973474,-114.789
9491.87055698055,-88.094
9496.30926001177,26.695
9500.74668109923,-80.086
9505.277192831463,0.0
9509.71202445114,-8.009
9514.23989277796,18.687
9518.672137195834,-5.339
9523.103102466685,-8.009
9527.62702390948,85.425
9532.05540536064,80.086
9536.57668916292,18.687
9541.002489053764,-32.034
9545.42701258622,-120.129
9549.850260312329,-13.348
9554.36630345335,-160.171
9558.78697410632,-21.356
9563.206370618926,32.034
9567.718482324255,2.67
9572.13530512818,-16.017
9576.550855454823,-34.704
9580.965133854,-34.704
9585.47202083257,106.781
9589.883729992052,93.433
9594.294168883298,-42.712
9598.703338054846,93.433
9603.111238054931,37.373
9607.611613766734,-315.004
9612.016950092931,13.348
9616.421018902103,186.867
9620.823820741218,-114.789
9625.225356156909,53.39
9629.625625695517,-120.129
9634.02462990307,125.468
9638.422369325252,-144.154
9642.81884450748,50.721
9647.21405599481,114.789
9651.701478874824,-48.051
9656.094137748323,98.772
9660.485534571855,-18.687
9664.875669889248,-24.026
9669.264544244,37.373
9673.65215817932,72.077
9678.03851223808,77.416
9682.423606962846,-109.45
9686.807442895892,69.408
9691.19002057915,5.339
9695.478134071804,77.416
9699.858223622705,-8.009
9704.23705653629,-24.026
9708.614633353289,77.416
9712.990954614088,-82.755
9717.36602085878,53.39
9721.739832627154,-202.884
9726.112390458671,5.339
9730.483694892511,10.678
9734.760779687776,-26.695
9739.129605581998,40.043
9743.497179682729,-154.832
9747.863502527893,112.12
9752.228574655115,32.034
9756.499562339395,-40.043
9760.862161224974,45.382
9765.223510992222,82.755
9769.583612177565,34.704
9773.849736751828,-18.687
9778.207368918504,101.442
9782.563754099236,114.789
9786.918892829211,77.416
9791.18016259473,-58.729
9795.532836519418,88.094
9799.884265585692,106.781
9804.14190615754,-122.798
9808.490873566669,18.687
9812.83859770701,-8.009
9817.09261371952,117.459
9821.437879345483,21.356
9825.689490172908,-40.043
9830.032299369228,-165.51
9834.373867936378,133.476
9838.621861899856,242.927
9842.960977171238,-34.704
9847.206571054325,-109.45
9851.543235108787,96.103
9855.786430944943,66.738
9860.12064585897,-112.12
9864.361445679362,56.06
9868.693213527116,61.399
9872.931619360628,-101.442
9877.26094221391,168.18
9881.49695608711,237.588
9885.823836015392,-2.67
9890.057459952584,-122.798
9894.289902518456,-122.798
9898.613135046206,-101.442
9902.843190697367,168.18
9907.163985452502,53.39
9911.391656207565,435.132
9915.61814808206,-5.339
9919.935303126713,93.433
9924.15941311792,85.425
9928.38234571751,112.12
9932.695865648708,-13.348
9936.91641937277,141.485
9941.135797191648,-29.365
9945.445686598703,-66.738
9949.662688544726,133.476
9953.878516069532,-96.103
9958.09316966365,45.382
9962.398234183594,21.356
9966.61051589339,-50.721
9970.821625153134,-125.468
9975.031562452265,2.67
9979.240328279942,58.729
9983.53937957713,544.583
9987.745778488254,400.428
9991.95100740443,-88.094
9996.155066813732,-80.086
10000.357957203963,-50.721
10004.55967906266,-138.815
10008.760232877092,-45.382
10013.050897176752,16.017
10017.249090997648,317.673
10021.446118245014,-197.545
10025.641979405023,40.043
10029.83667496358,-5.339
10034.03020540632,-10.678
10038.222571218605,-13.348
10042.413772885537,109.45
10046.603810891938,186.867
10050.79268572236,56.06
10054.980397861098,0.0
10059.16694779218,96.103
10063.352335999334,-144.154
10067.536562966066,178.858
10071.719629175575,16.017
10075.90153511081,-29.365
10080.082281254454,45.382
10084.26186808891,-58.729
10088.440296096323,363.055
10092.52676786215,-85.425
10096.702904826674,18.687
10100.877884398516,-45.382
10105.051707058765,72.077
10109.224373288234,-98.772
10113.395883567471,205.553
10117.475590772649,50.721
10121.64481569536,21.356
10125.812886097472,-96.103
10129.979802458443,-64.069
10134.145565257517,-66.738
10138.219652237512,-5.339
10142.383134400929,-5.339
10146.545464428116,85.425
10150.706642797257,-32.034
10154.776246850048,18.687
10158.935148346747,-45.382
10163.092899607942,32.034
10167.159152430871,-317.673
10171.314629631466,90.764
10175.468958016776,160.171
10179.531863747628,0.0
10183.683920879565,5.339
10187.834830614069,-125.468
10191.894393383842,-2.67
10196.043034667582,32.034
10200.190529969435,-5.339
10204.246753902304,-98.772
10208.391983551395,-45.382
10212.44599199288,-45.382
10216.588957845182,-253.605
10220.640752609928,-5.339
10224.781456519388,40.043
10228.831039420063,-266.952
10232.969483238625,-141.485
10237.016856085897,-66.738
10241.15304166346,21.356
10245.19820626604,2.67
10249.332135450502,85.425
10253.375093615126,-85.425
10257.506768252357,149.493
10261.547521783785,-77.416
10265.58718577827,138.815
10269.715494418666,106.781
10273.752956473523,24.026
10277.87901516247,-13.348
10281.91427707755,101.442
10285.948451675904,24.026
10290.0711512271,8.009
10294.10312837192,77.416
10298.13401952729,-48.051
10302.253364041218,53.39
10306.282060424935,-98.772
10310.309672144327,-194.875
10314.425665714796,34.704
10318.451085340042,-101.442
10322.475421623927,45.382
10326.498675003731,74.747
10330.610215200984,61.399
10334.631280043344,-2.67
10338.651263301725,53.39
10342.670165412448,-80.086
10346.687986811625,-66.738
10350.704727935088,-21.356
10354.80961387438,93.433
10358.824171771252,-122.798
10362.837650708272,-157.502
10366.850051120337,96.103
10370.86137344214,29.365
10374.871618108127,72.077
10378.880785552512,133.476
10382.888876209276,152.163
10386.984923052532,-5.339
10390.990837530662,106.781
10394.995676531347,45.382
10398.999440487634,48.051
10403.00212983234,93.433
10407.003744998048,45.382
10411.004286417105,-85.425
10415.003754521616,40.043
10419.002149743475,-96.103
10422.999472514348,-45.382
10426.995723265634,93.433
10430.990902428544,-21.356
10434.985010434026,-106.781
10438.889325180557,184.197
10442.881315942828,-154.832
10446.872236829608,18.687
10450.86208827093,-114.789
10454.85087069661,48.051
10458.838584536235,109.45
10462.82523021915,237.588
10466.810808174472,-114.789
10470.706785742112,-18.687
10474.690253232264,-45.382
10478.672654271297,13.348
10482.653989287404,138.815
10486.634258708573,-32.034
10490.525047770485,13.348
10494.50321094102,21.356
10498.480309789697,58.729
10502.45634474356,-112.12
10506.342995080442,-125.468
10510.316927143493,-162.841
10514.2897965821,-208.223
10518.261603822417,152.163
10522.144122034457,-58.729
10526.113829736623,-34.704
10530.082476508169,82.755
10533.961905709137,0.0
10537.92845544769,24.026
10541.89394552126,-333.69
10545.770289396216,64.069
10549.733684937964,53.39
10553.607981637546,-80.086
10557.569284306495,64.069
10561.52952941227,-82.755
10565.400746905443,-88.094
10569.35890163298,72.077
10573.22807600992,90.764
10577.184142013864,69.408
10581.05127489159,-272.291
10585.005253824836,18.687
10588.87034681866,184.197
10592.822240332363,2.67
10596.685295055897,58.729
10600.635104799476,85.425
10604.496122864624,-42.712
10608.443850485746,120.129
10612.302833502728,117.459
10616.160811022752,-5.339
10620.10543022464,-8.009
10623.9613750996,-53.39
10627.903916281392,-53.39
10631.757830117263,109.45
10635.61074043666,-37.373
10639.550179321655,5.339
10643.401060998756,-69.408
10647.250940343372,189.536
10651.187280591832,-53.39
10655.035133687184,13.348
10658.881985632182,165.51
10662.815230898605,-5.339
10666.660058983602,64.069
10670.50388709854,-42.712
10674.346715633475,80.086
10678.275847672114,-149.493
10682.116655520924,-192.206
10685.956464967534,-45.382
10689.795276401208,-58.729
10693.633090210977,229.579
10697.557095575656,-8.009
10701.39289265285,-56.06
10705.227693280882,160.171
10709.061497847986,-288.308
10712.894306742182,66.738
10716.726120351308,122.798
10720.55693906298,-50.721
10724.386763264632,13.348
10728.302600658342,168.18
10732.130414421008,32.034
10735.957234843503,-45.382
10739.783062312445,-88.094
10743.60789721425,-74.747
10747.431739935131,66.738
10751.254590861114,88.094
10755.076450378,-160.171
10758.897318871408,-152.163
10762.717196726757,42.712
10766.536084329256,-125.468
10770.353982063916,-85.425
10774.170890315563,-58.729
10777.98680946881,72.077
10781.801739908076,77.416
10785.615682017564,98.772
10789.341989100834,-109.45
10793.153978142976,-5.339
10796.964979998098,-82.755
10800.774995049622,-74.747
10804.58402368077,-136.146
10808.392066274577,-32.034
10812.199123213884,-18.687
10816.005194881312,-152.163
10819.723813349112,-114.789
10823.52793799081,-53.39
10827.331078498672,-160.171
10831.133235254529,-50.721
10834.848029253728,-85.425
10838.64824198676,138.815
10842.447472103491,53.39
10846.24571998498,66.738
10849.956695412544,8.009
10853.753002267928,2.67
10857.548328021428,-24.026
10861.342673053316,-50.721
10865.049835794096,-16.017
10868.842242790466,104.111
10872.63367019626,-18.687
10876.337982712816,213.562
10880.12747431772,2.67
10883.82989575329,88.094
10887.617453039476,61.399
10891.404032613404,74.747
10895.103609289945,-18.687
10898.88825677408,122.798
10902.585945994537,29.365
10906.368662867266,2.67
10910.150403901262,13.348
10913.845253813895,98.772
10917.62506645972,160.171
10921.318032531915,-74.747
10925.095918264182,77.416
10928.787001936307,-48.051
10932.562962228116,-16.017
10936.252164939066,18.687
10939.940438510435,176.188
10943.713524449233,-93.433
10947.399919206764,-8.009
10951.171083372872,133.476
10954.855600751816,-213.562
10958.62484461311,-56.06
10962.307486047235,24.026
10965.989200819247,-77.416
10969.755577991731,-56.06
10973.435418958636,-114.789
10977.114334320191,-154.832
10980.877848072992,26.695
10984.554891765896,-16.017
10988.231010908596,21.356
10991.991664505884,298.987
10995.665914113146,-10.678
10999.33924022374,5.339
11003.011643185791,32.034
11006.768495629847,-58.729
11010.439031890255,2.67
11014.108646053544,40.043
11017.777338467138,29.365
11021.530395518184,-88.094
11025.197224058184,133.476
11028.863131897786,34.704
11032.528119383707,93.433
11036.192186862492,-216.231
11039.855334680517,-197.545
11043.602720353196,32.034
11047.264008520897,184.197
11050.924378073953,-154.832
11054.58382935806,72.077
11058.242362718707,216.231
11061.899978501227,34.704
11065.556677050785,120.129
11069.21245871235,-61.399
11072.867323830738,-26.695
11076.521272750586,5.339
11080.174305816368,-26.695
11083.826423372368,170.849
11087.477625762698,-157.502
11091.127913331318,-205.553
11094.777286422,-21.356
11098.425745378345,40.043
11102.073290543767,42.712
11105.719922261547,58.729
11109.36564087477,-170.849
11113.010446726335,2.67
11116.654340159006,69.408
11120.29732151534,-45.382
11123.93939113774,21.356
11127.580549368427,-109.45
11131.22079654947,-10.678
11134.77550763161,-165.51
11138.413954906267,-186.867
11142.051492148485,-48.051
11145.688119699626,-64.069
11149.323837900913,64.069
11152.958647093375,85.425
11156.508048620988,-13.348
11160.141061938251,-109.45
11163.773167260852,-69.408
11167.40436492916,-37.373
11170.950240228543,5.339
11174.579644697213,-8.009
11178.208142523734,-184.197
11181.751381744987,-85.425
11185.378088371155,125.468
11189.003889365817,48.051
11192.628785068173,26.695
11196.16850723805,26.695
11199.79161440632,32.034
11203.413817290922,-138.815
11206.950910239968,363.055
11210.571326582844,144.154
11214.10667518314,0.0
11217.725306305692,2.67
11221.343034819707,-90.764
11224.875759069631,-69.408
11228.49170435076,2.67
11232.022687482247,40.043
11235.636850848638,-42.712
11239.166094148528,-34.704
11242.778476917028,-130.807
11246.305981670925,-72.077
11249.91658515709,-333.69
11253.442352649325,-56.06
11257.05117816741,-74.747
11260.575209681025,5.339
11264.182258544,16.017
11267.704555360804,-66.738
11271.309828880325,-24.026
11274.83039228086,-13.348
11278.350099642112,69.408
11281.952723030843,42.712
11285.470698886753,18.687
11288.987819646914,-64.069
11292.587795825824,-82.755
11296.103186988752,101.442
11299.70139304264,-117.459
11303.215055883851,106.781
11306.727865201254,48.051
11310.23982130582,-149.493
11313.834511810855,-93.433
11317.34474212601,-10.678
11320.8541201677,50.721
11324.446172200132,-18.687
11327.953826352135,64.069
11331.460629168672,0.0
11334.96658095964,181.528
11338.471682034791,-202.884
11342.059356881087,21.356
11345.562737216636,109.45
11349.06526777208,-253.605
11352.566948856567,21.356
11356.067780779093,2.67
11359.56776384851,88.094
11363.1502007606,18.687
11366.648466857394,-42.712
11370.145885034064,106.781
11373.642455598843,152.163
11377.138178859836,189.536
11380.633055125,-114.789
11384.1270847021,16.017
11387.620267898808,-274.961
11391.112605022612,114.789
11394.60409638087,-10.678
11398.094742280777,21.356
11401.584543029392,-50.721
11405.073498933603,-48.051
11408.561610300185,26.695
11412.048877435727,53.39
11415.5353006467,-29.365
11419.020880239405,-50.721
11422.505616520008,-53.39
11425.989509794525,258.944
11429.472560368817,88.094
11432.954768548592,-88.094
11436.43613463944,-2.67
11439.916658946764,37.373
11443.313501961433,-21.356
11446.79236364179,144.154
11450.270384446749,-37.373
11453.74756468115,90.764
11457.22390464968,69.408
11460.699404656869,-114.789
11464.091344754375,-58.729
11467.565185732994,5.339
11471.038187655771,-53.39
11474.51035082668,34.704
11477.981675549512,-13.348
11481.369541233144,-77.416
11484.839209915755,13.348
11488.30804105362,-34.704
11491.693473394258,-58.729
11495.16065027576,5.339
11498.626990514544,154.832
11502.092494413417,-125.468
11505.474679896604,-26.695
11508.938531918346,29.365
11512.401548500471,90.764
11515.78130675673,-285.639
11519.242673239612,80.086
11522.620821260369,8.009
11526.080538823127,-50.721
11529.5394224415,93.433
11532.915147579475,32.034
11536.372384051368,165.51
11539.74650183491,136.146
11543.202092336618,69.408
11546.574603913472,-104.111
11550.028549620163,-5.339
11553.399456136987,8.009
11556.85175822272,-2.67
11560.221060825072,178.858
11563.67172046279,-50.721
11567.039420295116,-152.163
11570.488438656655,-26.695
11573.854536862347,96.103
11577.301915118398,-106.781
11580.666412839755,-26.695
11584.030120381583,53.39
11587.475050538147,-50.721
11590.837159300165,-10.678
11594.280452266124,-5.339
11597.64096338792,16.017
11601.000685734118,45.382
11604.441534950183,-29.365
11607.79966135666,-66.738
11611.156999826935,32.034
11614.59540789372,104.111
11617.951152122365,125.468
11621.306109253032,-29.365
11624.66027956261,13.348
11628.09544335218,-10.678
11631.44802167594,-40.043
11634.799814015252,-5.339
11638.15082064648,21.356
11641.58274474832,-50.721
11644.932161645294,109.45
11648.280793669244,-13.348
11651.62864109602,13.348
11654.975704201344,-32.034
11658.403590030808,-10.678
11661.749066206958,61.399
11665.093758894744,5.339
11668.43766836938,-90.764
11671.780794905935,96.103
11675.12313877933,-40.043
11678.4647002644,-98.772
11681.805479635816,-32.034
11685.145477168146,-130.807
11688.484693135812,74.747
11691.904543291126,98.772
11695.24217790648,-90.764
11698.579031786354,-26.695
11701.915105204676,-37.373
11705.25039843522,24.026
11708.584911751648,-5.339
11711.918645427471,-29.365
11715.251599736104,48.051
11718.502511651865,-40.043
11721.83392703817,45.382
11725.164563870054,85.425
11728.4944224204,-32.034
11731.823502961994,226.909
11735.15180576744,8.009
11738.479331109273,53.39
11741.806079259855,18.687
11745.132050491462,-157.502
11748.457245076206,-117.459
11751.70058915004,16.017
11755.024250183047,50.721
11758.34713537819,-56.06
11761.669245007088,29.365
11764.990579341233,-56.06
11768.230158619372,-197.545
11771.549962071174,-112.12
11774.86899103535,-10.678
11778.187245782876,-18.687
11781.423821624776,-58.729
11784.740547618409,-34.704
11788.05650020102,-21.356
11791.371679643096,101.442
11794.605256223578,-34.704
11797.91890903626,114.789
11801.231789512534,18.687
11804.46312397414,21.356
11807.774479408556,48.051
11811.085063309589,-2.67
11814.314157983485,-26.695
11817.623218427994,-69.408
11820.850827315822,82.755
11824.158365355152,-34.704
11827.4651331948,-18.687
11830.690506166697,-309.665
11833.995753182851,189.536
11837.219642936305,26.695
11840.52337017791,0.0
11843.745777735792,-37.373
11847.047986250807,21.356
11850.26891263506,-26.695
11853.569603470474,-77.416
11856.789049702087,40.043
11860.088223903953,-1094.504
11863.30619100298,-101.442
11866.603849616356,37.373
11869.820338601929,0.0
11873.11648267094,85.425
11876.331494561222,-61.399
11879.545777396996,5.339
11882.839660941268,-96.103
11886.052468201013,-26.695
11889.26454715598,-90.764
11892.55617250015,66.738
11895.766777396242,0.0
11899.056892350098,-104.111
11902.26602420178,-32.034
11905.474428998024,144.154
11908.682106985869,104.111
11911.969222890988,213.562
11915.17542984806,-37.373
11918.380910743392,-18.687
11921.66577540321,98.772
11924.869786778698,90.764
11928.07307283808,93.433
11931.27563382762,-48.051
11934.477469993468,-32.034
11937.758600089848,-64.069
11940.95896924119,-16.017
11944.158614312782,-128.137
11947.35753555032,162.841
11950.55573319941,-32.034
11953.753207505528,-85.425
11957.029868231695,29.365
11960.225878519712,-34.704
11963.42116620667,-96.103
11966.615731537608,-74.747
11969.809574757444,10.678
11973.002696111003,-114.789
11976.195095842992,-64.069
11979.386774197992,40.043
11982.577731420495,144.154
11985.767967754866,-112.12
11988.957483445382,26.695
11992.146278736183,18.687
11995.334353871312,437.802
11998.521709094712,-42.712
12001.708344650193,-61.399
12004.894260781464,-101.442
12008.079457732136,-90.764
12011.2639357457,2.67
12014.44769506553,-21.356
12017.630735934905,-125.468
12020.81305859698,-277.63
12023.994663294816,-8.009
12027.175550271351,0.0
12030.27622427429,-56.06
12033.455694464548,-77.416
12036.634447655608,-88.094
12039.812484089987,85.425
12042.989804010074,-69.408
12046.166407658158,-37.373
12049.26290681064,-2.67
12052.4380965329,5.339
12055.612570703324,136.146
12058.786329563762,-2.67
12061.880055974125,-10.678
12065.052402807443,82.755
12068.224035049663,66.738
12071.394952942192,-5.339
12074.485910333004,-192.206
12077.655418093736,-18.687
12080.824212222367,-32.034
12083.913099633974,-106.781
12087.080485047096,-5.339
12090.247157544738,-8.009
12093.333977055809,-66.738
