Raman Shift,Intensity 
400,7.181423189
401,7.165230094
402,7.193755186
403,7.203590615
404,7.140263113
405,7.21454553
406,7.302714339
407,7.103432175
408,7.173765073
409,7.184288377
410,7.20864466
411,7.162139494
412,7.24889958
413,7.142314951
414,7.183376383
415,7.143526996
416,7.19790196
417,7.134792002
418,7.158177025
419,7.211831836
420,7.2585358
421,7.17031502
422,7.213784867
423,7.179326425
424,7.16681725
425,7.254366038
426,7.191548657
427,7.211170393
428,7.219230897
429,7.229892431
430,7.210368557
431,7.20534162
432,7.179346335
433,7.147842829
434,7.188274488
435,7.283087218
436,7.309381519
437,7.166267049
438,7.274736603
439,7.229164812
440,7.232312477
441,7.230888899
442,7.218061604
443,7.124272126
444,7.220168759
445,7.195490725
446,7.175376174
447,7.176945387
448,7.252830703
449,7.243955851
450,7.225094058
451,7.200512365
452,7.218212868
453,7.337808122
454,7.22322402
455,7.168773253
456,7.193369199
457,7.178118896
458,7.22426933
459,7.199728153
460,7.14754371
461,7.256168234
462,7.184192915
463,7.165614408
464,7.201423464
465,7.178933879
466,7.213113032
467,7.201059783
468,7.14655369
469,7.10727347
470,7.183789869
471,7.176802547
472,7.134513488
473,7.253633078
474,7.174038422
475,7.226523718
476,7.199735743
477,7.261168507
478,7.214970689
479,7.178811623
480,7.244973046
481,7.167606082
482,7.239063678
483,7.228140167
484,7.198065392
485,7.084867594
486,7.173933965
487,7.188714194
488,7.205553608
489,7.252069001
490,7.197614291
491,7.194701873
492,7.254952803
493,7.233966229
494,7.221777237
495,7.235986411
496,7.175851926
497,7.244181128
498,7.162556232
499,7.264958372
500,7.165712975
501,7.261976795
502,7.151525614
503,7.179678467
504,7.245147837
505,7.242021671
506,7.282498482
507,7.164595274
508,7.19439516
509,7.206928694
510,7.185583733
511,7.246242669
512,7.238285548
513,7.165467403
514,7.252301769
515,7.176642818
516,7.220285141
517,7.210498534
518,7.21724175
519,7.112648784
520,7.17161585
521,7.168617808
522,7.206347211
523,7.228147227
524,7.202989686
525,7.195858523
526,7.230138603
527,7.272065884
528,7.155376636
529,7.201462739
530,7.155823969
531,7.171800147
532,7.19298794
533,7.121451135
534,7.116669356
535,7.235255376
536,7.272492819
537,7.16442677
538,7.216838613
539,7.218735154
540,7.267651829
541,7.207853409
542,7.241532833
543,7.164272438
544,7.143036586
545,7.210041464
546,7.228810364
547,7.261742513
548,7.128780339
549,7.180355014
550,7.22560409
551,7.153864843
552,7.226677127
553,7.240268739
554,7.198082632
555,7.061330831
556,7.217773552
557,7.28454254
558,7.239576733
559,7.17971101
560,7.166538415
561,7.171367445
562,7.235529254
563,7.130357974
564,7.166962781
565,7.196889218
566,7.248490012
567,7.254085773
568,7.22632958
569,7.203525043
570,7.16746905
571,7.165606766
572,7.145629141
573,7.257995889
574,7.321059327
575,7.260102149
576,7.192477747
577,7.259865867
578,7.187245764
579,7.210550186
580,7.294039447
581,7.206410635
582,7.213295879
583,7.192760252
584,7.209350428
585,7.126748385
586,7.19001032
587,7.25058203
588,7.215306636
589,7.251484325
590,7.147215604
591,7.232855122
592,7.155611801
593,7.155746144
594,7.25994668
595,7.162937067
596,7.235013117
597,7.177768548
598,7.16936504
599,7.213284236
600,7.14774289
601,7.272679555
602,7.204580707
603,7.17779167
604,7.150468267
605,7.186531618
606,7.191693059
607,7.227652318
608,7.238850049
609,7.231143343
610,7.206511536
611,7.13835218
612,7.251060549
613,7.197994302
614,7.163254778
615,7.243212578
616,7.163624838
617,7.178139303
618,7.156577817
619,7.171320634
620,7.283643925
621,7.172571121
622,7.141944046
623,7.136980606
624,7.212597683
625,7.193490271
626,7.167062668
627,7.216551627
628,7.1685599
629,7.190810398
630,7.217591366
631,7.243738203
632,7.170703779
633,7.189528646
634,7.177972706
635,7.205572608
636,7.167530428
637,7.11795658
638,7.239750887
639,7.194024142
640,7.24285727
641,7.264574665
642,7.259847969
643,7.232182857
644,7.192915934
645,7.169231708
646,7.153400154
647,7.243434693
648,7.206602733
649,7.233383438
650,7.184805116
651,7.131581828
652,7.132764298
653,7.157094826
654,7.224134007
655,7.095245008
656,7.141808085
657,7.172553673
658,7.156353918
659,7.191546393
660,7.15612181
661,7.195963585
662,7.17743872
663,7.175200611
664,7.197704285
665,7.185880708
666,7.169460969
667,7.181423559
668,7.208389009
669,7.188898878
670,7.116922461
671,7.114685451
672,7.199900745
673,7.230900658
674,7.169039692
675,7.160426413
676,7.192373311
677,7.231544676
678,7.209135851
679,7.230270866
680,7.221078575
681,7.225975335
682,7.293077036
683,7.261142991
684,7.194523337
685,7.218723509
686,7.211745629
687,7.12761197
688,7.155563489
689,7.156817086
690,7.217886615
691,7.235258294
692,7.208390246
693,7.229062543
694,7.192291676
695,7.246747379
696,7.246258464
697,7.135449582
698,7.14572114
699,7.246752753
700,7.170652093
701,7.287707647
702,7.2224655
703,7.17031197
704,7.216102837
705,7.18015398
706,7.182281668
707,7.254454475
708,7.290174389
709,7.15844757
710,7.196578111
711,7.174714942
712,7.254329289
713,7.222979675
714,7.211904038
715,7.199485075
716,7.194735696
717,7.25294043
718,7.147752161
719,7.102565227
720,7.158518077
721,7.239827745
722,7.191722845
723,7.191644691
724,7.197195207
725,7.117766917
726,7.17984766
727,7.209090644
728,7.172244679
729,7.213719737
730,7.22644528
731,7.193313905
732,7.19859262
733,7.231693824
734,7.221591499
735,7.199470176
736,7.231106486
737,7.291751364
738,7.179439368
739,7.179391566
740,7.269371021
741,7.206883537
742,7.217592872
743,7.237974875
744,7.224124805
745,7.184891411
746,7.164812521
747,7.21224016
748,7.209668609
749,7.240252433
750,7.147138044
751,7.269680878
752,7.218861427
753,7.205507815
754,7.198611732
755,7.165611728
756,7.195996752
757,7.142023163
758,7.128153671
759,7.156756922
760,7.231032901
761,7.196319428
762,7.210257995
763,7.181677302
764,7.217346389
765,7.204075977
766,7.202171144
767,7.165399173
768,7.265820092
769,7.181998482
770,7.100295684
771,7.183591871
772,7.231889576
773,7.184269473
774,7.177609341
775,7.156150407
776,7.181058152
777,7.164533406
778,7.218543954
779,7.237515587
780,7.155671357
781,7.223807204
782,7.254797156
783,7.283059746
784,7.18008008
785,7.143321497
786,7.201482868
787,7.192427797
788,7.256900899
789,7.227248652
790,7.20615009
791,7.243558694
792,7.227839631
793,7.231871966
794,7.164829257
795,7.267782599
796,7.194358365
797,7.166443485
798,7.219121075
799,7.178745447
800,7.213746092
801,7.139728296
802,7.142572989
803,7.199887857
804,7.152495419
805,7.16694074
806,7.227697875
807,7.154990404
808,7.199465873
809,7.162402956
810,7.241591139
811,7.20715298
812,7.252439482
813,7.290757993
814,7.172278915
815,7.144024328
816,7.153806237
817,7.24620507
818,7.241524291
819,7.239970044
820,7.206536071
821,7.188856556
822,7.229924131
823,7.078338286
824,7.153742632
825,7.211336545
826,7.183560172
827,7.153824916
828,7.178410069
829,7.226117739
830,7.16221948
831,7.179994206
832,7.170056581
833,7.165823688
834,7.207338475
835,7.142981207
836,7.222567018
837,7.251592816
838,7.155985519
839,7.243599092
840,7.171614502
841,7.167023303
842,7.166248128
843,7.205616658
844,7.19739821
845,7.279285528
846,7.11075946
847,7.200656703
848,7.186315837
849,7.18760558
850,7.239906949
851,7.278262457
852,7.204374525
853,7.209817717
854,7.2407808
855,7.190805656
856,7.196868311
857,7.314910754
858,7.188041283
859,7.159822184
860,7.13295121
861,7.239939819
862,7.243680107
863,7.235405363
864,7.191994013
865,7.226277159
866,7.179238404
867,7.214023075
868,7.236700718
869,7.186717678
870,7.225652489
871,7.233910574
872,7.22237372
873,7.18619332
874,7.249636184
875,7.155944593
876,7.250321101
877,7.180360855
878,7.210892747
879,7.152604515
880,7.150003119
881,7.210406886
882,7.200653554
883,7.269612678
884,7.188660096
885,7.270837984
886,7.161833954
887,7.179211104
888,7.239316395
889,7.218744701
890,7.171998932
891,7.172172367
892,7.203312395
893,7.205862443
894,7.14038542
895,7.136211125
896,7.241628628
897,7.268903025
898,7.209273993
899,7.182669708
900,7.227412341
901,7.237658461
902,7.165444034
903,7.206200468
904,7.200709898
905,7.293966339
906,7.203030351
907,7.196420597
908,7.147025855
909,7.253772263
910,7.204195068
911,7.181767216
912,7.247017534
913,7.217567229
914,7.177950235
915,7.264226837
916,7.2122368
917,7.210696533
918,7.239492638
919,7.262471891
920,7.213077284
921,7.208316299
922,7.247337196
923,7.257353191
924,7.279400474
925,7.149668564
926,7.184067194
927,7.21615167
928,7.216898087
929,7.203919346
930,7.197261326
931,7.213652098
932,7.19947858
933,7.204119149
934,7.169101892
935,7.178026068
936,7.183212778
937,7.23091014
938,7.12427295
939,7.251575481
940,7.204571994
941,7.234239164
942,7.238380919
943,7.167802854
944,7.111319452
945,7.225056395
946,7.211031761
947,7.210239391
948,7.189934322
949,7.241989214
950,7.249255534
951,7.269952545
952,7.250705216
953,7.220417552
954,7.28483033
955,7.303834648
956,7.426572327
957,7.287151429
958,7.261736245
959,7.42067862
960,7.460320642
961,7.402038766
962,7.468328167
963,7.44262346
964,7.529022631
965,7.568102583
966,7.569303902
967,7.578002647
968,7.64093593
969,7.735451936
970,7.830670035
971,7.787586255
972,7.834008505
973,7.800590467
974,7.845058103
975,7.926016978
976,7.998681574
977,8.046706449
978,8.036240345
979,8.059143971
980,8.131727713
981,8.009249369
982,8.113974565
983,8.153419694
984,8.200381287
985,8.176594859
986,8.188561151
987,8.189283009
988,8.263909427
989,8.110081394
990,8.129268119
991,8.107695844
992,8.15804835
993,8.088404074
994,8.128959814
995,8.05084246
996,8.082934159
997,7.998138068
998,7.952199205
999,8.015401042
1000,7.907297789
1001,7.85980281
1002,7.824746688
1003,7.834103324
1004,7.724922517
1005,7.762792491
1006,7.612374604
1007,7.588738488
1008,7.619350607
1009,7.55955976
1010,7.489423069
1011,7.454368721
1012,7.440241469
1013,7.484388997
1014,7.357808161
1015,7.394766149
1016,7.357408337
1017,7.341067063
1018,7.347734825
1019,7.279506434
1020,7.250380688
1021,7.36895222
1022,7.351599216
1023,7.203877815
1024,7.273252884
1025,7.197370479
1026,7.252873654
1027,7.295869856
1028,7.197411132
1029,7.261829781
1030,7.202066357
1031,7.211074693
1032,7.178866409
1033,7.215897318
1034,7.200126083
1035,7.235110714
1036,7.164644738
1037,7.284255617
1038,7.239747413
1039,7.213599639
1040,7.206352548
1041,7.225124601
1042,7.185548807
1043,7.207111168
1044,7.20022251
1045,7.220339425
1046,7.242197634
1047,7.190119131
1048,7.192869307
1049,7.1776382
1050,7.187987758
1051,7.189402962
1052,7.286803349
1053,7.211823767
1054,7.272926993
1055,7.183159379
1056,7.276035771
1057,7.175270297
1058,7.240376272
1059,7.256870617
1060,7.253544952
1061,7.240878256
1062,7.242842071
1063,7.211359102
1064,7.175759706
1065,7.199793987
1066,7.246648629
1067,7.211003532
1068,7.258688574
1069,7.257439224
1070,7.175085114
1071,7.24402224
1072,7.229549968
1073,7.258619193
1074,7.25280211
1075,7.196199452
1076,7.29250568
1077,7.304013114
1078,7.227983468
1079,7.28239637
1080,7.260440682
1081,7.35562222
1082,7.382882479
1083,7.309569328
1084,7.331311155
1085,7.348910169
1086,7.329661516
1087,7.348906602
1088,7.352086951
1089,7.440851693
1090,7.388551756
1091,7.483377242
1092,7.46996849
1093,7.470814369
1094,7.426278022
1095,7.494819018
1096,7.436381189
1097,7.483949664
1098,7.448854994
1099,7.529933537
1100,7.592453557
1101,7.542646239
1102,7.583544009
1103,7.541744053
1104,7.54137812
1105,7.614909154
1106,7.563080976
1107,7.609295085
1108,7.58663035
1109,7.694927419
1110,7.672143908
1111,7.652013077
1112,7.653457294
1113,7.62475414
1114,7.599881932
1115,7.680840255
1116,7.721495836
1117,7.661894857
1118,7.734758998
1119,7.701964722
1120,7.711300401
1121,7.772711493
1122,7.686790039
1123,7.743703248
1124,7.774166789
1125,7.765086404
1126,7.759961749
1127,7.698591171
1128,7.716947329
1129,7.676274912
1130,7.719420767
1131,7.665288253
1132,7.698939114
1133,7.60592913
1134,7.602184144
1135,7.597429014
1136,7.533089851
1137,7.634382059
1138,7.592284978
1139,7.630349071
1140,7.561719107
1141,7.638496528
1142,7.58019063
1143,7.488290569
1144,7.611705748
1145,7.559965136
1146,7.554292127
1147,7.519367232
1148,7.462600629
1149,7.487554219
1150,7.541004867
1151,7.535431249
1152,7.486599961
1153,7.459577415
1154,7.410695754
1155,7.41939896
1156,7.379528269
1157,7.416308057
1158,7.362659547
1159,7.357921687
1160,7.372825582
1161,7.369002176
1162,7.335752167
1163,7.349133655
1164,7.306927267
1165,7.306154826
1166,7.328727913
1167,7.287290841
1168,7.240305752
1169,7.236773358
1170,7.226377404
1171,7.318463591
1172,7.206228215
1173,7.24859142
1174,7.295689229
1175,7.324732908
1176,7.217898417
1177,7.243676731
1178,7.294825293
1179,7.292614573
1180,7.197243706
1181,7.268466403
1182,7.332522311
1183,7.145650481
1184,7.255200977
1185,7.245214485
1186,7.244021099
1187,7.231480109
1188,7.23372966
1189,7.183648327
1190,7.250938047
1191,7.325417207
1192,7.241755574
1193,7.196313494
1194,7.201685392
1195,7.161987603
1196,7.258606268
1197,7.262109351
1198,7.15203716
1199,7.124438339
1200,7.179031768
1201,7.174215304
1202,7.190753003
1203,7.26412062
1204,7.15976961
1205,7.196682485
1206,7.175630725
1207,7.177028023
1208,7.200649973
1209,7.237292556
1210,7.144978444
1211,7.226643187
1212,7.200190685
1213,7.233944467
1214,7.183715206
1215,7.247638937
1216,7.161530004
1217,7.166730477
1218,7.21441725
1219,7.164412944
1220,7.185569727
1221,7.187074223
1222,7.253648535
1223,7.225905592
1224,7.197788324
1225,7.183657502
1226,7.176915691
1227,7.160478391
1228,7.127760452
1229,7.25738181
1230,7.267164716
1231,7.18379331
1232,7.215703795
1233,7.234903499
1234,7.186383343
1235,7.188198269
1236,7.181578513
1237,7.210453947
1238,7.234486423
1239,7.211149299
1240,7.240610159
1241,7.20314841
1242,7.180157396
1243,7.138247746
1244,7.245507909
1245,7.214755462
1246,7.191633706
1247,7.147244384
1248,7.169403887
1249,7.196952456
1250,7.168213504
1251,7.23486764
1252,7.160931404
1253,7.22113997
1254,7.217170712
1255,7.193589255
1256,7.169242362
1257,7.154417935
1258,7.194145676
1259,7.201130758
1260,7.168376267
1261,7.228577906
1262,7.200920329
1263,7.20041423
1264,7.220353368
1265,7.175395484
1266,7.252437039
1267,7.221075109
1268,7.110647372
1269,7.182664172
1270,7.178620331
1271,7.233995641
1272,7.242037461
1273,7.250374319
1274,7.153115944
1275,7.134940234
1276,7.220177166
1277,7.285413813
1278,7.277289838
1279,7.193275125
1280,7.191946264
1281,7.209312107
1282,7.231253266
1283,7.193288054
1284,7.199197197
1285,7.174124346
1286,7.216880667
1287,7.237347987
1288,7.171817888
1289,7.241244481
1290,7.165307127
1291,7.274656613
1292,7.205038044
1293,7.19615852
1294,7.184262246
1295,7.199678847
1296,7.199508572
1297,7.178284388
1298,7.205434016
1299,7.16431737
1300,7.170094695
1301,7.244054307
1302,7.287468513
1303,7.189962265
1304,7.174193221
1305,7.175266053
1306,7.205359486
1307,7.203656103
1308,7.237922871
1309,7.248962414
1310,7.140219964
1311,7.267794328
1312,7.236134204
1313,7.188871923
1314,7.224132792
1315,7.172538859
1316,7.171119104
1317,7.214709182
1318,7.196136896
1319,7.121544525
1320,7.226133501
1321,7.188158418
1322,7.153192215
1323,7.164796107
1324,7.198554126
1325,7.199072273
1326,7.173332292
1327,7.31322344
1328,7.18690985
1329,7.114833787
1330,7.259405889
1331,7.189543909
1332,7.215437617
1333,7.244198928
1334,7.2312973
1335,7.191973861
1336,7.191839033
1337,7.166605971
1338,7.275857024
1339,7.197943207
1340,7.163725859
1341,7.208845895
1342,7.264331531
1343,7.155337592
1344,7.124798738
1345,7.122598208
1346,7.243138495
1347,7.24408388
1348,7.253658778
1349,7.193342895
1350,7.255806524
1351,7.164379515
1352,7.195441564
1353,7.171017169
1354,7.189125103
1355,7.192067414
1356,7.287486212
1357,7.190354594
1358,7.292735194
1359,7.161009613
1360,7.176070049
1361,7.188898258
1362,7.171530857
1363,7.231321397
1364,7.185174483
1365,7.198998827
1366,7.189702675
1367,7.191032523
1368,7.204021706
1369,7.196366782
1370,7.163543648
1371,7.232299957
1372,7.251050695
1373,7.142944727
1374,7.182824959
1375,7.239359939
1376,7.228287262
1377,7.210880564
1378,7.211123585
1379,7.154105382
1380,7.222458102
1381,7.176791413
1382,7.168812014
1383,7.198229885
1384,7.1700215
1385,7.247421197
1386,7.248983359
1387,7.25133157
1388,7.220659752
1389,7.222504473
1390,7.150092733
1391,7.217919221
1392,7.237238144
1393,7.175604916
1394,7.176352129
1395,7.188149706
1396,7.190826831
1397,7.170432458
1398,7.225767177
1399,7.163542362
1400,7.19465114
1401,7.202870789
1402,7.193638861
1403,7.24777151
1404,7.164627329
1405,7.106520206
1406,7.201742216
1407,7.281289796
1408,7.233998907
1409,7.220852153
1410,7.21479013
1411,7.285350736
1412,7.268834207
1413,7.227401186
1414,7.23781949
1415,7.253892413
1416,7.153868808
1417,7.26812364
1418,7.163450321
1419,7.23431593
1420,7.220612427
1421,7.174596952
1422,7.094890211
1423,7.211244773
1424,7.146340253
1425,7.194490099
1426,7.249323581
1427,7.135500843
1428,7.179821324
1429,7.141054562
1430,7.230803917
1431,7.230316853
1432,7.203998033
1433,7.220398741
1434,7.230301928
1435,7.167883368
1436,7.170717063
1437,7.201034797
1438,7.20019015
1439,7.217107501
1440,7.182727954
1441,7.204562267
1442,7.267177729
1443,7.210834706
1444,7.229803517
1445,7.115837575
1446,7.195864861
1447,7.14347905
1448,7.210058332
1449,7.205203109
1450,7.179039362
1451,7.23619727
1452,7.118040916
1453,7.227742628
1454,7.234272982
1455,7.230508139
1456,7.188390139
1457,7.153941965
1458,7.18542803
1459,7.184026138
1460,7.155187774
1461,7.186847615
1462,7.1256523
1463,7.274567757
1464,7.248613787
1465,7.199962498
1466,7.158957629
1467,7.188274101
1468,7.266435533
1469,7.194180234
1470,7.146682204
1471,7.137348793
1472,7.178080599
1473,7.186156025
1474,7.254373552
1475,7.261038549
1476,7.188637409
1477,7.215149939
1478,7.235090491
1479,7.167554485
1480,7.213482507
1481,7.196280713
1482,7.186503939
1483,7.241757673
1484,7.153498845
1485,7.228446612
1486,7.14944513
1487,7.195248117
1488,7.227857783
1489,7.192124858
1490,7.233069735
1491,7.190105391
1492,7.184112526
1493,7.180752694
1494,7.189924873
1495,7.239594995
1496,7.225923023
1497,7.204830901
1498,7.206828914
1499,7.189129316
1500,7.171228797
1501,7.120600707
1502,7.183567876
1503,7.213539721
1504,7.199376733
1505,7.245689658
1506,7.271021105
1507,7.153442804
1508,7.188931207
1509,7.251732819
1510,7.272954027
1511,7.239892862
1512,7.261000729
1513,7.189606073
1514,7.157042654
1515,7.165098344
1516,7.176564136
1517,7.126801916
1518,7.177088586
1519,7.180733708
1520,7.219580286
1521,7.197403514
1522,7.154110252
1523,7.180970476
1524,7.210383397
1525,7.255987119
1526,7.217805992
1527,7.210170286
1528,7.210907723
1529,7.233646534
1530,7.196572194
1531,7.185940085
1532,7.25114791
1533,7.196965516
1534,7.20472271
1535,7.216402462
1536,7.22533225
1537,7.223339511
1538,7.161716475
1539,7.254090996
1540,7.248329658
1541,7.193830356
1542,7.243584075
1543,7.152872388
1544,7.246591484
1545,7.182761107
1546,7.101209103
1547,7.244840523
1548,7.274917886
1549,7.289585414
1550,7.241581466
1551,7.137137012
1552,7.281489662
1553,7.203515876
1554,7.112036253
1555,7.145971934
1556,7.22641573
1557,7.237264876
1558,7.168035176
1559,7.238661121
1560,7.147098362
1561,7.271318579
1562,7.176680052
1563,7.11596964
1564,7.181242892
1565,7.187288718
1566,7.236961563
1567,7.161702247
1568,7.318760021
1569,7.16955661
1570,7.229697894
1571,7.206131087
1572,7.182974297
1573,7.164637491
1574,7.207594541
1575,7.193638449
1576,7.267070702
1577,7.219819771
1578,7.248421718
1579,7.16911428
1580,7.173778802
1581,7.210946916
1582,7.209377455
1583,7.232170292
1584,7.225745914
1585,7.18567313
1586,7.241026163
1587,7.165117741
1588,7.161228434
1589,7.165594503
1590,7.246942218
1591,7.15361538
1592,7.189393053
1593,7.217819901
1594,7.168060588
1595,7.257479071
1596,7.27347538
1597,7.223117551
1598,7.18116125
1599,7.137985181
1600,7.175492169
1601,7.200518228
1602,7.237718106
1603,7.13222786
1604,7.207814623
1605,7.186411148
1606,7.190640122
1607,7.186298055
1608,7.134971343
1609,7.191330472
1610,7.137013436
1611,7.142270177
1612,7.248902626
1613,7.167791908
1614,7.21870265
1615,7.196295547
1616,7.259104534
1617,7.213262583
1618,7.247945026
1619,7.210305784
1620,7.226083897
1621,7.165156011
1622,7.195214541
1623,7.177932759
1624,7.219055388
1625,7.174561997
1626,7.148582007
1627,7.162214078
1628,7.265197991
1629,7.300118491
1630,7.127235999
1631,7.204431125
1632,7.186622249
1633,7.17910489
1634,7.18909931
1635,7.130973182
1636,7.138366022
1637,7.237296058
1638,7.183293347
1639,7.211850472
1640,7.147359095
1641,7.211415406
1642,7.131818698
1643,7.283876323
1644,7.162153871
1645,7.198861968
1646,7.241904069
1647,7.142472806
1648,7.258948373
1649,7.17964879
1650,7.266560722
1651,7.148021811
1652,7.186352191
1653,7.133888351
1654,7.205369102
1655,7.189064317
1656,7.208757489
1657,7.174270718
1658,7.215379172
1659,7.282279899
1660,7.186741034
1661,7.225057405
1662,7.216016212
1663,7.129919262
1664,7.150604967
1665,7.228055081
1666,7.215820533
1667,7.234563372
1668,7.277866417
1669,7.144666391
1670,7.272009597
1671,7.216032224
1672,7.174293731
1673,7.232656295
1674,7.237983645
1675,7.223616666
1676,7.191556849
1677,7.238489916
1678,7.174240168
1679,7.141844752
1680,7.215293617
1681,7.209783494
1682,7.189995411
1683,7.223538854
1684,7.227773147
1685,7.237544827
1686,7.216218784
1687,7.203965898
1688,7.194324913
1689,7.174832415
1690,7.222144068
1691,7.219846664
1692,7.245466752
1693,7.234404761
1694,7.251018401
1695,7.177917108
1696,7.166941724
1697,7.197912738
1698,7.245195512
1699,7.18595076
1700,7.181688745
1701,7.209539384
1702,7.134714858
1703,7.193623282
1704,7.270222561
1705,7.19795539
1706,7.226121292
1707,7.243624916
1708,7.184033833
1709,7.244307261
1710,7.166255551
1711,7.22456499
1712,7.19841003
1713,7.134056432
1714,7.178830922
1715,7.199242523
1716,7.26770415
1717,7.168155026
1718,7.13133911
1719,7.191132319
1720,7.208688542
1721,7.139082853
1722,7.241777041
1723,7.258449706
1724,7.211018353
1725,7.192680021
1726,7.270003776
1727,7.208944615
1728,7.213401451
1729,7.319673812
1730,7.21622257
1731,7.213293809
1732,7.258700832
1733,7.255478582
1734,7.232073177
1735,7.173414993
1736,7.19129353
1737,7.203856778
1738,7.135061184
1739,7.211511007
1740,7.230773199
1741,7.173690824
1742,7.197081874
1743,7.142188294
1744,7.166610876
1745,7.227177512
1746,7.224887835
1747,7.128868501
1748,7.169448369
1749,7.186058594
1750,7.193155956
1751,7.171855051
1752,7.171987687
1753,7.215364361
1754,7.206273905
1755,7.167338942
1756,7.124544586
1757,7.192936427
1758,7.179416824
1759,7.15436156
1760,7.161898996
1761,7.244932107
1762,7.163161652
1763,7.139588686
1764,7.232323747
1765,7.204443561
1766,7.246303138
1767,7.284614293
1768,7.217641472
1769,7.144367591
1770,7.192454177
1771,7.150399076
1772,7.182302865
1773,7.240904617
1774,7.140988815
1775,7.195295303
1776,7.122242381
1777,7.243371325
1778,7.18007957
1779,7.159456187
1780,7.174195559
1781,7.120592844
1782,7.131200428
1783,7.215759556
1784,7.16298135
1785,7.185696667
1786,7.210742401
1787,7.216246705
1788,7.180916487
1789,7.173477693
1790,7.260417225
1791,7.198561552
1792,7.183297931
1793,7.193483722
1794,7.153976824
1795,7.155195081
1796,7.193498547
1797,7.12640742
1798,7.22642217
1799,7.176234798
1800,7.20112516
1801,7.16547494
1802,7.229674395
1803,7.152855206
1804,7.234944006
1805,7.181199652
1806,7.176552704
1807,7.165430737
1808,7.203684627
1809,7.161903304
1810,7.194482536
1811,7.228364421
1812,7.132421592
1813,7.173183742
1814,7.16835256
1815,7.188681656
1816,7.182711257
1817,7.216565185
1818,7.216448914
1819,7.154420773
1820,7.167514792
1821,7.280800364
1822,7.189934412
1823,7.259143829
1824,7.181190655
1825,7.193824105
1826,7.176523153
1827,7.170332791
1828,7.233558573
1829,7.10553388
1830,7.156535299
1831,7.213047714
1832,7.198089846
1833,7.224924728
1834,7.244281958
1835,7.244240901
1836,7.238944245
1837,7.202876178
1838,7.192062143
1839,7.28924214
1840,7.154582287
1841,7.220932286
1842,7.167634126
1843,7.182596944
1844,7.156084805
1845,7.246614199
1846,7.208911206
1847,7.21179322
1848,7.200703427
1849,7.215281283
1850,7.242318443
1851,7.141104001
1852,7.257589651
1853,7.168850661
1854,7.180792333
1855,7.205805046
1856,7.16010005
1857,7.222879855
1858,7.25856578
1859,7.136668853
1860,7.212983421
1861,7.148127915
1862,7.234223639
1863,7.205509214
1864,7.142976372
1865,7.242912021
1866,7.150397517
1867,7.193700375
1868,7.200506175
1869,7.16163559
1870,7.198881751
1871,7.136187118
1872,7.233276983
1873,7.219737925
1874,7.183316212
1875,7.290857568
1876,7.200778483
1877,7.148393421
1878,7.170856466
1879,7.275138835
1880,7.220859324
1881,7.156017203
1882,7.170007828
1883,7.185224854
1884,7.217009336
1885,7.183800316
1886,7.199952894
1887,7.219305266
1888,7.246043298
1889,7.151354429
1890,7.166850034
1891,7.253359405
1892,7.170735179
1893,7.128746785
1894,7.218979584
1895,7.169462088
1896,7.185025977
1897,7.20159083
1898,7.229983648
1899,7.197618019
1900,7.231822763
1901,7.158092385
1902,7.177092108
1903,7.203038211
1904,7.167663945
1905,7.207804618
1906,7.192441315
1907,7.306136613
1908,7.204734379
1909,7.267653466
1910,7.156421756
1911,7.219314704
1912,7.129613578
1913,7.220726767
1914,7.149745321
1915,7.198707729
1916,7.171094364
1917,7.200288427
1918,7.19306129
1919,7.167291291
1920,7.241840119
1921,7.126543603
1922,7.205547402
1923,7.179332229
1924,7.277734055
1925,7.151729487
1926,7.244761273
1927,7.19538748
1928,7.194919034
1929,7.199974554
1930,7.191908741
1931,7.144809576
1932,7.242505947
1933,7.177994373
1934,7.206967859
1935,7.236647171
1936,7.18160414
1937,7.262377038
1938,7.17995685
1939,7.16463177
1940,7.222600175
1941,7.260851435
1942,7.148509537
1943,7.16318597
1944,7.211519175
1945,7.157936123
1946,7.234421439
1947,7.150481796
1948,7.150741203
1949,7.185457877
1950,7.213545279
1951,7.220201083
1952,7.225429334
1953,7.22522334
1954,7.213977884
1955,7.300249886
1956,7.228502601
1957,7.19324466
1958,7.146239249
1959,7.22253706
1960,7.146623861
1961,7.218737393
1962,7.249591268
1963,7.210147475
1964,7.189346926
1965,7.239834646
1966,7.18238608
1967,7.082269818
1968,7.191415473
1969,7.191017234
1970,7.163950063
1971,7.222504842
1972,7.209489579
1973,7.219753232
1974,7.191366914
1975,7.230760373
1976,7.159449131
1977,7.15617152
1978,7.156896716
1979,7.233193644
1980,7.178748412
1981,7.245955058
1982,7.247791702
1983,7.178838969
1984,7.106576395
1985,7.195100366
1986,7.233417401
1987,7.168498041
1988,7.188551527
1989,7.202476855
1990,7.213770358
1991,7.252331393
1992,7.183338111
1993,7.225065296
1994,7.155123037
1995,7.167073738
1996,7.262522134
1997,7.161350978
1998,7.143634756
1999,7.083550373
2000,7.190440293
2001,7.125814877
2002,7.143964884
2003,7.202355739
2004,7.218295246
2005,7.206387006
2006,7.158327232
2007,7.210817891
2008,7.228879215
2009,7.273953748
2010,7.26393054
2011,7.103151335
2012,7.216714669
2013,7.234134508
2014,7.154817531
2015,7.173204846
2016,7.245666255
2017,7.184124804
2018,7.250872205
2019,7.241383466
2020,7.197264115
2021,7.240715295
2022,7.223625545
2023,7.253167673
2024,7.225290882
2025,7.142209087
2026,7.218790604
2027,7.208831039
2028,7.272157088
2029,7.193557472
2030,7.14718263
2031,7.227210467
2032,7.230372554
2033,7.213353443
2034,7.238838951
2035,7.181657534
2036,7.171785706
2037,7.19560107
2038,7.176803186
2039,7.15262858
2040,7.173717542
2041,7.220091876
2042,7.13781074
2043,7.266199788
2044,7.210641224
2045,7.289776771
2046,7.196504702
2047,7.159610988
2048,7.212609742
2049,7.199808264
2050,7.195828085
2051,7.210005948
2052,7.167345475
2053,7.203250268
2054,7.242914227
2055,7.206129905
2056,7.18277636
2057,7.205250938
2058,7.16504435
2059,7.215013559
2060,7.219011302
2061,7.224590136
2062,7.255435172
2063,7.191897009
2064,7.258853928
2065,7.172879054
2066,7.083122029
2067,7.167653162
2068,7.197513795
2069,7.186543375
2070,7.253228981
2071,7.251253299
2072,7.201698774
2073,7.1414741
2074,7.192308663
2075,7.157215036
2076,7.220042423
2077,7.210555186
2078,7.158940268
2079,7.23482898
2080,7.164421575
2081,7.152344629
2082,7.260532017
2083,7.173045961
2084,7.126942878
2085,7.262425609
2086,7.215630791
2087,7.241526648
2088,7.258931912
2089,7.097030957
2090,7.203673415
2091,7.194752324
2092,7.177227877
2093,7.211064161
2094,7.215061255
2095,7.253512065
2096,7.185745829
2097,7.237154338
2098,7.187928729
2099,7.244513312
2100,7.278998533
2101,7.227938237
2102,7.198379602
2103,7.151772631
2104,7.177384545
2105,7.28623262
2106,7.195722551
2107,7.180945747
2108,7.177130749
2109,7.167392245
2110,7.180471645
2111,7.193793044
2112,7.208739842
2113,7.218535986
2114,7.205754384
2115,7.218842024
2116,7.116140758
2117,7.123631264
2118,7.237373189
2119,7.197002825
2120,7.270039229
2121,7.222878974
2122,7.146969996
2123,7.107804305
2124,7.168688818
2125,7.238629543
2126,7.206217628
2127,7.268123382
2128,7.26595222
2129,7.220468905
2130,7.217216511
2131,7.208673876
2132,7.192946677
2133,7.19842346
2134,7.125885997
2135,7.178330425
2136,7.234153818
2137,7.216199048
2138,7.171869
2139,7.229097395
2140,7.162199357
2141,7.255540398
2142,7.19040836
2143,7.236355002
2144,7.164454006
2145,7.203211274
2146,7.102731463
2147,7.215469319
2148,7.214618766
2149,7.179230562
2150,7.173383786
2151,7.216251331
2152,7.201524507
2153,7.17548985
2154,7.165439251
2155,7.244860128
2156,7.157813511
2157,7.204385014
2158,7.210185723
2159,7.200009595
2160,7.198686993
2161,7.200468136
2162,7.225055589
2163,7.188685096
2164,7.160323133
2165,7.212833149
2166,7.154681439
2167,7.238284494
2168,7.296250202
2169,7.14285949
2170,7.26240551
2171,7.214582787
2172,7.28976682
2173,7.238339464
2174,7.104877048
2175,7.159808323
2176,7.148710012
2177,7.218763592
2178,7.249429484
2179,7.176039966
2180,7.205879375
2181,7.129375668
2182,7.167320984
2183,7.188898752
2184,7.162677228
2185,7.192055589
2186,7.232543145
2187,7.21513251
2188,7.263260924
2189,7.172700265
2190,7.254219158
2191,7.260104945
2192,7.236158582
2193,7.211436326
2194,7.120554224
2195,7.21515463
2196,7.188925025
2197,7.134654633
2198,7.203121933
2199,7.19048483
2200,7.213365545
2201,7.127846346
2202,7.19679527
2203,7.196519066
2204,7.18941337
2205,7.157229651
2206,7.160865467
2207,7.207227797
2208,7.230091137
2209,7.207230944
2210,7.170151564
2211,7.211795443
2212,7.182723083
2213,7.233766442
2214,7.185082699
2215,7.175874379
2216,7.132418141
2217,7.276651496
2218,7.14818008
2219,7.122657166
2220,7.192255226
2221,7.258868758
2222,7.150285649
2223,7.232504069
2224,7.168188766
2225,7.239557549
2226,7.190609201
2227,7.137646286
2228,7.222796376
2229,7.275849956
2230,7.21487034
2231,7.228466873
2232,7.18629255
2233,7.218557538
2234,7.153619179
2235,7.256597289
2236,7.226697686
2237,7.170435411
2238,7.259006767
2239,7.206464857
2240,7.202037752
2241,7.239383022
2242,7.230273177
2243,7.148606506
2244,7.234827558
2245,7.247694741
2246,7.248463628
2247,7.14566994
2248,7.24413567
2249,7.237869433
2250,7.199769686
2251,7.140469926
2252,7.214057252
2253,7.175811908
2254,7.207590635
2255,7.211917274
2256,7.237124737
2257,7.159994717
2258,7.175982339
2259,7.197812254
2260,7.172506576
2261,7.197621301
2262,7.227424789
2263,7.19309104
2264,7.176465304
2265,7.246012333
2266,7.194854543
2267,7.185466719
2268,7.131045339
2269,7.252575747
2270,7.182425629
2271,7.167796042
2272,7.204251069
2273,7.152803531
2274,7.194559373
2275,7.14209125
2276,7.13688777
2277,7.217487836
2278,7.168617033
2279,7.19907305
2280,7.246060535
2281,7.197110008
2282,7.143119723
2283,7.168976678
2284,7.200904371
2285,7.209032886
2286,7.309261741
2287,7.237352774
2288,7.19281045
2289,7.234651608
2290,7.185689537
2291,7.268841714
2292,7.217968824
2293,7.273701135
2294,7.209423359
2295,7.178288582
2296,7.183336913
2297,7.157258727
2298,7.218912487
2299,7.205277213
2300,7.136074699
2301,7.204560335
2302,7.242087716
2303,7.11224679
2304,7.108537213
2305,7.221119856
2306,7.182586331
2307,7.215921947
2308,7.155998219
2309,7.214754555
2310,7.205133296
2311,7.191461416
2312,7.231800734
2313,7.212087597
2314,7.151800458
2315,7.265599571
2316,7.229331141
2317,7.239155292
2318,7.167639745
2319,7.113887745
2320,7.192271921
2321,7.204919374
2322,7.181758558
2323,7.183700453
2324,7.189507258
2325,7.20757993
2326,7.202736103
2327,7.07679729
2328,7.174063805
2329,7.177867457
2330,7.232430336
2331,7.203477221
2332,7.270019715
2333,7.115190159
2334,7.195629731
2335,7.214078329
2336,7.233786626
2337,7.173714887
2338,7.228228956
2339,7.176463022
2340,7.213889488
2341,7.152766562
2342,7.182207725
2343,7.173307894
2344,7.15183417
2345,7.21184617
2346,7.196378033
2347,7.183546991
2348,7.172980365
2349,7.247875414
2350,7.236769338
2351,7.23523693
2352,7.159455564
2353,7.144745269
2354,7.214275696
2355,7.188284751
2356,7.156011414
2357,7.210017659
2358,7.163621035
2359,7.233466531
2360,7.191022284
2361,7.271348535
2362,7.216670234
2363,7.22094084
2364,7.187802232
2365,7.238899331
2366,7.12987621
2367,7.173095501
2368,7.175558888
2369,7.199483917
2370,7.140087582
2371,7.186725759
2372,7.186435631
2373,7.163952313
2374,7.285105665
2375,7.163695002
2376,7.244396062
2377,7.159863114
2378,7.213284853
2379,7.148566572
2380,7.167144938
2381,7.175399009
2382,7.219699494
2383,7.140763517
2384,7.175079561
2385,7.160730434
2386,7.171205832
2387,7.157675724
2388,7.266484072
2389,7.144745792
2390,7.239951008
2391,7.270084568
2392,7.191077175
2393,7.182641184
2394,7.164457618
2395,7.088320336
2396,7.200296615
2397,7.184754715
2398,7.205655979
2399,7.242733655
2400,7.173780984
2401,7.074849633
2402,7.201146135
2403,7.199440243
2404,7.261685606
2405,7.208305854
2406,7.18278867
2407,7.132640433
2408,7.23158967
2409,7.112326006
2410,7.215689803
2411,7.176529713
2412,7.165911811
2413,7.120003214
2414,7.222118415
2415,7.180322973
2416,7.196192158
2417,7.249525822
2418,7.181278048
2419,7.235905926
2420,7.2328644
2421,7.220256967
2422,7.179391552
2423,7.20054412
2424,7.240831882
2425,7.211435194
2426,7.174034502
2427,7.259878428
2428,7.20986597
2429,7.142976727
2430,7.18548391
2431,7.176038618
2432,7.228508292
2433,7.228609207
2434,7.216794117
2435,7.226421115
2436,7.207830713
2437,7.239875386
2438,7.198736359
2439,7.23666366
2440,7.220653043
2441,7.240520708
2442,7.180081494
2443,7.212407699
2444,7.220183087
2445,7.205038771
2446,7.262967071
2447,7.224287861
2448,7.268556163
2449,7.14418129
2450,7.146269955
2451,7.173387537
2452,7.180057592
2453,7.25175581
2454,7.251309534
2455,7.174957214
2456,7.166171037
2457,7.210642443
2458,7.226145698
2459,7.22321519
2460,7.190270489
2461,7.223110929
2462,7.246536045
2463,7.210298882
2464,7.182778929
2465,7.174114614
2466,7.133852375
2467,7.163189099
2468,7.217261897
2469,7.221672676
2470,7.205718391
2471,7.182339035
2472,7.136430453
2473,7.158197145
2474,7.272003277
2475,7.194045749
2476,7.218374747
2477,7.228736332
2478,7.199251258
2479,7.227861125
2480,7.277488865
2481,7.19918226
2482,7.149089357
2483,7.15517781
2484,7.218252579
2485,7.206215011
2486,7.279028012
2487,7.163545702
2488,7.215716881
2489,7.220544255
2490,7.189592183
2491,7.164002751
2492,7.269431123
2493,7.237672251
2494,7.223319168
2495,7.191831312
2496,7.266996389
2497,7.134270742
2498,7.28896564
2499,7.235707001
2500,7.196503233
2501,7.267462694
2502,7.195347585
2503,7.13362652
2504,7.266401696
2505,7.262926668
2506,7.214102679
2507,7.179469191
2508,7.184748361
2509,7.177417189
2510,7.244359522
2511,7.195084836
2512,7.227394026
2513,7.206300212
2514,7.223558648
2515,7.216993923
2516,7.17282332
2517,7.178702947
2518,7.194564575
2519,7.309374157
2520,7.218460596
2521,7.172770315
2522,7.21204464
2523,7.113737189
2524,7.172794757
2525,7.200737165
2526,7.208053282
2527,7.22411495
2528,7.124241093
2529,7.221697674
2530,7.226362167
2531,7.245799031
2532,7.277401598
2533,7.249967269
2534,7.232502967
2535,7.24633372
2536,7.208375409
2537,7.211293448
2538,7.194311149
2539,7.265328665
2540,7.176821647
2541,7.125952726
2542,7.257788397
2543,7.234950344
2544,7.179965895
2545,7.258155552
2546,7.192511594
2547,7.186376039
2548,7.180696176
2549,7.14061235
2550,7.19696783
2551,7.263385446
2552,7.290063088
2553,7.269251137
2554,7.213510412
2555,7.208361718
2556,7.185714099
2557,7.210082839
2558,7.145540584
2559,7.196473201
2560,7.132638828
2561,7.22816762
2562,7.197590726
2563,7.141245317
2564,7.22502305
2565,7.233221183
2566,7.259339913
2567,7.164884987
2568,7.218824403
2569,7.226954435
2570,7.217018511
2571,7.143326171
2572,7.205151166
2573,7.249701945
2574,7.228878638
2575,7.268785472
2576,7.203468375
2577,7.211609795
2578,7.226794143
2579,7.195007305
2580,7.202043347
2581,7.27566155
2582,7.217942908
2583,7.223775537
2584,7.230849563
2585,7.156849919
2586,7.223855135
2587,7.255588786
2588,7.147590089
2589,7.147235885
2590,7.126786769
2591,7.227038805
2592,7.237786103
2593,7.198263182
2594,7.203035482
2595,7.222731909
2596,7.238178064
2597,7.156213726
2598,7.194710889
2599,7.19267565
2600,7.178648883
2601,7.244963801
2602,7.215007419
2603,7.180152222
2604,7.18630369
2605,7.209318733
2606,7.218788009
2607,7.188791994
2608,7.111832052
2609,7.167491946
2610,7.2367035
2611,7.15290259
2612,7.197049016
2613,7.17844475
2614,7.192128258
2615,7.164281095
2616,7.187865887
2617,7.202645564
2618,7.182102647
2619,7.218482904
2620,7.218735299
2621,7.176082106
2622,7.171475166
2623,7.176219413
2624,7.165826949
2625,7.277245985
2626,7.284318135
2627,7.175765316
2628,7.248320911
2629,7.13170978
2630,7.246615352
2631,7.223199542
2632,7.250729528
2633,7.17276769
2634,7.249492544
2635,7.156100866
2636,7.208234454
2637,7.154266503
2638,7.166547164
2639,7.189363017
2640,7.220282884
2641,7.205997547
2642,7.241193007
2643,7.244966806
2644,7.212180141
2645,7.195759036
2646,7.213373463
2647,7.188387113
2648,7.222847096
2649,7.182854656
2650,7.191396762
2651,7.190854404
2652,7.158784721
2653,7.144853427
2654,7.231865229
2655,7.148456241
2656,7.163860824
2657,7.238255028
2658,7.27206938
2659,7.201956535
2660,7.260921873
2661,7.200182434
2662,7.199671282
2663,7.2376983
2664,7.183586669
2665,7.179168061
2666,7.24934099
2667,7.231026312
2668,7.090848516
2669,7.175999532
2670,7.137157794
2671,7.171564485
2672,7.181228941
2673,7.152321303
2674,7.26761207
2675,7.223039642
2676,7.176897656
2677,7.246332132
2678,7.163337215
2679,7.242890535
2680,7.149398809
2681,7.200641758
2682,7.184796109
2683,7.224603781
2684,7.199094694
2685,7.162937713
2686,7.196160246
2687,7.232086547
2688,7.178161664
2689,7.190562434
2690,7.216641915
2691,7.158909218
2692,7.22613489
2693,7.21070388
2694,7.143012681
2695,7.26103882
2696,7.147020143
2697,7.170349073
2698,7.188223941
2699,7.188222374
2700,7.254090365
2701,7.18199217
2702,7.187757776
2703,7.199417364
2704,7.22822669
2705,7.218290296
2706,7.17659569
2707,7.210920564
2708,7.168678462
2709,7.154386302
2710,7.195619454
2711,7.215100295
2712,7.206628387
2713,7.214026395
2714,7.173293913
2715,7.195407582
2716,7.212494899
2717,7.24515823
2718,7.249186166
2719,7.300352907
2720,7.174135728
2721,7.241325423
2722,7.227324293
2723,7.235470711
2724,7.185359334
2725,7.213047596
2726,7.103041947
2727,7.219437848
2728,7.217774713
2729,7.168385727
2730,7.23364637
2731,7.210825795
2732,7.216636289
2733,7.239512121
2734,7.196482944
2735,7.170651582
2736,7.23224384
2737,7.158184661
2738,7.096682524
2739,7.226486583
2740,7.180922232
2741,7.202859222
2742,7.221516773
2743,7.174842925
2744,7.197156528
2745,7.176295223
2746,7.18719273
2747,7.109169681
2748,7.168942544
2749,7.272920786
2750,7.239992059
2751,7.194600728
2752,7.206591988
2753,7.18343139
2754,7.246389279
2755,7.210657034
2756,7.14036726
2757,7.224361933
2758,7.205122985
2759,7.207269237
2760,7.217175174
2761,7.20343254
2762,7.218682328
2763,7.120085076
2764,7.208765089
2765,7.112756546
2766,7.152066433
2767,7.152047418
2768,7.193687439
2769,7.204329804
2770,7.171690815
2771,7.245927982
2772,7.139726637
2773,7.254789125
2774,7.232872326
2775,7.277145051
2776,7.143751978
2777,7.263557646
2778,7.2109128
2779,7.23629984
2780,7.21881504
2781,7.196597459
2782,7.144387122
2783,7.150082359
2784,7.171109124
2785,7.223216103
2786,7.101770612
2787,7.172897828
2788,7.18554405
2789,7.249814127
2790,7.192675625
2791,7.190280523
2792,7.243426145
2793,7.218554624
2794,7.265021038
2795,7.164619167
2796,7.197106269
2797,7.213009842
2798,7.19412088
2799,7.231682895
2800,7.270806795
2801,7.189068488
2802,7.215178908
2803,7.190267389
2804,7.151935972
2805,7.254235899
2806,7.168690829
2807,7.159383629
2808,7.224141213
2809,7.170953767
2810,7.12037124
2811,7.240059381
2812,7.215830748
2813,7.198903714
2814,7.216233971
2815,7.194966862
2816,7.25611252
2817,7.225586485
2818,7.182904076
2819,7.249345714
2820,7.138915319
2821,7.21631931
2822,7.209900315
2823,7.204358326
2824,7.218810226
2825,7.224452819
2826,7.236521236
2827,7.283470534
2828,7.140778785
2829,7.246580131
2830,7.244549432
2831,7.216603445
2832,7.163073081
2833,7.22062808
2834,7.23547915
2835,7.216930012
2836,7.174291876
2837,7.143960132
2838,7.145443128
2839,7.180777567
2840,7.219285997
2841,7.172075931
2842,7.232688301
2843,7.217301626
2844,7.199912228
2845,7.231110377
2846,7.245138754
2847,7.265899889
2848,7.197018791
2849,7.20477034
2850,7.170031338
2851,7.135478928
2852,7.188044015
2853,7.280438065
2854,7.225563962
2855,7.238013732
2856,7.221072707
2857,7.235598811
2858,7.28145093
2859,7.173598173
2860,7.220120553
2861,7.242169454
2862,7.209099744
2863,7.225363214
2864,7.163997775
2865,7.221371351
2866,7.279554767
2867,7.234621765
2868,7.253638032
2869,7.252544964
2870,7.228242289
2871,7.182939248
2872,7.22427822
2873,7.221122002
2874,7.153426566
2875,7.265022689
2876,7.213518738
2877,7.271564294
2878,7.209799337
2879,7.07575104
2880,7.199981443
2881,7.232333003
2882,7.174043747
2883,7.150531055
2884,7.256439896
2885,7.235543429
2886,7.158033613
2887,7.173110286
2888,7.288264119
2889,7.218685311
2890,7.227177515
2891,7.262340922
2892,7.165786487
2893,7.153139608
2894,7.156274781
2895,7.154909524
2896,7.228195209
2897,7.149758828
2898,7.117839553
2899,7.149334151
2900,7.224247652
2901,7.181343789
2902,7.184111403
2903,7.220801856
2904,7.264219367
2905,7.202716366
2906,7.245048342
2907,7.181377758
2908,7.18941372
2909,7.184203056
2910,7.277324807
2911,7.219564722
2912,7.136458158
2913,7.15868232
2914,7.1971657
2915,7.216900674
2916,7.268959563
2917,7.206127018
2918,7.245508497
2919,7.219213913
2920,7.185556915
2921,7.194990617
2922,7.167977612
2923,7.231886676
2924,7.222764521
2925,7.175882129
2926,7.198320186
2927,7.165152407
2928,7.208610484
2929,7.280713561
2930,7.251565782
2931,7.279682388
2932,7.168027296
2933,7.185847532
2934,7.245985553
2935,7.1029181
2936,7.155789656
2937,7.235315806
2938,7.172588771
2939,7.201800845
2940,7.247633613
2941,7.179047055
2942,7.215889533
2943,7.147858087
2944,7.240763029
2945,7.269612619
2946,7.186440321
2947,7.300337877
2948,7.123256603
2949,7.208327072
2950,7.15973252
2951,7.19136629
2952,7.172720106
2953,7.190960485
2954,7.181686545
2955,7.194528935
2956,7.175970187
2957,7.169897843
2958,7.206310228
2959,7.160217985
2960,7.207911401
2961,7.246440898
2962,7.173613997
2963,7.219228187
2964,7.216278916
2965,7.205871143
2966,7.229112037
2967,7.163155756
2968,7.220599443
2969,7.216901135
2970,7.256710331
2971,7.216217815
2972,7.24406374
2973,7.248809931
2974,7.185275658
2975,7.183621525
2976,7.245306634
2977,7.212256387
2978,7.261277688
2979,7.199754034
2980,7.279950421
2981,7.216589016
2982,7.197389392
2983,7.187855578
2984,7.167566018
2985,7.231134798
2986,7.214855025
2987,7.200903896
2988,7.242007731
2989,7.203456938
2990,7.197577129
2991,7.257758533
2992,7.255612914
2993,7.225722225
2994,7.211407571
2995,7.23622234
2996,7.192003634
2997,7.179550578
2998,7.21920545
2999,7.20006552
3000,7.212537984
3001,7.158930148
3002,7.212727373
3003,7.273608449
3004,7.195684952
3005,7.23302148
3006,7.27015731
3007,7.213259383
3008,7.286730221
3009,7.222996841
3010,7.226913328
3011,7.226656039
3012,7.162449447
3013,7.202201741
3014,7.157342406
3015,7.252876659
3016,7.225486818
3017,7.226947627
3018,7.231180503
3019,7.195569592
3020,7.180043649
3021,7.201248034
3022,7.162217847
3023,7.214028031
3024,7.197514553
3025,7.208539673
3026,7.195093683
3027,7.225220151
3028,7.217227998
3029,7.192188497
3030,7.31005225
3031,7.165000937
3032,7.165274069
3033,7.237760544
3034,7.23812708
3035,7.245357904
3036,7.167297225
3037,7.278731625
3038,7.186857133
3039,7.233369524
3040,7.223096285
3041,7.194790092
3042,7.242696931
3043,7.165333533
3044,7.230914176
3045,7.206112927
3046,7.260131455
3047,7.237929838
3048,7.266311701
3049,7.242888455
3050,7.233543236
3051,7.206436904
3052,7.153243887
3053,7.190307895
3054,7.250163351
3055,7.225355998
3056,7.256817127
3057,7.213093576
3058,7.25920987
3059,7.256472974
3060,7.262738794
3061,7.250788774
3062,7.259229832
3063,7.214147871
3064,7.315230391
3065,7.181173607
3066,7.242087942
3067,7.254568693
3068,7.247993355
3069,7.225954517
3070,7.195883474
3071,7.267744945
3072,7.225617982
3073,7.213204357
3074,7.223630738
3075,7.281905155
3076,7.204902634
3077,7.246904989
3078,7.282941008
3079,7.189547144
3080,7.231462904
3081,7.275778192
3082,7.291218203
3083,7.22658996
3084,7.277226972
3085,7.268091729
3086,7.222720336
3087,7.222124392
3088,7.23791152
3089,7.278424073
3090,7.244025873
3091,7.264965543
3092,7.237673593
3093,7.190669533
3094,7.226234439
3095,7.28550973
3096,7.233404265
3097,7.259263974
3098,7.268163179
3099,7.215652981
3100,7.249802963
3101,7.339291898
3102,7.25815704
3103,7.248793481
3104,7.275322906
3105,7.187023649
3106,7.218352294
3107,7.279923692
3108,7.222024316
3109,7.258016937
3110,7.297868427
3111,7.298840255
3112,7.315252435
3113,7.286923073
3114,7.287143239
3115,7.259335166
3116,7.252408062
3117,7.324847362
3118,7.334483312
3119,7.234238049
3120,7.353784516
3121,7.28615747
3122,7.24921249
3123,7.300423661
3124,7.278567157
3125,7.263500505
3126,7.272476863
3127,7.275503619
3128,7.321045054
3129,7.199546742
3130,7.287277056
3131,7.222579824
3132,7.284457318
3133,7.285573016
3134,7.227552831
3135,7.304668903
3136,7.347124661
3137,7.350790741
3138,7.332732912
3139,7.35657392
3140,7.316124269
3141,7.358534637
3142,7.281955723
3143,7.336591948
3144,7.232483735
3145,7.313270302
3146,7.318717823
3147,7.280896542
3148,7.278472839
3149,7.305301992
3150,7.341353917
3151,7.30829653
3152,7.263218163
3153,7.313384672
3154,7.298910049
3155,7.270432645
3156,7.296561115
3157,7.319038457
3158,7.392039579
3159,7.355502432
3160,7.321642151
3161,7.422083509
3162,7.314506206
3163,7.364574252
3164,7.346842191
3165,7.338664389
3166,7.380688785
3167,7.337917336
3168,7.354650293
3169,7.327234862
3170,7.325860727
3171,7.334901734
3172,7.375079694
3173,7.348011751
3174,7.425870673
3175,7.38167609
3176,7.389881716
3177,7.323862616
3178,7.396873896
3179,7.377753548
3180,7.384313997
3181,7.323452433
3182,7.388983734
3183,7.381380003
3184,7.398984685
3185,7.304941821
3186,7.378563412
3187,7.373259124
3188,7.373630517
3189,7.409419073
3190,7.417026544
3191,7.429528813
3192,7.392309846
3193,7.370423316
3194,7.409646098
3195,7.446066437
3196,7.421078339
3197,7.41480586
3198,7.453620907
3199,7.345172856
3200,7.335788892
3201,7.382212708
3202,7.439781129
3203,7.405804821
3204,7.412391428
3205,7.403048341
3206,7.450457817
3207,7.425777883
3208,7.398010446
3209,7.423383424
3210,7.357759582
3211,7.386012461
3212,7.435348393
3213,7.478728464
3214,7.337207779
3215,7.44358218
3216,7.407217808
3217,7.361150724
3218,7.413439484
3219,7.490169115
3220,7.551554612
3221,7.47828486
3222,7.463230142
3223,7.418395606
3224,7.421018104
3225,7.388144818
3226,7.486119015
3227,7.485588284
3228,7.392780358
3229,7.47355752
3230,7.561090924
3231,7.473713203
3232,7.434376902
3233,7.444220952
3234,7.526214532
3235,7.524566695
3236,7.420134835
3237,7.439604444
3238,7.435818397
3239,7.505084581
3240,7.487304966
3241,7.454335971
3242,7.587423156
3243,7.531407025
3244,7.487584643
3245,7.505525872
3246,7.555468836
3247,7.558187002
3248,7.483448572
3249,7.481184957
3250,7.504657478
3251,7.512312244
3252,7.555551843
3253,7.592852086
3254,7.535750303
3255,7.556797208
3256,7.572227784
3257,7.553446832
3258,7.600203993
3259,7.574592217
3260,7.546913081
3261,7.575980448
3262,7.539759881
3263,7.568261058
3264,7.558493998
3265,7.602419592
3266,7.527222499
3267,7.563044737
3268,7.539201921
3269,7.494657461
3270,7.521109944
3271,7.590104348
3272,7.532662155
3273,7.621128367
3274,7.512617301
3275,7.646922217
3276,7.541848328
3277,7.579024504
3278,7.565758605
3279,7.54059471
3280,7.55072384
3281,7.601228073
3282,7.60072219
3283,7.614833274
3284,7.566331302
3285,7.681979249
3286,7.577322875
3287,7.528303269
3288,7.667957031
3289,7.645900784
3290,7.625857915
3291,7.608929931
3292,7.541167741
3293,7.660496082
3294,7.617146018
3295,7.606393852
3296,7.619691854
3297,7.640021166
3298,7.607921017
3299,7.621225786
3300,7.600106825
3301,7.617273127
3302,7.652552976
3303,7.695698015
3304,7.657790592
3305,7.660757789
3306,7.648266762
3307,7.676748714
3308,7.673987428
3309,7.687683152
3310,7.679498391
3311,7.632370168
3312,7.616274344
3313,7.771737238
3314,7.661352643
3315,7.672338135
3316,7.68857325
3317,7.690703521
3318,7.675473111
3319,7.686096431
3320,7.704517745
3321,7.684926293
3322,7.678330762
3323,7.607899971
3324,7.716558907
3325,7.659558756
3326,7.727620476
3327,7.66021375
3328,7.679046428
3329,7.666530397
3330,7.668949088
3331,7.806326818
3332,7.681373157
3333,7.659385741
3334,7.757977193
3335,7.733085061
3336,7.67571825
3337,7.718143691
3338,7.686585108
3339,7.684014562
3340,7.767525679
3341,7.700251324
3342,7.746440761
3343,7.735233416
3344,7.740138768
3345,7.694182107
3346,7.693028765
3347,7.815348408
3348,7.758417414
3349,7.704819172
3350,7.700583366
3351,7.818142903
3352,7.737731671
3353,7.725753789
3354,7.77320929
3355,7.783423538
3356,7.744268042
3357,7.747966092
3358,7.720308971
3359,7.800264338
3360,7.779094775
3361,7.759764618
3362,7.684681595
3363,7.858733755
3364,7.763690513
3365,7.75070009
3366,7.701633394
3367,7.781642652
3368,7.750592498
3369,7.791042068
3370,7.775880596
3371,7.740834145
3372,7.745962476
3373,7.839543026
3374,7.739658477
3375,7.735796867
3376,7.745134695
3377,7.789859793
3378,7.781937502
3379,7.818803806
3380,7.727453245
3381,7.85883421
3382,7.789223102
3383,7.77823451
3384,7.807629982
3385,7.718012844
3386,7.792370602
3387,7.802058329
3388,7.823693986
3389,7.779600899
3390,7.714372767
3391,7.732361483
3392,7.813786567
3393,7.701039851
3394,7.825095774
3395,7.831051639
3396,7.814360167
3397,7.815816469
3398,7.771185583
3399,7.845299785
3400,7.728305198
3401,7.849625072
3402,7.844541468
3403,7.814662804
3404,7.761286605
3405,7.817059408
3406,7.757080528
3407,7.860172556
3408,7.783377024
3409,7.87718584
3410,7.697837113
3411,7.736557553
3412,7.822057242
3413,7.764491378
3414,7.930958211
3415,7.794692668
3416,7.759330583
3417,7.859205305
3418,7.853062438
3419,7.789767721
3420,7.807253767
3421,7.794682599
3422,7.824577497
3423,7.717308459
3424,7.812250661
3425,7.840618743
3426,7.796110343
3427,7.726687268
3428,7.802445008
3429,7.775573856
3430,7.768478305
3431,7.821214084
3432,7.859603317
3433,7.854855508
3434,7.827353217
3435,7.822305822
3436,7.800485367
3437,7.888513659
3438,7.79255327
3439,7.778576314
3440,7.787706006
3441,7.855191282
3442,7.808195687
3443,7.819072538
3444,7.774940148
3445,7.832662682
3446,7.793275322
3447,7.762352888
3448,7.736849866
3449,7.896564279
3450,7.80042813
3451,7.744907009
3452,7.810634291
3453,7.855887748
3454,7.75038916
3455,7.8074504
3456,7.795377754
3457,7.739208096
3458,7.77077539
3459,7.772338836
3460,7.716675298
3461,7.774781516
3462,7.754880688
3463,7.802823586
3464,7.731553412
3465,7.774000693
3466,7.800980111
3467,7.701625267
3468,7.809042633
3469,7.791554003
3470,7.670542148
3471,7.825260771
3472,7.636733373
3473,7.716137686
3474,7.770608397
3475,7.825596472
3476,7.745335969
3477,7.792709578
3478,7.758917758
3479,7.732680525
3480,7.745820922
3481,7.769622157
3482,7.786181274
3483,7.720858462
3484,7.701220408
3485,7.697549901
3486,7.754015823
3487,7.747996171
3488,7.71657578
3489,7.697867442
3490,7.686048162
3491,7.708674312
3492,7.732078679
3493,7.764040957
3494,7.704035639
3495,7.719694813
3496,7.734011136
3497,7.720891246
3498,7.712978791
3499,7.750615623
3500,7.721176806
3501,7.672032062
3502,7.706325401
3503,7.75739339
3504,7.806504592
3505,7.725651349
3506,7.674557939
3507,7.747658707
3508,7.723442282
3509,7.754335624
3510,7.656623484
3511,7.718750253
3512,7.62467416
3513,7.687813581
3514,7.699786032
3515,7.716031381
3516,7.674180954
3517,7.741235596
3518,7.644194227
3519,7.647771694
3520,7.61381853
3521,7.678769649
3522,7.643750995
3523,7.712501347
3524,7.632216919
3525,7.618226415
3526,7.610746716
3527,7.699546248
3528,7.690238376
3529,7.611760731
3530,7.635668114
3531,7.642329077
3532,7.67911916
3533,7.640000307
3534,7.63993267
3535,7.642213637
3536,7.628782155
3537,7.682081646
3538,7.597973919
3539,7.681569592
3540,7.687016215
3541,7.611059763
3542,7.665034476
3543,7.620444047
3544,7.610499956
3545,7.601738362
3546,7.640755183
3547,7.72177521
3548,7.6052693
3549,7.601356154
3550,7.598541576
3551,7.588467438
3552,7.556939937
3553,7.597918669
3554,7.643142543
3555,7.60527296
3556,7.573798077
3557,7.550259735
3558,7.599302292
3559,7.596645605
3560,7.573280516
3561,7.611922365
3562,7.619267448
3563,7.552125472
3564,7.570574783
3565,7.617333027
3566,7.577062866
3567,7.596821411
3568,7.543806591
3569,7.591372546
3570,7.571821919
3571,7.521993643
3572,7.632620016
3573,7.536923379
3574,7.52282534
3575,7.51417714
3576,7.59758806
3577,7.573599031
3578,7.538738948
3579,7.546175375
3580,7.586657765
3581,7.626914034
3582,7.473711804
3583,7.487120401
3584,7.557951982
3585,7.547826059
3586,7.39679988
3587,7.454060908
3588,7.457569438
3589,7.550845206
3590,7.594108813
3591,7.602535312
3592,7.544937411
3593,7.479379433
3594,7.504919257
3595,7.499463817
3596,7.516693444
3597,7.494558293
3598,7.486979274
3599,7.464149889
3600,7.556569524
3601,7.456667438
3602,7.482282959
3603,7.51551855
3604,7.505413165
3605,7.488935127
3606,7.444965465
3607,7.452337207
3608,7.516595717
3609,7.490534292
3610,7.454449928
3611,7.422118011
3612,7.396205905
3613,7.438064468
3614,7.449112346
3615,7.462579507
3616,7.47165649
3617,7.435217331
3618,7.417507653
3619,7.428483787
3620,7.465616564
3621,7.389526254
3622,7.341910087
3623,7.415395602
3624,7.42959296
3625,7.481137998
3626,7.459617437
3627,7.403098525
3628,7.342268865
3629,7.420992947
3630,7.407539783
3631,7.432049514
3632,7.446076517
3633,7.357330457
3634,7.410843642
3635,7.448264303
3636,7.338888878
3637,7.318590009
3638,7.427741763
3639,7.401557162
3640,7.401183645
3641,7.420099228
3642,7.40632387
3643,7.449393164
3644,7.373318901
3645,7.358548425
3646,7.426628455
3647,7.404540706
3648,7.381958817
3649,7.380507781
3650,7.357759977
3651,7.39287676
3652,7.386499837
3653,7.352167108
3654,7.396670463
3655,7.357018182
3656,7.395566855
3657,7.301898327
3658,7.336130615
3659,7.403635404
3660,7.395692854
3661,7.355974468
3662,7.332169331
3663,7.348562484
3664,7.355343105
3665,7.314764726
3666,7.373889574
3667,7.366528817
3668,7.284972872
3669,7.31662704
3670,7.378388287
3671,7.383006635
3672,7.352073503
3673,7.287115567
3674,7.375356682
3675,7.332269584
3676,7.296511159
3677,7.311814417
3678,7.352198366
3679,7.352079039
3680,7.211718571
3681,7.304450478
3682,7.348975061
3683,7.271515744
3684,7.305622986
3685,7.277674828
3686,7.295725185
3687,7.362332113
3688,7.254474524
3689,7.328653896
3690,7.282103935
3691,7.327933272
3692,7.360388781
3693,7.333687438
3694,7.314965254
3695,7.263555352
3696,7.338630928
3697,7.256463274
3698,7.344241205
3699,7.282436305
3700,7.300808681
3701,7.272841024
3702,7.293429613
3703,7.273255939
3704,7.341888018
3705,7.38174742
3706,7.311041216
3707,7.284910945
3708,7.264002417
3709,7.341696498
3710,7.332962131
3711,7.242910148
3712,7.294247873
3713,7.253109341
3714,7.234623657
3715,7.274663102
3716,7.316312982
3717,7.333157985
3718,7.252482807
3719,7.304266848
3720,7.230857834
3721,7.279268234
3722,7.220000963
3723,7.313120012
3724,7.266745087
3725,7.22650611
3726,7.301653673
3727,7.302906267
3728,7.260088481
3729,7.256686226
3730,7.294578879
3731,7.272532681
3732,7.288825641
3733,7.355748649
3734,7.226586
3735,7.305617217
3736,7.199924466
3737,7.267144378
3738,7.260992233
3739,7.257894336
3740,7.217228995
3741,7.242892675
3742,7.241322029
3743,7.24631503
3744,7.216294872
3745,7.241191539
3746,7.245234776
3747,7.255081292
3748,7.268737036
3749,7.229021744
3750,7.276909
3751,7.235286186
3752,7.251134286
3753,7.227247113
3754,7.226555954
3755,7.2461951
3756,7.253367521
3757,7.26579084
3758,7.268375323
3759,7.231771956
3760,7.240921613
3761,7.207077854
3762,7.220610941
3763,7.263022955
3764,7.305067736
3765,7.265420283
3766,7.236425217
3767,7.158634234
3768,7.244174139
3769,7.254372386
3770,7.266101859
3771,7.226971086
3772,7.223613496
3773,7.224651045
3774,7.312395101
3775,7.261878781
3776,7.204201896
3777,7.191933097
3778,7.308381416
3779,7.286520185
3780,7.171459377
3781,7.148784649
3782,7.209621833
3783,7.250089354
3784,7.23290828
3785,7.142596586
3786,7.215184438
3787,7.228763599
3788,7.206615826
3789,7.198706836
3790,7.281057039
3791,7.23249796
3792,7.24073087
3793,7.124230683
3794,7.278812065
3795,7.245737263
3796,7.233170011
3797,7.246226338
3798,7.252140789
3799,7.193177695
3800,7.208495506
3801,7.234182782
3802,7.200896735
3803,7.196873132
3804,7.266851962
3805,7.209980762
3806,7.216146065
3807,7.177161249
3808,7.239050755
3809,7.196964947
3810,7.270704904
3811,7.212370901
3812,7.208358077
3813,7.223169291
3814,7.195849051
3815,7.24829673
3816,7.200653985
3817,7.199375042
3818,7.218048827
3819,7.162490631
3820,7.155230785
3821,7.180379989
3822,7.230521428
3823,7.188890632
3824,7.213459555
3825,7.235652534
3826,7.178131877
3827,7.180334347
3828,7.215738356
3829,7.231510603
3830,7.207951177
3831,7.229856442
3832,7.239636581
3833,7.236487677
3834,7.170690291
3835,7.195976001
3836,7.27012706
3837,7.206798654
3838,7.243861042
3839,7.235400018
3840,7.285636404
3841,7.28692294
3842,7.25114541
3843,7.157707022
3844,7.32547843
3845,7.198256318
3846,7.17381296
3847,7.207858636
3848,7.203050146
3849,7.118040415
3850,7.199804268
3851,7.211369628
3852,7.245636494
3853,7.192733863
3854,7.180085149
3855,7.204707839
3856,7.232743995
3857,7.219288881
3858,7.197376203
3859,7.144301982
3860,7.186436824
3861,7.230221607
3862,7.159755202
3863,7.189683484
3864,7.114392477
3865,7.174820862
3866,7.227048215
3867,7.246279405
3868,7.150994627
3869,7.206707961
3870,7.143971155
3871,7.246920411
3872,7.198730657
3873,7.174903534
3874,7.190859304
3875,7.215398909
3876,7.168747769
3877,7.171983528
3878,7.225285525
3879,7.225017829
3880,7.242916798
3881,7.227710278
3882,7.201204247
3883,7.14308164
3884,7.171116175
3885,7.206363417
3886,7.230693307
3887,7.194086137
3888,7.206133864
3889,7.245740059
3890,7.136132984
3891,7.17048185
3892,7.223842334
3893,7.249212343
3894,7.170873002
3895,7.224851669
3896,7.186773315
3897,7.096198562
3898,7.211823831
3899,7.17064867
3900,7.243877483
3901,7.153152616
3902,7.228925346
3903,7.177354943
3904,7.306512598
3905,7.155175014
3906,7.189891319
3907,7.190426611
3908,7.175881169
3909,7.180133653
3910,7.220221102
3911,7.188304693
3912,7.212821013
3913,7.209998927
3914,7.161005319
3915,7.157893425
3916,7.207929693
3917,7.221885447
3918,7.18772461
3919,7.225666608
3920,7.184346127
3921,7.200801471
3922,7.149166212
3923,7.188111871
3924,7.236240969
3925,7.191944823
3926,7.280930709
3927,7.211569766
3928,7.138556892
3929,7.209737622
3930,7.226660129
3931,7.11991738
3932,7.156213324
3933,7.206157236
3934,7.199559037
3935,7.18689474
3936,7.184790506
3937,7.184279254
3938,7.183880956
3939,7.206255832
3940,7.162190658
3941,7.177855665
3942,7.207037835
3943,7.214425103
3944,7.122942793
3945,7.193492338
3946,7.224036434
3947,7.246847401
3948,7.253487912
3949,7.197202781
3950,7.161091302
3951,7.139592321
3952,7.216118032
3953,7.122848157
3954,7.207681139
3955,7.146037773
3956,7.168377265
3957,7.181837683
3958,7.229273599
3959,7.172101024
3960,7.198315905
3961,7.272036522
3962,7.180895709
3963,7.177369198
3964,7.197109066
3965,7.157378651
3966,7.234226767
3967,7.160632735
3968,7.155410067
3969,7.192510145
3970,7.15685885
3971,7.232220678
3972,7.207410329
3973,7.191839494
3974,7.162876142
3975,7.180239812
3976,7.164840183
3977,7.185174659
3978,7.257444008
3979,7.224269695
3980,7.208523253
3981,7.210548188
3982,7.234925922
3983,7.181962039
3984,7.181825166
3985,7.222622559
3986,7.229609369
3987,7.18962904
3988,7.233913551
3989,7.224892931
3990,7.133717631
3991,7.201195326
3992,7.180913663
3993,7.201733512
3994,7.215169837
3995,7.168346001
3996,7.258749348
3997,7.236800069
3998,7.25092357
3999,7.224799687
4000,7.182904256
