Raman Shift,Intensity
214.3785040343428,-42.364
224.78145843945092,375.983
235.01908334044856,-34.421
245.41130867789616,84.729
255.63837774522108,-92.672
265.8602158678186,84.729
276.23642015571386,-68.842
286.44772684514464,103.263
296.8132434111685,66.194
307.0140349346475,15.887
317.209615658554,-87.376
327.399989574551,-7.943
337.7442627077253,100.615
347.9241537664129,60.899
358.09885002992814,52.955
368.2683554736213,66.194
378.5914504125685,-18.534
388.7505051753542,31.773
398.90438108190574,45.012
409.0530820913264,-10.591
419.196612158652,45.012
429.3349752349313,293.902
439.626465572117,158.866
449.75442592354375,164.162
459.8772311743669,50.308
469.994885259468,264.777
480.1073921097559,172.105
490.2147556521086,262.129
500.31697980943136,413.052
510.41406850063504,579.862
520.5060256406359,391.87
530.5928551403995,540.145
540.6745609068894,579.862
550.7511468431039,278.016
560.8226168481124,503.076
570.888974816975,259.481
580.9502246408374,336.267
590.8492821665859,455.416
600.9004070215597,500.428
610.9464353206786,651.351
620.9873709393651,847.286
631.0232177491416,1813.722
641.0539796175653,2295.616
650.9230482019848,2740.442
660.9437310766662,1612.492
670.9593405290361,834.047
680.9698804110958,751.967
690.8190579752118,468.655
700.8195493193562,683.125
710.8149825658329,436.882
720.805361551138,471.303
730.6347081696804,373.336
740.6150689503047,487.19
750.4345613154874,442.178
760.404918953056,468.655
770.3702413346182,471.303
780.174941402227,900.242
790.1302832356378,444.825
799.925166080895,603.692
809.8705423523497,479.246
819.6556227125038,312.437
829.5910483782136,243.595
839.3663409610526,450.121
849.2918309472952,468.655
859.0573504311833,442.178
868.972919634427,172.105
878.7286806683987,566.623
888.6343439553166,375.983
898.3803611591502,336.267
908.12155022542,455.416
918.0124213310264,291.255
927.743888384779,423.643
937.4705381077074,473.951
947.3466501411676,659.295
957.0635996041163,420.995
966.7757425107702,677.829
976.6371284824854,762.558
986.3395928168538,1509.229
996.0372613373548,2901.956
1005.7301375988682,3598.319
1015.5719657306544,3179.971
1025.255192198514,2375.049
1034.9336371072422,1456.273
1044.6073039976543,722.841
1054.2761964070742,736.08
1063.9403178693246,497.781
1073.5996719147442,606.339
1083.4074711432768,786.388
1093.057225399156,696.363
1102.70222286418,632.817
1112.3424670547538,778.444
1121.9779614837898,696.363
1131.6087096607444,1114.711
1141.2347150916105,550.736
1150.855981278939,728.137
1160.4725117218331,542.793
1170.0843099159465,606.339
1179.6913793534914,553.384
1189.293723523253,344.21
1198.739039559725,452.769
1208.3320185130287,714.898
1217.9202825891407,651.351
1227.5038352631818,659.295
1237.0826800068826,344.21
1246.6568202885535,375.983
1256.226259573108,-55.603
1265.639216696829,407.757
1275.1993388504195,74.138
1284.7547703264208,243.595
1294.3055145761757,275.368
1303.7000868433097,759.91
1313.241541245312,338.915
1322.778318700337,291.255
1332.310422646282,328.323
1341.686663866676,323.028
1351.2095051416618,323.028
1360.727683146746,243.595
1370.0902294598782,243.595
1379.5991650801443,119.15
1388.9526223370776,222.413
1398.4523290278594,275.368
1407.7967104575073,357.449
1417.287201648047,267.425
1426.7730533080105,-174.753
1436.1038095471376,-119.15
1445.5804658554116,153.571
1454.9021792800197,659.295
1464.369653600741,304.494
1473.6823373500883,307.141
1482.9905472474493,129.741
1492.444310209452,251.538
1501.7435100404182,267.425
1511.1881242589734,397.165
1520.4783270994303,309.789
1529.764072276041,-74.138
1539.1950247490097,142.98
1548.4717924494323,238.299
1557.7441121511074,240.947
1567.1614324998736,243.595
1576.4247941832873,381.279
1585.6837175051332,254.186
1594.9382056544855,233.004
1604.3374199708342,97.967
1613.5829759239496,34.421
1622.8241063047317,248.89
1632.0608142900164,304.494
1641.2931030535765,317.732
1650.6697762525291,227.708
1659.8931649322622,389.222
1669.1121439444323,328.323
1678.3267164506542,399.813
1687.53688560953,344.21
1696.7426545766284,-50.308
1705.9440265045123,219.765
1715.1410045427183,391.87
1724.3335918377925,219.765
1733.5217915332687,187.992
1742.705606769683,285.959
1751.8850406845886,174.753
1761.0600964125188,203.878
1770.230777085024,214.469
1779.397085830693,217.117
1788.55902577511,285.959
1797.7166000408906,161.514
1806.8698117476447,233.004
1816.0186640120735,137.684
1825.163159947857,158.866
1834.1559155330324,323.028
1843.29177827917,103.263
1852.4232939699289,172.105
1861.550465707216,362.744
1870.673296589972,301.846
1879.644751645923,574.566
1888.758979994156,309.789
1897.8688767172423,145.627
1906.974444902422,209.174
1915.9289277003045,113.854
1925.025917750907,132.388
1934.118588458099,219.765
1943.060390766601,145.627
1952.144501554074,301.846
1961.2243021666216,127.093
1970.153450902042,158.866
1979.224709758193,-5.296
1988.1454604369865,285.959
1997.208189584475,68.842
2006.120554048888,243.595
2015.1747655127983,190.639
2024.0787555828572,233.004
2033.12446136566,92.672
2042.0200888391555,420.995
2051.057300920809,270.073
2059.9445775734057,172.105
2068.9733079113576,275.368
2077.852245496608,90.024
2086.8725060258803,180.048
2095.743116275291,325.676
2104.6096010526526,156.218
2113.6172135316083,383.927
2122.4753884816528,119.15
2131.329446630596,68.842
2140.324437642892,389.222
2149.170203423979,640.76
2158.011861050589,293.902
2166.994257105456,280.664
2175.8276397748195,219.765
2184.656922912145,296.55
2193.48210937062,187.992
2202.303202000803,219.765
2211.2647105948345,150.923
2220.077557114586,7.943
2228.886318388424,217.117
2237.6909972563008,-148.275
2246.4915965555265,195.935
2255.2881191208,148.275
2264.0805677841927,198.583
2272.8689453751285,45.012
2281.6532547204406,341.562
2290.5774032157133,164.162
2299.353517963282,283.311
2308.125572976198,111.206
2316.893571070781,100.615
2325.6575150607823,121.797
2334.273835606975,119.15
2343.029746164546,177.401
2351.781610997117,251.538
2360.5294329081007,132.388
2369.273214698267,-105.911
2378.0129591658333,161.514
2386.7486691064114,169.457
2395.48034731306,124.445
2404.2079965762314,119.15
2412.788641914361,79.433
2421.5083075861257,13.239
2430.2239526247795,301.846
2438.9355798105607,92.672
2447.64319192111,280.664
2456.204142101211,150.923
2464.9037980916983,248.89
2473.5994472792227,347.024
2482.148638712344,371.792
2490.836348166158,342.263
2499.5200590665554,277.504
2508.0575159626023,196.586
2516.7333034706826,118.576
2525.405100652257,62.54
2533.930847154741,47.549
2542.5947372405863,92.672
2551.112711590584,142.98
2559.768705390503,58.251
2568.2789182109263,211.822
2576.927026515033,166.809
2585.5711635713087,193.287
2594.069721988235,92.672
2602.5644435408976,190.639
2611.196813145194,262.129
2619.683804921093,203.878
2628.3083212822166,90.024
2636.7875938271245,156.218
2645.404267656864,10.591
2653.875831497382,259.481
2662.343576738021,246.243
2670.948539131641,222.413
2679.408591378582,95.32
2687.8648328054915,187.992
2696.4581076233444,217.117
2704.906671724595,225.06
2713.351432764532,185.344
2721.792393310454,283.311
2730.370143142005,182.696
2738.8034471581705,84.729
2747.232958411034,82.081
2755.658679458633,142.98
2764.220946338093,187.992
2772.639031576786,251.538
2781.053334313052,-66.194
2789.463857095703,66.194
2797.8706024712737,164.162
2806.2735729839987,45.012
2814.672771175843,68.842
2823.0681995864725,251.538
2831.459860753297,87.376
2839.847757211428,145.627
2848.231891493713,92.672
2856.612266130724,132.388
2864.988883650767,185.344
2873.3617465798743,132.388
2881.7308574418275,270.073
2890.096218758139,97.967
2898.457833048058,156.218
2906.815702828586,95.32
2915.169830614461,328.323
2923.5202189181878,317.732
2931.8668702499926,275.368
2940.209787117892,209.174
2948.41001618022,132.388
2956.7455337723804,206.526
2965.077324369493,264.777
2973.405390470638,299.198
2981.7297345726547,256.834
2989.9117125592966,206.526
2998.2286820744484,140.332
3006.5419370261297,182.696
3014.8514799023105,275.368
3023.0189130185245,248.89
3031.3211009634906,323.028
3039.619584242202,301.846
3047.776149306213,275.368
3056.067292329164,344.21
3064.2166442633534,619.578
3072.500456765243,577.214
3080.780576892153,550.736
3088.919096831967,603.692
3097.1919010483834,677.829
3105.3232317767324,701.659
3113.588729774354,852.582
3121.712880813,677.829
3129.9710822664056,958.493
3138.0880631202745,1037.926
3146.338977686973,1225.917
3154.448797844241,1268.282
3162.692435164703,1427.148
3170.7951040967964,1461.569
3178.894230970407,1249.747
3187.127000956163,1059.108
3195.218990740796,1379.488
3203.3074454664093,1707.812
3211.5293695924192,1522.468
3219.610701328027,1239.156
3227.688504985643,1093.529
3235.899604670318,1088.233
3243.9702993997853,1146.484
3252.03747301393,1276.225
3260.1011278165533,1114.711
3268.297848330192,1228.565
3276.354412870096,1093.529
3284.407465536773,1143.837
3292.4570086259846,1228.565
3300.5030444314834,1255.043
3308.545575245,902.889
3316.720827896272,918.776
3324.756296283769,1252.395
3332.788266581294,1358.306
3340.816741072602,1257.691
3348.8417220394404,1371.545
3356.8632117615925,934.663
3364.8812125168406,1220.622
3372.895726580995,1302.703
3380.906756227865,1596.605
3388.91430372934,1480.103
3396.918371355256,1432.443
3404.9189613735507,1231.213
3412.9160760501472,992.914
3420.909717649003,894.946
3428.8998884321263,863.173
3436.886590659553,733.432
3444.734546370892,839.343
3452.714376952972,884.355
3460.690745709508,796.979
3468.663654892749,839.343
3476.633106752961,635.465
3484.5991035384795,709.602
3492.4267178764712,248.89
3500.385869715596,688.42
3508.341573175334,481.894
3516.293830496281,357.449
3524.1079469444667,420.995
3532.0533770164475,497.781
3539.9953676218797,365.392
3547.7993978646555,436.882
3555.734574435446,452.769
3563.666318194715,558.679
3571.460281747888,301.846
3579.385224652753,397.165
3587.30674138396,264.777
3595.090657713052,206.526
3603.00538673612,299.198
3610.782634691175,153.571
3618.6905847266535,240.947
3626.461172873067,405.109
3634.362352626544,121.797
3642.1262895150494,214.469
3650.020707677235,153.571
3657.778001843908,111.206
3665.665667090652,156.218
3673.416327056992,193.287
3681.163701429177,50.308
3689.041282322214,76.785
3696.782035212709,2.648
3704.6528847781447,158.866
3712.3870246721344,203.878
3720.117889469839,58.251
3727.845481251112,251.538
3735.702951367959,63.546
3743.4239470074463,129.741
3751.141675895298,193.287
3758.989119491133,317.732
3766.700264858686,74.138
3774.408149723422,97.967
3782.1127761528696,127.093
3789.814146212797,90.024
3797.644959575024,246.243
3805.339767031168,227.708
3813.03132434014,148.275
3820.7196335607214,-58.251
3828.404696749953,222.413
3836.086515963114,193.287
3843.76509325378,233.004
3851.4404306737633,7.943
3859.112530273167,-90.024
3866.7813941003615,158.866
3874.4470242019815,174.753
3882.109422622947,108.559
3889.7685914064414,243.595
3897.4245325939337,447.473
3905.0772482251705,203.878
3912.7267403381848,217.117
3920.373010969284,304.494
3928.016062153074,262.129
3935.655895922435,161.514
3943.292514308545,174.753
3950.925919340858,172.105
3958.424585178429,103.263
3966.051624900327,-52.955
3973.675457311714,463.36
3981.296084435249,174.753
3988.913508291902,132.388
3996.396478310664,248.89
4004.007556831755,39.717
4011.615438103967,63.546
4019.220124141517,58.251
4026.690583777876,222.413
4034.288940385857,206.526
4041.8841077570687,193.287
4049.3452186808136,280.664
4056.934068499933,116.502
4064.519735065173,267.425
4071.971514814119,74.138
4079.550875675057,121.797
4086.996462302253,111.206
4094.5695253181984,164.162
4102.008926541021,140.332
4109.575699558212,135.036
4117.008923081237,37.069
4124.569413932906,124.445
4131.996467447912,121.797
4139.550683954272,71.49
4146.971575140262,270.073
4154.519525108568,243.595
4161.93426163181,108.559
4169.475952856366,373.336
4228.011654085007,-124.445
4235.396210255021,68.842
4242.907210725418,68.842
4250.415076793586,13.239
4257.7904449892885,50.308
4265.292102093408,90.024
4272.790630641473,156.218
4280.156827999919,58.251
4287.649159161061,195.935
4295.138367597785,230.356
4302.4954112134365,108.559
4309.978433811593,272.72
4317.329402006981,280.664
4324.8062464273535,158.866
4332.151146724958,219.765
4339.621820615692,103.263
4346.960660525576,105.911
4354.425171522191,238.299
4361.757958542046,153.571
4369.216314267462,148.275
4376.543055882612,87.376
4383.9952639471885,166.809
4391.315967630617,651.351
4398.762035632179,95.32
4406.07670884455,235.652
4413.516644368407,82.081
4420.825294558097,39.717
4428.130962180556,52.955
4435.561739780205,108.559
4442.861395497304,113.854
4450.1580741507205,267.425
4457.579710724684,55.603
4464.870388562711,84.729
4472.158094827057,415.7
4479.570607232323,-21.182
4486.852323743988,31.773
4494.131074158497,174.753
4501.534479210626,248.89
4508.807250907994,132.388
4516.077061971264,29.125
4523.3439142079005,209.174
4530.735219799091,328.323
4537.996107969229,79.433
4545.254042757973,177.401
4552.509025966887,158.866
4559.888261734326,169.457
4567.13729547953,190.639
4574.383383072374,52.955
4581.626526308552,174.753
4588.866726982291,97.967
4596.103986886381,113.854
4603.338307812148,31.773
4610.69653172473,132.388
4617.92492857972,285.959
4625.150391852971,190.639
4632.372923329975,230.356
4639.592524794789,-15.887
4646.809198030001,103.263
4654.022944816745,169.457
4661.233766934747,206.526
4668.441666162253,142.98
4675.646644276094,251.538
4682.8487030516335,240.947
4690.047844262837,413.052
4697.244069682201,187.992
4704.437381080781,34.421
4711.627780228235,187.992
4718.815268892759,113.854
4725.999848841122,50.308
4733.181521838655,100.615
4740.3602896492885,145.627
4747.536154035501,124.445
4754.583300303697,240.947
4761.753413983191,164.162
4768.9206294863325,23.83
4776.084948569973,140.332
4783.246372989488,222.413
4790.404904498872,58.251
4797.435032206777,18.534
4804.5878338284165,148.275
4811.73774776268,161.514
4818.884775757928,180.048
4826.028919561082,174.753
4833.044920461813,-127.093
4840.183351639585,243.595
4847.3189038270575,187.992
4854.451578765569,166.809
4861.456318765864,164.162
4868.58329482688,135.036
4875.707398824052,214.469
4882.703723295803,119.15
4889.822138682386,254.186
4896.937687177771,-206.526
4903.925611277555,58.251
4911.035481404608,203.878
4918.142489800703,230.356
4925.122028648751,50.308
4932.223368894192,219.765
4939.197342363797,240.947
4946.293021236786,174.753
4953.385846941688,135.036
4960.35146024984,-103.263
4967.43863475923,135.036
4974.398699333346,140.332
4981.480229398396,230.356
4988.43475186592,37.069
4995.510644227063,92.672
5002.459631204903,174.753
5009.529892591847,58.251
5016.473350686378,100.615
5023.537987818112,90.024
5030.475923625207,26.478
5037.534943210041,511.02
5044.467363315067,233.004
5051.397052412052,45.012
5058.447683028528,524.258
5065.371866252855,211.822
5072.416896017057,158.866
5079.335579928018,129.741
5086.251540943114,150.923
5093.288206657562,18.534
5100.198678149784,-52.955
5107.106431592307,140.332
5114.134748143202,37.069
5121.037021830118,23.83
5127.93658230202,0.0
5134.833431158368,-31.773
5141.85065500065,121.797
5148.742037069234,193.287
5155.630712341699,148.275
5162.516682412504,169.457
5169.522839786696,238.299
5176.403355996677,71.49
5183.281171809234,-7.943
5190.156288813778,140.332
5197.028708598496,95.32
5204.021081907653,7.943
5210.888063918697,172.105
5217.752353495271,227.708
5224.613952220541,142.98
5231.472861676462,373.336
5238.329083443728,264.777
5245.182619101804,-5.296
5252.033470228904,52.955
5258.881638402017,-50.308
5265.727125196914,103.263
5272.569932188097,116.502
5279.532181775125,97.967
5286.369586094326,39.717
5293.204315354014,23.83
5300.036371123795,156.218
5306.865754971979,71.49
5313.692468465706,79.433
5320.516513170878,34.421
5327.216103720151,74.138
5334.034863128356,100.615
5340.850958410447,164.162
5347.664391127459,71.49
5354.475162839211,111.206
5361.283275104273,-60.899
5368.088729480027,-2.648
5374.891527522632,124.445
5381.6916707870405,79.433
5388.489160826968,82.825
5395.162686039381,172.793
5401.954921596684,308.116
5408.744508555763,447.577
5415.531448465517,549.956
5422.31574287366,574.031
5428.976315601984,478.592
5435.7553708175255,222.413
5442.531785139763,-45.012
5449.305560111599,203.878
5456.076697274744,148.275
5462.724355191152,97.967
5469.490268392445,55.603
5476.253548375513,103.263
5482.893493883399,23.83
5489.651558992991,137.684
5496.406995464167,21.182
5503.039241977291,18.534
5509.789472642318,103.263
5516.5370792381145,135.036
5523.161640139158,52.955
5529.904049975114,76.785
5536.643840300443,-166.809
5543.260728941095,148.275
5549.995331531944,39.717
5556.607128017575,15.887
5563.336548861262,95.32
5569.943259067753,301.846
5576.667504142417,158.866
5583.269133936614,-172.105
5589.988209211173,90.024
5596.58476445092,309.789
5603.298675885118,-13.239
5609.890162419251,39.717
5616.598915963696,74.138
5623.185339632037,206.526
5629.888941228186,185.344
5636.470307861637,-76.785
5643.16876344182,37.069
5649.745078862296,113.854
5656.438394349752,71.49
5663.009664370256,50.308
5669.578436568787,71.49
5676.264076103718,158.866
5682.827811578958,-10.591
5689.3890535265455,34.421
5696.067030305661,-50.308
5702.623244186747,307.141
5709.176968824671,325.676
5715.847296014435,190.639
5722.39600122282,190.639
5728.942221462719,97.967
5735.4859581482815,275.368
5742.146121627004,-13.239
5748.684850350968,164.162
5755.221099782248,103.263
5761.754871330697,-180.048
5768.404894310675,-84.729
5774.933669330552,203.878
5781.459970716278,285.959
5787.983799873429,111.206
5794.505158206499,116.502
5801.142549523138,97.967
5807.658925557145,42.364
5814.172834999641,206.526
5820.684279250832,185.344
5827.193259709879,18.534
5833.699777774898,137.684
5840.203834842934,132.388
5846.7054323099655,145.627
5853.204571570954,127.093
5859.701254019747,145.627
5866.195481049195,-34.421
5872.687254051074,-283.311
5879.176574416102,370.688
5885.663443533944,150.923
5892.14786279323,225.06
5898.629833581537,153.571
5905.109357285379,187.992
5911.586435290243,262.129
5918.061068980562,129.741
5924.533259739736,-5.296
5931.003008950094,82.081
5937.470317992949,-66.194
5943.935188248557,23.83
5950.397621096134,105.911
5956.857617913869,180.048
5963.315180078898,84.729
5969.7703089673305,79.433
5976.105705888956,156.218
5982.556016527509,368.04
5989.003897986593,103.263
5995.449351638199,-18.534
6001.8923788532775,158.866
6008.215900781644,-5.296
6014.654123287393,142.98
6021.089923438405,119.15
6027.523302601519,92.672
6033.954262142564,2.648
6040.265942433929,-37.069
6046.692110755517,113.854
6053.115863521547,-18.534
6059.420472023492,55.603
6065.839441620141,74.138
6072.255999718647,-29.125
6078.553548309683,7.943
6084.965331270854,71.49
6091.374706782226,-42.364
6097.665207314269,193.287
6104.06981570238,84.729
6110.472020679961,172.105
6116.755484978421,285.959
6123.152930828903,90.024
6129.431725134898,262.129
6135.824417162912,31.773
6142.098546680769,354.801
6148.486490183052,55.603
6154.872039648391,18.534
6161.139160374798,142.98
6167.519969269015,63.546
6173.782438208022,150.923
6180.158511808193,31.773
6186.416334137088,161.514
6192.787677712448,225.06
6199.040858600842,113.854
6205.291741972564,108.559
6211.656022022646,251.538
6217.902271670246,0.0
6224.261834810408,-26.478
6230.503455884398,145.627
6236.742785809074,182.696
6243.095304999864,95.32
6249.330014038809,182.696
6255.677829386121,105.911
6261.907922670827,76.785
6268.1357311500615,-34.421
6274.476522051649,92.672
6280.699722436162,100.615
6286.920641805642,26.478
6293.139281413962,455.416
6299.470738832184,180.048
6305.684780516531,135.036
6311.896546218988,52.955
6318.106037189755,7.943
6324.428181717434,5.296
6330.633084905065,423.643
6336.835717129172,116.502
6343.036079636258,182.696
6349.234173671932,47.66
6355.544716640681,137.684
6361.738235515753,60.899
6367.929489673777,116.502
6374.118480356665,34.421
6380.305208805476,129.741
6386.489676260331,116.502
6392.671883960451,119.15
6398.851833144166,50.308
6405.143905470883,127.093
6411.319299566196,68.842
6417.492438877496,121.797
6423.663324639478,97.967
6429.831958085924,90.024
6435.998340449718,34.421
6442.162472962846,95.32
6448.324356856407,7.943
6454.483993360576,330.971
6460.641383704664,116.502
6466.79652911704,182.696
6472.949430825232,50.308
6479.100090055821,166.809
6485.248508034543,158.866
6491.280888225534,166.809
6497.424868822251,7.943
6503.5666118162335,-7.943
6509.706118429633,177.401
6515.843389883739,23.83
6521.978427398899,50.308
6528.111232194642,-87.376
6534.241805489546,5.296
6540.256680928833,-198.583
6546.382836142315,58.251
6552.506763482961,222.413
6558.628464165849,325.676
6564.747939405184,304.494
6570.751928194237,233.004
6576.866997341494,34.421
6582.979844660076,195.935
6589.090471360658,132.388
6595.0857801617385,288.607
6601.192010321647,132.388
6607.296023467985,-34.421
6613.39782080795,0.0
6619.384468430493,217.117
6625.481878753591,0.0
6631.577076864334,15.887
6637.5572509579,246.243
6643.64806916556,201.231
6649.623946782151,79.433
6655.71038980603,82.081
6661.794626582923,195.935
6667.764048126817,63.546
6673.843916808139,362.744
6679.809053455574,217.117
6685.884558743659,-5.296
6691.957863728712,74.138
6697.916561697035,21.182
6703.985510351609,148.275
6709.939934962422,60.899
6716.004531971987,18.534
6721.954687820689,0.0
6728.014937863976,-119.15
6733.960829539363,-15.887
6739.904610751524,92.672
6745.95836937274,60.899
6751.897893261092,267.425
6757.947316561804,26.478
6763.8825876987685,100.615
6769.927680334353,108.559
6775.858703285812,87.376
6781.787623684751,121.797
6787.826249230238,21.182
6793.750928258974,87.376
6799.673508107371,-10.591
6805.705676935038,58.251
6811.624022213946,-108.559
6817.540271677499,307.141
6823.5659941374615,-195.935
6829.478015817709,-729.148
6835.387945040406,-1015.168
6841.407231460638,-1099.008
6847.312939671727,-1025.677
6853.216558775894,-840.188
6859.118089881435,-587.554
6865.017534095896,-312.786
6871.026143398485,-60.899
6876.921377827312,113.854
6882.814528703813,142.98
6888.705597132364,39.717
6894.594584216582,121.797
6900.592544785228,172.105
6906.477333270021,235.652
6912.360043737404,-21.182
6918.240677287846,-13.239
6924.119235021055,129.741
6929.995718035963,39.717
6935.870127430717,230.356
6941.742464302697,182.696
6947.6127297485,-45.012
6953.480924863958,76.785
6959.347050744116,26.478
6965.21110848328,-26.478
6971.073099174937,47.66
6976.93302391185,39.717
6982.79088378598,60.899
6988.64667988853,87.376
6994.500413309928,180.048
7000.35208513985,198.583
7006.201696467178,166.809
7012.049248380063,201.231
7017.894741965851,150.923
7023.738178311156,10.591
7029.579558501813,-116.502
7035.418883622879,153.571
7041.2561547586665,-129.741
7047.091372992727,58.251
7052.924539407839,105.911
7058.645653010426,26.478
7064.474757695687,23.83
7070.301813785409,84.729
7076.126822359336,63.546
7081.949784496486,129.741
7087.660891581778,5.296
7093.479802640664,-45.012
7099.296670474898,45.012
7105.111496160462,23.83
7110.814624476749,13.239
7116.625407570507,211.822
7122.434151718757,219.765
7128.2408579944895,23.83
7133.936024250346,135.036
7139.73869639702,272.72
7145.53933386541,79.433
7151.22854892195,92.672
7157.025158582874,37.069
7162.819736753059,7.943
7168.503009933542,317.732
7174.293566604632,177.401
7180.082094965896,119.15
7185.759435574095,13.239
7191.54394873148,156.218
7197.2173519438,100.615
7202.997854073568,18.534
7208.667323984642,7.943
7214.443819257263,166.809
7220.109359956041,26.478
7225.881852536215,-15.887
7231.54346810597,169.457
7237.311962152613,140.332
7242.969656670975,121.797
7248.734156337254,55.603
7254.387933876205,113.854
7260.148443309525,29.125
7265.798307935409,74.138
7271.554831277448,84.729
7277.20078705097,198.583
7282.953328437674,55.603
7288.59537941395,74.138
7294.235498085545,-90.024
7299.982093204053,23.83
7305.618313131272,29.125
7311.252603748333,148.275
7316.993261813666,-97.967
7322.623659726734,161.514
7328.252131317968,50.308
7333.9868615261075,116.502
7339.611446441268,-5.296
7345.234108016753,166.809
7350.962919544712,95.32
7356.581700459581,211.822
7362.198561010817,-2.648
7367.813502182726,31.773
7373.426524958988,63.546
7379.145517410223,325.676
7384.7546694986595,254.186
7390.361906157261,-63.546
7395.967228366993,-90.024
7401.570637108154,161.514
7407.279835705631,74.138
7412.879383697611,180.048
7418.477021176703,2.648
7424.072749120482,45.012
7429.666568505905,214.469
7435.258480309247,108.559
7440.848485506111,76.785
7446.436585071431,31.773
7452.022779979503,-47.66
7457.607071203925,39.717
7463.296794702215,13.239
7468.877244915177,166.809
7474.455794380043,142.98
7480.032444067743,76.785
7485.607194948596,235.652
7491.18004799222,76.785
7496.751004167574,270.073
7502.2129850032,95.32
7507.7801867781745,2.648
7513.345494569261,-52.955
7518.908909342786,135.036
7524.470432064445,129.741
7530.03006369928,259.481
7535.587805211653,103.263
7541.1436575652915,58.251
7546.697621723266,140.332
7552.249698647978,158.866
7557.693172648,90.024
7563.241514237732,82.081
7568.787971459049,55.603
7574.332545271769,15.887
7579.87523663506,129.741
7585.416046507413,52.955
7590.848475703144,26.478
7596.385561603231,-2.648
7601.920768865631,169.457
7607.454098446255,100.615
7612.879194899509,82.081
7618.4088080453,161.514
7623.936546354853,74.138
7629.462410781522,2.648
7634.880189328982,142.98
7640.402344837916,137.684
7645.9226293018255,164.162
7651.334937948188,21.182
7656.851519109852,74.138
7662.260197498763,-63.546
7667.773079083498,26.478
7673.284094334183,39.717
7678.687316594296,34.421
7684.194637864675,58.251
7689.7000956236625,23.83
7695.097870006797,402.461
7700.599639370841,225.06
7705.993798107356,-2.648
7711.491882781789,97.967
7716.882429503323,111.206
7722.376833188511,103.263
7727.763771521855,-169.457
7733.254497913214,23.83
7738.637831480286,280.664
7744.124884268305,13.239
7749.504616686187,-82.081
7754.987999556393,-7.943
7760.364134437317,145.627
7765.738489349154,-23.83
7771.216392021717,246.243
7776.587154788423,-23.83
7782.061396717661,-7.943
7787.428570939446,-100.615
7792.793969640064,113.854
7798.262745065967,121.797
7803.624560595526,129.741
7808.984603262106,18.534
7814.447920368751,415.7
7819.804385227417,2.648
7825.159079875983,132.388
7830.616946831127,-145.627
7835.968069024231,137.684
7841.317423654822,-10.591
7846.665011598543,-2.648
7852.115636126822,103.263
7857.459658723532,2.648
7862.801917273948,129.741
7868.142412651388,203.878
7873.481145728587,45.012
7878.922746278997,31.773
7884.257922859626,97.967
7889.59133977185,23.83
7894.922997886111,45.012
7900.252898072242,45.012
7905.581041199541,291.255
7910.907428136696,201.231
7916.336446752692,-82.081
7921.65928952102,148.275
7926.980378718883,63.546
7932.29971521271,174.753
7937.617299868325,-121.797
7942.933133550996,52.955
7948.247217125423,-140.332
7953.559551455743,116.502
7958.870137405502,153.571
7964.178975837705,-18.534
7969.486067614758,137.684
7974.791413598527,47.66
7980.0950146503055,39.717
7985.396871630804,0.0
7990.696985400187,187.992
7995.995356818043,116.502
8001.291986743403,37.069
8006.586876034729,140.332
8011.880025549901,-18.534
8017.067699705829,45.012
8022.357406311574,-87.376
8027.645375694708,-63.546
8032.931608710882,103.263
8038.216106215201,-74.138
8043.498869062179,116.502
8048.779898105804,97.967
8053.955695240969,420.995
8059.233293192043,-37.069
8064.509159881611,-7.943
8069.783296161415,161.514
8074.952338977277,-158.866
8080.223050878609,124.445
8085.492034905405,-58.251
8090.759291907168,288.607
8095.921593616502,-13.239
8101.185432936367,-21.182
8106.447547759821,-39.717
8111.604810570996,135.036
8116.863512715307,31.773
8122.120492886879,187.992
8127.272724173963,39.717
8132.526296659391,95.32
8137.778149690843,0.0
8142.925356813517,87.376
8148.173807142077,113.854
8153.4205405305,124.445
8158.562730834117,58.251
8163.806066493191,-145.627
8168.944927307508,-135.036
8174.184868536668,267.425
8179.32040309432,29.125
8184.55695318873,100.615
8189.689164718173,71.49
8194.922326968728,26.478
8200.051218694258,45.012
8205.280996387602,-21.182
8210.406571529322,135.036
8215.632967947844,-84.729
8220.7552297217,307.141
8225.978248143558,-76.785
8231.097199761349,-439.53
8236.316843460441,121.797
8241.43248812982,23.83
8246.546496881761,90.024
8251.76110130029,148.275
8256.871807891675,47.66
8261.98088093357,158.866
8267.190453365733,150.923
8272.296229025691,79.433
8277.400373499535,60.899
8282.604921225458,37.069
8287.705773086778,-29.125
8292.804996120794,-68.842
8298.004526406577,63.546
8303.100461588281,39.717
8308.194770296956,-26.478
8313.28745331115,45.012
8318.48031600209,315.085
8323.569717486189,-15.887
8328.657495624051,31.773
8333.743651192239,153.571
8338.828184966831,-7.943
8344.012739449463,79.433
8349.093999566121,26.478
8354.17364022991,2.648
8359.251662214898,124.445
8364.328066294685,127.093
8369.402853242376,172.105
8374.476023830553,84.729
8379.547578831349,-37.069
8384.718901354245,105.911
8389.787195221597,74.138
8394.853875830348,193.287
8399.91894395064,84.729
8404.98240035212,58.251
8410.044245803958,29.125
8415.104481074803,7.943
8420.163106932847,-13.239
8425.220124145773,-90.024
8430.275533480788,-47.66
8435.32933570461,-47.66
8440.381531583458,-21.182
8445.432121883085,-135.036
8450.48110736873,142.98
8455.528488805172,-55.603
8460.473367100913,84.729
8465.51757477424,-42.364
8470.560180674485,-76.785
8475.601185564497,-18.534
8480.64059020661,-29.125
8485.67839536271,127.093
8490.714601794163,87.376
8495.749210261878,-29.125
8500.681576948675,124.445
8505.713023691114,-111.206
8510.742874734438,74.138
8515.771130837642,174.753
8520.797792759218,-145.627
8525.722375497866,230.356
8530.745883175656,18.534
8535.7677989293,169.457
8540.788123515384,166.809
8545.706498587671,52.955
8550.723674892208,174.753
8555.739262280982,29.125
8560.652997083213,60.899
8565.665440644778,-79.433
8570.676297538128,-37.069
8575.585398634048,-119.15
8580.593116146138,-74.138
8585.599249233324,-58.251
8590.503723174297,225.06
8595.506721317797,50.308
8600.508137275468,31.773
8605.40799060051,5.296
8610.406276043708,328.323
8615.303062904772,-7.943
8620.298220771765,13.239
8625.191944046568,177.401
8630.18397727198,15.887
8635.074639834631,-79.433
8640.063551349394,15.887
8644.951156070434,95.32
8649.936948801806,-74.138
8654.821498548154,-328.323
8659.804175419777,161.514
8664.685673054784,23.83
8669.665236986599,13.239
8674.543685370048,-60.899
8679.520139278378,317.732
8684.395541266465,13.239
8689.2694364983,71.49
8694.241246509358,58.251
8699.112099609058,39.717
8703.981448060618,124.445
8708.948620671701,-55.603
8713.81493124642,47.66
8718.779005433622,-7.943
8723.642280973501,-37.069
8728.504055374753,47.66
8733.364329332315,142.98
8738.32224658698,71.49
8743.179491154478,-47.66
8748.035237374625,-71.49
8752.889485940628,-95.32
8757.8412577103,-37.069
8762.692482517024,113.854
8767.542211760752,42.364
8772.39044613298,280.664
8777.336083836857,74.138
8782.18130006664,108.559
8787.02502351089,-52.955
8791.867254859393,-90.024
8796.707994801498,-15.887
8801.547244026118,-21.182
8806.385003221756,-34.421
8811.319956958603,105.911
8816.154707786565,-166.809
8820.987970662514,-47.66
8825.819746273257,-13.239
8830.650035305174,-10.591
8835.478838444196,-15.887
8840.306156375878,18.534
8845.131989785303,34.421
8849.956339357173,0.0
8854.779205775758,2.648
8859.60058972489,-320.38
8864.420491888006,26.478
8869.238912948098,37.069
8874.055853587757,-90.024
8878.871314489159,-5.296
8883.685296334032,2.648
8888.497799803714,58.251
8893.308825579123,-29.125
8898.118374340735,-132.388
8902.926446768637,13.239
8907.634964476681,195.935
8912.440116370435,-214.469
8917.243793954342,29.125
8922.045997906822,-55.603
8926.846728905857,-29.125
8931.645987629043,-21.182
8936.443774753548,246.243
8941.142221650607,-2.648
8945.937097605834,-39.717
8950.73050397759,-29.125
8955.522441441404,185.344
8960.215160665939,124.445
8965.004192282166,-26.478
8969.791757000756,10.591
8974.577855495572,211.822
8979.26485751475,31.773
8984.048055470721,-84.729
8988.829789208343,-39.717
8993.51251749025,-10.591
8998.291354655303,2.648
9003.068729603765,-2.648
9007.747189991118,68.842
9012.521672326067,-63.546
9017.294694442531,100.615
9021.968892767374,-50.308
9026.739026222178,108.559
9031.41039612206,402.461
9036.17764353675,-55.603
9040.943434050514,90.024
9045.610551571128,13.239
9050.373459984672,-243.595
9055.037755503963,-2.648
9059.797784430888,2.648
9064.45926050758,-307.141
9069.216412558366,-45.012
9073.87507174812,31.773
9078.629349530078,-142.98
9083.285194385431,47.66
9088.036600502714,-362.744
9092.689633573158,95.32
9097.438170626783,68.842
9102.088394458704,31.773
9106.73722909284,116.502
9111.481482183284,-7.943
9116.12751137963,-60.899
9120.868901881862,-45.012
9125.512128179163,5.296
9130.153968412898,68.842
9134.891084617178,177.401
9139.53012574118,-15.887
9144.167782675046,-74.138
9148.9006303586,21.182
9153.535491965213,47.66
9158.168971251744,76.785
9162.801068836525,39.717
9167.528243916331,-5.296
9172.157551197888,79.433
9176.785478643267,108.559
9181.412026869286,45.012
9186.13353953768,13.239
9190.757302472506,-90.024
9195.37968804908,39.717
9200.000696882766,18.534
9204.620329588544,111.206
9209.334785850184,-31.773
9213.951639506451,-103.263
9218.567118890363,-193.287
9223.181224615444,29.125
9227.79395729483,10.591
9232.40531754132,-39.717
9237.015305967328,-185.344
9241.623923184923,121.797
9246.23116980579,-60.899
9250.932987640888,71.49
9255.537466379788,26.478
9260.140576367572,2.648
9264.742318214474,95.32
9269.342692530376,-198.583
9273.941699924766,285.959
9278.539341006806,-52.955
9283.135616385269,-34.421
9287.730526668583,34.421
9292.324072464791,190.639
9296.91625438162,23.83
9301.411444872112,119.15
9306.00092923447,97.967
9310.589051525738,124.445
9315.175812352172,-5.296
9319.761212319692,71.49
9324.345252033823,45.012
9328.927932099774,-320.38
9333.509253122353,45.012
9338.08921570604,5.296
9342.572446701386,164.162
9347.149722488744,52.955
9351.7256416359,-169.457
9356.300204745894,-299.198
9360.873412421412,-87.376
9365.350032145325,-23.83
9369.920558965528,50.308
9374.489732144635,47.66
9379.05755228394,2.648
9383.528899030936,-47.66
9388.09404305015,47.66
9392.657835818722,42.364
9397.125240831178,42.364
9401.6863610176,5.296
9406.246131739394,42.364
9410.80455359534,-217.117
9415.266701898625,-127.093
9419.822455888205,29.125
9424.281993052333,103.263
9428.835081516963,-211.822
9433.38682407955,-34.421
9437.84243511156,31.773
9442.391515668474,-47.66
9446.84452129656,145.627
9451.390942182352,5.296
9455.93602012123,-66.194
9460.385108237591,37.069
9464.927530014324,-55.603
9469.374018445214,-5.296
9473.913786387537,74.138
9478.35767741084,90.024
9482.894793843763,23.83
9487.33608973474,71.49
9491.87055698055,82.081
9496.30926001177,42.364
9500.74668109923,29.125
9505.277192831463,66.194
9509.71202445114,-68.842
9514.23989277796,18.534
9518.672137195834,-90.024
9523.103102466685,42.364
9527.62702390948,92.672
9532.05540536064,-113.854
9536.57668916292,2.648
9541.002489053764,-34.421
9545.42701258622,161.514
9549.850260312329,-52.955
9554.36630345335,-278.016
9558.78697410632,-2.648
9563.206370618926,7.943
9567.718482324255,39.717
9572.13530512818,240.947
9576.550855454823,52.955
9580.965133854,230.356
9585.47202083257,217.117
9589.883729992052,58.251
9594.294168883298,-116.502
9598.703338054846,-161.514
9603.111238054931,-66.194
9607.611613766734,-68.842
9612.016950092931,-29.125
9616.421018902103,209.174
9620.823820741218,140.332
9625.225356156909,238.299
9629.625625695517,-26.478
9634.02462990307,-42.364
9638.422369325252,5.296
9642.81884450748,119.15
9647.21405599481,10.591
9651.701478874824,50.308
9656.094137748323,-15.887
9660.485534571855,58.251
9664.875669889248,-148.275
9669.264544244,-190.639
9673.65215817932,-5.296
9678.03851223808,-18.534
9682.423606962846,-108.559
9686.807442895892,42.364
9691.19002057915,84.729
9695.478134071804,-127.093
9699.858223622705,2.648
9704.23705653629,15.887
9708.614633353289,-172.105
9712.990954614088,-74.138
9717.36602085878,74.138
9721.739832627154,-45.012
9726.112390458671,100.615
9730.483694892511,79.433
9734.760779687776,60.899
9739.129605581998,-45.012
9743.497179682729,13.239
9747.863502527893,135.036
9752.228574655115,238.299
9756.499562339395,-39.717
9760.862161224974,0.0
9765.223510992222,37.069
9769.583612177565,-58.251
9773.849736751828,-153.571
9778.207368918504,-121.797
9782.563754099236,95.32
9786.918892829211,-190.639
9791.18016259473,-312.437
9795.532836519418,52.955
9799.884265585692,-63.546
9804.14190615754,-82.081
9808.490873566669,23.83
9812.83859770701,-84.729
9817.09261371952,121.797
9821.437879345483,52.955
9825.689490172908,5.296
9830.032299369228,26.478
9834.373867936378,132.388
9838.621861899856,233.004
9842.960977171238,-55.603
9847.206571054325,140.332
9851.543235108787,23.83
9855.786430944943,-164.162
9860.12064585897,-26.478
9864.361445679362,116.502
9868.693213527116,-180.048
9872.931619360628,-7.943
9877.26094221391,156.218
9881.49695608711,76.785
9885.823836015392,92.672
9890.057459952584,-66.194
9894.289902518456,5.296
9898.613135046206,148.275
9902.843190697367,58.251
9907.163985452502,7.943
9911.391656207565,444.825
9915.61814808206,21.182
9919.935303126713,-18.534
9924.15941311792,23.83
9928.38234571751,-15.887
9932.695865648708,34.421
9936.91641937277,-71.49
9941.135797191648,-47.66
9945.445686598703,21.182
9949.662688544726,-34.421
9953.878516069532,47.66
9958.09316966365,-92.672
9962.398234183594,-79.433
9966.61051589339,23.83
9970.821625153134,-124.445
9975.031562452265,76.785
9979.240328279942,-39.717
9983.53937957713,-352.153
9987.745778488254,-354.801
9991.95100740443,-47.66
9996.155066813732,-23.83
10000.357957203963,-18.534
10004.55967906266,187.992
10008.760232877092,7.943
10013.050897176752,42.364
10017.249090997648,84.729
10021.446118245014,-132.388
10025.641979405023,-21.182
10029.83667496358,2.648
10034.03020540632,-45.012
10038.222571218605,-26.478
10042.413772885537,-63.546
10046.603810891938,90.024
10050.79268572236,66.194
10054.980397861098,66.194
10059.16694779218,-18.534
10063.352335999334,5.296
10067.536562966066,-84.729
10071.719629175575,-95.32
10075.90153511081,108.559
10080.082281254454,13.239
10084.26186808891,66.194
10088.440296096323,10.591
10092.52676786215,-18.534
10096.702904826674,21.182
10100.877884398516,-15.887
10105.051707058765,-18.534
10109.224373288234,2.648
10113.395883567471,-42.364
10117.475590772649,121.797
10121.64481569536,-39.717
10125.812886097472,31.773
10129.979802458443,-42.364
10134.145565257517,15.887
10138.219652237512,-95.32
10142.383134400929,124.445
10146.545464428116,13.239
10150.706642797257,251.538
10154.776246850048,76.785
10158.935148346747,87.376
10163.092899607942,47.66
10167.159152430871,-71.49
10171.314629631466,-29.125
10175.468958016776,-214.469
10179.531863747628,-50.308
10183.683920879565,251.538
10187.834830614069,79.433
10191.894393383842,5.296
10196.043034667582,23.83
10200.190529969435,-68.842
10204.246753902304,-203.878
10208.391983551395,87.376
10212.44599199288,-82.081
10216.588957845182,-63.546
10220.640752609928,60.899
10224.781456519388,5.296
10228.831039420063,-90.024
10232.969483238625,-21.182
10237.016856085897,-103.263
10241.15304166346,7.943
10245.19820626604,-198.583
10249.332135450502,119.15
10253.375093615126,42.364
10257.506768252357,-21.182
10261.547521783785,108.559
10265.58718577827,90.024
10269.715494418666,330.971
10273.752956473523,-21.182
10277.87901516247,111.206
10281.91427707755,185.344
10285.948451675904,-21.182
10290.0711512271,63.546
10294.10312837192,68.842
10298.13401952729,0.0
10302.253364041218,90.024
10306.282060424935,76.785
10310.309672144327,142.98
10314.425665714796,0.0
10318.451085340042,219.765
10322.475421623927,-39.717
10326.498675003731,-153.571
10330.610215200984,-10.591
10334.631280043344,-74.138
10338.651263301725,-23.83
10342.670165412448,-47.66
10346.687986811625,-47.66
10350.704727935088,-60.899
10354.80961387438,121.797
10358.824171771252,-79.433
10362.837650708272,90.024
10366.850051120337,-156.218
10370.86137344214,142.98
10374.871618108127,-169.457
10378.880785552512,158.866
10382.888876209276,95.32
10386.984923052532,-45.012
10390.990837530662,-10.591
10394.995676531347,76.785
10398.999440487634,15.887
10403.00212983234,-31.773
10407.003744998048,166.809
10411.004286417105,90.024
10415.003754521616,60.899
10419.002149743475,140.332
10422.999472514348,103.263
10426.995723265634,7.943
10430.990902428544,34.421
10434.985010434026,-7.943
10438.889325180557,-227.708
10442.881315942828,52.955
10446.872236829608,18.534
10450.86208827093,-21.182
10454.85087069661,63.546
10458.838584536235,68.842
10462.82523021915,-63.546
10466.810808174472,119.15
10470.706785742112,-87.376
10474.690253232264,108.559
10478.672654271297,15.887
10482.653989287404,26.478
10486.634258708573,-113.854
10490.525047770485,-39.717
10494.50321094102,76.785
10498.480309789697,90.024
10502.45634474356,52.955
10506.342995080442,26.478
10510.316927143493,307.141
10514.2897965821,45.012
10518.261603822417,-100.615
10522.144122034457,-37.069
10526.113829736623,-5.296
10530.082476508169,-87.376
10533.961905709137,42.364
10537.92845544769,29.125
10541.89394552126,105.911
10545.770289396216,-23.83
10549.733684937964,-15.887
10553.607981637546,-116.502
10557.569284306495,39.717
10561.52952941227,-50.308
10565.400746905443,113.854
10569.35890163298,-60.899
10573.22807600992,13.239
10577.184142013864,74.138
10581.05127489159,-92.672
10585.005253824836,-2.648
10588.87034681866,-182.696
10592.822240332363,92.672
10596.685295055897,63.546
10600.635104799476,-47.66
10604.496122864624,-90.024
10608.443850485746,34.421
10612.302833502728,5.296
10616.160811022752,58.251
10620.10543022464,-142.98
10623.9613750996,10.591
10627.903916281392,-37.069
10631.757830117263,68.842
10635.61074043666,37.069
10639.550179321655,-177.401
10643.401060998756,15.887
10647.250940343372,111.206
10651.187280591832,-108.559
10655.035133687184,13.239
10658.881985632182,-50.308
10662.815230898605,-15.887
10666.660058983602,-18.534
10670.50388709854,21.182
10674.346715633475,21.182
10678.275847672114,34.421
10682.116655520924,60.899
10685.956464967534,89.86
10689.795276401208,116.502
10693.633090210977,138.314
10697.557095575656,152.8
10701.39289265285,157.452
10705.227693280882,149.768
10709.061497847986,127.243
10712.894306742182,87.376
10716.726120351308,37.069
10720.55693906298,5.296
10724.386763264632,-31.773
10728.302600658342,39.717
10732.130414421008,-45.012
10735.957234843503,-92.672
10739.783062312445,-29.125
10743.60789721425,42.364
10747.431739935131,-7.943
10751.254590861114,37.069
10755.076450378,-211.822
10758.897318871408,-58.251
10762.717196726757,47.66
10766.536084329256,52.955
10770.353982063916,-10.591
10774.170890315563,2.648
10777.98680946881,2.648
10781.801739908076,-206.526
10785.615682017564,-68.842
10789.341989100834,113.854
10793.153978142976,132.388
10796.964979998098,108.559
10800.774995049622,-2.648
10804.58402368077,-15.887
10808.392066274577,-45.012
10812.199123213884,63.546
10816.005194881312,-140.332
10819.723813349112,29.125
10823.52793799081,90.024
10827.331078498672,248.89
10831.133235254529,-34.421
10834.848029253728,55.603
10838.64824198676,52.955
10842.447472103491,-23.83
10846.24571998498,-29.125
10849.956695412544,-37.069
10853.753002267928,0.0
10857.548328021428,-5.296
10861.342673053316,-13.239
10865.049835794096,-50.308
10868.842242790466,-233.004
10872.63367019626,-10.591
10876.337982712816,-193.287
10880.12747431772,63.546
10883.82989575329,21.182
10887.617453039476,-111.206
10891.404032613404,-52.955
10895.103609289945,-18.534
10898.88825677408,124.445
10902.585945994537,-7.943
10906.368662867266,100.615
10910.150403901262,-10.591
10913.845253813895,-60.899
10917.62506645972,2.648
10921.318032531915,15.887
10925.095918264182,74.138
10928.787001936307,31.773
10932.562962228116,26.478
10936.252164939066,13.239
10939.940438510435,-42.364
10943.713524449233,145.627
10947.399919206764,58.251
10951.171083372872,95.32
10954.855600751816,-45.012
10958.62484461311,-177.401
10962.307486047235,-39.717
10965.989200819247,74.138
10969.755577991731,18.534
10973.435418958636,-84.729
10977.114334320191,-52.955
10980.877848072992,267.425
10984.554891765896,-7.943
10988.231010908596,301.846
10991.991664505884,195.935
10995.665914113146,37.069
10999.33924022374,45.012
11003.011643185791,111.206
11006.768495629847,71.49
11010.439031890255,47.66
11014.108646053544,0.0
11017.777338467138,26.478
11021.530395518184,-158.866
11025.197224058184,0.0
11028.863131897786,180.048
11032.528119383707,-71.49
11036.192186862492,145.627
11039.855334680517,-52.955
11043.602720353196,-18.534
11047.264008520897,95.32
11050.924378073953,26.478
11054.58382935806,-82.081
11058.242362718707,13.239
11061.899978501227,447.473
11065.556677050785,5.296
11069.21245871235,-84.729
11072.867323830738,-7.943
11076.521272750586,-145.627
11080.174305816368,0.0
11083.826423372368,47.66
11087.477625762698,74.138
11091.127913331318,50.308
11094.777286422,-5.296
11098.425745378345,7.943
11102.073290543767,-74.138
11105.719922261547,116.502
11109.36564087477,-68.842
11113.010446726335,-158.866
11116.654340159006,-119.15
11120.29732151534,-58.251
11123.93939113774,-21.182
11127.580549368427,45.012
11131.22079654947,-58.251
11134.77550763161,-52.955
11138.413954906267,68.842
11142.051492148485,-105.911
11145.688119699626,-42.364
11149.323837900913,-71.49
11152.958647093375,-71.49
11156.508048620988,-153.571
11160.141061938251,2.648
11163.773167260852,50.308
11167.40436492916,45.012
11170.950240228543,-26.478
11174.579644697213,-15.887
11178.208142523734,-142.98
11181.751381744987,5.296
11185.378088371155,-21.182
11189.003889365817,-45.012
11192.628785068173,-161.514
11196.16850723805,-76.785
11199.79161440632,97.967
11203.413817290922,10.591
11206.950910239968,97.967
11210.571326582844,-219.765
11214.10667518314,47.66
11217.725306305692,42.364
11221.343034819707,47.66
11224.875759069631,68.842
11228.49170435076,-13.239
11232.022687482247,0.0
11235.636850848638,-47.66
11239.166094148528,0.0
11242.778476917028,-156.218
11246.305981670925,-90.024
11249.91658515709,-45.012
11253.442352649325,-10.591
11257.05117816741,-180.048
11260.575209681025,-10.591
11264.182258544,79.433
11267.704555360804,97.967
11271.309828880325,-142.98
11274.83039228086,-92.672
11278.350099642112,18.534
11281.952723030843,39.717
11285.470698886753,-15.887
11288.987819646914,15.887
11292.587795825824,-172.105
11296.103186988752,235.652
11299.70139304264,-18.534
11303.215055883851,-103.263
11306.727865201254,-169.457
11310.23982130582,-45.012
11313.834511810855,-10.591
11317.34474212601,31.773
11320.8541201677,-84.729
11324.446172200132,76.785
11327.953826352135,156.218
11331.460629168672,-66.194
11334.96658095964,-227.708
11338.471682034791,-153.571
11342.059356881087,-7.943
11345.562737216636,185.344
11349.06526777208,-97.967
11352.566948856567,-47.66
11356.067780779093,-52.955
11359.56776384851,338.915
11363.1502007606,-45.012
11366.648466857394,-45.012
11370.145885034064,-108.559
11373.642455598843,23.83
11377.138178859836,97.967
11380.633055125,97.967
11384.1270847021,-34.421
11387.620267898808,-103.263
11391.112605022612,82.081
11394.60409638087,-95.32
11398.094742280777,21.182
11401.584543029392,-132.388
11405.073498933603,-37.069
11408.561610300185,-60.899
11412.048877435727,158.866
11415.5353006467,37.069
11419.020880239405,50.308
11422.505616520008,116.502
11425.989509794525,-142.98
11429.472560368817,-135.036
11432.954768548592,-100.615
11436.43613463944,-2.648
11439.916658946764,29.125
11443.313501961433,-42.364
11446.79236364179,161.514
11450.270384446749,142.98
11453.74756468115,21.182
11457.22390464968,26.478
11460.699404656869,132.388
11464.091344754375,-23.83
11467.565185732994,-34.421
11471.038187655771,0.0
11474.51035082668,26.478
11477.981675549512,21.182
11481.369541233144,39.717
11484.839209915755,82.081
11488.30804105362,29.125
11491.693473394258,39.717
11495.16065027576,47.66
11498.626990514544,-31.773
11502.092494413417,-137.684
11505.474679896604,0.0
11508.938531918346,-92.672
11512.401548500471,29.125
11515.78130675673,172.105
11519.242673239612,-47.66
11522.620821260369,23.83
11526.080538823127,37.069
11529.5394224415,68.842
11532.915147579475,21.182
11536.372384051368,-58.251
11539.74650183491,-79.433
11543.202092336618,-15.887
11546.574603913472,39.717
11550.028549620163,29.125
11553.399456136987,-37.069
11556.85175822272,87.376
11560.221060825072,-164.162
11563.67172046279,74.138
11567.039420295116,10.591
11570.488438656655,-111.206
11573.854536862347,161.514
11577.301915118398,214.469
11580.666412839755,55.603
11584.030120381583,-76.785
11587.475050538147,26.478
11590.837159300165,60.899
11594.280452266124,-140.332
11597.64096338792,-21.182
11601.000685734118,50.308
11604.441534950183,341.562
11607.79966135666,103.263
11611.156999826935,47.66
11614.59540789372,-34.421
11617.951152122365,84.729
11621.306109253032,-58.251
11624.66027956261,-26.478
11628.09544335218,-142.98
11631.44802167594,-37.069
11634.799814015252,-42.364
11638.15082064648,71.49
11641.58274474832,26.478
11644.932161645294,79.433
11648.280793669244,-39.717
11651.62864109602,29.125
11654.975704201344,21.182
11658.403590030808,-63.546
11661.749066206958,-31.773
11665.093758894744,-34.421
11668.43766836938,132.388
11671.780794905935,-145.627
11675.12313877933,60.899
11678.4647002644,23.83
11681.805479635816,-52.955
11685.145477168146,7.943
11688.484693135812,0.0
11691.904543291126,-95.32
11695.24217790648,-34.421
11698.579031786354,-156.218
11701.915105204676,164.162
11705.25039843522,105.911
11708.584911751648,150.923
11711.918645427471,235.652
11715.251599736104,-52.955
11718.502511651865,-23.83
11721.83392703817,60.899
11725.164563870054,100.615
11728.4944224204,42.364
11731.823502961994,-190.639
11735.15180576744,18.534
11738.479331109273,15.887
11741.806079259855,18.534
11745.132050491462,-113.854
11748.457245076206,-31.773
11751.70058915004,31.773
11755.024250183047,31.773
11758.34713537819,-317.732
11761.669245007088,-10.591
11764.990579341233,-132.388
11768.230158619372,63.546
11771.549962071174,68.842
11774.86899103535,-26.478
11778.187245782876,15.887
11781.423821624776,-5.296
11784.740547618409,-39.717
11788.05650020102,-238.299
11791.371679643096,-161.514
11794.605256223578,-50.308
11797.91890903626,-121.797
11801.231789512534,-13.239
11804.46312397414,-23.83
11807.774479408556,50.308
11811.085063309589,58.251
11814.314157983485,5.296
11817.623218427994,132.388
11820.850827315822,-140.332
11824.158365355152,-55.603
11827.4651331948,47.66
11830.690506166697,386.574
11833.995753182851,-349.506
11837.219642936305,-66.194
11840.52337017791,74.138
11843.745777735792,-283.311
11847.047986250807,71.49
11850.26891263506,47.66
11853.569603470474,-76.785
11856.789049702087,-26.478
11860.088223903953,-42.364
11863.30619100298,-95.32
11866.603849616356,50.308
11869.820338601929,-90.024
11873.11648267094,-39.717
11876.331494561222,-108.559
11879.545777396996,-7.943
11882.839660941268,18.534
11886.052468201013,-63.546
11889.26454715598,26.478
11892.55617250015,-23.83
11895.766777396242,21.182
11899.056892350098,50.308
11902.26602420178,-29.125
11905.474428998024,47.66
11908.682106985869,283.311
11911.969222890988,-166.809
11915.17542984806,-68.842
11918.380910743392,-34.421
11921.66577540321,52.955
11924.869786778698,-190.639
11928.07307283808,-34.421
11931.27563382762,45.012
11934.477469993468,-45.012
11937.758600089848,-55.603
11940.95896924119,2.648
11944.158614312782,-225.06
11947.35753555032,2.648
11950.55573319941,-92.672
11953.753207505528,42.364
11957.029868231695,-259.481
11960.225878519712,142.98
11963.42116620667,190.639
11966.615731537608,-13.239
11969.809574757444,127.093
11973.002696111003,2.648
11976.195095842992,225.06
11979.386774197992,-31.773
11982.577731420495,116.502
11985.767967754866,26.478
11988.957483445382,-90.024
11992.146278736183,5.296
11995.334353871312,-646.056
11998.521709094712,-31.773
12001.708344650193,0.0
12004.894260781464,187.992
12008.079457732136,45.012
12011.2639357457,31.773
12014.44769506553,34.421
12017.630735934905,18.534
12020.81305859698,-187.992
12023.994663294816,127.093
12027.175550271351,-95.32
12030.27622427429,-166.809
12033.455694464548,124.445
12036.634447655608,222.413
12039.812484089987,-79.433
12042.989804010074,-105.911
12046.166407658158,5.296
12049.26290681064,2.648
12052.4380965329,52.955
12055.612570703324,203.878
12058.786329563762,-111.206
12061.880055974125,-13.239
12065.052402807443,-97.967
12068.224035049663,-103.263
12071.394952942192,-37.069
12074.485910333004,105.911
12077.655418093736,-34.421
12080.824212222367,-60.899
12083.913099633974,177.401
12087.080485047096,13.239
12090.247157544738,-37.069
12093.333977055809,63.546
