Raman Shift,Intensity
214.3785040343428,177.484
224.78145843945092,51.094
235.01908334044856,-43.026
245.41130867789616,-121.012
255.63837774522108,174.794
265.8602158678186,107.566
276.23642015571386,86.053
286.44772684514464,-69.918
296.8132434111685,86.053
307.0140349346475,-2.689
317.209615658554,242.023
327.399989574551,209.753
337.7442627077253,96.809
347.9241537664129,69.918
358.09885002992814,118.322
368.2683554736213,-217.821
378.5914504125685,-24.202
388.7505051753542,24.202
398.90438108190574,-99.498
409.0530820913264,21.513
419.196612158652,-37.648
429.3349752349313,-201.686
439.626465572117,-91.431
449.75442592354375,0.0
459.8772311743669,101.698
469.994885259468,221.094
480.1073921097559,338.361
490.2147556521086,433.684
500.31697980943136,487.23
510.41406850063504,479.181
520.5060256406359,389.711
530.5928551403995,198.997
540.6745609068894,-21.513
550.7511468431039,18.824
560.8226168481124,118.322
570.888974816975,177.484
580.9502246408374,5.378
590.8492821665859,43.026
600.9004070215597,75.296
610.9464353206786,155.97
620.9873709393651,110.255
631.0232177491416,290.428
641.0539796175653,478.668
650.9230482019848,596.99
660.9437310766662,564.72
670.9593405290361,419.507
680.9698804110958,242.023
690.8190579752118,354.967
700.8195493193562,61.85
710.8149825658329,204.375
720.805361551138,242.023
730.6347081696804,215.132
740.6150689503047,263.536
750.4345613154874,438.331
760.404918953056,83.364
770.3702413346182,247.401
780.174941402227,338.832
790.1302832356378,161.349
799.925166080895,61.85
809.8705423523497,126.39
819.6556227125038,166.727
829.5910483782136,193.618
839.3663409610526,155.97
849.2918309472952,158.66
859.0573504311833,129.079
868.972919634427,139.836
878.7286806683987,185.551
888.6343439553166,285.049
898.3803611591502,72.607
908.12155022542,110.255
918.0124213310264,247.401
927.743888384779,126.39
937.4705381077074,311.941
947.3466501411676,-131.768
957.0635996041163,209.753
966.7757425107702,290.428
976.6371284824854,48.405
986.3395928168538,317.319
996.0372613373548,414.128
1005.7301375988682,540.518
1015.5719657306544,537.829
1025.255192198514,562.031
1034.9336371072422,150.592
1044.6073039976543,204.375
1054.2761964070742,303.873
1063.9403178693246,320.008
1073.5996719147442,118.322
1083.4074711432768,126.39
1093.057225399156,134.457
1102.70222286418,137.146
1112.3424670547538,207.064
1121.9779614837898,177.484
1131.6087096607444,174.794
1141.2347150916105,233.956
1150.855981278939,24.202
1160.4725117218331,325.387
1170.0843099159465,204.375
1179.6913793534914,188.24
1189.293723523253,16.135
1198.739039559725,88.742
1208.3320185130287,83.364
1217.9202825891407,29.581
1227.5038352631818,43.026
1237.0826800068826,96.809
1246.6568202885535,190.929
1256.226259573108,-37.648
1265.639216696829,139.836
1275.1993388504195,-126.39
1284.7547703264208,-67.229
1294.3055145761757,336.143
1303.7000868433097,395.304
1313.241541245312,88.742
1322.778318700337,-18.824
1332.310422646282,37.648
1341.686663866676,190.929
1351.2095051416618,519.005
1360.727683146746,80.674
1370.0902294598782,142.525
1379.5991650801443,-5.378
1388.9526223370776,118.322
1398.4523290278594,150.592
1407.7967104575073,-43.026
1417.287201648047,-77.985
1426.7730533080105,-180.173
1436.1038095471376,110.255
1445.5804658554116,80.674
1454.9021792800197,69.918
1464.369653600741,77.985
1473.6823373500883,352.278
1482.9905472474493,147.903
1492.444310209452,164.038
1501.7435100404182,-16.135
1511.1881242589734,91.431
1520.4783270994303,48.405
1529.764072276041,126.39
1539.1950247490097,-53.783
1548.4717924494323,40.337
1557.7441121511074,56.472
1567.1614324998736,8.067
1576.4247941832873,-147.903
1585.6837175051332,150.592
1594.9382056544855,16.135
1604.3374199708342,2.689
1613.5829759239496,155.97
1622.8241063047317,21.513
1632.0608142900164,266.225
1641.2931030535765,185.551
1650.6697762525291,104.877
1659.8931649322622,69.918
1669.1121439444323,112.944
1678.3267164506542,164.038
1687.53688560953,-56.472
1696.7426545766284,10.757
1705.9440265045123,147.903
1715.1410045427183,34.959
1724.3335918377925,236.645
1733.5217915332687,64.539
1742.705606769683,118.322
1751.8850406845886,266.225
1761.0600964125188,137.146
1770.230777085024,164.038
1779.397085830693,96.809
1788.55902577511,-5.378
1797.7166000408906,-5.378
1806.8698117476447,137.146
1816.0186640120735,-5.378
1825.163159947857,59.161
1834.1559155330324,32.27
1843.29177827917,129.079
1852.4232939699289,134.457
1861.550465707216,-314.63
1870.673296589972,-13.446
1879.644751645923,-290.428
1888.758979994156,16.135
1897.8688767172423,69.918
1906.974444902422,193.618
1915.9289277003045,13.446
1925.025917750907,88.742
1934.118588458099,115.633
1943.060390766601,126.39
1952.144501554074,244.712
1961.2243021666216,61.85
1970.153450902042,24.202
1979.224709758193,-8.067
1988.1454604369865,-94.12
1997.208189584475,45.715
2006.120554048888,5.378
2015.1747655127983,69.918
2024.0787555828572,29.581
2033.12446136566,-29.581
2042.0200888391555,201.686
2051.057300920809,-102.188
2059.9445775734057,-51.094
2068.9733079113576,64.539
2077.852245496608,244.712
2086.8725060258803,-34.959
2095.743116275291,-2.689
2104.6096010526526,40.337
2113.6172135316083,83.364
2122.4753884816528,-29.581
2131.329446630596,338.832
2140.324437642892,91.431
2149.170203423979,26.891
2158.011861050589,8.067
2166.994257105456,37.648
2175.8276397748195,126.39
2184.656922912145,-34.959
2193.48210937062,5.378
2202.303202000803,10.757
2211.2647105948345,129.079
2220.077557114586,155.97
2228.886318388424,51.094
2237.6909972563008,209.753
2246.4915965555265,75.296
2255.2881191208,18.824
2264.0805677841927,-64.539
2272.8689453751285,80.674
2281.6532547204406,102.188
2290.5774032157133,94.12
2299.353517963282,32.27
2308.125572976198,123.701
2316.893571070781,16.135
2325.6575150607823,53.783
2334.273835606975,-67.229
2343.029746164546,137.146
2351.781610997117,150.592
2360.5294329081007,-5.378
2369.273214698267,40.337
2378.0129591658333,121.012
2386.7486691064114,5.378
2395.48034731306,43.026
2404.2079965762314,56.472
2412.788641914361,51.094
2421.5083075861257,94.12
2430.2239526247795,129.079
2438.9355798105607,-5.378
2447.64319192111,107.566
2456.204142101211,99.498
2464.9037980916983,8.067
2473.5994472792227,255.469
2482.148638712344,110.255
2490.836348166158,107.566
2499.5200590665554,137.146
2508.0575159626023,121.012
2516.7333034706826,5.378
2525.405100652257,72.607
2533.930847154741,182.862
2542.5947372405863,29.581
2551.112711590584,24.202
2559.768705390503,-193.618
2568.2789182109263,-32.27
2576.927026515033,18.824
2585.5711635713087,-8.067
2594.069721988235,-5.378
2602.5644435408976,16.135
2611.196813145194,-53.783
2619.683804921093,0.0
2628.3083212822166,-26.891
2636.7875938271245,16.135
2645.404267656864,34.959
2653.875831497382,40.337
2662.343576738021,126.39
2670.948539131641,80.674
2679.408591378582,134.457
2687.8648328054915,-134.457
2696.4581076233444,137.146
2704.906671724595,45.715
2713.351432764532,123.701
2721.792393310454,16.135
2730.370143142005,217.821
2738.8034471581705,207.064
2747.232958411034,-64.539
2755.658679458633,147.903
2764.220946338093,75.296
2772.639031576786,-10.757
2781.053334313052,279.671
2789.463857095703,-5.378
2797.8706024712737,88.742
2806.2735729839987,185.551
2814.672771175843,59.161
2823.0681995864725,266.225
2831.459860753297,37.648
2839.847757211428,32.27
2848.231891493713,-40.337
2856.612266130724,311.941
2864.988883650767,99.498
2873.3617465798743,96.809
2881.7308574418275,139.836
2890.096218758139,-32.27
2898.457833048058,53.783
2906.815702828586,40.337
2915.169830614461,56.472
2923.5202189181878,209.753
2931.8668702499926,-94.12
2940.209787117892,37.648
2948.41001618022,56.472
2956.7455337723804,223.199
2965.077324369493,34.959
2973.405390470638,115.633
2981.7297345726547,121.012
2989.9117125592966,142.525
2998.2286820744484,-325.387
3006.5419370261297,96.809
3014.8514799023105,16.135
3023.0189130185245,150.592
3031.3211009634906,220.51
3039.619584242202,16.135
3047.776149306213,115.633
3056.067292329164,2.689
3064.2166442633534,164.038
3072.500456765243,48.405
3080.780576892153,96.809
3088.919096831967,91.431
3097.1919010483834,239.334
3105.3232317767324,13.446
3113.588729774354,118.322
3121.712880813,67.229
3129.9710822664056,-69.918
3138.0880631202745,153.281
3146.338977686973,-16.135
3154.448797844241,77.985
3162.692435164703,26.891
3170.7951040967964,118.322
3178.894230970407,198.997
3187.127000956163,-83.364
3195.218990740796,-276.982
3203.3074454664093,255.469
3211.5293695924192,-29.581
3219.610701328027,104.877
3227.688504985643,134.457
3235.899604670318,123.701
3243.9702993997853,88.742
3252.03747301393,-37.648
3260.1011278165533,-18.824
3268.297848330192,37.648
3276.354412870096,94.12
3284.407465536773,0.0
3292.4570086259846,121.012
3300.5030444314834,207.064
3308.545575245,-24.202
3316.720827896272,121.012
3324.756296283769,-18.824
3332.788266581294,-13.446
3340.816741072602,32.27
3348.8417220394404,26.891
3356.8632117615925,-118.322
3364.8812125168406,-43.026
3372.895726580995,56.472
3380.906756227865,107.566
3388.91430372934,34.959
3396.918371355256,2.689
3404.9189613735507,139.836
3412.9160760501472,99.498
3420.909717649003,121.012
3428.8998884321263,40.337
3436.886590659553,-16.135
3444.734546370892,-129.079
3452.714376952972,150.592
3460.690745709508,80.674
3468.663654892749,142.525
3476.633106752961,80.674
3484.5991035384795,8.067
3492.4267178764712,255.469
3500.385869715596,94.12
3508.341573175334,-64.539
3516.293830496281,21.513
3524.1079469444667,346.9
3532.0533770164475,67.229
3539.9953676218797,94.12
3547.7993978646555,-99.498
3555.734574435446,77.985
3563.666318194715,-198.997
3571.460281747888,223.199
3579.385224652753,-10.757
3587.30674138396,-69.918
3595.090657713052,-26.891
3603.00538673612,139.836
3610.782634691175,150.592
3618.6905847266535,13.446
3626.461172873067,118.322
3634.362352626544,145.214
3642.1262895150494,88.742
3650.020707677235,-2.689
3657.778001843908,64.539
3665.665667090652,102.188
3673.416327056992,86.053
3681.163701429177,-16.135
3689.041282322214,126.39
3696.782035212709,51.094
3704.6528847781447,158.66
3712.3870246721344,91.431
3720.117889469839,45.715
3727.845481251112,69.918
3735.702951367959,69.918
3743.4239470074463,10.757
3751.141675895298,88.742
3758.989119491133,336.143
3766.700264858686,48.405
3774.408149723422,86.053
3782.1127761528696,110.255
3789.814146212797,-67.229
3797.644959575024,352.278
3805.339767031168,126.39
3813.03132434014,104.877
3820.7196335607214,145.214
3828.404696749953,96.809
3836.086515963114,16.135
3843.76509325378,-451.776
3851.4404306737633,96.809
3859.112530273167,268.915
3866.7813941003615,48.405
3874.4470242019815,153.281
3882.109422622947,67.229
3889.7685914064414,40.337
3897.4245325939337,-88.742
3905.0772482251705,204.375
3912.7267403381848,16.135
3920.373010969284,217.821
3928.016062153074,107.566
3935.655895922435,72.607
3943.292514308545,-400.683
3950.925919340858,-8.067
3958.424585178429,0.0
3966.051624900327,77.985
3973.675457311714,279.671
3981.296084435249,-69.918
3988.913508291902,75.296
3996.396478310664,75.296
4004.007556831755,-102.188
4011.615438103967,48.405
4019.220124141517,26.891
4026.690583777876,86.053
4034.288940385857,37.648
4041.8841077570687,150.592
4049.3452186808136,29.581
4056.934068499933,-91.431
4064.519735065173,69.918
4071.971514814119,45.715
4079.550875675057,121.012
4086.996462302253,99.498
4094.5695253181984,77.985
4102.008926541021,40.337
4109.575699558212,5.378
4117.008923081237,182.862
4124.569413932906,134.457
4131.996467447912,161.349
4139.550683954272,10.757
4146.971575140262,142.525
4154.519525108568,220.51
4161.93426163181,64.539
4169.475952856366,-166.727
4228.011654085007,-379.169
4235.396210255021,64.539
4242.907210725418,40.337
4250.415076793586,-34.959
4257.7904449892885,24.202
4265.292102093408,80.674
4272.790630641473,29.581
4280.156827999919,-5.378
4287.649159161061,69.918
4295.138367597785,-139.836
4302.4954112134365,16.135
4309.978433811593,-2.689
4317.329402006981,72.607
4324.8062464273535,112.944
4332.151146724958,166.727
4339.621820615692,129.079
4346.960660525576,139.836
4354.425171522191,-21.513
4361.757958542046,45.715
4369.216314267462,-51.094
4376.543055882612,263.536
4383.9952639471885,-5.378
4391.315967630617,408.75
4398.762035632179,16.135
4406.07670884455,75.296
4413.516644368407,18.824
4420.825294558097,-13.446
4428.130962180556,155.97
4435.561739780205,121.012
4442.861395497304,18.824
4450.1580741507205,-102.188
4457.579710724684,123.701
4464.870388562711,83.364
4472.158094827057,13.446
4479.570607232323,16.135
4486.852323743988,-212.442
4494.131074158497,137.146
4501.534479210626,215.132
4508.807250907994,126.39
4516.077061971264,43.026
4523.3439142079005,174.794
4530.735219799091,59.161
4537.996107969229,-51.094
4545.254042757973,-207.064
4552.509025966887,21.513
4559.888261734326,-5.378
4567.13729547953,104.877
4574.383383072374,252.78
4581.626526308552,13.446
4588.866726982291,201.686
4596.103986886381,96.809
4603.338307812148,99.498
4610.69653172473,64.539
4617.92492857972,72.607
4625.150391852971,45.715
4632.372923329975,2.689
4639.592524794789,228.577
4646.809198030001,-37.648
4654.022944816745,252.78
4661.233766934747,-96.809
4668.441666162253,53.783
4675.646644276094,-118.322
4682.8487030516335,32.27
4690.047844262837,77.985
4697.244069682201,164.038
4704.437381080781,32.27
4711.627780228235,-16.135
4718.815268892759,142.525
4725.999848841122,53.783
4733.181521838655,131.768
4740.3602896492885,69.918
4747.536154035501,32.27
4754.583300303697,72.607
4761.753413983191,137.146
4768.9206294863325,-18.824
4776.084948569973,142.525
4783.246372989488,72.607
4790.404904498872,-59.161
4797.435032206777,80.674
4804.5878338284165,-21.513
4811.73774776268,26.891
4818.884775757928,145.214
4826.028919561082,180.173
4833.044920461813,-16.135
4840.183351639585,34.959
4847.3189038270575,91.431
4854.451578765569,59.161
4861.456318765864,112.944
4868.58329482688,5.378
4875.707398824052,-10.757
4882.703723295803,204.375
4889.822138682386,45.715
4896.937687177771,24.202
4903.925611277555,126.39
4911.035481404608,180.173
4918.142489800703,88.742
4925.122028648751,91.431
4932.223368894192,150.592
4939.197342363797,-69.918
4946.293021236786,-53.783
4953.385846941688,161.349
4960.35146024984,69.918
4967.43863475923,142.525
4974.398699333346,400.683
4981.480229398396,123.701
4988.43475186592,80.674
4995.510644227063,-10.757
5002.459631204903,86.053
5009.529892591847,198.997
5016.473350686378,43.026
5023.537987818112,174.794
5030.475923625207,10.757
5037.534943210041,419.507
5044.467363315067,61.85
5051.397052412052,104.877
5058.447683028528,403.372
5065.371866252855,-32.27
5072.416896017057,-29.581
5079.335579928018,32.27
5086.251540943114,-53.783
5093.288206657562,209.753
5100.198678149784,102.188
5107.106431592307,86.053
5114.134748143202,64.539
5121.037021830118,-24.202
5127.93658230202,32.27
5134.833431158368,-2.689
5141.85065500065,-24.202
5148.742037069234,-45.715
5155.630712341699,43.026
5162.516682412504,-94.12
5169.522839786696,198.997
5176.403355996677,96.809
5183.281171809234,96.809
5190.156288813778,26.891
5197.028708598496,59.161
5204.021081907653,126.39
5210.888063918697,88.742
5217.752353495271,656.151
5224.613952220541,32.27
5231.472861676462,94.12
5238.329083443728,-107.566
5245.182619101804,242.023
5252.033470228904,-91.431
5258.881638402017,121.012
5265.727125196914,174.794
5272.569932188097,102.188
5279.532181775125,37.648
5286.369586094326,96.809
5293.204315354014,5.378
5300.036371123795,-64.539
5306.865754971979,67.229
5313.692468465706,37.648
5320.516513170878,45.715
5327.216103720151,-137.146
5334.034863128356,161.349
5340.850958410447,-10.757
5347.664391127459,155.97
5354.475162839211,112.944
5361.283275104273,-145.214
5368.088729480027,26.891
5374.891527522632,129.079
5381.6916707870405,5.378
5388.489160826968,-252.78
5395.162686039381,107.566
5401.954921596684,-5.378
5408.744508555763,-317.319
5415.531448465517,-137.146
5422.31574287366,-40.337
5428.976315601984,-8.067
5435.7553708175255,56.472
5442.531785139763,-77.985
5449.305560111599,2.689
5456.076697274744,94.12
5462.724355191152,88.742
5469.490268392445,-29.581
5476.253548375513,43.026
5482.893493883399,37.648
5489.651558992991,-209.753
5496.406995464167,21.513
5503.039241977291,24.202
5509.789472642318,10.757
5516.5370792381145,317.319
5523.161640139158,-16.135
5529.904049975114,-13.446
5536.643840300443,153.281
5543.260728941095,88.742
5549.995331531944,-91.431
5556.607128017575,-139.836
5563.336548861262,177.484
5569.943259067753,198.997
5576.667504142417,118.322
5583.269133936614,43.026
5589.988209211173,29.581
5596.58476445092,45.715
5603.298675885118,61.85
5609.890162419251,94.12
5616.598915963696,5.378
5623.185339632037,207.064
5629.888941228186,67.229
5636.470307861637,185.551
5643.16876344182,-40.337
5649.745078862296,-26.891
5656.438394349752,-48.405
5663.009664370256,5.378
5669.578436568787,-26.891
5676.264076103718,10.757
5682.827811578958,-45.715
5689.3890535265455,64.539
5696.067030305661,69.918
5702.623244186747,45.715
5709.176968824671,67.229
5715.847296014435,64.539
5722.39600122282,72.607
5728.942221462719,77.985
5735.4859581482815,104.877
5742.146121627004,37.648
5748.684850350968,26.891
5755.221099782248,29.581
5761.754871330697,145.214
5768.404894310675,8.067
5774.933669330552,-64.539
5781.459970716278,94.12
5787.983799873429,13.446
5794.505158206499,-18.824
5801.142549523138,56.472
5807.658925557145,8.067
5814.172834999641,225.888
5820.684279250832,-26.891
5827.193259709879,80.674
5833.699777774898,-80.674
5840.203834842934,91.431
5846.7054323099655,86.053
5853.204571570954,-5.378
5859.701254019747,212.442
5866.195481049195,18.824
5872.687254051074,26.891
5879.176574416102,16.135
5885.663443533944,77.985
5892.14786279323,-16.135
5898.629833581537,64.539
5905.109357285379,91.431
5911.586435290243,64.539
5918.061068980562,32.27
5924.533259739736,75.296
5931.003008950094,72.607
5937.470317992949,-75.296
5943.935188248557,129.079
5950.397621096134,129.079
5956.857617913869,-37.648
5963.315180078898,0.0
5969.7703089673305,139.836
5976.105705888956,53.783
5982.556016527509,-129.079
5989.003897986593,21.513
5995.449351638199,2.689
6001.8923788532775,110.255
6008.215900781644,118.322
6014.654123287393,72.607
6021.089923438405,137.146
6027.523302601519,40.337
6033.954262142564,24.202
6040.265942433929,521.694
6046.692110755517,61.85
6053.115863521547,-48.405
6059.420472023492,-75.296
6065.839441620141,13.446
6072.255999718647,40.337
6078.553548309683,134.457
6084.965331270854,-13.446
6091.374706782226,56.472
6097.665207314269,-16.135
6104.06981570238,2.689
6110.472020679961,-86.053
6116.755484978421,77.985
6123.152930828903,-56.472
6129.431725134898,24.202
6135.824417162912,32.27
6142.098546680769,-13.446
6148.486490183052,48.405
6154.872039648391,56.472
6161.139160374798,10.757
6167.519969269015,-48.405
6173.782438208022,-118.322
6180.158511808193,-102.188
6186.416334137088,-13.446
6192.787677712448,91.431
6199.040858600842,-56.472
6205.291741972564,-32.27
6211.656022022646,263.536
6217.902271670246,150.592
6224.261834810408,88.742
6230.503455884398,80.674
6236.742785809074,142.525
6243.095304999864,121.012
6249.330014038809,5.378
6255.677829386121,18.824
6261.907922670827,201.686
6268.1357311500615,-43.026
6274.476522051649,139.836
6280.699722436162,-18.824
6286.920641805642,-91.431
6293.139281413962,-121.012
6299.470738832184,112.944
6305.684780516531,126.39
6311.896546218988,91.431
6318.106037189755,-5.378
6324.428181717434,59.161
6330.633084905065,-59.161
6336.835717129172,21.513
6343.036079636258,-190.929
6349.234173671932,45.715
6355.544716640681,61.85
6361.738235515753,190.929
6367.929489673777,110.255
6374.118480356665,21.513
6380.305208805476,53.783
6386.489676260331,83.364
6392.671883960451,67.229
6398.851833144166,-21.513
6405.143905470883,40.337
6411.319299566196,-5.378
6417.492438877496,18.824
6423.663324639478,80.674
6429.831958085924,123.701
6435.998340449718,-40.337
6442.162472962846,5.378
6448.324356856407,67.229
6454.483993360576,-104.877
6460.641383704664,-77.985
6466.79652911704,-34.959
6472.949430825232,40.337
6479.100090055821,5.378
6485.248508034543,-198.997
6491.280888225534,91.431
6497.424868822251,91.431
6503.5666118162335,118.322
6509.706118429633,91.431
6515.843389883739,-118.322
6521.978427398899,-83.364
6528.111232194642,-94.12
6534.241805489546,40.337
6540.256680928833,-10.757
6546.382836142315,-53.783
6552.506763482961,-53.783
6558.628464165849,40.337
6564.747939405184,449.087
6570.751928194237,-8.067
6576.866997341494,53.783
6582.979844660076,72.607
6589.090471360658,53.783
6595.0857801617385,18.824
6601.192010321647,29.581
6607.296023467985,59.161
6613.39782080795,-77.985
6619.384468430493,131.768
6625.481878753591,77.985
6631.577076864334,83.364
6637.5572509579,279.671
6643.64806916556,150.592
6649.623946782151,-34.959
6655.71038980603,-126.39
6661.794626582923,-158.66
6667.764048126817,134.457
6673.843916808139,134.457
6679.809053455574,-34.959
6685.884558743659,166.727
6691.957863728712,21.513
6697.916561697035,134.457
6703.985510351609,-8.067
6709.939934962422,155.97
6716.004531971987,16.135
6721.954687820689,72.607
6728.014937863976,-56.472
6733.960829539363,56.472
6739.904610751524,16.135
6745.95836937274,112.944
6751.897893261092,-86.053
6757.947316561804,83.364
6763.8825876987685,18.824
6769.927680334353,271.604
6775.858703285812,34.959
6781.787623684751,-53.783
6787.826249230238,-56.472
6793.750928258974,-96.809
6799.673508107371,317.319
6805.705676935038,-51.094
6811.624022213946,180.173
6817.540271677499,-32.27
6823.5659941374615,-10.757
6829.478015817709,8.067
6835.387945040406,21.513
6841.407231460638,10.757
6847.312939671727,40.337
6853.216558775894,96.809
6859.118089881435,-77.985
6865.017534095896,80.674
6871.026143398485,69.918
6876.921377827312,-67.229
6882.814528703813,-26.891
6888.705597132364,10.757
6894.594584216582,121.012
6900.592544785228,185.551
6906.477333270021,-26.891
6912.360043737404,-45.715
6918.240677287846,86.053
6924.119235021055,45.715
6929.995718035963,-67.229
6935.870127430717,-115.633
6941.742464302697,29.581
6947.6127297485,193.618
6953.480924863958,48.405
6959.347050744116,99.498
6965.21110848328,537.829
6971.073099174937,207.064
6976.93302391185,-10.757
6982.79088378598,252.78
6988.64667988853,10.757
6994.500413309928,-88.742
7000.35208513985,653.462
7006.201696467178,8.067
7012.049248380063,83.364
7017.894741965851,-69.918
7023.738178311156,115.633
7029.579558501813,-88.742
7035.418883622879,-16.135
7041.2561547586665,51.094
7047.091372992727,8.067
7052.924539407839,-123.701
7058.645653010426,0.0
7064.474757695687,121.012
7070.301813785409,-37.648
7076.126822359336,107.566
7081.949784496486,-40.337
7087.660891581778,86.053
7093.479802640664,-134.457
7099.296670474898,56.472
7105.111496160462,150.592
7110.814624476749,75.296
7116.625407570507,-177.484
7122.434151718757,-91.431
7128.2408579944895,212.442
7133.936024250346,56.472
7139.73869639702,61.85
7145.53933386541,67.229
7151.22854892195,5.378
7157.025158582874,-21.513
7162.819736753059,209.753
7168.503009933542,59.161
7174.293566604632,64.539
7180.082094965896,86.053
7185.759435574095,-29.581
7191.54394873148,26.891
7197.2173519438,-121.012
7202.997854073568,-8.067
7208.667323984642,5.378
7214.443819257263,-10.757
7220.109359956041,48.405
7225.881852536215,34.959
7231.54346810597,80.674
7237.311962152613,83.364
7242.969656670975,-94.12
7248.734156337254,18.824
7254.387933876205,-77.985
7260.148443309525,239.334
7265.798307935409,16.135
7271.554831277448,-26.891
7277.20078705097,-94.12
7282.953328437674,21.513
7288.59537941395,-123.701
7294.235498085545,-37.648
7299.982093204053,-174.794
7305.618313131272,104.877
7311.252603748333,64.539
7316.993261813666,-48.405
7322.623659726734,24.202
7328.252131317968,43.026
7333.9868615261075,69.918
7339.611446441268,102.188
7345.234108016753,77.985
7350.962919544712,-177.484
7356.581700459581,147.903
7362.198561010817,13.446
7367.813502182726,118.322
7373.426524958988,83.364
7379.145517410223,-26.891
7384.7546694986595,72.607
7390.361906157261,5.378
7395.967228366993,-303.873
7401.570637108154,102.188
7407.279835705631,131.768
7412.879383697611,13.446
7418.477021176703,104.877
7424.072749120482,-110.255
7429.666568505905,357.656
7435.258480309247,18.824
7440.848485506111,69.918
7446.436585071431,26.891
7452.022779979503,29.581
7457.607071203925,-131.768
7463.296794702215,-8.067
7468.877244915177,-18.824
7474.455794380043,-196.308
7480.032444067743,45.715
7485.607194948596,37.648
7491.18004799222,18.824
7496.751004167574,67.229
7502.2129850032,24.202
7507.7801867781745,91.431
7513.345494569261,121.012
7518.908909342786,-26.891
7524.470432064445,107.566
7530.03006369928,314.63
7535.587805211653,18.824
7541.1436575652915,169.416
7546.697621723266,21.513
7552.249698647978,13.446
7557.693172648,-26.891
7563.241514237732,-8.067
7568.787971459049,34.959
7574.332545271769,-56.472
7579.87523663506,198.997
7585.416046507413,-48.405
7590.848475703144,110.255
7596.385561603231,-29.581
7601.920768865631,134.457
7607.454098446255,53.783
7612.879194899509,-29.581
7618.4088080453,147.903
7623.936546354853,69.918
7629.462410781522,64.539
7634.880189328982,-18.824
7640.402344837916,45.715
7645.9226293018255,86.053
7651.334937948188,72.607
7656.851519109852,80.674
7662.260197498763,-45.715
7667.773079083498,34.959
7673.284094334183,-115.633
7678.687316594296,45.715
7684.194637864675,-51.094
7689.7000956236625,21.513
7695.097870006797,303.873
7700.599639370841,-34.959
7705.993798107356,75.296
7711.491882781789,83.364
7716.882429503323,-123.701
7722.376833188511,-2.689
7727.763771521855,255.469
7733.254497913214,80.674
7738.637831480286,-26.891
7744.124884268305,34.959
7749.504616686187,129.079
7754.987999556393,77.985
7760.364134437317,142.525
7765.738489349154,96.809
7771.216392021717,96.809
7776.587154788423,16.135
7782.061396717661,225.888
7787.428570939446,-34.959
7792.793969640064,121.012
7798.262745065967,18.824
7803.624560595526,88.742
7808.984603262106,24.202
7814.447920368751,123.701
7819.804385227417,-72.607
7825.159079875983,-94.12
7830.616946831127,-26.891
7835.968069024231,129.079
7841.317423654822,88.742
7846.665011598543,-29.581
7852.115636126822,18.824
7857.459658723532,-40.337
7862.801917273948,10.757
7868.142412651388,166.727
7873.481145728587,18.824
7878.922746278997,-26.891
7884.257922859626,-26.891
7889.59133977185,-271.604
7894.922997886111,-10.757
7900.252898072242,-94.12
7905.581041199541,244.712
7910.907428136696,91.431
7916.336446752692,43.026
7921.65928952102,-13.446
7926.980378718883,-56.472
7932.29971521271,43.026
7937.617299868325,-48.405
7942.933133550996,-37.648
7948.247217125423,43.026
7953.559551455743,53.783
7958.870137405502,-83.364
7964.178975837705,-13.446
7969.486067614758,94.12
7974.791413598527,-188.24
7980.0950146503055,0.0
7985.396871630804,-21.513
7990.696985400187,-102.188
7995.995356818043,-43.026
8001.291986743403,-40.337
8006.586876034729,91.431
8011.880025549901,459.844
8017.067699705829,32.27
8022.357406311574,-43.026
8027.645375694708,207.064
8032.931608710882,-21.513
8038.216106215201,59.161
8043.498869062179,-115.633
8048.779898105804,24.202
8053.955695240969,-147.903
8059.233293192043,8.067
8064.509159881611,-2.689
8069.783296161415,34.959
8074.952338977277,104.877
8080.223050878609,10.757
8085.492034905405,-26.891
8090.759291907168,56.472
8095.921593616502,72.607
8101.185432936367,-45.715
8106.447547759821,2.689
8111.604810570996,-118.322
8116.863512715307,-26.891
8122.120492886879,-8.067
8127.272724173963,231.266
8132.526296659391,34.959
8137.778149690843,61.85
8142.925356813517,-2.689
8148.173807142077,196.308
8153.4205405305,32.27
8158.562730834117,5.378
8163.806066493191,110.255
8168.944927307508,-69.918
8174.184868536668,77.985
8179.32040309432,104.877
8184.55695318873,-45.715
8189.689164718173,29.581
8194.922326968728,75.296
8200.051218694258,24.202
8205.280996387602,56.472
8210.406571529322,107.566
8215.632967947844,-43.026
8220.7552297217,61.85
8225.978248143558,142.525
8231.097199761349,-13.446
8236.316843460441,-61.85
8241.43248812982,69.918
8246.546496881761,99.498
8251.76110130029,-64.539
8256.871807891675,77.985
8261.98088093357,-104.877
8267.190453365733,-99.498
8272.296229025691,174.794
8277.400373499535,94.12
8282.604921225458,16.135
8287.705773086778,-56.472
8292.804996120794,-252.78
8298.004526406577,53.783
8303.100461588281,48.405
8308.194770296956,21.513
8313.28745331115,0.0
8318.48031600209,-115.633
8323.569717486189,10.757
8328.657495624051,-61.85
8333.743651192239,5.378
8338.828184966831,-86.053
8344.012739449463,-94.12
8349.093999566121,-18.824
8354.17364022991,40.337
8359.251662214898,-8.067
8364.328066294685,104.877
8369.402853242376,121.012
8374.476023830553,-53.783
8379.547578831349,-48.405
8384.718901354245,5.378
8389.787195221597,8.067
8394.853875830348,16.135
8399.91894395064,145.214
8404.98240035212,-37.648
8410.044245803958,-45.715
8415.104481074803,5.378
8420.163106932847,-32.27
8425.220124145773,-72.607
8430.275533480788,61.85
8435.32933570461,102.188
8440.381531583458,-306.563
8445.432121883085,115.633
8450.48110736873,102.188
8455.528488805172,-164.038
8460.473367100913,0.0
8465.51757477424,96.809
8470.560180674485,-2.689
8475.601185564497,166.727
8480.64059020661,-24.202
8485.67839536271,196.308
8490.714601794163,131.768
8495.749210261878,-26.891
8500.681576948675,161.349
8505.713023691114,-155.97
8510.742874734438,51.094
8515.771130837642,10.757
8520.797792759218,-43.026
8525.722375497866,-153.281
8530.745883175656,99.498
8535.7677989293,43.026
8540.788123515384,-2.689
8545.706498587671,-26.891
8550.723674892208,258.158
8555.739262280982,8.067
8560.652997083213,104.877
8565.665440644778,-37.648
8570.676297538128,-107.566
8575.585398634048,-67.229
8580.593116146138,-37.648
8585.599249233324,48.405
8590.503723174297,56.472
8595.506721317797,16.135
8600.508137275468,193.618
8605.40799060051,-51.094
8610.406276043708,80.674
8615.303062904772,-37.648
8620.298220771765,-129.079
8625.191944046568,59.161
8630.18397727198,5.378
8635.074639834631,-43.026
8640.063551349394,-5.378
8644.951156070434,51.094
8649.936948801806,51.094
8654.821498548154,-104.877
8659.804175419777,18.824
8664.685673054784,5.378
8669.665236986599,-21.513
8674.543685370048,56.472
8679.520139278378,53.783
8684.395541266465,414.128
8689.2694364983,32.27
8694.241246509358,-80.674
8699.112099609058,-86.053
8703.981448060618,-75.296
8708.948620671701,-72.607
8713.81493124642,107.566
8718.779005433622,0.0
8723.642280973501,67.229
8728.504055374753,-8.067
8733.364329332315,2.689
8738.32224658698,24.202
8743.179491154478,56.472
8748.035237374625,-77.985
8752.889485940628,88.742
8757.8412577103,51.094
8762.692482517024,-13.446
8767.542211760752,-34.959
8772.39044613298,75.296
8777.336083836857,86.053
8782.18130006664,5.378
8787.02502351089,-16.135
8791.867254859393,16.135
8796.707994801498,43.026
8801.547244026118,13.446
8806.385003221756,-24.202
8811.319956958603,190.929
8816.154707786565,-392.615
8820.987970662514,-172.105
8825.819746273257,29.581
8830.650035305174,48.405
8835.478838444196,16.135
8840.306156375878,37.648
8845.131989785303,102.188
8849.956339357173,61.85
8854.779205775758,26.891
8859.60058972489,-142.525
8864.420491888006,-107.566
8869.238912948098,56.472
8874.055853587757,-102.188
8878.871314489159,-2.689
8883.685296334032,-45.715
8888.497799803714,-13.446
8893.308825579123,21.513
8898.118374340735,10.757
8902.926446768637,-80.674
8907.634964476681,-295.806
8912.440116370435,-48.405
8917.243793954342,-32.27
8922.045997906822,-75.296
8926.846728905857,-2.689
8931.645987629043,-121.012
8936.443774753548,-45.715
8941.142221650607,-32.27
8945.937097605834,86.053
8950.73050397759,134.457
8955.522441441404,196.308
8960.215160665939,-16.135
8965.004192282166,-59.161
8969.791757000756,-18.824
8974.577855495572,-34.959
8979.26485751475,24.202
8984.048055470721,110.255
8988.829789208343,24.202
8993.51251749025,-43.026
8998.291354655303,80.674
9003.068729603765,-32.27
9007.747189991118,40.337
9012.521672326067,-145.214
9017.294694442531,-45.715
9021.968892767374,2.689
9026.739026222178,37.648
9031.41039612206,-309.252
9036.17764353675,24.202
9040.943434050514,29.581
9045.610551571128,-150.592
9050.373459984672,43.026
9055.037755503963,-48.405
9059.797784430888,5.378
9064.45926050758,0.0
9069.216412558366,-40.337
9073.87507174812,-13.446
9078.629349530078,83.364
9083.285194385431,18.824
9088.036600502714,198.997
9092.689633573158,-236.645
9097.438170626783,137.146
9102.088394458704,77.985
9106.73722909284,-180.173
9111.481482183284,-164.038
9116.12751137963,8.067
9120.868901881862,-142.525
9125.512128179163,32.27
9130.153968412898,-45.715
9134.891084617178,-352.278
9139.53012574118,-107.566
9144.167782675046,-102.188
9148.9006303586,185.551
9153.535491965213,-145.214
9158.168971251744,-5.378
9162.801068836525,-26.891
9167.528243916331,-69.918
9172.157551197888,112.944
9176.785478643267,72.607
9181.412026869286,32.27
9186.13353953768,-2.689
9190.757302472506,-40.337
9195.37968804908,155.97
9200.000696882766,83.364
9204.620329588544,-77.985
9209.334785850184,53.783
9213.951639506451,-174.794
9218.567118890363,-37.648
9223.181224615444,13.446
9227.79395729483,-48.405
9232.40531754132,118.322
9237.015305967328,-56.472
9241.623923184923,45.715
9246.23116980579,139.836
9250.932987640888,51.094
9255.537466379788,201.686
9260.140576367572,75.296
9264.742318214474,193.618
9269.342692530376,233.956
9273.941699924766,-5.378
9278.539341006806,-34.959
9283.135616385269,-5.378
9287.730526668583,-198.997
9292.324072464791,72.607
9296.91625438162,-2.689
9301.411444872112,-18.824
9306.00092923447,96.809
9310.589051525738,-83.364
9315.175812352172,-51.094
9319.761212319692,0.0
9324.345252033823,21.513
9328.927932099774,-198.997
9333.509253122353,8.067
9338.08921570604,26.891
9342.572446701386,2.689
9347.149722488744,303.873
9351.7256416359,-59.161
9356.300204745894,26.891
9360.873412421412,24.202
9365.350032145325,-26.891
9369.920558965528,21.513
9374.489732144635,-96.809
9379.05755228394,56.472
9383.528899030936,231.266
9388.09404305015,-10.757
9392.657835818722,-24.202
9397.125240831178,-112.944
9401.6863610176,-48.405
9406.246131739394,67.229
9410.80455359534,48.405
9415.266701898625,26.891
9419.822455888205,228.577
9424.281993052333,-56.472
9428.835081516963,-145.214
9433.38682407955,-61.85
9437.84243511156,48.405
9442.391515668474,48.405
9446.84452129656,-61.85
9451.390942182352,-5.378
9455.93602012123,29.581
9460.385108237591,-53.783
9464.927530014324,48.405
9469.374018445214,-16.135
9473.913786387537,-91.431
9478.35767741084,172.105
9482.894793843763,-24.202
9487.33608973474,-29.581
9491.87055698055,37.648
9496.30926001177,-80.674
9500.74668109923,-21.513
9505.277192831463,13.446
9509.71202445114,48.405
9514.23989277796,37.648
9518.672137195834,43.026
9523.103102466685,56.472
9527.62702390948,34.959
9532.05540536064,-56.472
9536.57668916292,13.446
9541.002489053764,155.97
9545.42701258622,10.757
9549.850260312329,155.97
9554.36630345335,-333.454
9558.78697410632,-110.255
9563.206370618926,-56.472
9567.718482324255,13.446
9572.13530512818,-239.334
9576.550855454823,-67.229
9580.965133854,-64.539
9585.47202083257,134.457
9589.883729992052,-77.985
9594.294168883298,-43.026
9598.703338054846,-43.026
9603.111238054931,18.824
9607.611613766734,16.135
9612.016950092931,-112.944
9616.421018902103,104.877
9620.823820741218,-174.794
9625.225356156909,51.094
9629.625625695517,-51.094
9634.02462990307,110.255
9638.422369325252,-188.24
9642.81884450748,-102.188
9647.21405599481,-77.985
9651.701478874824,-21.513
9656.094137748323,-29.581
9660.485534571855,-18.824
9664.875669889248,-207.064
9669.264544244,242.023
9673.65215817932,-40.337
9678.03851223808,48.405
9682.423606962846,-67.229
9686.807442895892,-24.202
9691.19002057915,8.067
9695.478134071804,102.188
9699.858223622705,8.067
9704.23705653629,-118.322
9708.614633353289,-69.918
9712.990954614088,-21.513
9717.36602085878,-45.715
9721.739832627154,13.446
9726.112390458671,-392.615
9730.483694892511,77.985
9734.760779687776,51.094
9739.129605581998,37.648
9743.497179682729,-43.026
9747.863502527893,37.648
9752.228574655115,-142.525
9756.499562339395,196.308
9760.862161224974,-29.581
9765.223510992222,-37.648
9769.583612177565,88.742
9773.849736751828,-34.959
9778.207368918504,40.337
9782.563754099236,-86.053
9786.918892829211,-80.674
9791.18016259473,209.753
9795.532836519418,88.742
9799.884265585692,-48.405
9804.14190615754,-21.513
9808.490873566669,-10.757
9812.83859770701,-72.607
9817.09261371952,16.135
9821.437879345483,8.067
9825.689490172908,16.135
9830.032299369228,32.27
9834.373867936378,-77.985
9838.621861899856,45.715
9842.960977171238,-64.539
9847.206571054325,-43.026
9851.543235108787,-24.202
9855.786430944943,72.607
9860.12064585897,-2.689
9864.361445679362,29.581
9868.693213527116,282.36
9872.931619360628,-59.161
9877.26094221391,166.727
9881.49695608711,32.27
9885.823836015392,5.378
9890.057459952584,18.824
9894.289902518456,115.633
9898.613135046206,-8.067
9902.843190697367,37.648
9907.163985452502,16.135
9911.391656207565,204.375
9915.61814808206,-86.053
9919.935303126713,-75.296
9924.15941311792,29.581
9928.38234571751,-77.985
9932.695865648708,-18.824
9936.91641937277,-51.094
9941.135797191648,13.446
9945.445686598703,-139.836
9949.662688544726,-18.824
9953.878516069532,-83.364
9958.09316966365,139.836
9962.398234183594,-64.539
9966.61051589339,-67.229
9970.821625153134,34.959
9975.031562452265,-29.581
9979.240328279942,-45.715
9983.53937957713,-51.094
9987.745778488254,-91.431
9991.95100740443,-2.689
9996.155066813732,-5.378
10000.357957203963,61.85
10004.55967906266,-174.794
10008.760232877092,16.135
10013.050897176752,-24.202
10017.249090997648,26.891
10021.446118245014,91.431
10025.641979405023,61.85
10029.83667496358,-91.431
10034.03020540632,43.026
10038.222571218605,-8.067
10042.413772885537,-8.067
10046.603810891938,2.689
10050.79268572236,-139.836
10054.980397861098,-80.674
10059.16694779218,-86.053
10063.352335999334,-86.053
10067.536562966066,-80.674
10071.719629175575,-107.566
10075.90153511081,-121.012
10080.082281254454,86.053
10084.26186808891,21.513
10088.440296096323,72.607
10092.52676786215,24.202
10096.702904826674,16.135
10100.877884398516,-56.472
10105.051707058765,48.405
10109.224373288234,96.809
10113.395883567471,-32.27
10117.475590772649,0.0
10121.64481569536,-123.701
10125.812886097472,64.539
10129.979802458443,43.026
10134.145565257517,-34.959
10138.219652237512,10.757
10142.383134400929,-34.959
10146.545464428116,-80.674
10150.706642797257,-2.689
10154.776246850048,-110.255
10158.935148346747,-18.824
10163.092899607942,26.891
10167.159152430871,158.66
10171.314629631466,-72.607
10175.468958016776,188.24
10179.531863747628,-18.824
10183.683920879565,-91.431
10187.834830614069,-67.229
10191.894393383842,-24.202
10196.043034667582,107.566
10200.190529969435,56.472
10204.246753902304,-83.364
10208.391983551395,-43.026
10212.44599199288,-10.757
10216.588957845182,-91.431
10220.640752609928,29.581
10224.781456519388,5.378
10228.831039420063,-5.378
10232.969483238625,18.824
10237.016856085897,-8.067
10241.15304166346,-21.513
10245.19820626604,-86.053
10249.332135450502,-10.757
10253.375093615126,-29.581
10257.506768252357,32.27
10261.547521783785,-94.12
10265.58718577827,107.566
10269.715494418666,2.689
10273.752956473523,104.877
10277.87901516247,-53.783
10281.91427707755,-155.97
10285.948451675904,51.094
10290.0711512271,40.337
10294.10312837192,-32.27
10298.13401952729,88.742
10302.253364041218,13.446
10306.282060424935,-233.956
10310.309672144327,-5.378
10314.425665714796,-64.539
10318.451085340042,102.188
10322.475421623927,80.674
10326.498675003731,123.701
10330.610215200984,64.539
10334.631280043344,18.824
10338.651263301725,37.648
10342.670165412448,-26.891
10346.687986811625,-67.229
10350.704727935088,131.768
10354.80961387438,5.378
10358.824171771252,43.026
10362.837650708272,-80.674
10366.850051120337,185.551
10370.86137344214,-2.689
10374.871618108127,-56.472
10378.880785552512,61.85
10382.888876209276,48.405
10386.984923052532,-94.12
10390.990837530662,-158.66
10394.995676531347,142.525
10398.999440487634,-34.959
10403.00212983234,282.36
10407.003744998048,333.454
10411.004286417105,-37.648
10415.003754521616,150.592
10419.002149743475,10.757
10422.999472514348,-118.322
10426.995723265634,-16.135
10430.990902428544,-91.431
10434.985010434026,51.094
10438.889325180557,260.847
10442.881315942828,-21.513
10446.872236829608,-53.783
10450.86208827093,-72.607
10454.85087069661,-5.378
10458.838584536235,56.472
10462.82523021915,-317.319
10466.810808174472,112.944
10470.706785742112,110.255
10474.690253232264,-43.026
10478.672654271297,59.161
10482.653989287404,0.0
10486.634258708573,-112.944
10490.525047770485,115.633
10494.50321094102,-16.135
10498.480309789697,24.202
10502.45634474356,188.24
10506.342995080442,32.27
10510.316927143493,13.446
10514.2897965821,-153.281
10518.261603822417,-322.697
10522.144122034457,91.431
10526.113829736623,-2.689
10530.082476508169,56.472
10533.961905709137,-69.918
10537.92845544769,209.753
10541.89394552126,-24.202
10545.770289396216,64.539
10549.733684937964,-56.472
10553.607981637546,61.85
10557.569284306495,75.296
10561.52952941227,-107.566
10565.400746905443,37.648
10569.35890163298,-53.783
10573.22807600992,80.674
10577.184142013864,5.378
10581.05127489159,-94.12
10585.005253824836,-91.431
10588.87034681866,94.12
10592.822240332363,-26.891
10596.685295055897,-48.405
10600.635104799476,-21.513
10604.496122864624,-10.757
10608.443850485746,204.375
10612.302833502728,-43.026
10616.160811022752,67.229
10620.10543022464,53.783
10623.9613750996,-102.188
10627.903916281392,75.296
10631.757830117263,258.158
10635.61074043666,45.715
10639.550179321655,110.255
10643.401060998756,-416.818
10647.250940343372,24.202
10651.187280591832,18.824
10655.035133687184,172.105
10658.881985632182,-26.891
10662.815230898605,86.053
10666.660058983602,-53.783
10670.50388709854,59.161
10674.346715633475,104.877
10678.275847672114,-43.026
10682.116655520924,-43.026
10685.956464967534,21.513
10689.795276401208,-112.944
10693.633090210977,145.214
10697.557095575656,-29.581
10701.39289265285,121.012
10705.227693280882,158.66
10709.061497847986,-24.202
10712.894306742182,-2.689
10716.726120351308,-59.161
10720.55693906298,-24.202
10724.386763264632,8.067
10728.302600658342,-34.959
10732.130414421008,-45.715
10735.957234843503,56.472
10739.783062312445,-32.27
10743.60789721425,-24.202
10747.431739935131,-188.24
10751.254590861114,18.824
10755.076450378,107.566
10758.897318871408,16.135
10762.717196726757,129.079
10766.536084329256,8.067
10770.353982063916,-2.689
10774.170890315563,0.0
10777.98680946881,-80.674
10781.801739908076,233.956
10785.615682017564,29.581
10789.341989100834,115.633
10793.153978142976,8.067
10796.964979998098,174.794
10800.774995049622,80.674
10804.58402368077,-32.27
10808.392066274577,0.0
10812.199123213884,-13.446
10816.005194881312,-198.997
10819.723813349112,-376.48
10823.52793799081,86.053
10827.331078498672,-69.918
10831.133235254529,-86.053
10834.848029253728,72.607
10838.64824198676,-169.416
10842.447472103491,-18.824
10846.24571998498,-10.757
10849.956695412544,-10.757
10853.753002267928,32.27
10857.548328021428,75.296
10861.342673053316,-8.067
10865.049835794096,21.513
10868.842242790466,193.618
10872.63367019626,-51.094
10876.337982712816,198.997
10880.12747431772,56.472
10883.82989575329,-102.188
10887.617453039476,158.66
10891.404032613404,18.824
10895.103609289945,-40.337
10898.88825677408,56.472
10902.585945994537,-37.648
10906.368662867266,-67.229
10910.150403901262,18.824
10913.845253813895,45.715
10917.62506645972,-43.026
10921.318032531915,75.296
10925.095918264182,59.161
10928.787001936307,2.689
10932.562962228116,99.498
10936.252164939066,75.296
10939.940438510435,-56.472
10943.713524449233,-110.255
10947.399919206764,121.012
10951.171083372872,-18.824
10954.855600751816,-40.337
10958.62484461311,-51.094
10962.307486047235,-16.135
10965.989200819247,10.757
10969.755577991731,-32.27
10973.435418958636,-2.689
10977.114334320191,-59.161
10980.877848072992,94.12
10984.554891765896,198.997
10988.231010908596,-360.345
10991.991664505884,107.566
10995.665914113146,150.592
10999.33924022374,91.431
11003.011643185791,67.229
11006.768495629847,67.229
11010.439031890255,-13.446
11014.108646053544,-51.094
11017.777338467138,-2.689
11021.530395518184,-164.038
11025.197224058184,26.891
11028.863131897786,-10.757
11032.528119383707,-29.581
11036.192186862492,121.012
11039.855334680517,-2.689
11043.602720353196,-5.378
11047.264008520897,-24.202
11050.924378073953,-40.337
11054.58382935806,53.783
11058.242362718707,118.322
11061.899978501227,118.322
11065.556677050785,112.944
11069.21245871235,18.824
11072.867323830738,-75.296
11076.521272750586,10.757
11080.174305816368,45.715
11083.826423372368,-231.266
11087.477625762698,-56.472
11091.127913331318,18.824
11094.777286422,137.146
11098.425745378345,-174.794
11102.073290543767,142.525
11105.719922261547,53.783
11109.36564087477,-10.757
11113.010446726335,-64.539
11116.654340159006,-166.727
11120.29732151534,29.581
11123.93939113774,-40.337
11127.580549368427,-8.067
11131.22079654947,21.513
11134.77550763161,48.405
11138.413954906267,-96.809
11142.051492148485,-88.742
11145.688119699626,34.959
11149.323837900913,40.337
11152.958647093375,-145.214
11156.508048620988,174.794
11160.141061938251,-5.378
11163.773167260852,-34.959
11167.40436492916,2.689
11170.950240228543,45.715
11174.579644697213,-61.85
11178.208142523734,-26.891
11181.751381744987,86.053
11185.378088371155,5.378
11189.003889365817,5.378
11192.628785068173,48.405
11196.16850723805,2.689
11199.79161440632,123.701
11203.413817290922,-2.689
11206.950910239968,-64.539
11210.571326582844,110.255
11214.10667518314,-18.824
11217.725306305692,-121.012
11221.343034819707,-80.674
11224.875759069631,80.674
11228.49170435076,72.607
11232.022687482247,-45.715
11235.636850848638,-5.378
11239.166094148528,61.85
11242.778476917028,51.094
11246.305981670925,61.85
11249.91658515709,-301.184
11253.442352649325,43.026
11257.05117816741,77.985
11260.575209681025,-8.067
11264.182258544,212.442
11267.704555360804,150.592
11271.309828880325,26.891
11274.83039228086,10.757
11278.350099642112,16.135
11281.952723030843,-107.566
11285.470698886753,-131.768
11288.987819646914,29.581
11292.587795825824,-166.727
11296.103186988752,330.765
11299.70139304264,-51.094
11303.215055883851,112.944
11306.727865201254,72.607
11310.23982130582,188.24
11313.834511810855,53.783
11317.34474212601,51.094
11320.8541201677,43.026
11324.446172200132,2.689
11327.953826352135,80.674
11331.460629168672,61.85
11334.96658095964,67.229
11338.471682034791,5.378
11342.059356881087,-26.891
11345.562737216636,123.701
11349.06526777208,88.742
11352.566948856567,-21.513
11356.067780779093,-87.042
11359.56776384851,-95.863
11363.1502007606,-65.448
11366.648466857394,-13.274
11370.145885034064,43.188
11373.642455598843,86.454
11377.138178859836,99.055
11380.633055125,63.512
11384.1270847021,-37.648
11387.620267898808,-94.12
11391.112605022612,147.903
11394.60409638087,0.0
11398.094742280777,8.067
11401.584543029392,91.431
11405.073498933603,69.918
11408.561610300185,-75.296
11412.048877435727,123.701
11415.5353006467,-69.918
11419.020880239405,-207.064
11422.505616520008,40.337
11425.989509794525,40.337
11429.472560368817,-29.581
11432.954768548592,86.053
11436.43613463944,-75.296
11439.916658946764,48.405
11443.313501961433,-29.581
11446.79236364179,91.431
11450.270384446749,94.12
11453.74756468115,-75.296
11457.22390464968,40.337
11460.699404656869,43.026
11464.091344754375,-77.985
11467.565185732994,161.349
11471.038187655771,8.067
11474.51035082668,21.513
11477.981675549512,13.446
11481.369541233144,26.891
11484.839209915755,-21.513
11488.30804105362,-161.349
11491.693473394258,-56.472
11495.16065027576,-29.581
11498.626990514544,-51.274
11502.092494413417,-89.011
11505.474679896604,-132.887
11508.938531918346,-172.998
11512.401548500471,-199.438
11515.78130675673,-202.304
11519.242673239612,-171.694
11522.620821260369,-97.699
11526.080538823127,29.581
11529.5394224415,126.39
11532.915147579475,-10.757
11536.372384051368,67.229
11539.74650183491,-29.581
11543.202092336618,75.296
11546.574603913472,34.959
11550.028549620163,-21.513
11553.399456136987,-2.689
11556.85175822272,-56.472
11560.221060825072,-182.862
11563.67172046279,40.337
11567.039420295116,-121.012
11570.488438656655,24.202
11573.854536862347,397.993
11577.301915118398,-268.915
11580.666412839755,121.012
11584.030120381583,-32.27
11587.475050538147,0.0
11590.837159300165,121.012
11594.280452266124,37.648
11597.64096338792,115.633
11601.000685734118,10.757
11604.441534950183,338.832
11607.79966135666,-5.378
11611.156999826935,61.85
11614.59540789372,-13.446
11617.951152122365,-86.053
11621.306109253032,-26.891
11624.66027956261,40.337
11628.09544335218,212.442
11631.44802167594,147.903
11634.799814015252,16.135
11638.15082064648,24.202
11641.58274474832,21.513
11644.932161645294,-142.525
11648.280793669244,-86.053
11651.62864109602,134.457
11654.975704201344,-10.757
11658.403590030808,2.689
11661.749066206958,37.648
11665.093758894744,-86.053
11668.43766836938,104.877
11671.780794905935,180.173
11675.12313877933,-18.824
11678.4647002644,86.053
11681.805479635816,86.053
11685.145477168146,77.985
11688.484693135812,34.959
11691.904543291126,-53.783
11695.24217790648,51.094
11698.579031786354,-220.51
11701.915105204676,-24.202
11705.25039843522,8.067
11708.584911751648,-61.85
11711.918645427471,61.85
11715.251599736104,40.337
11718.502511651865,-61.85
11721.83392703817,29.581
11725.164563870054,-161.349
11728.4944224204,-64.539
11731.823502961994,188.24
11735.15180576744,-32.27
11738.479331109273,8.067
11741.806079259855,69.918
11745.132050491462,34.959
11748.457245076206,-77.985
11751.70058915004,51.094
11755.024250183047,-99.498
11758.34713537819,-177.484
11761.669245007088,37.648
11764.990579341233,-220.51
11768.230158619372,-94.12
11771.549962071174,134.457
11774.86899103535,16.135
11778.187245782876,53.783
11781.423821624776,96.809
11784.740547618409,-91.431
11788.05650020102,-180.173
11791.371679643096,-212.442
11794.605256223578,-121.012
11797.91890903626,-2.689
11801.231789512534,10.757
11804.46312397414,51.094
11807.774479408556,-48.405
11811.085063309589,59.161
11814.314157983485,86.053
11817.623218427994,16.135
11820.850827315822,-34.959
11824.158365355152,104.877
11827.4651331948,-43.026
11830.690506166697,34.959
11833.995753182851,177.484
11837.219642936305,32.27
11840.52337017791,129.079
11843.745777735792,190.929
11847.047986250807,-34.959
11850.26891263506,354.967
11853.569603470474,56.472
11856.789049702087,-18.824
11860.088223903953,56.472
11863.30619100298,43.026
11866.603849616356,18.824
11869.820338601929,-61.85
11873.11648267094,-61.85
11876.331494561222,-37.648
11879.545777396996,-75.296
11882.839660941268,75.296
11886.052468201013,-69.918
11889.26454715598,-43.026
11892.55617250015,-26.891
11895.766777396242,-69.918
11899.056892350098,-2.689
11902.26602420178,126.39
11905.474428998024,91.431
11908.682106985869,-190.929
11911.969222890988,-150.592
11915.17542984806,5.378
11918.380910743392,34.959
11921.66577540321,21.513
11924.869786778698,201.686
11928.07307283808,-188.24
11931.27563382762,34.959
11934.477469993468,34.959
11937.758600089848,102.188
11940.95896924119,40.337
11944.158614312782,80.674
11947.35753555032,-59.161
11950.55573319941,86.053
11953.753207505528,5.378
11957.029868231695,527.072
11960.225878519712,61.85
11963.42116620667,381.859
11966.615731537608,-150.592
11969.809574757444,34.959
11973.002696111003,8.067
11976.195095842992,-18.824
11979.386774197992,16.135
11982.577731420495,-48.405
11985.767967754866,32.27
11988.957483445382,-126.39
11992.146278736183,40.337
11995.334353871312,43.026
11998.521709094712,-51.094
12001.708344650193,21.513
12004.894260781464,-145.214
12008.079457732136,-2.689
12011.2639357457,-10.757
12014.44769506553,180.173
12017.630735934905,153.281
12020.81305859698,-441.02
12023.994663294816,-29.581
12027.175550271351,-115.633
12030.27622427429,-5.378
12033.455694464548,-72.607
12036.634447655608,32.27
12039.812484089987,-40.337
12042.989804010074,56.472
12046.166407658158,-72.607
12049.26290681064,-13.446
12052.4380965329,18.824
12055.612570703324,-94.12
12058.786329563762,69.918
12061.880055974125,-24.202
12065.052402807443,-34.959
12068.224035049663,-21.513
12071.394952942192,13.446
12074.485910333004,-107.566
12077.655418093736,164.038
12080.824212222367,-155.97
12083.913099633974,376.48
12087.080485047096,24.202
12090.247157544738,-134.457
12093.333977055809,16.135
