Raman Shift,Intensity
90.74744,104.5305
91.22955,104.1623
91.71167,104.413
92.19379,107.1686
92.6759,112.0416
93.15802,116.006
93.64014,116.4738
94.12225,114.2758
94.60437,111.4776
95.08649,108.0525
95.5686,104.6456
96.05072,103.268
96.53284,104.1804
97.01495,105.234
97.49707,103.9484
97.97919,100.4002
98.4613,97.23733
98.94342,95.11584
99.42554,93.98308
99.90765,93.80639
100.3898,94.80923
100.8719,96.24026
101.354,97.07011
101.8361,97.27909
102.3182,97.09732
102.8004,96.46855
103.2825,95.15524
103.7646,94.47506
104.2467,94.60583
104.7288,95.25567
105.2109,95.68482
105.6931,95.45692
106.1752,95.63389
106.6573,96.65615
107.1394,98.45817
107.6215,101.1479
108.1036,105.6709
108.5858,111.4238
109.0679,115.0225
109.55,115.5737
110.0321,114.7674
110.5142,113.5142
110.9963,110.8115
111.4785,108.7967
111.9606,107.7489
112.4427,107.6385
112.9248,108.0276
113.4069,109.1132
113.889,110.5237
114.3712,111.9754
114.8533,113.3899
115.3354,114.8445
115.8175,116.5391
116.2996,118.565
116.7817,120.0555
117.2639,120.7576
117.746,120.7701
118.2281,120.2145
118.7102,119.1101
119.1923,117.4779
119.6744,115.2177
120.1566,112.2079
120.6387,109.0707
121.1208,105.9963
121.6029,103.0758
122.085,100.5312
122.5671,98.12576
123.0493,96.29539
123.5314,95.63456
124.0135,96.51747
124.4956,97.8755
124.9777,99.34472
125.4598,100.6495
125.942,100.7032
126.4241,97.80368
126.9062,93.2794
127.3883,89.56621
127.8704,87.27764
128.3525,85.8708
128.8347,84.50558
129.3168,83.20174
129.7989,82.38628
130.281,82.81536
130.7631,84.14401
131.2452,84.94665
131.7274,84.71094
132.2095,83.79119
132.6916,83.21369
133.1737,83.04099
133.6558,82.74145
134.1379,81.56704
134.6201,79.53605
135.1022,77.82108
135.5843,76.85867
136.0664,76.54766
136.5485,76.15325
137.0306,75.62736
137.5128,75.12887
137.9949,74.82134
138.477,74.70689
138.9591,74.76456
139.4412,74.89817
139.9233,75.06475
140.4055,76.0491
140.8876,78.40744
141.3697,81.01203
141.8518,81.9384
142.3339,80.68491
142.816,78.88212
143.2982,76.97901
143.7803,74.81266
144.2624,73.13155
144.7445,72.0375
145.2266,71.4024
145.7087,70.99486
146.1909,70.96296
146.673,70.96205
147.1551,70.83279
147.6372,70.2998
148.1193,70.12033
148.6014,70.5994
149.0836,71.47519
149.5657,71.84933
150.0478,71.27611
150.5299,70.55416
151.012,70.02546
151.4941,69.73087
151.9763,69.58343
152.4584,69.6883
152.9405,69.98042
153.4226,70.13482
153.9047,70.01688
154.3868,69.8259
154.869,69.6703
155.3511,69.23168
155.8332,69.18029
156.3153,70.05131
156.7974,71.66055
157.2795,72.52171
157.7617,71.78243
158.2438,70.46312
158.7259,69.30089
159.208,68.51712
159.6901,67.8602
160.1722,67.19038
160.6544,66.52174
161.1365,66.142
161.6186,66.44337
162.1007,66.96028
162.5828,67.26976
163.0649,66.80724
163.5471,66.46092
164.0292,66.83031
164.5113,67.93487
164.9934,68.79386
165.4755,68.79057
165.9576,68.2929
166.4398,67.75896
166.9219,67.19836
167.404,66.76939
167.8861,66.65707
168.3682,66.88612
168.8503,67.09653
169.3325,67.00562
169.8146,66.74887
170.2967,66.54697
170.7788,66.37167
171.2609,66.36288
171.743,66.78026
172.2252,67.69939
172.7073,68.5132
173.1894,68.70884
173.6715,68.43056
174.1536,68.0046
174.6357,67.32791
175.1179,66.69321
175.6,66.55342
176.0821,67.02273
176.5642,67.55827
177.0463,67.58829
177.5284,67.2375
178.0106,66.88971
178.4927,66.61073
178.9748,66.49754
179.4569,66.81743
179.939,67.69357
180.4211,68.6376
180.9033,68.95561
181.3854,68.7834
181.8675,68.75424
182.3496,69.43018
182.8317,70.50694
183.3138,71.24585
183.796,71.49076
184.2781,71.58992
184.7602,72.06201
185.2423,72.87109
185.7244,73.67855
186.2065,74.25639
186.6887,74.66236
187.1708,75.15624
187.6529,75.81164
188.135,76.46374
188.6171,76.71657
189.0992,76.58475
189.5814,76.54204
190.0635,76.98811
190.5456,77.8475
191.0277,78.50951
191.5098,78.8184
191.9919,79.04276
192.4741,79.76855
192.9562,81.0088
193.4383,82.38017
193.9204,83.5435
194.4025,84.52619
194.8846,85.79782
195.3668,87.40902
195.8489,89.34234
196.331,91.57748
196.8131,94.12284
197.2952,96.89177
197.7773,99.99976
198.2595,103.4498
198.7416,106.6736
199.2237,109.6974
199.7058,112.3458
200.1879,114.2035
200.67,115.357
201.1522,115.4023
201.6343,113.8982
202.1164,110.7418
202.5985,107.0034
203.0806,102.6589
203.5627,97.93076
204.0449,93.50194
204.527,89.31449
205.0091,85.61488
205.4912,82.66964
205.9733,80.58561
206.4554,78.60217
206.9376,76.58244
207.4197,74.62242
207.9018,73.02686
208.3839,71.83955
208.866,70.90311
209.3481,70.14338
209.8303,69.57398
210.3124,69.10649
210.7945,68.74485
211.2766,68.4786
211.7587,68.25386
212.2408,68.07599
212.723,67.92866
213.2051,67.82285
213.6872,67.80184
214.1693,67.66221
214.6514,67.35175
215.1335,66.90387
215.6157,66.45505
216.0978,65.90841
216.5799,65.52898
217.062,65.54924
217.5441,66.16692
218.0262,66.60214
218.5084,66.74285
218.9905,66.643
219.4726,66.57938
219.9547,66.59782
220.4368,66.57487
220.9189,66.40059
221.4011,65.95608
221.8832,65.68169
222.3653,65.66434
222.8474,65.84583
223.3295,65.96656
223.8116,66.01624
224.2938,66.01916
224.7759,65.97497
225.258,65.8365
225.7401,65.76729
226.2222,65.79542
226.7043,65.90036
227.1865,66.01305
227.6686,66.1796
228.1507,66.28107
228.6328,66.22731
229.1149,65.91766
229.597,65.68935
230.0792,65.57255
230.5613,65.55247
231.0434,65.59083
231.5255,65.75713
232.0076,65.88183
232.4897,65.85332
232.9719,65.55791
233.454,65.36803
233.9361,65.30608
234.4182,65.3595
234.9003,65.50335
235.3824,65.84692
235.8646,66.12466
236.3467,66.18242
236.8288,65.87045
237.3109,65.66589
237.793,65.57804
238.2751,65.6039
238.7573,65.77324
239.2394,66.27995
239.7215,66.64683
240.2036,66.60905
240.6857,65.84882
241.1678,65.4167
241.65,65.46363
242.1321,65.79697
242.6142,65.90569
243.0963,65.59518
243.5784,65.34737
244.0605,65.41492
244.5427,66.04755
245.0248,66.33933
245.5069,66.14375
245.989,65.66615
246.4711,65.37016
246.9532,65.37177
247.4354,65.35942
247.9175,65.18128
248.3996,64.71461
248.8817,64.4907
249.3638,64.59927
249.8459,64.90092
250.3281,65.1577
250.8102,65.41759
251.2923,65.54847
251.7744,65.45962
252.2565,65.05666
252.7386,64.84615
253.2208,64.89562
253.7029,65.08813
254.185,65.24467
254.6671,65.34833
255.1492,65.44962
255.6313,65.58246
256.1135,65.76854
256.5956,65.8176
257.0777,65.66045
257.5598,65.43007
258.0419,65.30743
258.524,65.32942
259.0062,65.3765
259.4883,65.42359
259.9704,65.47069
260.4525,65.4942
260.9346,65.46749
261.4167,65.45013
261.8989,65.53187
262.381,65.77544
262.8631,65.94442
263.3452,65.93662
263.8273,65.75515
264.3094,65.76404
264.7916,65.99437
265.2737,66.36605
265.7558,66.82744
266.2379,67.40671
266.72,67.98274
267.2021,68.56792
267.6843,69.14466
268.1664,69.54294
268.6485,69.7025
269.1306,69.80637
269.6127,69.9764
270.0948,70.19001
270.577,70.58165
271.0591,71.25083
271.5412,72.10484
272.0233,72.64982
272.5054,72.74018
272.9875,72.89213
273.4697,73.56833
273.9518,74.89039
274.4339,75.94788
274.916,76.54932
275.3981,76.86549
275.8802,77.44841
276.3624,78.34412
276.8445,79.29548
277.3266,80.09834
277.8087,80.73122
278.2908,81.56199
278.7729,82.66206
279.2551,83.92699
279.7372,85.07706
280.2193,86.09321
280.7014,87.14974
281.1835,88.41121
281.6656,89.87247
282.1478,91.1614
282.6299,92.24793
283.112,93.18849
283.5941,94.0922
284.0762,94.96704
284.5583,95.70061
285.0405,96.26602
285.5226,96.6596
286.0047,96.84962
286.4868,96.8363
286.9689,96.61683
287.451,96.16446
287.9332,95.48291
288.4153,94.64473
288.8974,93.61609
289.3795,92.45749
289.8616,91.40737
290.3438,90.46154
290.8259,89.65266
291.308,89.07951
291.7901,88.7094
292.2722,88.30592
292.7543,87.73991
293.2365,87.11947
293.7186,86.72171
294.2007,86.55235
294.6828,86.46638
295.1649,86.31433
295.647,86.13817
296.1292,86.07665
296.6113,86.19167
297.0934,86.41182
297.5755,86.74262
298.0576,87.15552
298.5397,87.33962
299.0219,86.78239
299.504,85.85082
299.9861,85.43344
300.4682,85.92221
300.9503,86.52483
301.4324,86.11528
301.9146,84.91835
302.3967,83.85791
302.8788,83.65039
303.3609,83.89592
303.843,84.0499
304.3251,84.04404
304.8073,83.92088
305.2894,83.68251
305.7715,83.3535
306.2536,82.9874
306.7357,82.54967
307.2178,82.12106
307.7,81.80432
308.1821,81.61476
308.6642,81.45012
309.1463,81.21615
309.6284,80.96036
310.1105,80.75428
310.5927,80.63515
311.0748,80.57406
311.5569,80.5583
312.039,80.58753
312.5211,80.6422
313.0032,80.66434
313.4854,80.72483
313.9675,80.89905
314.4496,81.3298
314.9317,81.77452
315.4138,82.1119
315.8959,82.35805
316.3781,82.61869
316.8602,82.97618
317.3423,83.34322
317.8244,83.64351
318.3065,83.73106
318.7886,83.93485
319.2708,84.40823
319.7529,85.08556
320.235,85.78526
320.7171,86.5076
321.1992,87.18925
321.6813,87.79771
322.1635,88.32384
322.6456,88.78443
323.1277,89.14159
323.6098,89.43985
324.0919,89.75565
324.574,90.18301
325.0562,90.54922
325.5383,90.78127
326.0204,90.83695
326.5025,90.91968
326.9846,91.12492
327.4667,91.33073
327.9489,91.40971
328.431,91.25468
328.9131,91.0944
329.3952,90.9425
329.8773,90.79808
330.3594,90.73235
330.8416,90.76497
331.3237,90.86069
331.8058,90.99421
332.2879,91.15553
332.77,91.36803
333.2521,91.60123
333.7343,91.88235
334.2164,92.3592
334.6985,93.09374
335.1806,93.91622
335.6627,94.70786
336.1448,95.3578
336.627,96.29903
337.1091,97.56799
337.5912,99.10194
338.0733,100.852
338.5554,102.8796
339.0375,104.8663
339.5197,106.606
340.0018,108.0512
340.4839,109.912
340.966,112.2359
341.4481,114.7948
341.9302,117.227
342.4124,119.5359
342.8945,121.9424
343.3766,124.5331
343.8587,127.2769
344.3408,130.1064
344.8229,132.9823
345.3051,136.1237
345.7872,139.7957
346.2693,143.9281
346.7514,148.1697
347.2335,152.3193
347.7156,156.6534
348.1978,161.6073
348.6799,167.17
349.162,173.1945
349.6441,179.8019
350.1262,186.7881
350.6083,193.6497
351.0905,200.3864
351.5726,207.0319
352.0547,213.8282
352.5368,220.6277
353.0189,226.9813
353.501,233.3487
353.9832,238.8228
354.4653,242.4179
354.9474,244.1261
355.4295,243.855
355.9116,241.1051
356.3937,236.4063
356.8759,230.6141
357.358,223.9108
357.8401,216.2809
358.3222,207.2834
358.8043,197.0749
359.2864,187.0815
359.7686,177.8594
360.2507,169.2279
360.7328,161.1298
361.2149,153.4361
361.697,146.337
362.1791,139.9841
362.6613,134.2829
363.1434,129.0169
363.6255,123.9816
364.1076,119.4739
364.5897,115.7068
365.0718,112.9866
365.554,110.2863
366.0361,107.2533
366.5182,104.2093
367.0003,101.5404
367.4824,99.49112
367.9645,97.61575
368.4467,95.80898
368.9288,94.09584
369.4109,92.55566
369.893,91.22258
370.3751,90.03871
370.8572,88.97701
371.3394,88.18875
371.8215,87.27926
372.3036,86.12004
372.7857,84.82191
373.2678,83.77204
373.7499,83.02762
374.2321,82.41138
374.7142,81.88872
375.1963,81.51641
375.6784,80.9459
376.1605,80.08443
376.6426,79.14509
377.1248,78.4987
377.6069,78.17457
378.089,77.91722
378.5711,77.64523
379.0532,77.36813
379.5353,77.19315
380.0175,77.1366
380.4996,77.09341
380.9817,76.94151
381.4638,76.69845
381.9459,76.50713
382.428,76.4097
382.9102,76.36361
383.3923,76.33853
383.8744,76.32189
384.3565,76.19201
384.8386,75.75578
385.3207,75.16829
385.8029,74.78616
386.285,74.66739
386.7671,74.60951
387.2492,74.42345
387.7313,74.13824
388.2134,73.82292
388.6956,73.52544
389.1777,73.20698
389.6598,72.82251
390.1419,72.3759
390.624,71.90995
391.1061,71.44824
391.5883,70.97858
392.0704,70.47984
392.5525,69.88225
393.0346,69.34608
393.5167,69.0483
393.9988,68.87708
394.481,68.51504
394.9631,67.63243
395.4452,66.70199
395.9273,65.95419
396.4094,65.44014
396.8915,65.02921
397.3737,64.74386
397.8558,64.53275
398.3379,64.33269
398.82,64.05199
399.3021,63.8717
399.7842,63.83897
400.2664,63.95262
400.7485,64.11503
401.2306,64.40138
401.7127,64.65963
402.1948,64.76647
402.6769,64.55605
403.1591,64.55933
403.6412,64.85741
404.1233,65.36256
404.6054,65.89633
405.0875,66.49325
405.5696,67.00043
406.0518,67.31165
406.5339,67.41869
407.016,67.66225
407.4981,68.06883
407.9802,68.53336
408.4623,68.89462
408.9445,69.15971
409.4266,69.5663
409.9087,70.2001
410.3908,70.99421
410.8729,71.80195
411.355,72.62759
411.8372,73.46536
412.3193,74.32866
412.8014,75.20812
413.2835,76.07565
413.7656,76.92117
414.2477,77.8028
414.7299,78.8018
415.212,79.88381
415.6941,80.93886
416.1762,81.86707
416.6583,82.7882
417.1404,83.84323
417.6226,85.03493
418.1047,86.1737
418.5868,86.99972
419.0689,87.79733
419.551,88.86761
420.0331,90.5054
420.5153,92.12701
420.9974,93.4612
421.4795,94.60018
421.9616,95.72205
422.4437,96.76414
422.9258,97.90898
423.408,99.3129
423.8901,101.1648
424.3722,102.6753
424.8543,103.5919
425.3364,104.2353
425.8185,104.9164
426.3007,105.8009
426.7828,106.4903
427.2649,106.8693
427.747,106.9862
428.2291,107.1979
428.7112,107.6413
429.1934,107.9348
429.6755,107.8227
430.1576,107.2097
430.6397,106.663
431.1218,106.1983
431.6039,105.8027
432.0861,105.4331
432.5682,105.0844
433.0503,104.8539
433.5324,104.7576
434.0145,104.8066
434.4966,105.0382
434.9788,105.4533
435.4609,106.0458
435.943,106.7898
436.4251,107.7163
436.9072,108.9317
437.3893,110.5246
437.8715,112.2519
438.3536,113.9193
438.8357,115.5071
439.3178,116.96
439.7999,118.3869
440.282,119.5818
440.7642,120.3341
441.2463,120.6377
441.7284,120.6211
442.2105,120.5847
442.6926,120.1588
443.1747,118.9798
443.6569,116.6358
444.139,113.8907
444.6211,110.7209
445.1032,107.2929
445.5853,104.191
446.0674,101.6578
446.5496,99.32266
447.0317,97.04149
447.5138,94.75127
447.9959,92.69051
448.478,90.80659
448.9601,89.17872
449.4423,87.86022
449.9244,86.88934
450.4065,86.18554
450.8886,85.78345
451.3707,85.63912
451.8528,85.55919
452.335,85.54554
452.8171,85.58831
453.2992,85.71905
453.7813,85.93936
454.2634,86.01318
454.7455,85.8905
455.2277,85.76183
455.7098,85.9604
456.1919,86.42156
456.674,86.71255
457.1561,86.62285
457.6382,86.3335
458.1204,86.21587
458.6025,86.22804
459.0846,86.07261
459.5667,85.46865
460.0488,84.60799
460.5309,83.77836
461.0131,83.07448
461.4952,82.16521
461.9773,80.65273
462.4594,78.83813
462.9415,77.13961
463.4236,75.83611
463.9058,74.59209
464.3879,73.18503
464.87,71.66303
465.3521,70.33118
465.8342,69.3345
466.3163,68.48302
466.7985,67.67473
467.2806,66.91879
467.7627,66.17724
468.2448,65.45489
468.7269,64.75056
469.209,64.04176
469.6912,63.24485
470.1733,62.5932
470.6554,62.21134
471.1375,62.0527
471.6196,61.61372
472.1017,60.77884
472.5839,59.98581
473.066,59.60991
473.5481,59.65886
474.0302,59.41204
474.5123,58.7466
474.9944,57.95899
475.4766,57.50681
475.9587,57.3451
476.4408,57.17895
476.9229,56.82912
477.405,56.44462
477.8871,56.34627
478.3693,56.49895
478.8514,56.57958
479.3335,56.22765
479.8156,55.73084
480.2977,55.44349
480.7798,55.46405
481.262,55.57154
481.7441,55.6853
482.2262,55.79338
482.7083,55.87837
483.1904,55.88757
483.6725,55.91658
484.1547,56.07162
484.6368,56.32948
485.1189,56.38826
485.601,55.916
486.0831,55.46079
486.5652,55.30735
487.0474,55.60968
487.5295,55.88251
488.0116,56.10623
488.4937,56.31166
488.9758,56.55785
489.4579,56.88211
489.9401,57.13374
490.4222,57.27195
490.9043,57.31129
491.3864,57.27596
491.8685,57.13926
492.3506,57.11612
492.8328,57.41058
493.3149,57.95675
493.797,58.47271
494.2791,58.94221
494.7612,59.36422
495.2433,59.75926
495.7255,60.11225
496.2076,60.38068
496.6897,60.42944
497.1718,60.50509
497.6539,60.88793
498.136,61.51277
498.6182,62.1374
499.1003,62.70741
499.5824,63.17892
500.0645,63.47701
500.5466,63.55642
501.0287,63.66316
501.5109,63.84711
501.993,64.10222
502.4751,64.42067
502.9572,64.88689
503.4393,65.31169
503.9214,65.62047
504.4036,65.86543
504.8857,66.25268
505.3678,66.88335
505.8499,67.48636
506.332,67.91024
506.8141,68.12934
507.2963,68.58643
507.7784,69.35058
508.2605,70.18656
508.7426,70.80625
509.2247,71.23484
509.7068,71.89046
510.189,72.91776
510.6711,74.07516
511.1532,74.9229
511.6353,75.51604
512.1174,76.09935
512.5995,76.76653
513.0817,77.51807
513.5638,78.31702
514.0459,79.17003
514.528,80.21074
515.0101,81.69937
515.4922,83.33114
515.9744,84.76679
516.4565,85.72666
516.9386,86.92509
517.4207,88.67936
517.9028,90.80416
518.3849,92.99532
518.8671,95.1572
519.3492,97.43605
519.8313,99.90565
520.3134,102.5355
520.7955,105.1565
521.2776,107.4678
521.7598,110.2264
522.2419,113.9665
522.724,118.9508
523.2061,123.5268
523.6882,127.5196
524.1703,131.4641
524.6525,136.1022
525.1346,141.4182
525.6167,146.8736
526.0988,152.1773
526.5809,157.6263
527.063,163.7997
527.5452,170.611
528.0273,177.6625
528.5094,184.6875
528.9915,191.8889
529.4736,199.548
529.9557,207.7154
530.4379,216.3784
530.92,225.6468
531.4021,235.4574
531.8842,245.7834
532.3663,256.5934
532.8484,267.9243
533.3306,279.6317
533.8127,291.8524
534.2948,304.5842
534.7769,318.4082
535.259,332.2686
535.7411,345.9157
536.2233,359.3055
536.7054,373.0599
537.1875,387.5168
537.6696,401.4757
538.1517,414.4757
538.6339,426.4509
539.116,437.0968
539.5981,446.4753
540.0802,454.1371
540.5623,459.8382
541.0444,463.5192
541.5266,465.0446
542.0087,464.3873
542.4908,461.5375
542.9729,456.1923
543.455,448.5741
543.9371,439.4352
544.4193,428.6785
544.9014,416.8229
545.3835,404.0711
545.8656,390.4085
546.3477,376.6011
546.8298,362.6582
547.312,348.6736
547.7941,334.8286
548.2762,320.7015
548.7583,307.1826
549.2404,294.4857
549.7225,282.3749
550.2047,270.4159
550.6868,258.3552
551.1689,246.9063
551.651,236.4163
552.1331,226.7568
552.6152,217.4287
553.0974,208.4608
553.5795,199.699
554.0616,190.9727
554.5437,182.3424
555.0258,174.1137
555.5079,166.2597
555.9901,158.9311
556.4722,152.3427
556.9543,146.2985
557.4364,140.3677
557.9185,134.2712
558.4006,128.4846
558.8828,123.3352
559.3649,118.7495
559.847,114.4381
560.3291,110.1758
560.8112,106.2697
561.2933,102.9431
561.7755,100.2045
562.2576,97.39028
562.7397,94.23995
563.2218,91.16647
563.7039,88.34792
564.186,85.7934
564.6682,83.45861
565.1503,81.32879
565.6324,79.40974
566.1145,77.8312
566.5966,76.63863
567.0787,75.22158
567.5609,73.39258
568.043,71.33973
568.5251,69.4619
569.0072,67.74208
569.4893,66.17911
569.9714,64.8297
570.4536,63.58931
570.9357,62.26616
571.4178,60.873
571.8999,59.57716
572.382,58.57106
572.8641,57.67549
573.3463,56.74373
573.8284,55.70931
574.3105,54.71667
574.7926,53.76357
575.2747,52.89054
575.7568,52.15487
576.239,51.62986
576.7211,51.14152
577.2032,50.72034
577.6853,50.31585
578.1674,49.72728
578.6495,48.85121
579.1317,48.09777
579.6138,47.67449
580.0959,47.54003
580.578,47.37059
581.0601,47.16678
581.5422,46.9074
582.0244,46.50367
582.5065,46.03426
582.9886,45.70535
583.4707,45.54714
583.9528,45.48546
584.4349,45.51792
584.9171,45.58675
585.3992,45.60583
585.8813,45.51351
586.3634,45.39881
586.8455,45.28242
587.3276,45.16977
587.8098,45.08126
588.2919,45.03334
588.774,44.99651
589.2561,44.95284
589.7382,44.90116
590.2203,44.92543
590.7025,45.12395
591.1846,45.22185
591.6667,44.94917
592.1488,44.25906
592.6309,43.90382
593.113,43.95465
593.5952,44.16241
594.0773,44.2569
594.5594,44.25703
595.0415,44.22361
595.5236,44.14505
596.0057,44.09282
596.4879,44.17152
596.97,44.33924
597.4521,44.49712
597.9342,44.63408
598.4163,44.71802
598.8984,44.70964
599.3806,44.61891
599.8627,44.53651
600.3448,44.4075
600.8269,44.35804
601.309,44.48589
601.7911,44.89116
602.2733,45.05113
602.7554,44.82487
603.2375,44.55138
603.7196,44.57951
604.2017,44.94484
604.6838,45.25318
605.166,45.46128
605.6481,45.59483
606.1302,45.69362
606.6123,45.75317
607.0944,45.74784
607.5765,45.6224
608.0587,45.4734
608.5408,45.44536
609.0229,45.49755
609.505,45.48343
609.9871,45.22284
610.4692,44.95629
610.9514,44.84069
611.4335,44.89262
611.9156,44.9484
612.3977,44.89574
612.8798,44.89974
613.3619,45.07467
613.8441,45.56867
614.3262,45.87576
614.8083,45.94993
615.2904,45.90462
615.7725,45.86496
616.2546,45.83089
616.7368,45.81871
617.2189,45.85044
617.701,45.87305
618.1831,45.70745
618.6652,45.42356
619.1473,45.3056
619.6295,45.68624
620.1116,46.16877
620.5937,46.28059
621.0758,46.10202
621.5579,46.04268
622.04,46.44225
622.5222,46.91004
623.0043,47.23975
623.4864,47.40611
623.9685,47.46273
624.4506,47.35323
624.9327,47.18894
625.4149,47.01921
625.897,46.78822
626.3791,46.74693
626.8612,46.96598
627.3433,47.27129
627.8254,47.37758
628.3076,47.29897
628.7897,47.35294
629.2718,47.658
629.7539,48.07019
630.236,48.36968
630.7181,48.58231
631.2003,48.78507
631.6824,49.05586
632.1645,49.30202
632.6466,49.41702
633.1287,49.42452
633.6108,49.47539
634.093,49.56319
634.5751,49.75773
635.0572,50.15061
635.5393,50.82414
636.0214,51.27218
636.5035,51.38871
636.9857,51.40905
637.4678,51.48624
637.9499,51.61294
638.432,51.85097
638.9141,52.2141
639.3962,52.65296
639.8784,53.16636
640.3605,53.71237
640.8426,54.0957
641.3247,54.14359
641.8068,54.21906
642.2889,54.79817
642.7711,55.70742
643.2532,56.56759
643.7353,57.11062
644.2174,57.65086
644.6995,58.43206
645.1816,59.38893
645.6638,60.08789
646.1459,60.08889
646.628,60.20457
647.1101,60.73076
647.5922,61.68446
648.0743,62.68154
648.5565,63.74477
649.0386,64.77279
649.5207,65.55978
650.0028,66.16222
650.4849,67.14899
650.967,68.58617
651.4492,70.16169
651.9313,71.61269
652.4134,72.94061
652.8955,74.07553
653.3776,74.86662
653.8597,75.81714
654.3419,77.37518
654.824,79.27224
655.3061,81.07189
655.7882,82.51257
656.2703,84.01487
656.7524,85.62931
657.2346,87.37462
657.7167,89.33656
658.1988,91.5959
658.6809,93.88966
659.163,96.10622
659.6451,98.28188
660.1273,100.6231
660.6094,103.1625
661.0915,105.7971
661.5736,108.4697
662.0557,111.2165
662.5378,114.062
663.02,117.0083
663.5021,120.2194
663.9842,123.9748
664.4663,127.9712
664.9484,131.8511
665.4305,135.4663
665.9127,139.2967
666.3948,143.4918
666.8769,147.9464
667.359,152.5788
667.8411,157.4433
668.3232,162.2903
668.8054,167.0488
669.2875,171.7751
669.7696,176.5187
670.2517,181.2787
670.7338,186.1095
671.2159,190.972
671.6981,195.9014
672.1802,201.0082
672.6623,206.1999
673.1444,211.3372
673.6265,216.2764
674.1086,221.1121
674.5908,226.0945
675.0729,231.0867
675.555,235.4938
676.0371,238.7328
676.5192,241.694
677.0013,244.8958
677.4835,248.4239
677.9656,251.4913
678.4477,254.1577
678.9298,256.3051
679.4119,257.7865
679.894,258.6128
680.3762,259.1298
680.8583,259.3917
681.3404,259.1155
681.8225,257.8495
682.3046,255.8564
682.7867,253.6976
683.2689,251.5963
683.751,249.0182
684.2331,245.2984
684.7152,241.0135
685.1973,236.9839
685.6794,234.0643
686.1616,230.5941
686.6437,225.937
687.1258,220.6174
687.6079,215.6059
688.09,211.0755
688.5721,206.5766
689.0543,202.1106
689.5364,197.5993
690.0185,192.5925
690.5006,187.1295
690.9827,181.8278
691.4648,176.835
691.947,172.2351
692.4291,168.3001
692.9112,164.8835
693.3933,161.1869
693.8754,156.2587
694.3575,151.259
694.8397,146.9552
695.3218,143.4364
695.8039,140.0446
696.286,136.6237
696.7681,133.3451
697.2502,130.2895
697.7324,127.5268
698.2145,124.6952
698.6966,121.7406
699.1787,118.8701
699.6608,116.3001
700.1429,114.0089
700.6251,111.7809
701.1072,109.5869
701.5893,107.4615
702.0714,105.3591
702.5535,103.3705
703.0356,101.6463
703.5178,100.4178
703.9999,99.16169
704.482,97.63296
704.9641,95.97239
705.4462,94.3645
705.9283,92.64808
706.4105,91.26835
706.8926,90.38083
707.3747,89.80294
707.8568,89.13557
708.3389,88.38093
708.821,87.46624
709.3032,86.28344
709.7853,85.00198
710.2674,84.02975
710.7495,83.29057
711.2316,82.5007
711.7137,81.29457
712.1959,80.15312
712.678,79.47456
713.1601,79.21446
713.6422,79.00223
714.1243,78.87781
714.6064,78.63223
715.0886,78.15784
715.5707,77.44367
716.0528,76.76563
716.5349,76.11535
717.017,75.50951
717.4991,74.92688
717.9813,74.38471
718.4634,74.01687
718.9455,73.83591
719.4276,73.66462
719.9097,73.29092
720.3918,72.85954
720.874,72.60439
721.3561,72.59343
721.8382,72.52502
722.3203,72.26229
722.8024,71.87219
723.2845,71.39469
723.7667,70.58938
724.2488,70.15431
724.7309,70.29988
725.213,70.5862
725.6951,70.47131
726.1772,69.9276
726.6594,69.39724
727.1415,68.92653
727.6236,68.57222
728.1057,68.52143
728.5878,68.65089
729.0699,68.62574
729.5521,68.22817
730.0342,67.81867
730.5163,67.71204
730.9984,67.74926
731.4805,67.64668
731.9626,67.18217
732.4448,66.75172
732.9269,66.39088
733.409,66.11726
733.8911,66.02512
734.3732,66.17918
734.8553,66.25565
735.3375,66.16021
735.8196,65.91515
736.3017,65.49184
736.7838,64.93206
737.2659,64.49084
737.748,64.37465
738.2302,64.39098
738.7123,64.40058
739.1944,64.39235
739.6765,64.3307
740.1586,64.09093
740.6407,63.9002
741.1229,63.92909
741.605,64.16033
742.0871,64.13586
742.5692,63.71416
743.0513,63.37008
743.5334,63.38437
744.0156,63.71489
744.4977,64.06681
744.9798,64.44212
745.4619,64.64478
745.944,64.40768
746.4261,63.96798
746.9083,63.60926
747.3904,63.35775
747.8725,63.12386
748.3546,62.7457
748.8367,62.4604
749.3188,62.48636
749.801,62.98344
750.2831,63.22233
750.7652,63.11056
751.2473,62.8806
751.7294,62.68625
752.2115,62.52945
752.6937,62.46749
753.1758,62.51918
753.6579,62.56273
754.14,62.47306
754.6221,62.29245
755.1042,62.07427
755.5864,61.81598
756.0685,61.58621
756.5506,61.38093
757.0327,61.24548
757.5148,61.23332
757.9969,61.50026
758.4791,61.64862
758.9612,61.6038
759.4433,61.52236
759.9254,61.65891
760.4075,62.03368
760.8896,62.11644
761.3718,61.75597
761.8539,61.30608
762.336,61.25779
762.8181,61.46669
763.3002,61.63796
763.7823,61.70076
764.2645,61.67737
764.7466,61.4844
765.2287,61.24287
765.7108,61.1313
766.1929,61.24459
766.675,61.41438
767.1572,61.71305
767.6393,61.99746
768.1214,61.91361
768.6035,61.42225
769.0856,61.17571
769.5677,61.4251
770.0499,61.82873
770.532,61.77034
771.0141,61.43469
771.4962,61.29784
771.9783,61.84119
772.4604,62.34211
772.9426,62.38419
773.4247,62.10785
773.9068,61.82985
774.3889,61.50605
774.871,61.30141
775.3531,61.23228
775.8353,61.30635
776.3174,61.61658
776.7995,62.17693
777.2816,62.62851
777.7637,62.8429
778.2458,62.87063
778.728,62.66917
779.2101,62.33304
779.6922,62.16645
780.1743,62.53446
780.6564,62.89373
781.1385,62.91769
781.6207,62.68372
782.1028,62.55081
782.5849,62.56051
783.067,62.63918
783.5491,62.76567
784.0313,62.94689
784.5134,63.29088
784.9955,63.8053
785.4776,64.10654
785.9597,63.87571
786.4418,63.42648
786.924,63.23781
787.4061,63.26362
787.8882,63.34032
788.3703,63.36455
788.8524,63.43963
789.3345,63.70258
789.8167,64.10457
790.2988,64.24966
790.7809,63.98929
791.263,63.7375
791.7451,63.62181
792.2272,63.62829
792.7094,63.75037
793.1915,63.9783
793.6736,64.07893
794.1557,63.72433
794.6378,63.28604
795.1199,63.31278
795.6021,63.70943
796.0842,64.0315
796.5663,64.04244
797.0484,63.97679
797.5305,63.87862
798.0126,63.76948
798.4948,63.84417
798.9769,64.21297
799.459,64.49068
799.9411,64.48564
800.4232,64.27097
800.9053,64.02377
801.3875,63.77248
801.8696,63.79614
802.3517,64.65694
802.8338,65.59235
803.3159,65.80997
803.798,65.38723
804.2802,64.87646
804.7623,64.09045
805.2444,63.64289
805.7265,63.94705
806.2086,64.86471
806.6907,65.07375
807.1729,64.37466
807.655,63.82792
808.1371,64.09108
808.6192,64.80242
809.1013,64.93775
809.5834,64.59206
810.0656,64.30688
810.5477,64.53172
811.0298,64.81943
811.5119,64.75852
811.994,64.41782
812.4761,64.41056
812.9583,65.3672
813.4404,65.96719
813.9225,65.64993
814.4046,64.62447
814.8867,64.15838
815.3688,64.27562
815.851,64.54263
816.3331,64.82108
816.8152,65.06091
817.2973,65.21929
817.7794,65.27422
818.2615,65.13308
818.7437,64.39232
819.2258,63.7933
819.7079,63.80531
820.19,64.33543
820.6721,64.59136
821.1542,64.44642
821.6364,64.30946
822.1185,64.32561
822.6006,64.44228
823.0827,64.49401
823.5648,64.48457
824.0469,64.44462
824.5291,64.35969
825.0112,64.27705
825.4933,64.25684
825.9754,64.27895
826.4575,64.27722
826.9396,64.25014
827.4218,64.1697
827.9039,63.96899
828.386,63.71911
828.8681,63.7069
829.3502,63.98874
829.8323,64.16149
830.3145,64.02517
830.7966,63.77926
831.2787,63.83158
831.7608,64.10293
832.2429,64.34658
832.725,64.38178
833.2072,64.42839
833.6893,64.72881
834.1714,65.12797
834.6535,65.18539
835.1356,64.62279
835.6177,64.19226
836.0999,64.02501
836.582,64.05915
837.0641,64.18822
837.5462,64.40468
838.0283,64.63496
838.5104,64.8992
838.9926,65.08656
839.4747,65.07117
839.9568,64.89277
840.4389,64.61885
840.921,63.96227
841.4031,63.59509
841.8853,63.87234
842.3674,64.41592
842.8495,64.68497
843.3316,64.60514
843.8137,64.65643
844.2958,64.98196
844.778,65.29089
845.2601,65.02983
845.7422,64.42488
846.2243,64.01479
846.7064,63.96476
847.1885,64.0831
847.6707,64.4857
848.1528,64.89355
848.6349,64.9595
849.117,64.37061
849.5991,63.9614
850.0812,63.75621
850.5634,63.71803
851.0455,63.90738
851.5276,64.27138
852.0097,64.3635
852.4918,64.10105
852.9739,63.7512
853.4561,63.42929
853.9382,63.22375
854.4203,63.28901
854.9024,63.78138
855.3845,64.09667
855.8666,64.02403
856.3488,63.82111
856.8309,63.62971
857.313,63.43782
857.7951,63.31123
858.2772,63.24314
858.7593,63.28828
859.2415,63.73473
859.7236,64.23341
860.2057,64.04266
860.6878,63.10873
861.1699,62.39401
861.652,62.66091
862.1342,63.04247
862.6163,62.91786
863.0984,62.25228
863.5805,62.00469
864.0626,62.33801
864.5447,62.61935
865.0269,62.44165
865.509,61.93806
865.9911,61.55579
866.4732,61.28442
866.9553,61.0368
867.4374,60.77671
867.9196,60.50924
868.4017,60.20695
868.8838,59.88784
869.3659,59.68835
869.848,59.65496
870.3301,59.67846
870.8123,59.7582
871.2944,59.85653
871.7765,59.86771
872.2586,59.78841
872.7407,59.57455
873.2228,59.11072
873.705,58.61383
874.1871,58.31855
874.6692,58.16156
875.1513,58.00073
875.6334,57.75218
876.1155,57.55496
876.5977,57.47404
877.0798,57.43016
877.5619,57.26573
878.044,56.97123
878.5261,56.69535
879.0082,56.45972
879.4904,56.26936
879.9725,56.20858
880.4546,56.1729
880.9367,55.93776
881.4188,55.23979
881.9009,54.78465
882.3831,55.16084
882.8652,55.68767
883.3473,55.64481
883.8294,54.83182
884.3115,54.22865
884.7936,53.88154
885.2758,53.69507
885.7579,53.71547
886.24,53.79493
886.7221,53.52771
887.2042,52.84652
887.6863,52.22316
888.1685,51.92048
888.6506,51.7731
889.1327,51.70474
889.6148,51.72934
890.0969,51.63285
890.579,51.37141
891.0612,51.09509
891.5433,50.8589
892.0254,50.67957
892.5075,50.73602
892.9896,50.97734
893.4717,51.00328
893.9539,50.2962
894.436,49.53182
894.9181,49.19253
895.4002,49.22649
895.8823,49.20848
896.3644,49.10307
896.8466,48.961
897.3287,48.80196
897.8108,48.61096
898.2929,48.29805
898.775,47.89215
899.2571,47.56528
899.7393,47.3847
900.2214,47.30583
900.7035,47.39466
901.1856,47.53625
901.6677,47.53582
902.1498,47.20553
902.632,46.92276
903.1141,46.7021
903.5962,46.54426
904.0783,46.5029
904.5604,46.56002
905.0425,46.42997
905.5247,46.02892
906.0068,45.70698
906.4889,45.98003
906.971,46.41764
907.4531,46.51055
907.9352,46.06933
908.4174,45.69465
908.8995,45.493
909.3816,45.35579
909.8637,45.235
910.3458,45.12919
910.8279,44.96883
911.3101,44.75148
911.7922,44.5971
912.2743,44.6427
912.7564,44.76307
913.2385,44.80625
913.7206,44.78329
914.2028,44.81993
914.6849,45.15501
915.167,45.30875
915.6491,45.05704
916.1312,44.53624
916.6133,44.29958
917.0955,44.35168
917.5776,44.39623
918.0597,44.33392
918.5418,44.19623
919.0239,43.94481
919.506,43.65882
919.9882,43.49428
920.4703,43.70771
920.9524,43.76499
921.4345,43.43523
921.9166,43.028
922.3987,42.98471
922.8809,43.34019
923.363,43.44828
923.8451,43.20374
924.3272,42.89883
924.8093,42.86937
925.2914,42.95924
925.7736,42.95774
926.2557,42.81765
926.7378,42.68944
927.2199,42.60999
927.702,42.56379
928.1841,42.55679
928.6663,42.58922
929.1484,42.57859
929.6305,42.52428
930.1126,42.44368
930.5947,42.31927
931.0768,42.19232
931.559,42.1358
932.0411,42.12893
932.5232,42.08773
933.0053,42.0344
933.4874,41.86686
933.9695,41.46109
934.4517,40.97767
934.9338,40.86533
935.4159,41.13469
935.898,41.2652
936.3801,41.05876
936.8622,40.8119
937.3444,40.93695
937.8265,41.23338
938.3086,41.387
938.7907,41.1272
939.2728,41.11061
939.7549,41.74959
940.2371,42.35544
940.7192,42.29534
941.2013,41.54312
941.6834,40.96294
942.1655,40.58362
942.6476,40.38263
943.1298,40.46518
943.6119,40.64138
944.094,40.67491
944.5761,40.56054
945.0582,40.56087
945.5403,40.91878
946.0225,41.17785
946.5046,41.18715
946.9867,40.98971
947.4688,40.68748
947.9509,40.29945
948.433,40.06378
948.9152,40.15052
949.3973,40.33762
949.8794,40.42736
950.3615,40.46144
950.8436,40.51412
951.3257,40.65136
951.8079,40.73572
952.29,40.74577
952.7721,40.72045
953.2542,40.70567
953.7363,40.69865
954.2184,40.65992
954.7006,40.57872
955.1827,40.54926
955.6648,40.71804
956.1469,40.92413
956.629,41.04561
957.1111,41.07092
957.5933,40.92981
958.0754,40.45422
958.5575,40.16001
959.0396,40.39971
959.5217,40.97023
960.0038,41.13222
960.486,40.95445
960.9681,40.79438
961.4502,40.93614
961.9323,41.05649
962.4144,40.87176
962.8965,40.54451
963.3787,40.4453
963.8608,40.66604
964.3429,40.9229
964.825,41.22654
965.3071,41.45434
965.7892,41.33362
966.2714,41.01705
966.7535,40.91172
967.2356,41.11723
967.7177,41.31041
968.1998,41.25169
968.6819,41.16594
969.1641,41.2361
969.6462,41.48232
970.1283,41.60588
970.6104,41.59486
971.0925,41.53637
971.5746,41.42704
972.0568,41.3336
972.5389,41.44915
973.021,41.69571
973.5031,41.81248
973.9852,41.53504
974.4673,41.29871
974.9495,41.25879
975.4316,41.317
975.9137,41.30405
976.3958,41.21458
976.8779,41.15678
977.36,41.14795
977.8422,41.1833
978.3243,41.34103
978.8064,41.4986
979.2885,41.46485
979.7706,41.15041
980.2527,40.94474
980.7349,40.92906
981.217,41.00697
981.6991,41.17405
982.1812,41.40232
982.6633,41.4268
983.1454,41.26765
983.6276,41.15716
984.1097,41.28189
984.5918,41.46156
985.0739,41.59581
985.556,41.67526
986.0381,41.66523
986.5203,41.4939
987.0024,41.40858
987.4845,41.49083
987.9666,41.57201
988.4487,41.28598
988.9308,40.80395
989.413,40.66713
989.8951,41.00861
990.3772,41.36541
990.8593,41.49803
991.3414,41.52008
991.8235,41.49169
992.3057,41.41338
992.7878,41.38441
993.2699,41.41339
993.752,41.43526
994.2341,41.39561
994.7162,41.3412
995.1984,41.3952
995.6805,41.50277
996.1626,41.51304
996.6447,41.17427
997.1268,40.99174
997.6089,41.19219
998.0911,41.4983
998.5732,41.4481
999.0553,41.04702
999.5374,40.98952
1000.02,41.39988
1000.502,41.80549
1000.984,41.76647
1001.466,41.50927
1001.948,41.19606
1002.43,40.83467
1002.912,40.65614
1003.394,40.78827
1003.876,40.86924
1004.359,40.71905
1004.841,40.42933
1005.323,40.28392
1005.805,40.25412
1006.287,40.22812
1006.769,40.14928
1007.251,40.07123
1007.733,40.10154
1008.216,40.10826
1008.698,39.90636
1009.18,39.42969
1009.662,38.94527
1010.144,38.4328
1010.626,38.08253
1011.108,38.28358
1011.59,38.67836
1012.072,38.74391
1012.555,38.44867
1013.037,37.98685
1013.519,37.0369
1014.001,36.4098
1014.483,36.50509
1014.965,37.05223
1015.447,37.07974
1015.929,36.64088
1016.411,36.30286
1016.894,36.29218
1017.376,36.34529
1017.858,36.2352
1018.34,36.05311
1018.822,35.91235
1019.304,35.83415
1019.786,35.79379
1020.268,35.8232
1020.751,35.80681
1021.233,35.58663
1021.715,35.26742
1022.197,35.14855
1022.679,35.20737
1023.161,35.28181
1023.643,35.37669
1024.125,35.37363
1024.607,35.15015
1025.09,34.82519
1025.572,34.62116
1026.054,34.53631
1026.536,34.64364
1027.018,35.00765
1027.5,35.32956
1027.982,35.16985
1028.464,34.85502
1028.947,34.79747
1029.429,35.13607
1029.911,35.3189
1030.393,35.20803
1030.875,35.13318
1031.357,35.27977
1031.839,35.5821
1032.321,35.857
1032.803,36.09082
1033.286,36.2348
1033.768,36.20338
1034.25,36.14449
1034.732,36.04468
1035.214,35.99654
1035.696,36.15069
1036.178,36.56294
1036.66,36.86599
1037.143,37.02724
1037.625,37.14848
1038.107,37.31531
1038.589,37.50816
1039.071,37.68695
1039.553,37.85488
1040.035,38.08802
1040.517,38.42434
1041.0,38.7979
1041.482,39.20066
1041.964,39.61237
1042.446,39.99146
1042.928,40.33048
1043.41,40.54889
1043.892,40.53363
1044.374,40.66275
1044.856,41.31517
1045.339,42.10734
1045.821,42.70274
1046.303,43.07374
1046.785,43.37885
1047.267,43.60703
1047.749,43.85946
1048.231,44.18393
1048.713,44.57695
1049.195,45.06226
1049.677,45.61388
1050.16,46.14618
1050.642,46.78627
1051.124,47.14806
1051.606,47.04942
1052.088,46.86896
1052.57,47.18346
1053.052,47.86034
1053.534,48.35497
1054.017,48.5985
1054.499,48.82848
1054.981,49.21574
1055.463,49.61721
1055.945,49.98048
1056.427,50.2881
1056.909,50.39026
1057.391,50.27282
1057.874,50.10926
1058.356,49.93142
1058.838,49.79313
1059.32,49.82854
1059.802,49.91912
1060.284,49.88762
1060.766,49.62111
1061.248,49.41541
1061.73,49.32183
1062.213,49.21114
1062.695,48.98677
1063.177,48.67037
1063.659,48.32434
1064.141,47.95268
1064.623,47.58117
1065.105,47.28065
1065.587,46.91404
1066.07,46.32339
1066.552,45.68205
1067.034,45.28039
1067.516,45.12897
1067.998,44.92428
1068.48,44.63691
1068.962,44.25969
1069.444,43.6865
1069.927,43.09503
1070.409,42.64156
1070.891,42.3501
1071.373,42.10697
1071.855,41.96272
1072.337,41.70324
1072.819,41.22032
1073.301,40.64996
1073.783,40.12758
1074.266,39.71893
1074.748,39.61339
1075.23,40.06658
1075.712,40.23809
1076.194,39.62874
1076.676,38.98719
1077.158,38.76029
1077.64,38.9123
1078.122,39.09135
1078.604,39.29319
1079.087,39.48221
1079.569,39.6484
1080.051,39.78485
1080.533,39.86634
1081.015,39.91936
1081.497,39.97705
1081.979,40.00835
1082.461,40.21829
1082.944,40.64594
1083.426,41.08313
1083.908,41.29149
1084.39,41.41685
1084.872,41.60935
1085.354,41.88296
1085.836,42.24417
1086.318,42.73561
1086.801,43.25463
1087.283,43.8283
1087.765,44.33801
1088.247,44.49535
1088.729,44.41976
1089.211,44.46058
1089.693,44.75103
1090.175,44.84449
1090.657,44.32882
1091.14,43.7817
1091.622,43.56144
1092.104,43.60182
1092.586,43.35779
1093.068,42.84305
1093.55,42.24712
1094.032,41.65925
1094.514,41.0052
1094.997,40.21949
1095.479,39.34011
1095.961,38.40215
1096.443,37.38851
1096.925,36.33595
1097.407,35.20315
1097.889,34.26552
1098.371,33.98498
1098.854,33.86476
1099.336,33.27301
1099.818,32.27799
1100.3,31.21095
1100.782,29.94917
1101.264,28.97128
1101.746,28.38956
1102.228,28.02287
1102.71,27.72225
1103.193,27.43374
1103.675,26.94284
1104.157,26.22836
1104.639,25.70364
1105.121,25.75079
1105.603,25.79355
1106.085,25.61338
1106.567,25.26626
1107.049,24.87105
1107.531,24.44595
1108.014,24.19152
1108.496,24.20172
1108.978,24.23203
1109.46,24.16906
1109.942,24.00136
1110.424,23.66575
1110.906,23.14832
1111.388,22.90399
1111.871,22.94953
1112.353,23.03075
1112.835,23.05927
1113.317,23.0132
1113.799,22.80179
1114.281,22.52114
1114.763,22.32983
1115.245,22.29593
1115.728,22.27495
1116.21,22.27236
1116.692,22.26508
1117.174,22.26145
1117.656,22.22697
1118.138,22.0595
1118.62,21.79501
1119.102,21.58497
1119.584,21.20657
1120.067,21.36493
1120.549,22.48287
1121.031,23.6787
1121.513,23.63007
1121.995,22.66376
1122.477,21.84373
1122.959,21.26984
1123.441,20.87035
1123.924,20.66081
1124.406,20.57053
1124.888,20.62232
1125.37,20.73315
1125.852,20.6454
1126.334,20.37885
1126.816,20.15711
1127.298,20.02971
1127.781,19.97149
1128.263,20.05596
1128.745,20.13015
1129.227,20.00277
1129.709,19.69076
1130.191,19.71107
1130.673,20.09016
1131.155,20.38491
1131.637,20.39404
1132.12,20.28489
1132.602,20.19832
1133.084,20.12007
1133.566,20.03155
1134.048,19.92425
1134.53,19.83192
1135.012,19.76704
1135.494,19.66348
1135.976,19.40025
1136.458,19.12137
1136.941,19.10196
1137.423,19.25351
1137.905,19.36003
1138.387,19.36451
1138.869,19.30865
1139.351,19.18594
1139.833,19.02303
1140.315,18.7998
1140.798,18.57157
1141.28,18.48655
1141.762,18.53261
1142.244,18.60036
1142.726,18.56651
1143.208,18.67573
1143.69,19.07392
1144.172,19.51967
1144.655,19.65334
1145.137,19.5158
1145.619,19.21755
1146.101,18.7709
1146.583,18.43231
1147.065,18.1726
1147.547,18.2776
1148.029,19.10484
1148.511,20.2502
1148.994,20.47754
1149.476,19.8786
1149.958,19.24549
1150.44,18.72667
1150.922,18.34738
1151.404,18.16326
1151.886,18.09631
1152.368,18.116
1152.851,18.20479
1153.333,18.22809
1153.815,18.18526
1154.297,18.1527
1154.779,18.16263
1155.261,18.18394
1155.743,18.14717
1156.225,18.12907
1156.708,18.26604
1157.19,18.61321
1157.672,18.67942
1158.154,18.43344
1158.636,18.17668
1159.118,18.07502
1159.6,18.05323
1160.082,18.04823
1160.564,18.05879
1161.047,18.08526
1161.529,18.14881
1162.011,18.17292
1162.493,18.14823
1162.975,18.12325
1163.457,18.18375
1163.939,18.23406
1164.421,18.08771
1164.903,17.81529
1165.385,17.63417
1165.868,17.63563
1166.35,17.64737
1166.832,17.64474
1167.314,17.68388
1167.796,17.9415
1168.278,18.22477
1168.76,18.07488
1169.242,17.56138
1169.725,17.27706
1170.207,17.67413
1170.689,17.89857
1171.171,17.77584
1171.653,17.52121
1172.135,17.41796
1172.617,17.42242
1173.099,17.44667
1173.582,17.47987
1174.064,17.50312
1174.546,17.49601
1175.028,17.49533
1175.51,17.5114
1175.992,17.53745
1176.474,17.54612
1176.956,17.55429
1177.438,17.63901
1177.921,17.83375
1178.403,17.92924
1178.885,17.69953
1179.367,17.51806
1179.849,17.56078
1180.331,17.73778
1180.813,17.75986
1181.295,17.66944
1181.778,17.63308
1182.26,17.71676
1182.742,17.78393
1183.224,17.79909
1183.706,17.74576
1184.188,17.58076
1184.67,17.34298
1185.152,17.27196
1185.635,17.34021
1186.117,17.40701
1186.599,17.43133
1187.081,17.41853
1187.563,17.28447
1188.045,17.19404
1188.527,17.31656
1189.009,17.62113
1189.491,17.67431
1189.974,17.509
1190.456,17.36341
1190.938,17.32993
1191.42,17.37973
1191.902,17.60426
1192.384,17.82867
1192.866,17.86259
1193.348,17.70067
1193.83,17.59704
1194.313,17.55467
1194.795,17.60083
1195.277,17.9559
1195.759,18.17589
1196.241,17.82802
1196.723,17.31655
1197.205,17.1731
1197.687,17.40875
1198.169,17.59655
1198.652,17.71683
1199.134,17.78254
1199.616,17.81459
1200.098,17.78042
1200.58,17.55956
1201.062,17.30631
1201.544,17.30079
1202.026,17.55187
1202.509,17.72123
1202.991,17.77942
1203.473,17.75623
1203.955,17.57414
1204.437,17.41621
1204.919,17.44277
1205.401,17.56837
1205.883,17.60904
1206.365,17.56367
1206.848,17.4616
1207.33,17.29913
1207.812,17.2096
1208.294,17.3495
1208.776,17.54758
1209.258,17.72132
1209.74,17.85116
1210.222,17.86872
1210.705,17.77301
1211.187,17.67496
1211.669,17.59669
1212.151,17.49873
1212.633,17.2509
1213.115,17.062
1213.597,17.19187
1214.079,17.50947
1214.562,17.48084
1215.044,17.11754
1215.526,16.96433
1216.008,17.18108
1216.49,17.42657
1216.972,17.44388
1217.454,17.37186
1217.936,17.29312
1218.418,17.21799
1218.901,17.19173
1219.383,17.21165
1219.865,17.21701
1220.347,17.17459
1220.829,17.17794
1221.311,17.40745
1221.793,17.60691
1222.275,17.51696
1222.757,17.20999
1223.24,17.30706
1223.722,17.76688
1224.204,18.04404
1224.686,17.91686
1225.168,17.68412
1225.65,17.42999
1226.132,17.25766
1226.614,17.25495
1227.096,17.40109
1227.579,17.55314
1228.061,17.69736
1228.543,17.69504
1229.025,17.41837
1229.507,17.16195
1229.989,17.07064
1230.471,17.10248
1230.953,17.25612
1231.436,17.50596
1231.918,17.59577
1232.4,17.54128
1232.882,17.43983
1233.364,17.25737
1233.846,17.17772
1234.328,17.42275
1234.81,17.68401
1235.292,17.72465
1235.775,17.57482
1236.257,17.4746
1236.739,17.41584
1237.221,17.34833
1237.703,17.17719
1238.185,17.11223
1238.667,17.34285
1239.149,17.60087
1239.632,17.68599
1240.114,17.63
1240.596,17.61695
1241.078,17.64378
1241.56,17.69821
1242.042,17.83457
1242.524,17.90305
1243.006,17.8039
1243.489,17.71292
1243.971,17.81483
1244.453,18.03907
1244.935,18.06405
1245.417,17.9387
1245.899,17.84575
1246.381,17.94799
1246.863,17.94699
1247.345,17.74094
1247.828,17.54221
1248.31,17.58223
1248.792,17.75501
1249.274,17.7507
1249.756,17.62209
1250.238,17.56116
1250.72,17.74485
1251.202,17.82501
1251.684,17.74418
1252.167,17.63403
1252.649,17.61963
1253.131,17.64997
1253.613,17.59756
1254.095,17.50075
1254.577,17.49296
1255.059,17.73439
1255.541,17.80171
1256.023,17.62275
1256.506,17.44171
1256.988,17.5356
1257.47,17.71504
1257.952,17.67258
1258.434,17.48962
1258.916,17.44058
1259.398,17.64235
1259.88,17.70201
1260.363,17.57276
1260.845,17.45027
1261.327,17.57915
1261.809,17.73135
1262.291,17.60961
1262.773,17.33036
1263.255,17.22117
1263.737,17.32989
1264.219,17.43682
1264.702,17.52935
1265.184,17.59315
1265.666,17.59191
1266.148,17.58306
1266.63,17.62208
1267.112,17.68209
1267.594,17.71218
1268.076,17.71402
1268.559,17.64179
1269.041,17.49393
1269.523,17.38825
1270.005,17.45809
1270.487,17.53596
1270.969,17.47781
1271.451,17.39691
1271.933,17.49039
1272.416,17.73408
1272.898,17.75495
1273.38,17.55781
1273.862,17.49234
1274.344,18.0556
1274.826,18.39571
1275.308,18.06623
1275.79,17.56334
1276.272,17.58128
1276.755,17.95483
1277.237,18.02074
1277.719,17.78835
1278.201,17.61474
1278.683,17.77441
1279.165,17.83669
1279.647,17.69903
1280.129,17.49105
1280.611,17.29524
1281.094,17.15932
1281.576,17.24595
1282.058,17.50527
1282.54,17.66266
1283.022,17.63531
1283.504,17.4971
1283.986,17.21456
1284.468,16.96185
1284.95,16.95095
1285.433,17.04726
1285.915,17.07967
1286.397,17.06183
1286.879,17.07364
1287.361,17.11405
1287.843,17.2219
1288.325,17.41212
1288.807,17.57091
1289.29,17.58513
1289.772,17.53952
1290.254,17.463
1290.736,17.3976
1291.218,17.4301
1291.7,17.56814
1292.182,17.73388
1292.664,17.92085
1293.146,17.99335
1293.629,17.67636
1294.111,17.41564
1294.593,17.54978
1295.075,17.83492
1295.557,18.01082
1296.039,18.07732
1296.521,17.97506
1297.003,17.72848
1297.486,17.56651
1297.968,17.70682
1298.45,17.82443
1298.932,17.8329
1299.414,17.79551
1299.896,17.75181
1300.378,17.72579
1300.86,17.84802
1301.343,18.06561
1301.825,18.14074
