Raman Shift,Intensity
92.04205,4327.583
92.52417,4322.346
93.00629,4305.948
93.4884,4257.51
93.97052,4162.117
94.45264,4031.355
94.93475,3925.888
95.41687,3836.466
95.89898,3772.002
96.3811,3719.216
96.86321,3665.784
97.34533,3603.845
97.82745,3530.581
98.30956,3469.995
98.79168,3424.477
99.2738,3385.186
99.75591,3350.578
100.238,3319.469
100.7201,3290.562
101.2023,3264.082
101.6844,3238.494
102.1665,3209.228
102.6486,3171.305
103.1307,3132.352
103.6128,3097.869
104.095,3066.734
104.5771,3043.346
105.0592,3034.624
105.5413,3033.965
106.0234,3032.204
106.5055,3019.246
106.9877,3000.804
107.4698,3002.112
107.9519,3037.258
108.434,3076.172
108.9161,3114.019
109.3982,3146.407
109.8804,3164.625
110.3625,3159.448
110.8446,3127.517
111.3267,3088.851
111.8088,3049.499
112.2909,2999.585
112.7731,2929.302
113.2552,2839.979
113.7373,2742.56
114.2194,2652.874
114.7015,2567.178
115.1836,2498.146
115.6658,2448.885
116.1479,2413.418
116.63,2387.587
117.1121,2370.121
117.5942,2358.621
118.0763,2348.06
118.5584,2336.958
119.0406,2329.058
119.5227,2324.667
120.0048,2324.159
120.4869,2328.789
120.969,2339.719
121.4511,2356.413
121.9333,2375.427
122.4154,2396.022
122.8975,2420.075
123.3796,2449.719
123.8617,2485.45
124.3438,2522.957
124.826,2560.031
125.3081,2597.731
125.7902,2636.98
126.2723,2676.922
126.7544,2719.535
127.2365,2769.305
127.7187,2830.14
128.2008,2892.568
128.6829,2950.801
129.165,3009.294
129.6471,3074.1
130.1292,3149.798
130.6114,3235.597
131.0935,3319.608
131.5756,3406.38
132.0577,3487.38
132.5398,3567.651
133.0219,3641.252
133.5041,3696.481
133.9862,3724.158
134.4683,3723.398
134.9504,3690.237
135.4325,3613.654
135.9146,3520.755
136.3968,3419.737
136.8789,3314.281
137.361,3213.038
137.8431,3125.502
138.3252,3051.837
138.8073,2999.653
139.2895,2973.192
139.7716,2966.769
140.2537,2975.339
140.7358,2998.685
141.2179,3033.807
141.7,3078.091
142.1821,3130.115
142.6643,3190.091
143.1464,3262.461
143.6285,3343.876
144.1106,3424.645
144.5927,3510.98
145.0748,3584.459
145.557,3636.508
146.0391,3666.596
146.5212,3671.766
147.0033,3649.255
147.4854,3598.634
147.9675,3523.338
148.4497,3406.907
148.9318,3274.222
149.4139,3132.738
149.896,2985.563
150.3781,2837.045
150.8602,2693.591
151.3424,2549.234
151.8245,2422.347
152.3066,2314.912
152.7887,2220.774
153.2708,2135.178
153.7529,2056.699
154.2351,1985.221
154.7172,1920.816
155.1993,1866.059
155.6814,1817.058
156.1635,1774.447
156.6456,1737.033
157.1278,1704.232
157.6099,1675.844
158.092,1651.181
158.5741,1627.623
159.0562,1603.404
159.5383,1581.928
160.0205,1564.377
160.5026,1550.285
160.9847,1538.684
161.4668,1529.332
161.9489,1522.108
162.431,1515.962
162.9131,1511.268
163.3953,1507.188
163.8774,1503.273
164.3595,1499.543
164.8416,1496.216
165.3237,1493.006
165.8058,1490.526
166.288,1489.976
166.7701,1492.416
167.2522,1496.105
167.7343,1498.736
168.2164,1499.831
168.6985,1502.13
169.1807,1507.469
169.6628,1514.871
170.1449,1523.523
170.627,1533.113
171.1091,1543.741
171.5912,1555.585
172.0734,1568.497
172.5555,1583.138
173.0376,1599.762
173.5197,1618.001
174.0018,1637.292
174.4839,1656.831
174.9661,1677.139
175.4482,1701.306
175.9303,1732.332
176.4124,1764.362
176.8945,1793.917
177.3766,1823.349
177.8588,1856.857
178.3409,1898.293
178.823,1947.834
179.3051,1993.925
179.7872,2037.82
180.2693,2077.201
180.7515,2112.553
181.2336,2142.84
181.7157,2166.041
182.1978,2180.962
182.6799,2187.986
183.162,2179.565
183.6441,2153.766
184.1263,2118.397
184.6084,2075.0
185.0905,2024.825
185.5726,1970.432
186.0547,1913.879
186.5368,1854.743
187.019,1797.042
187.5011,1738.576
187.9832,1683.418
188.4653,1634.936
188.9474,1593.609
189.4296,1556.638
189.9117,1521.496
190.3938,1488.539
190.8759,1459.969
191.358,1436.848
191.8401,1418.039
192.3223,1402.781
192.8044,1391.297
193.2865,1381.668
193.7686,1371.83
194.2507,1362.174
194.7328,1354.827
195.215,1350.8
195.6971,1349.435
196.1792,1349.794
196.6613,1352.509
197.1434,1355.43
197.6255,1355.823
198.1077,1354.929
198.5898,1356.159
199.0719,1362.583
199.554,1372.925
200.0361,1381.155
200.5182,1384.151
201.0004,1389.483
201.4825,1401.359
201.9646,1418.396
202.4467,1436.954
202.9288,1453.926
203.4109,1469.634
203.893,1489.228
204.3752,1514.642
204.8573,1542.385
205.3394,1571.02
205.8215,1600.663
206.3036,1632.071
206.7857,1665.704
207.2679,1701.585
207.75,1739.297
208.2321,1780.046
208.7142,1821.712
209.1963,1865.077
209.6784,1908.955
210.1606,1951.094
210.6427,1989.983
211.1248,2025.775
211.6069,2054.549
212.089,2080.046
212.5711,2096.021
213.0533,2099.333
213.5354,2090.55
214.0175,2072.248
214.4996,2046.547
214.9817,2013.17
215.4638,1972.289
215.946,1920.279
216.4281,1865.771
216.9102,1811.522
217.3923,1758.394
217.8744,1706.112
218.3565,1654.271
218.8387,1602.63
219.3208,1557.109
219.8029,1520.008
220.285,1486.104
220.7671,1452.416
221.2492,1418.777
221.7314,1386.361
222.2135,1356.003
222.6956,1328.046
223.1777,1302.561
223.6598,1279.603
224.1419,1258.961
224.624,1240.877
225.1062,1225.255
225.5883,1211.397
226.0704,1199.379
226.5525,1188.963
227.0346,1177.62
227.5167,1163.719
227.9989,1149.777
228.481,1138.289
228.9631,1129.421
229.4452,1121.846
229.9273,1115.498
230.4094,1109.779
230.8916,1102.961
231.3737,1092.981
231.8558,1082.785
232.3379,1076.188
232.82,1073.654
233.3021,1071.456
233.7843,1066.968
234.2664,1061.313
234.7485,1056.13
235.2306,1051.827
235.7127,1048.171
236.1948,1045.112
236.677,1042.913
237.1591,1040.12
237.6412,1034.888
238.1233,1028.964
238.6054,1024.217
239.0875,1021.225
239.5697,1019.653
240.0518,1019.658
240.5339,1022.289
241.016,1023.059
241.4981,1018.06
241.9802,1011.344
242.4624,1006.956
242.9445,1006.623
243.4266,1008.074
243.9087,1007.318
244.3908,1003.523
244.8729,999.7493
245.355,996.2926
245.8372,993.4846
246.3193,991.9474
246.8014,991.9556
247.2835,992.476
247.7656,991.5925
248.2477,988.5717
248.7299,985.8741
249.212,984.1706
249.6941,982.7825
250.1762,981.2194
250.6583,979.3268
251.1404,977.2692
251.6226,975.3028
252.1047,973.5024
252.5868,971.6567
253.0689,969.2859
253.551,967.1635
254.0331,966.0563
254.5153,966.0757
254.9974,966.4523
255.4795,966.0693
255.9616,964.915
256.4437,962.916
256.9258,958.8829
257.408,955.0256
257.8901,952.8317
258.3722,952.543
258.8543,953.3494
259.3364,954.3564
259.8185,956.2452
260.3007,956.4608
260.7828,954.0643
261.2649,951.0935
261.747,948.4493
262.2291,946.4091
262.7112,945.1396
263.1934,944.9393
263.6755,946.2891
264.1576,946.9449
264.6397,946.7111
265.1218,946.0957
265.6039,945.3927
266.0861,944.598
266.5682,943.4248
267.0503,941.4229
267.5324,938.2216
268.0145,936.8002
268.4966,939.4211
268.9788,941.4103
269.4609,939.6759
269.943,934.9503
270.4251,930.4621
270.9072,928.9964
271.3893,930.717
271.8715,930.8864
272.3536,928.4102
272.8357,925.8152
273.3178,924.1118
273.7999,923.1774
274.282,922.4352
274.7642,921.4528
275.2463,920.3035
275.7284,919.9879
276.2105,920.8021
276.6926,921.895
277.1747,923.5178
277.6568,925.2198
278.1389,926.0754
278.6211,925.5809
279.1032,923.8734
279.5853,921.3918
280.0674,916.8604
280.5495,913.1881
281.0316,911.7306
281.5138,911.5492
281.9959,910.8542
282.478,908.7811
282.9601,906.0857
283.4422,904.8121
283.9243,905.3884
284.4065,906.2802
284.8886,907.1729
285.3707,908.2037
285.8528,909.5663
286.3349,911.3274
286.817,913.4579
287.2992,916.1918
287.7813,920.1205
288.2634,922.627
288.7455,922.7161
289.2276,921.3786
289.7097,919.4063
290.1919,916.9276
290.674,914.8195
291.1561,914.3259
291.6382,915.6808
292.1203,916.9088
292.6024,918.2498
293.0846,919.1357
293.5667,918.1865
294.0488,915.3018
294.5309,913.5147
295.013,916.3361
295.4951,923.8282
295.9773,928.9233
296.4594,929.6897
296.9415,929.1934
297.4236,929.4961
297.9057,930.7129
298.3878,932.569
298.87,935.1213
299.3521,938.1796
299.8342,940.5873
300.3163,941.2126
300.7984,942.1992
301.2805,945.1635
301.7627,949.7285
302.2448,954.2313
302.7269,957.9564
303.209,960.9093
303.6911,963.1693
304.1732,963.8966
304.6554,965.3508
305.1375,968.9745
305.6196,974.1307
306.1017,979.0731
306.5838,982.9816
307.0659,986.6918
307.5481,991.8915
308.0302,998.748
308.5123,1005.903
308.9944,1013.591
309.4765,1021.154
309.9586,1027.02
310.4408,1030.487
310.9229,1033.417
311.405,1038.61
311.8871,1046.177
312.3692,1052.746
312.8513,1057.153
313.3335,1060.439
313.8156,1064.354
314.2977,1069.211
314.7798,1072.698
315.2619,1072.067
315.744,1067.535
316.2262,1063.747
316.7083,1061.796
317.1904,1060.203
317.6725,1058.214
318.1546,1055.686
318.6367,1051.693
319.1188,1045.056
319.601,1036.442
320.0831,1029.227
320.5652,1024.77
321.0473,1020.287
321.5294,1014.216
322.0115,1006.851
322.4937,998.7167
322.9758,989.3809
323.4579,980.3333
323.94,976.1375
324.4221,979.9662
324.9042,981.0019
325.3864,973.0035
325.8685,959.9606
326.3506,949.2665
326.8327,943.2841
327.3148,940.067
327.7969,937.0601
328.2791,934.4099
328.7612,931.2026
329.2433,926.2634
329.7254,921.1574
330.2075,918.0886
330.6896,917.4376
331.1718,917.1404
331.6539,915.0388
332.136,910.9558
332.6181,907.4407
333.1002,904.5004
333.5823,902.2249
334.0645,900.9554
334.5466,900.5702
335.0287,900.2932
335.5108,899.7399
335.9929,898.8024
336.475,897.008
336.9572,893.3159
337.4393,889.929
337.9214,887.9496
338.4035,886.9775
338.8856,885.8714
339.3677,883.9211
339.8499,881.9301
340.332,882.4766
340.8141,888.1168
341.2962,891.3253
341.7783,888.6332
342.2604,883.459
342.7426,880.3842
343.2247,880.7295
343.7068,882.4117
344.1889,882.6197
344.671,880.8246
345.1531,878.7991
345.6353,875.6868
346.1174,872.965
346.5995,872.3779
347.0816,873.7371
347.5637,874.8103
348.0458,873.4608
348.528,869.5159
349.0101,866.6713
349.4922,865.1165
349.9743,864.2564
350.4564,863.9678
350.9385,864.192
351.4207,864.9811
351.9028,866.4508
352.3849,868.3181
352.867,869.3512
353.3491,869.7199
353.8312,869.059
354.3134,865.8243
354.7955,862.1243
355.2776,860.6985
355.7597,862.4543
356.2418,865.7186
356.7239,867.7302
357.2061,868.2098
357.6882,867.7805
358.1703,864.8858
358.6524,862.3145
359.1345,862.9583
359.6166,866.3998
360.0987,869.0837
360.5808,867.0896
361.063,859.5455
361.5451,855.8245
362.0272,858.6212
362.5093,862.1569
362.9914,865.2828
363.4735,867.686
363.9557,868.9925
364.4378,868.8997
364.9199,867.7986
365.402,867.3697
365.8841,868.2744
366.3662,868.9817
366.8484,868.3466
367.3305,867.9184
367.8126,869.9136
368.2947,874.8278
368.7768,880.1895
369.2589,881.7062
369.7411,877.2156
370.2232,874.7745
370.7053,876.1191
371.1874,878.1969
371.6695,879.6118
372.1516,880.2479
372.6338,880.6402
373.1159,881.2608
373.598,882.0933
374.0801,882.6031
374.5622,881.819
375.0443,881.9764
375.5265,884.5564
376.0086,888.327
376.4907,891.4083
376.9728,892.8914
377.4549,893.2073
377.937,893.0241
378.4192,891.7676
378.9013,891.6755
379.3834,894.1881
379.8655,897.588
380.3476,900.8589
380.8297,903.7814
381.3119,906.0614
381.794,906.8885
382.2761,906.3152
382.7582,906.9143
383.2403,909.6428
383.7224,912.9387
384.2046,915.653
384.6867,917.9543
385.1688,920.5655
385.6509,924.3163
386.133,928.5416
386.6151,931.5349
387.0973,932.8997
387.5794,934.4066
388.0615,936.7439
388.5436,939.9691
389.0257,944.4915
389.5078,951.0779
389.99,957.7048
390.4721,962.2985
390.9542,965.1365
391.4363,968.2215
391.9184,972.0619
392.4005,976.6361
392.8827,981.5795
393.3648,986.7286
393.8469,993.4915
394.329,1003.515
394.8111,1015.141
395.2932,1025.223
395.7754,1033.218
396.2575,1041.742
396.7396,1053.46
397.2217,1068.176
397.7038,1082.439
398.1859,1094.211
398.6681,1107.307
399.1501,1125.277
399.6323,1146.986
400.1144,1168.175
400.5965,1186.557
401.0786,1203.274
401.5607,1221.341
402.0428,1240.745
402.525,1261.245
403.0071,1281.71
403.4892,1303.762
403.9713,1328.966
404.4534,1357.627
404.9355,1389.651
405.4177,1424.825
405.8998,1462.76
406.3819,1505.833
406.864,1552.091
407.3461,1604.318
407.8282,1663.381
408.3104,1729.695
408.7925,1803.472
409.2746,1885.467
409.7567,1975.813
410.2388,2076.327
410.7209,2187.276
411.2031,2309.374
411.6852,2444.813
412.1673,2589.923
412.6494,2745.927
413.1315,2911.282
413.6136,3075.696
414.0958,3229.84
414.5779,3381.374
415.06,3493.854
415.5421,3576.217
416.0242,3608.593
416.5063,3577.309
416.9885,3487.789
417.4706,3351.5
417.9527,3167.938
418.4348,2949.588
418.9169,2732.776
419.399,2511.693
419.8812,2308.242
420.3633,2130.461
420.8454,1972.393
421.3275,1831.088
421.8096,1706.012
422.2917,1596.609
422.7739,1504.137
423.256,1428.461
423.7381,1362.805
424.2202,1307.612
424.7023,1261.213
425.1844,1222.422
425.6666,1190.33
426.1487,1161.633
426.6308,1135.492
427.1129,1111.667
427.595,1089.827
428.0771,1069.792
428.5593,1052.582
429.0414,1039.583
429.5235,1029.626
430.0056,1019.576
430.4877,1009.046
430.9698,999.2868
431.452,990.71
431.9341,983.4191
432.4162,977.8079
432.8983,974.1144
433.3804,971.3426
433.8625,968.5486
434.3447,965.7709
434.8268,962.4293
435.3089,957.2061
435.791,952.5112
436.2731,950.6119
436.7552,950.7914
437.2374,950.4224
437.7195,947.9258
438.2016,943.8473
438.6837,940.3031
439.1658,936.8533
439.6479,934.5303
440.1301,933.8754
440.6122,934.1232
441.0943,934.988
441.5764,936.2002
442.0585,936.9236
442.5406,935.9753
443.0227,932.9308
443.5049,931.3395
443.987,932.4521
444.4691,933.7561
444.9512,934.7434
445.4333,935.3568
445.9154,935.4195
446.3976,934.7246
446.8797,934.0071
447.3618,935.2145
447.8439,939.3298
448.326,942.4238
448.8081,942.801
449.2903,942.642
449.7724,943.3367
450.2545,944.9258
450.7366,946.5002
451.2187,947.1257
451.7008,947.1096
452.183,947.7729
452.6651,949.2421
453.1472,951.1166
453.6293,952.9443
454.1114,955.0827
454.5935,958.3229
455.0757,963.4428
455.5578,968.467
456.0399,971.3532
456.522,972.6208
457.0041,974.85
457.4862,979.2451
457.9684,983.8238
458.4505,985.1754
458.9326,983.2632
459.4147,983.5417
459.8968,989.0559
460.3789,995.6641
460.8611,999.3948
461.3432,1000.566
461.8253,1002.28
462.3074,1006.632
462.7895,1012.809
463.2716,1017.503
463.7538,1018.157
464.2359,1020.772
464.718,1027.283
465.2001,1035.425
465.6822,1042.653
466.1643,1048.618
466.6465,1054.955
467.1286,1063.593
467.6107,1074.921
468.0928,1085.426
468.5749,1093.092
469.057,1102.105
469.5392,1114.058
470.0213,1127.933
470.5034,1142.011
470.9855,1155.524
471.4676,1169.246
471.9497,1184.473
472.4319,1201.223
472.914,1219.249
473.3961,1236.979
473.8782,1257.475
474.3603,1283.205
474.8424,1313.394
475.3246,1345.284
475.8067,1376.34
476.2888,1408.126
476.7709,1444.656
477.253,1486.133
477.7351,1530.129
478.2173,1575.266
478.6994,1622.735
479.1815,1673.814
479.6636,1728.84
480.1457,1786.085
480.6278,1844.104
481.11,1903.896
481.592,1966.639
482.0742,2032.414
482.5563,2103.47
483.0384,2181.753
483.5205,2267.711
484.0026,2362.468
484.4847,2464.832
484.9669,2576.273
485.449,2696.822
485.9311,2827.597
486.4132,2968.955
486.8953,3121.484
487.3774,3287.589
487.8596,3469.607
488.3417,3669.001
488.8238,3885.808
489.3059,4117.999
489.788,4365.718
490.2701,4633.591
490.7523,4916.103
491.2344,5203.615
491.7165,5491.037
492.1986,5774.513
492.6807,6050.128
493.1628,6334.208
493.645,6563.269
494.1271,6728.75
494.6092,6828.335
495.0913,6857.14
495.5734,6814.866
496.0555,6702.668
496.5377,6511.0
497.0198,6251.359
497.5019,5946.874
497.984,5589.862
498.4661,5223.975
498.9482,4858.569
499.4304,4501.614
499.9125,4167.061
500.3946,3852.893
500.8767,3565.086
501.3588,3304.901
501.8409,3071.511
502.3231,2861.422
502.8052,2674.634
503.2873,2506.774
503.7694,2354.709
504.2515,2218.025
504.7336,2096.891
505.2158,1994.116
505.6979,1901.779
506.18,1818.583
506.6621,1743.421
507.1442,1676.536
507.6263,1617.75
508.1085,1564.335
508.5906,1512.108
509.0727,1459.407
509.5548,1413.759
510.0369,1378.501
510.519,1347.12
511.0012,1318.547
511.4833,1291.784
511.9654,1265.185
512.4475,1237.55
512.9296,1210.81
513.4117,1188.875
513.8939,1172.226
514.376,1156.11
514.8581,1139.719
515.3402,1123.251
515.8223,1106.439
516.3044,1089.527
516.7866,1074.067
517.2687,1061.483
517.7508,1050.19
518.2329,1037.803
518.715,1024.452
519.1971,1012.271
519.6793,1002.367
520.1614,994.1035
520.6435,986.4509
521.1256,979.6453
521.6077,972.5346
522.0898,964.4222
522.572,956.3061
523.0541,949.0892
523.5362,942.8215
524.0183,936.9922
524.5004,931.2278
524.9825,925.6908
525.4647,921.1555
525.9468,918.9831
526.4289,915.9164
526.911,910.7587
527.3931,905.2652
527.8752,901.0525
528.3574,898.1749
528.8395,895.3837
529.3216,891.4924
529.8037,886.7277
530.2858,882.4022
530.7679,878.6017
531.2501,875.0754
531.7322,871.5012
532.2143,868.2621
532.6964,865.9954
533.1785,864.9741
533.6606,863.679
534.1428,860.4271
534.6249,856.3178
535.107,853.6495
535.5891,852.7351
536.0712,853.0865
536.5533,854.9463
537.0355,857.8115
537.5176,858.6507
537.9997,856.908
538.4818,854.0377
538.9639,848.4748
539.446,842.9046
539.9282,841.3516
540.4103,844.2987
540.8924,848.2641
541.3745,849.6095
541.8566,848.2592
542.3387,846.9244
542.8209,845.2242
543.3029,844.0329
543.785,843.1127
544.2672,842.9915
544.7493,844.6613
545.2314,848.2792
545.7135,852.1505
546.1956,854.4968
546.6777,855.3972
547.1599,855.5036
547.642,854.3801
548.1241,853.4675
548.6062,853.3065
549.0883,854.0346
549.5704,856.2855
550.0526,861.0662
550.5347,865.4362
551.0168,867.2145
551.4989,867.3253
551.981,867.3174
552.4631,867.4807
552.9453,868.8257
553.4274,872.7956
553.9095,879.4131
554.3916,883.2286
554.8737,880.9374
555.3558,880.2234
555.838,884.8961
556.3201,891.5455
556.8022,895.4241
557.2843,895.5677
557.7664,895.2706
558.2485,898.8298
558.7307,906.4578
559.2128,911.2281
559.6949,910.8947
560.177,910.8092
560.6591,912.864
561.1412,916.1017
561.6234,919.3718
562.1055,922.3596
562.5876,925.6049
563.0697,929.9378
563.5518,934.9326
564.0339,938.8593
564.5161,941.241
564.9982,944.0992
565.4803,949.1086
565.9624,955.8311
566.4445,962.0007
566.9266,966.4498
567.4088,971.9935
567.8909,981.3689
568.373,991.5201
568.8551,998.0377
569.3372,1000.473
569.8193,1002.412
570.3015,1007.152
570.7836,1014.56
571.2657,1021.734
571.7478,1028.245
572.2299,1035.14
572.712,1043.462
573.1942,1051.702
573.6763,1057.999
574.1584,1062.334
574.6405,1066.886
575.1226,1073.75
575.6047,1082.436
576.0869,1091.276
576.569,1100.639
577.0511,1108.438
577.5332,1112.12
578.0153,1114.468
578.4974,1120.23
578.9796,1130.334
579.4617,1139.977
579.9438,1146.802
580.4259,1152.542
580.908,1159.353
581.3901,1167.214
581.8723,1174.788
582.3544,1181.194
582.8365,1186.764
583.3186,1192.634
583.8007,1198.846
584.2828,1205.377
584.765,1212.568
585.2471,1219.809
585.7292,1226.973
586.2113,1233.855
586.6934,1239.968
587.1755,1244.813
587.6577,1249.053
588.1398,1253.962
588.6219,1259.478
589.104,1266.265
589.5861,1275.41
590.0682,1284.909
590.5504,1293.116
591.0325,1300.076
591.5146,1305.883
591.9967,1309.474
592.4788,1312.816
592.9609,1317.077
593.4431,1322.397
593.9252,1329.406
594.4073,1338.398
594.8894,1348.269
595.3715,1357.512
595.8536,1365.895
596.3358,1374.777
596.8179,1385.17
597.3,1394.865
597.7821,1402.553
598.2642,1409.283
598.7463,1415.995
599.2285,1423.128
599.7106,1432.132
600.1927,1445.191
600.6748,1462.235
601.1569,1480.318
601.639,1499.916
602.1212,1519.131
602.6033,1536.267
603.0854,1552.473
603.5675,1568.809
604.0496,1584.804
604.5317,1602.914
605.0139,1625.729
605.496,1650.944
605.9781,1674.553
606.4602,1696.337
606.9423,1719.557
607.4244,1746.327
607.9066,1776.392
608.3887,1809.02
608.8708,1846.727
609.3529,1883.348
609.835,1916.468
610.3171,1950.219
610.7993,1987.393
611.2814,2027.925
611.7635,2070.101
612.2456,2112.391
612.7277,2156.464
613.2098,2207.141
613.692,2265.299
614.1741,2323.048
614.6562,2378.589
615.1383,2433.317
615.6204,2488.396
616.1025,2544.045
616.5847,2601.523
617.0668,2665.138
617.5489,2726.567
618.031,2781.306
618.5131,2829.78
618.9952,2873.903
619.4774,2914.142
619.9595,2948.146
620.4416,2973.644
620.9237,2990.984
621.4058,2995.911
621.8879,2988.407
622.3701,2967.22
622.8522,2930.796
623.3343,2881.69
623.8164,2822.186
624.2985,2753.073
624.7806,2674.082
625.2628,2583.069
625.7448,2482.645
626.2269,2378.714
626.709,2270.779
627.1912,2164.392
627.6733,2060.284
628.1554,1960.284
628.6375,1867.3
629.1196,1781.644
629.6017,1700.177
630.0839,1621.686
630.566,1547.584
631.0481,1478.55
631.5302,1414.393
632.0123,1353.808
632.4944,1296.465
632.9766,1243.593
633.4587,1198.102
633.9408,1160.862
634.4229,1125.585
634.905,1092.073
635.3871,1061.099
635.8693,1032.631
636.3514,1006.776
636.8335,984.1431
637.3156,965.5408
637.7977,947.5461
638.2798,926.1346
638.762,904.3049
639.2441,888.5801
639.7262,879.5461
640.2083,870.5701
640.6904,857.0576
641.1725,840.7683
641.6547,827.475
642.1368,819.3397
642.6189,811.2525
643.101,802.6183
643.5831,794.5717
644.0652,788.0554
644.5474,782.7048
645.0295,777.3211
645.5116,771.1871
645.9937,765.2941
646.4758,761.9807
646.9579,761.2103
647.4401,758.0048
647.9222,750.3563
648.4043,742.9279
648.8864,740.1745
649.3685,740.5175
649.8506,739.0635
650.3328,734.379
650.8149,729.5266
651.297,725.3007
651.7791,721.7904
652.2612,719.0952
652.7433,717.2462
653.2255,716.4921
653.7076,717.223
654.1897,718.74
654.6718,718.2047
655.1539,714.3666
655.636,711.5023
656.1182,710.673
656.6003,710.5743
657.0824,711.117
657.5645,711.8508
658.0466,711.5336
658.5287,709.1572
659.0109,706.4167
659.493,704.8427
659.9751,704.1869
660.4572,703.8541
660.9393,703.7307
661.4214,703.5287
661.9036,702.9299
662.3857,702.007
662.8678,701.5399
663.3499,701.7101
663.832,702.126
664.3141,703.6318
664.7963,704.7138
665.2784,703.2553
665.7605,700.058
666.2426,698.4744
666.7247,701.0978
667.2068,705.6232
667.689,707.8426
668.1711,707.8211
668.6532,707.718
669.1353,707.8987
669.6174,708.3799
670.0995,709.3591
670.5817,710.7442
671.0638,711.6169
671.5459,712.07
672.028,711.8712
672.5101,709.974
672.9922,707.9568
673.4744,708.1226
673.9565,710.2589
674.4386,711.762
674.9207,710.5599
675.4028,707.4026
675.8849,704.6492
676.3671,702.3307
676.8492,700.2404
677.3313,697.9257
677.8134,696.317
678.2955,696.4118
678.7776,697.8097
679.2598,699.126
679.7419,700.6133
680.224,701.222
680.7061,699.3537
681.1882,696.5853
681.6703,695.6134
682.1525,696.7614
682.6346,698.3353
683.1167,699.0589
683.5988,698.9267
684.0809,697.7794
684.563,694.8475
685.0452,692.5928
685.5273,691.2881
686.0094,690.8201
686.4915,691.7777
686.9736,693.5641
687.4557,694.4576
687.9379,693.3668
688.42,691.9631
688.9021,692.162
689.3842,693.1104
689.8663,692.339
690.3484,689.4622
690.8306,687.2472
691.3127,688.0792
691.7948,691.2017
692.2769,692.8167
692.759,692.3497
693.2411,691.2186
693.7233,688.8432
694.2054,686.4866
694.6875,684.7221
695.1696,683.6207
695.6517,683.2455
696.1339,683.7779
696.616,684.5685
697.0981,685.0072
697.5802,685.1088
698.0623,684.9268
698.5444,684.4681
699.0266,683.5987
699.5087,681.8881
699.9908,679.8942
700.4729,679.8304
700.955,685.0043
701.4371,686.9756
701.9193,683.3738
702.4014,678.6345
702.8835,674.5273
703.3656,671.5832
703.8477,670.5879
704.3298,672.0753
704.812,673.8811
705.2941,672.8708
705.7762,669.7419
706.2583,668.0587
706.7404,668.3424
707.2225,668.8073
707.7046,668.5471
708.1867,667.6719
708.6688,666.2386
709.1509,663.2611
709.6331,662.2509
710.1152,665.8823
710.5973,669.1501
711.0794,668.7518
711.5615,665.9523
712.0436,663.0243
712.5258,660.8173
713.0079,659.5224
713.49,659.8672
713.9721,661.4396
714.4542,661.7568
714.9363,660.5183
715.4185,659.5638
715.9006,660.0533
716.3827,660.9613
716.8648,660.3287
717.3469,657.8006
717.829,656.0645
718.3112,655.8743
718.7933,655.9641
719.2754,656.2254
719.7575,656.1542
720.2396,654.7385
720.7217,651.9113
721.2039,649.2051
721.686,648.1448
722.1681,648.41
722.6502,648.7471
723.1323,649.1223
723.6144,649.928
724.0966,651.5261
724.5787,653.2633
725.0608,654.7029
725.5429,655.8301
726.025,655.2882
726.5071,650.4758
726.9893,647.0226
727.4714,647.914
727.9535,650.6645
728.4356,652.7722
728.9177,653.7453
729.3998,654.0582
729.882,654.0037
730.3641,653.6106
730.8462,652.6403
731.3283,651.0378
731.8104,650.6867
732.2925,652.5284
732.7747,654.3234
733.2568,654.0801
733.7389,652.1733
734.221,650.7809
734.7031,649.978
735.1852,649.5654
735.6674,649.5775
736.1495,649.8985
736.6316,650.5824
737.1137,651.4847
737.5958,652.3268
738.0779,652.9918
738.5601,653.4094
739.0422,653.4849
739.5243,653.2249
740.0064,652.5027
740.4885,651.105
740.9706,650.2283
741.4528,650.7392
741.9349,652.0601
742.417,652.9698
742.8991,653.4926
743.3812,653.6061
743.8633,653.2292
744.3455,652.5325
744.8276,650.9211
745.3097,649.3151
745.7918,649.4547
746.2739,651.6553
746.756,653.8515
747.2382,653.7845
747.7203,652.2023
748.2024,651.2886
748.6845,651.0488
749.1666,651.383
749.6487,652.3953
750.1309,653.6585
750.613,654.8892
751.0951,656.1276
751.5772,656.0771
752.0593,653.3086
752.5414,651.2015
753.0236,650.3044
753.5057,650.5004
753.9878,652.637
754.4699,655.8983
754.952,657.4362
755.4341,655.1395
755.9163,651.4138
756.3984,649.4403
756.8805,648.9528
757.3626,649.164
757.8447,650.0349
758.3268,650.1299
758.809,648.2032
759.2911,644.9659
759.7732,642.7847
760.2553,642.1493
760.7374,641.7283
761.2195,641.4291
761.7017,641.4483
762.1838,642.3408
762.6659,643.4576
763.148,643.66
763.6301,642.6014
764.1122,641.508
764.5944,641.725
765.0765,642.251
765.5586,640.9604
766.0407,638.26
766.5228,636.9532
767.0049,638.1866
767.4871,640.2042
767.9692,640.6948
768.4513,639.5909
768.9334,638.5562
769.4155,637.6647
769.8976,636.6939
770.3798,635.4684
770.8619,634.238
771.344,633.0833
771.8261,632.0794
772.3082,631.5287
772.7903,631.9426
773.2725,632.2968
773.7546,631.6478
774.2367,630.5828
774.7188,630.304
775.2009,630.7411
775.683,630.4081
776.1652,628.2127
776.6473,625.1571
777.1294,623.6479
777.6115,623.8751
778.0936,624.356
778.5757,624.9044
779.0579,625.9047
779.54,628.2883
780.0221,630.9404
780.5042,631.8025
780.9863,630.4078
781.4684,629.3157
781.9506,629.7937
782.4327,630.1116
782.9148,628.5905
783.3969,626.3386
783.879,625.2136
784.3611,625.6967
784.8433,627.1204
785.3254,629.2924
785.8075,631.6755
786.2896,632.4445
786.7717,631.5736
787.2538,630.6337
787.736,629.9713
788.2181,629.4247
788.7002,628.6535
789.1823,627.8112
789.6644,628.2398
790.1465,631.7982
790.6286,633.8979
791.1107,633.1602
791.5928,631.8303
792.075,631.1911
792.5571,631.1423
793.0392,631.1365
793.5213,630.9548
794.0034,631.0134
794.4855,631.9144
794.9677,633.2076
795.4498,633.7714
795.9319,633.7578
796.414,634.8073
796.8961,637.717
797.3782,640.7274
797.8604,641.2978
798.3425,639.3062
798.8246,637.7285
799.3067,636.6208
799.7888,635.8065
800.2709,635.3448
800.7531,635.0851
801.2352,634.9051
801.7173,634.8293
802.1994,635.0117
802.6815,635.7193
803.1636,636.3624
803.6458,636.366
804.1279,636.3072
804.61,637.3342
805.0921,639.0341
805.5742,639.423
806.0563,637.3276
806.5385,634.7805
807.0206,635.5101
807.5027,639.2021
807.9848,641.4962
808.4669,642.1686
808.949,641.5179
809.4312,638.8784
809.9133,636.0742
810.3954,636.1174
810.8775,639.6314
811.3596,641.9596
811.8417,642.1352
812.3239,642.3704
812.806,643.6478
813.2881,644.9753
813.7702,645.3766
814.2523,644.8718
814.7344,644.0597
815.2166,643.1716
815.6987,642.2374
816.1808,640.925
816.6629,639.6924
817.145,639.8333
817.6271,641.3334
818.1093,642.7291
818.5914,643.1609
819.0735,643.1363
819.5556,643.7014
820.0377,645.0196
820.5198,645.8874
821.002,646.3655
821.4841,646.2621
821.9662,645.082
822.4483,643.5697
822.9304,642.2955
823.4125,641.2973
823.8947,641.3324
824.3768,643.7418
824.8589,645.7947
825.341,646.7203
825.8231,646.4137
826.3052,643.6749
826.7874,639.4666
827.2695,637.2299
827.7516,639.1417
828.2337,642.6263
828.7158,644.3196
829.1979,644.4613
829.6801,643.6905
830.1622,642.0594
830.6443,641.1267
831.1264,641.8367
831.6085,643.1328
832.0906,643.1719
832.5728,641.6428
833.0549,641.1093
833.537,642.4979
834.0191,643.5451
834.5012,643.7091
834.9833,643.3817
835.4655,643.024
835.9476,642.5112
836.4297,641.0723
836.9118,637.2289
837.3939,634.4115
837.876,635.8323
838.3582,638.3867
838.8403,638.0095
839.3224,635.2809
839.8045,633.5829
840.2866,634.5223
840.7687,636.0416
841.2509,634.7439
841.733,631.3777
842.2151,630.7981
842.6972,633.3047
843.1793,634.8318
843.6614,633.7461
844.1436,631.5527
844.6257,629.6647
845.1078,628.1058
845.5899,628.3538
846.072,632.9783
846.5541,635.6061
847.0363,634.2155
847.5184,632.1135
848.0005,630.886
848.4826,630.6371
848.9647,631.4777
849.4468,633.7637
849.929,635.6568
850.4111,635.8563
850.8932,635.4373
851.3753,635.3233
851.8574,635.5429
852.3395,636.3224
852.8217,637.5658
853.3038,637.8685
853.7859,635.1752
854.268,631.0718
854.7501,631.5529
855.2322,636.6149
855.7144,638.3914
856.1965,634.6176
856.6786,630.4182
857.1607,629.5886
857.6428,631.2571
858.1249,632.6784
858.6071,633.9418
859.0892,634.7347
859.5713,634.7307
860.0534,634.6433
860.5355,634.6707
861.0176,634.7756
861.4998,634.9228
861.9819,635.1014
862.464,635.2507
862.9461,635.7488
863.4282,635.7783
863.9103,634.0713
864.3925,631.9271
864.8746,631.3733
865.3567,632.3622
865.8388,633.3396
866.3209,633.3688
866.803,633.2091
867.2852,634.1048
867.7673,635.8661
868.2494,637.6679
868.7315,639.4792
869.2136,640.6162
869.6957,640.7607
870.1779,640.1971
870.66,639.1144
871.1421,637.4959
871.6242,637.1546
872.1063,639.4236
872.5884,640.6183
873.0705,639.3301
873.5526,637.5328
874.0347,636.3141
874.5168,635.501
874.999,634.4203
875.4811,632.5104
875.9632,631.7648
876.4453,634.3943
876.9274,636.9832
877.4095,636.5192
877.8917,634.4027
878.3738,633.3281
878.8559,633.8275
879.338,634.2668
879.8201,633.1036
880.3022,631.4747
880.7844,631.1771
881.2665,632.029
881.7486,634.0
882.2307,636.9136
882.7128,637.95
883.1949,635.0631
883.6771,630.3234
884.1592,628.2658
884.6413,629.3995
885.1234,629.1133
885.6055,626.3629
886.0876,624.8903
886.5698,627.3034
887.0519,630.1834
887.534,629.0528
888.0161,624.2667
888.4982,621.4261
888.9803,621.6061
889.4625,622.4371
889.9446,624.3926
890.4267,626.0496
890.9088,626.2526
891.3909,625.4686
891.873,624.8264
892.3552,624.663
892.8373,623.9778
893.3194,621.6525
893.8015,618.8939
894.2836,616.4191
894.7657,614.6778
895.2479,615.1221
895.73,617.6399
896.2121,619.753
896.6942,619.6019
897.1763,617.9579
897.6584,616.1237
898.1406,614.1403
898.6227,612.279
899.1048,610.5282
899.5869,609.3392
900.069,608.8865
900.5511,609.2408
901.0333,610.7435
901.5154,613.5085
901.9975,614.7899
902.4796,613.9608
902.9617,612.8112
903.4438,611.3444
903.926,609.9775
904.4081,608.9389
904.8902,608.2249
905.3723,607.85
905.8544,607.8672
906.3365,608.089
906.8187,608.4816
907.3008,609.053
907.7829,609.5638
908.265,610.376
908.7471,612.249
909.2292,615.0911
909.7114,617.7341
910.1935,619.7921
910.6756,620.852
911.1577,619.7493
911.6398,617.6573
912.1219,616.8404
912.6041,617.3112
913.0862,617.7521
913.5683,617.5425
914.0504,617.219
914.5325,617.4796
915.0146,618.2665
915.4968,619.3441
915.9789,620.7375
916.461,621.8777
916.9431,622.6472
917.4252,623.0214
917.9073,622.8367
918.3895,622.3702
918.8716,622.7439
919.3537,624.7763
919.8358,625.5131
920.3179,624.0634
920.8,622.5684
921.2822,621.1153
921.7643,620.5206
922.2464,622.4443
922.7285,626.7079
923.2106,629.2051
923.6927,627.8844
924.1749,626.7387
924.657,626.5072
925.1391,627.1977
925.6212,629.3261
926.1033,632.2362
926.5854,634.7154
927.0676,636.4132
927.5497,637.6921
928.0318,639.0408
928.5139,639.8641
928.996,638.9564
929.4781,637.2904
929.9603,636.8499
930.4424,637.8025
930.9245,638.9511
931.4066,639.6061
931.8887,639.6502
932.3708,638.1537
932.853,635.8444
933.3351,636.2826
933.8172,639.4594
934.2993,641.8329
934.7814,641.9994
935.2635,641.7789
935.7457,643.2169
936.2278,645.9609
936.7099,647.9018
937.192,648.8262
937.6741,649.9901
938.1563,652.0495
938.6384,653.168
939.1205,651.863
939.6026,649.3762
940.0847,647.7723
940.5668,647.0197
941.049,647.3558
941.5311,649.7864
942.0132,651.8954
942.4953,653.2509
942.9774,654.1248
943.4595,654.3235
943.9417,654.2634
944.4238,655.0192
944.9059,657.0645
945.388,658.9138
945.8701,660.4183
946.3522,661.1725
946.8344,660.7082
947.3165,659.4277
947.7986,657.4775
948.2807,655.1954
948.7628,653.5034
949.2449,652.6686
949.7271,653.1888
950.2092,656.7325
950.6913,661.2485
951.1734,663.3983
951.6555,663.5521
952.1376,663.6351
952.6198,664.3607
953.1019,665.6717
953.584,667.7355
954.0661,670.0772
954.5482,671.508
955.0303,672.1306
955.5124,672.3972
955.9945,672.3801
956.4766,673.2087
956.9587,675.6339
957.4409,678.3944
957.923,679.1301
958.4051,677.9235
958.8872,679.6627
959.3693,685.3986
959.8514,689.4056
960.3336,689.6945
960.8157,689.718
961.2978,692.0065
961.7799,695.9521
962.262,699.9795
962.7441,704.5554
963.2263,707.7314
963.7084,707.6716
964.1905,708.7028
964.6726,712.5603
965.1547,717.4554
965.6368,722.5406
966.119,727.4438
966.6011,730.6005
967.0832,730.324
967.5653,731.3669
968.0474,735.4133
968.5295,740.3199
969.0117,745.6192
969.4938,750.5954
969.9759,754.0852
970.458,756.197
970.9401,758.6285
971.4222,761.9329
971.9044,766.04
972.3865,770.947
972.8686,776.6049
973.3507,783.124
973.8328,790.2836
974.3149,797.7503
974.7971,805.3668
975.2792,812.8795
975.7613,819.664
976.2434,826.645
976.7255,835.8404
977.2076,845.909
977.6898,853.2061
978.1719,858.1944
978.654,865.1763
979.1361,876.2316
979.6182,888.8727
980.1003,899.9512
980.5825,910.1901
981.0646,921.4804
981.5467,933.833
982.0288,947.6873
982.5109,963.0729
982.993,979.2801
983.4752,995.7399
983.9573,1012.936
984.4394,1031.792
984.9215,1052.28
985.4036,1073.586
985.8857,1095.341
986.3679,1120.024
986.85,1148.181
987.3321,1180.033
987.8142,1216.039
988.2963,1255.628
988.7784,1297.324
989.2606,1341.728
989.7427,1385.47
990.2248,1428.192
990.7069,1470.859
991.189,1512.344
991.6711,1555.74
992.1533,1603.641
992.6354,1656.039
993.1175,1712.311
993.5996,1766.46
994.0817,1834.938
994.5638,1910.635
995.046,2010.081
995.5281,2137.359
996.0102,2292.67
996.4923,2478.5
996.9744,2693.734
997.4565,2927.298
997.9387,3185.351
998.4208,3446.642
998.9029,3702.677
999.385,3962.462
999.8671,4209.976
1000.349,4473.875
1000.831,4780.562
1001.313,5138.92
1001.796,5569.122
1002.278,6064.409
1002.76,6654.565
1003.242,7327.119
1003.724,8123.861
1004.206,9057.369
1004.688,10162.12
1005.17,11472.59
1005.653,13011.66
1006.135,14871.65
1006.617,17100.91
1007.099,19709.36
1007.581,22907.02
1008.063,26352.66
1008.545,30015.43
1009.027,33426.3
1009.509,35611.98
1009.992,36197.4
1010.474,35235.82
1010.956,32388.14
1011.438,28448.41
1011.92,24190.9
1012.402,19904.79
1012.884,16192.18
1013.366,13128.35
1013.849,10655.84
1014.331,8733.876
1014.813,7235.708
1015.295,6064.521
1015.777,5168.687
1016.259,4451.145
1016.741,3894.243
1017.223,3439.708
1017.705,3076.047
1018.188,2777.998
1018.67,2534.125
1019.152,2330.964
1019.634,2152.565
1020.116,1998.338
1020.598,1862.919
1021.08,1746.627
1021.562,1646.911
1022.044,1563.596
1022.527,1490.536
1023.009,1424.582
1023.491,1364.638
1023.973,1308.525
1024.455,1256.304
1024.937,1210.902
1025.419,1172.971
1025.901,1137.852
1026.384,1104.642
1026.866,1073.916
1027.348,1046.226
1027.83,1020.656
1028.312,995.5926
1028.794,970.7787
1029.276,948.8591
1029.758,930.2767
1030.24,912.8129
1030.723,896.1014
1031.205,880.1593
1031.687,864.8455
1032.169,850.4708
1032.651,837.8265
1033.133,827.2508
1033.615,815.4919
1034.097,800.7723
1034.579,788.7947
1035.062,781.7195
1035.544,775.9658
1036.026,769.5329
1036.508,762.6924
1036.99,756.0787
1037.472,749.8151
1037.954,743.0751
1038.436,734.9138
1038.919,727.878
1039.401,723.2971
1039.883,719.0365
1040.365,714.1438
1040.847,708.4861
1041.329,701.1223
1041.811,690.909
1042.293,684.951
1042.776,687.4313
1043.258,688.4547
1043.74,685.4117
1044.222,681.1727
1044.704,676.8649
1045.186,672.9271
1045.668,670.6566
1046.15,670.7122
1046.632,668.3076
1047.115,660.3329
1047.597,653.4417
1048.079,648.5756
1048.561,646.001
1049.043,647.9236
1049.525,651.4719
1050.007,650.9315
1050.489,645.2488
1050.971,640.7077
1051.454,638.8549
1051.936,637.853
1052.418,638.2526
1052.9,638.2576
1053.382,636.2775
1053.864,633.0966
1054.346,630.0614
1054.828,627.3425
1055.311,625.2911
1055.793,624.2241
1056.275,623.5356
1056.757,623.6241
1057.239,623.4337
1057.721,622.0311
1058.203,619.8561
1058.685,617.5211
1059.167,615.1558
1059.65,613.4583
1060.132,612.4739
1060.614,612.4424
1061.096,614.6405
1061.578,616.6632
1062.06,616.5649
1062.542,615.0656
1063.024,613.2044
1063.506,611.268
1063.989,610.1465
1064.471,610.5355
1064.953,611.2531
1065.435,613.134
1065.917,613.851
1066.399,610.5822
1066.881,605.468
1067.363,601.8812
1067.846,600.2444
1068.328,598.7494
1068.81,596.2026
1069.292,594.6052
1069.774,595.6711
1070.256,597.197
1070.738,598.4542
1071.22,598.5883
1071.703,595.7296
1072.185,590.3889
1072.667,586.4951
1073.149,585.7081
1073.631,586.0507
1074.113,587.4196
1074.595,588.7369
1075.077,589.5948
1075.559,589.6907
1076.042,588.4566
1076.524,586.0892
1077.006,583.4827
1077.488,580.4894
1077.97,578.7289
1078.452,579.8636
1078.934,581.4823
1079.416,581.9363
1079.898,581.9581
1080.38,582.7296
1080.863,584.0063
1081.345,584.6014
1081.827,584.1531
1082.309,582.9831
1082.791,579.8654
1083.273,577.649
1083.755,578.5162
1084.237,580.8532
1084.72,583.8765
1085.202,586.6213
1085.684,586.86
1086.166,583.679
1086.648,581.348
1087.13,582.5459
1087.612,583.9543
1088.094,583.639
1088.577,582.9239
1089.059,583.1807
1089.541,584.0308
1090.023,584.1269
1090.505,583.1906
1090.987,583.6307
1091.469,587.8726
1091.951,591.6597
1092.433,592.8412
1092.916,593.2
1093.398,593.8359
1093.88,594.7826
1094.362,596.0551
1094.844,597.5871
1095.326,598.6569
1095.808,598.4133
1096.29,598.5966
1096.772,600.2844
1097.255,602.0267
1097.737,603.1045
1098.219,603.5568
1098.701,602.9577
1099.183,601.6705
1099.665,601.9889
1100.147,605.679
1100.629,608.3909
1101.112,607.7103
1101.594,607.3192
1102.076,609.7626
1102.558,612.851
1103.04,614.0709
1103.522,613.7813
1104.004,613.8955
1104.486,614.5999
1104.969,616.0052
1105.451,619.2595
1105.933,621.7438
1106.415,621.6722
1106.897,621.288
1107.379,622.8259
1107.861,625.3838
1108.343,626.3458
1108.825,624.9988
1109.307,625.1145
1109.79,628.5558
1110.272,631.298
1110.754,631.4431
1111.236,631.8184
1111.718,635.0129
1112.2,639.1251
1112.682,640.6532
1113.164,639.3799
1113.647,639.4294
1114.129,641.7471
1114.611,643.8112
1115.093,644.846
1115.575,646.4777
1116.057,650.3703
1116.539,654.2728
1117.021,654.9201
1117.504,653.0192
1117.986,653.9773
1118.468,659.817
1118.95,663.5076
1119.432,663.2177
1119.914,664.3929
1120.396,669.2889
1120.878,675.3407
1121.36,680.5118
1121.843,685.0768
1122.325,689.6988
1122.807,694.196
1123.289,700.1365
1123.771,708.4398
1124.253,714.8739
1124.735,717.793
1125.217,720.8353
1125.699,725.9617
1126.182,733.3474
1126.664,743.5139
1127.146,756.3123
1127.628,768.7473
1128.11,780.4738
1128.592,794.675
1129.074,811.9797
1129.556,829.0372
1130.039,843.8674
1130.521,860.119
1131.003,882.2184
1131.485,908.6556
1131.967,933.1901
1132.449,956.1932
1132.931,984.983
1133.413,1020.034
1133.896,1054.631
1134.378,1086.76
1134.86,1121.701
1135.342,1163.585
1135.824,1210.529
1136.306,1259.262
1136.788,1310.116
1137.27,1364.732
1137.752,1422.731
1138.234,1482.608
1138.717,1543.983
1139.199,1606.146
1139.681,1669.057
1140.163,1730.8
1140.645,1792.339
1141.127,1849.465
1141.609,1896.419
1142.091,1932.67
1142.574,1957.288
1143.056,1969.776
1143.538,1970.279
1144.02,1958.332
1144.502,1929.962
1144.984,1880.389
1145.466,1817.585
1145.948,1745.482
1146.431,1668.468
1146.913,1590.164
1147.395,1512.084
1147.877,1434.659
1148.359,1359.133
1148.841,1290.199
1149.323,1230.117
1149.805,1173.45
1150.287,1114.712
1150.77,1060.422
1151.252,1016.154
1151.734,978.075
1152.216,942.3154
1152.698,909.1476
1153.18,880.4893
1153.662,856.7266
1154.144,834.9056
1154.626,814.6988
1155.109,795.1747
1155.591,773.8038
1156.073,755.4761
1156.555,744.8851
1157.037,737.9764
1157.519,729.8429
1158.001,720.209
1158.483,709.8738
1158.966,696.7419
1159.448,687.398
1159.93,684.9728
1160.412,682.6163
1160.894,678.7283
1161.376,673.9951
1161.858,668.2432
1162.34,662.4045
1162.822,658.7465
1163.305,657.568
1163.787,655.1892
1164.269,651.0547
1164.751,647.3574
1165.233,644.462
1165.715,641.8451
1166.197,639.2867
1166.679,636.7958
1167.161,634.3547
1167.644,632.0096
1168.126,629.7958
1168.608,627.6855
1169.09,626.6881
1169.572,626.8756
1170.054,627.1945
1170.536,627.3648
1171.018,627.4842
1171.5,627.7107
1171.983,627.2408
1172.465,624.0742
1172.947,619.4279
1173.429,617.6389
1173.911,617.9847
1174.393,617.8027
1174.875,616.8254
1175.357,615.7554
1175.84,614.876
1176.322,614.2113
1176.804,613.7887
1177.286,613.5573
1177.768,613.8161
1178.25,613.9586
1178.732,612.7787
1179.214,610.916
1179.697,609.7853
1180.179,609.423
1180.661,608.8414
1181.143,607.6025
1181.625,606.3424
1182.107,605.6479
1182.589,604.8201
1183.071,602.9518
1183.553,601.1403
1184.036,600.7033
1184.518,601.0096
1185.0,600.5829
1185.482,599.2911
1185.964,598.7501
1186.446,600.2216
1186.928,601.0202
1187.41,600.6639
1187.892,599.6039
1188.375,596.9968
1188.857,594.7031
1189.339,595.2062
1189.821,597.1476
1190.303,596.3435
1190.785,592.0279
1191.267,589.5096
1191.749,589.0793
1192.232,589.8752
1192.714,592.4607
1193.196,594.207
1193.678,593.7921
1194.16,591.8442
1194.642,588.846
1195.124,585.2934
1195.606,582.9686
1196.089,581.8824
1196.571,583.4435
1197.053,587.4706
1197.535,588.879
1198.017,586.5286
1198.499,584.0241
1198.981,583.6088
1199.463,583.9683
1199.945,583.1498
1200.427,582.0485
1200.91,582.9619
1201.392,584.7868
1201.874,584.8184
1202.356,583.4705
1202.838,582.6871
1203.32,583.0443
1203.802,584.2474
1204.284,586.4313
1204.767,588.4722
1205.249,589.5608
1205.731,590.1005
1206.213,590.3907
1206.695,590.3416
1207.177,589.4794
1207.659,588.2424
1208.141,588.0219
1208.624,589.2148
1209.106,589.1839
1209.588,584.9604
1210.07,582.9691
1210.552,587.0105
1211.034,590.6407
1211.516,588.9943
1211.998,586.8813
1212.48,590.2904
1212.963,597.0258
1213.445,598.2733
1213.927,592.2731
1214.409,589.7938
1214.891,591.7178
1215.373,593.8074
1215.855,595.4864
1216.337,596.0967
1216.819,595.1205
1217.302,593.7985
1217.784,593.6137
1218.266,594.3526
1218.748,595.6038
1219.23,597.1876
1219.712,598.119
1220.194,598.4586
1220.676,598.6005
1221.159,598.7542
1221.641,599.7193
1222.123,601.9875
1222.605,603.7062
1223.087,602.7382
1223.569,600.5065
1224.051,597.5145
1224.533,595.1013
1225.016,595.9704
1225.498,598.4338
1225.98,598.5844
1226.462,596.2888
1226.944,595.3441
1227.426,597.545
1227.908,599.7385
1228.39,601.1923
1228.872,601.9489
1229.354,601.5759
1229.837,600.9492
1230.319,600.7932
1230.801,600.8234
1231.283,600.3348
1231.765,599.3723
1232.247,599.5157
1232.729,601.5394
1233.211,602.2365
1233.694,601.1474
1234.176,599.7932
1234.658,598.4566
1235.14,597.763
1235.622,598.1977
1236.104,599.4152
1236.586,601.1165
1237.068,602.9415
1237.551,603.1962
1238.033,602.2098
1238.515,601.5035
1238.997,601.0864
1239.479,599.793
1239.961,597.5441
1240.443,596.4257
1240.925,597.9933
1241.407,599.889
1241.89,600.0726
1242.372,599.2547
1242.854,597.7186
1243.336,595.9285
1243.818,593.8506
1244.3,592.1625
1244.782,592.4144
1245.264,594.6855
1245.746,596.6199
1246.229,597.8716
1246.711,598.2537
1247.193,597.0096
1247.675,595.8639
1248.157,595.2064
1248.639,595.1215
1249.121,596.2845
1249.603,597.4145
1250.085,595.8066
1250.568,591.7408
1251.05,590.4473
1251.532,592.2963
1252.014,592.6428
1252.496,591.0667
1252.978,590.0277
1253.46,590.2607
1253.942,590.6605
1254.425,590.4914
1254.907,589.8621
1255.389,588.5583
1255.871,587.1793
1256.353,586.9059
1256.835,587.3784
1257.317,588.2565
1257.799,589.1918
1258.281,589.7753
1258.764,589.7827
1259.246,588.5762
1259.728,585.4629
1260.21,582.7573
1260.692,580.5878
1261.174,580.3292
1261.656,585.5848
1262.138,589.9953
1262.62,586.6561
1263.103,580.4725
1263.585,580.2713
1264.067,585.0674
1264.549,585.9706
1265.031,580.97
1265.513,579.1921
1265.995,581.6191
1266.477,582.8559
1266.96,581.4558
1267.442,580.5315
1267.924,581.8676
1268.406,584.1132
1268.888,586.0507
1269.37,587.0117
1269.852,584.3309
1270.334,579.9448
1270.817,579.0764
1271.299,580.7418
1271.781,581.6142
1272.263,581.3146
1272.745,581.2142
1273.227,581.8369
1273.709,582.3385
1274.191,581.4203
1274.673,581.3691
1275.156,584.5242
1275.638,587.5739
1276.12,587.4222
1276.602,586.6749
1277.084,589.0462
1277.566,593.3148
1278.048,595.1061
1278.53,594.1597
1279.012,592.9226
1279.495,590.8792
1279.977,590.3768
1280.459,591.8347
1280.941,594.3455
1281.423,597.76
1281.905,600.4908
1282.387,601.2733
1282.869,600.8232
1283.352,599.7408
1283.834,598.6131
1284.316,598.658
1284.798,599.9052
