Raman shift,Intensity
762.20938,1633.10835
763.76372,1634.4647
765.31805,1637.17739
765.31805,1635.82104
766.87239,1637.17739
768.42673,1637.17739
769.98107,1637.17739
771.53541,1638.53374
771.53541,1637.17739
773.08975,1641.24644
773.08975,1638.53374
773.08975,1639.89009
773.08975,1645.31548
773.08975,1642.60278
773.08975,1643.95913
774.64409,1645.31548
776.19843,1645.31548
777.75277,1643.95913
779.3071,1642.60278
780.86144,1643.95913
782.41578,1645.31548
783.97012,1645.31548
785.52446,1641.24644
785.52446,1645.31548
787.0788,1643.95913
787.0788,1642.60278
787.0788,1639.89009
788.63314,1637.17739
788.63314,1642.60278
788.63314,1641.24644
790.18748,1641.24644
790.18748,1639.89009
790.18748,1635.82104
791.74181,1633.10835
791.74181,1637.17739
791.74181,1638.53374
793.29615,1637.17739
793.29615,1631.752
793.29615,1635.82104
793.29615,1634.4647
794.85049,1627.68296
794.85049,1629.03931
794.85049,1630.39565
794.85049,1633.10835
794.85049,1630.39565
794.85049,1631.752
794.85049,1634.4647
796.40483,1629.03931
796.40483,1627.68296
797.95917,1629.03931
797.95917,1627.68296
799.51351,1627.68296
799.51351,1630.39565
801.06785,1630.39565
801.06785,1629.03931
801.06785,1627.68296
802.62219,1631.752
802.62219,1629.03931
802.62219,1630.39565
804.17652,1633.10835
804.17652,1630.39565
805.73086,1631.752
805.73086,1634.4647
805.73086,1630.39565
807.2852,1635.82104
807.2852,1631.752
807.2852,1633.10835
808.83954,1634.4647
808.83954,1633.10835
808.83954,1637.17739
810.39388,1634.4647
810.39388,1638.53374
810.39388,1635.82104
811.94822,1639.89009
811.94822,1635.82104
811.94822,1637.17739
813.50256,1641.24644
813.50256,1637.17739
813.50256,1638.53374
813.50256,1639.89009
813.50256,1641.24644
813.50256,1642.60278
813.50256,1643.95913
815.0569,1643.95913
815.0569,1641.24644
816.61123,1642.60278
816.61123,1642.60278
818.16557,1641.24644
818.16557,1642.60278
819.71991,1639.89009
819.71991,1642.60278
821.27425,1642.60278
821.27425,1641.24644
822.82859,1643.95913
822.82859,1642.60278
824.38293,1642.60278
824.38293,1643.95913
825.93727,1643.95913
825.93727,1641.24644
827.49161,1643.95913
827.49161,1639.89009
829.04594,1635.82104
829.04594,1642.60278
829.04594,1634.4647
829.04594,1638.53374
829.04594,1638.53374
829.04594,1631.752
829.04594,1633.10835
829.04594,1639.89009
829.04594,1641.24644
829.04594,1637.17739
830.60028,1631.752
830.60028,1635.82104
832.15462,1631.752
832.15462,1630.39565
832.15462,1634.4647
832.15462,1629.03931
832.15462,1627.68296
833.70896,1630.39565
833.70896,1626.32661
833.70896,1624.97026
833.70896,1627.68296
835.2633,1629.03931
835.2633,1624.97026
836.81764,1622.25757
836.81764,1623.61391
836.81764,1626.32661
836.81764,1624.97026
838.37198,1622.25757
838.37198,1623.61391
839.92632,1622.25757
839.92632,1615.47583
839.92632,1620.90122
839.92632,1620.90122
839.92632,1619.54487
839.92632,1616.83218
839.92632,1618.18852
841.48066,1614.11948
841.48066,1619.54487
843.03499,1615.47583
843.03499,1612.76313
844.58933,1614.11948
844.58933,1612.76313
844.58933,1610.05044
846.14367,1612.76313
846.14367,1607.33774
846.14367,1608.69409
846.14367,1611.40678
846.14367,1612.76313
847.69801,1612.76313
849.25235,1614.11948
850.80669,1615.47583
852.36103,1616.83218
853.91537,1619.54487
855.4697,1622.25757
857.02404,1624.97026
858.57838,1627.68296
860.13272,1630.39565
861.68706,1633.10835
863.2414,1637.17739
864.79574,1638.53374
866.35008,1641.24644
867.90441,1643.95913
869.45875,1643.95913
871.01309,1643.95913
872.56743,1643.95913
874.12177,1643.95913
875.67611,1642.60278
877.23045,1639.89009
878.78479,1638.53374
880.33912,1635.82104
881.89346,1631.752
883.4478,1629.03931
885.00214,1623.61391
886.55648,1619.54487
888.11082,1615.47583
889.66516,1608.69409
891.2195,1603.2687
892.77384,1597.84331
894.32817,1592.41792
895.88251,1588.34887
897.43685,1585.63618
898.99119,1581.56713
900.54553,1578.85444
902.09987,1578.85444
903.65421,1578.85444
905.20855,1578.85444
906.76288,1580.21079
908.31722,1582.92348
909.87156,1584.27983
911.4259,1586.99253
912.98024,1589.70522
914.53458,1592.41792
916.08892,1593.77426
917.64326,1595.13061
919.19759,1597.84331
920.75193,1599.19966
922.30627,1600.556
923.86061,1600.556
925.41495,1600.556
926.96929,1597.84331
928.52363,1592.41792
930.07797,1589.70522
931.6323,1584.27983
933.18664,1578.85444
934.74098,1573.42905
936.29532,1568.00366
937.84966,1565.29096
939.404,1561.22192
940.95834,1558.50922
942.51268,1557.15287
944.06701,1557.15287
945.62135,1558.50922
947.17569,1559.86557
948.73003,1562.57827
950.28437,1566.64731
951.83871,1569.36
953.39305,1574.7854
954.94739,1577.49809
956.50173,1580.21079
958.05606,1582.92348
959.6104,1586.99253
961.16474,1589.70522
962.71908,1591.06157
964.27342,1592.41792
965.82776,1593.77426
967.3821,1595.13061
968.93644,1596.48696
970.49077,1597.84331
972.04511,1600.556
973.59945,1601.91235
975.15379,1604.62505
976.70813,1607.33774
978.26247,1608.69409
979.81681,1611.40678
981.37115,1612.76313
982.92548,1615.47583
984.47982,1618.18852
986.03416,1619.54487
987.5885,1619.54487
989.14284,1616.83218
990.69718,1614.11948
992.25152,1611.40678
993.80586,1607.33774
995.36019,1603.2687
996.91453,1599.19966
998.46887,1593.77426
1000.02321,1589.70522
1001.57755,1584.27983
1003.13189,1578.85444
1004.68623,1574.7854
1006.24057,1570.71635
1007.79491,1568.00366
1009.34924,1565.29096
1010.90358,1562.57827
1012.45792,1562.57827
1014.01226,1562.57827
1015.5666,1562.57827
1017.12094,1562.57827
1018.67528,1563.93461
1020.22962,1565.29096
1021.78395,1566.64731
1023.33829,1568.00366
1024.89263,1568.00366
1026.44697,1569.36
1028.00131,1568.00366
1029.55565,1566.64731
1031.10999,1563.93461
1032.66433,1561.22192
1034.21866,1557.15287
1035.773,1554.44018
1037.32734,1553.08383
1038.88168,1554.44018
1040.43602,1557.15287
1041.99036,1561.22192
1043.5447,1566.64731
1045.09904,1570.71635
1046.65337,1574.7854
1048.20771,1580.21079
1049.76205,1584.27983
1051.31639,1588.34887
1052.87073,1593.77426
1054.42507,1597.84331
1055.97941,1600.556
1057.53375,1601.91235
1059.08808,1604.62505
1060.64242,1605.98139
1062.19676,1605.98139
1063.7511,1605.98139
1065.30544,1603.2687
1066.85978,1597.84331
1068.41412,1592.41792
1069.96846,1586.99253
1071.5228,1581.56713
1073.07713,1573.42905
1074.63147,1563.93461
1076.18581,1558.50922
1077.74015,1551.72748
1079.29449,1544.94575
1080.84883,1540.8767
1082.40317,1535.45131
1083.95751,1532.73862
1085.51184,1531.38227
1087.06618,1530.02592
1088.62052,1530.02592
1090.17486,1530.02592
1091.7292,1530.02592
1093.28354,1530.02592
1094.83788,1531.38227
1096.39222,1535.45131
1097.94655,1538.16401
1099.50089,1540.8767
1101.05523,1544.94575
1102.60957,1549.01479
1104.16391,1555.79653
1105.71825,1572.0727
1105.71825,1559.86557
1107.27259,1561.22192
1107.27259,1572.0727
1107.27259,1570.71635
1108.82693,1569.36
1108.82693,1565.29096
1110.38126,1568.00366
1110.38126,1569.36
1111.9356,1569.36
1111.9356,1568.00366
1113.48994,1569.36
1113.48994,1566.64731
1115.04428,1566.64731
1115.04428,1568.00366
1115.04428,1569.36
1116.59862,1565.29096
1116.59862,1568.00366
1116.59862,1566.64731
1118.15296,1566.64731
1118.15296,1565.29096
1118.15296,1563.93461
1119.7073,1562.57827
1119.7073,1565.29096
1121.26164,1565.29096
1121.26164,1563.93461
1121.26164,1558.50922
1121.26164,1561.22192
1121.26164,1561.22192
1121.26164,1562.57827
1121.26164,1559.86557
1122.81598,1559.86557
1122.81598,1558.50922
1122.81598,1557.15287
1122.81598,1555.79653
1124.37031,1555.79653
1124.37031,1554.44018
1124.37031,1558.50922
1125.92465,1557.15287
1125.92465,1554.44018
1125.92465,1553.08383
1125.92465,1551.72748
1127.47899,1551.72748
1127.47899,1555.79653
1129.03333,1553.08383
1129.03333,1549.01479
1129.03333,1551.72748
1129.03333,1550.37114
1130.58767,1551.72748
1130.58767,1549.01479
1132.14201,1549.01479
1132.14201,1550.37114
1133.69635,1549.01479
1133.69635,1547.65844
1135.25069,1544.94575
1135.25069,1549.01479
1136.80502,1540.8767
1136.80502,1544.94575
1136.80502,1549.01479
1136.80502,1547.65844
1136.80502,1546.30209
1136.80502,1543.5894
1136.80502,1542.23305
1136.80502,1543.5894
1138.35936,1539.52035
1138.35936,1542.23305
1139.9137,1542.23305
1139.9137,1539.52035
1141.46804,1538.16401
1141.46804,1540.8767
1143.02238,1539.52035
1143.02238,1540.8767
1144.57672,1538.16401
1144.57672,1540.8767
1146.13106,1540.8767
1146.13106,1538.16401
1147.6854,1540.8767
1147.6854,1539.52035
1149.23973,1540.8767
1149.23973,1540.8767
1150.79407,1540.8767
1150.79407,1542.23305
1152.34841,1542.23305
1152.34841,1539.52035
1153.90275,1542.23305
1153.90275,1540.8767
1153.90275,1539.52035
1155.45709,1536.80766
1155.45709,1535.45131
1155.45709,1540.8767
1155.45709,1539.52035
1155.45709,1538.16401
1155.45709,1534.09496
1155.45709,1538.16401
1157.01143,1532.73862
1157.01143,1534.09496
1157.01143,1536.80766
1158.56577,1535.45131
1158.56577,1532.73862
1160.12011,1532.73862
1160.12011,1534.09496
1161.67444,1530.02592
1161.67444,1528.66957
1161.67444,1532.73862
1161.67444,1532.73862
1161.67444,1531.38227
1163.22878,1527.31322
1163.22878,1531.38227
1163.22878,1528.66957
1164.78312,1530.02592
1164.78312,1525.95688
1166.33746,1525.95688
1166.33746,1528.66957
1167.8918,1527.31322
1167.8918,1525.95688
1169.44614,1527.31322
1169.44614,1527.31322
1171.00048,1528.66957
1171.00048,1528.66957
1172.55482,1527.31322
1172.55482,1528.66957
1174.10915,1528.66957
1174.10915,1530.02592
1175.66349,1530.02592
1175.66349,1530.02592
1177.21783,1530.02592
1177.21783,1530.02592
1178.77217,1524.60053
1178.77217,1528.66957
1178.77217,1527.31322
1178.77217,1528.66957
1178.77217,1525.95688
1178.77217,1523.24418
1180.32651,1523.24418
1180.32651,1527.31322
1180.32651,1520.53149
1180.32651,1521.88783
1181.88085,1519.17514
1181.88085,1524.60053
1183.43519,1523.24418
1183.43519,1517.81879
1183.43519,1519.17514
1183.43519,1516.46244
1184.98953,1521.88783
1184.98953,1515.10609
1186.54387,1520.53149
1186.54387,1515.10609
1188.0982,1515.10609
1188.0982,1519.17514
1189.65254,1519.17514
1189.65254,1516.46244
1191.20688,1517.81879
1191.20688,1519.17514
1192.76122,1519.17514
1192.76122,1520.53149
1192.76122,1519.17514
1194.31556,1520.53149
1194.31556,1519.17514
1194.31556,1521.88783
1195.8699,1524.60053
1195.8699,1523.24418
1195.8699,1520.53149
1195.8699,1521.88783
1197.42424,1524.60053
1197.42424,1523.24418
1198.97858,1524.60053
1198.97858,1524.60053
1200.53291,1527.31322
1200.53291,1534.09496
1200.53291,1524.60053
1200.53291,1532.73862
1200.53291,1535.45131
1202.08725,1531.38227
1202.08725,1525.95688
1202.08725,1538.16401
1202.08725,1536.80766
1202.08725,1530.02592
1202.08725,1524.60053
1203.64159,1532.73862
1203.64159,1528.66957
1203.64159,1539.52035
1203.64159,1527.31322
1203.64159,1525.95688
1203.64159,1530.02592
1205.19593,1539.52035
1205.19593,1542.23305
1205.19593,1543.5894
1205.19593,1528.66957
1205.19593,1536.80766
1206.75027,1549.01479
1206.75027,1550.37114
1206.75027,1539.52035
1206.75027,1554.44018
1206.75027,1540.8767
1206.75027,1544.94575
1206.75027,1542.23305
1206.75027,1547.65844
1206.75027,1553.08383
1208.30461,1551.72748
1208.30461,1539.52035
1208.30461,1555.79653
1208.30461,1557.15287
1208.30461,1558.50922
1208.30461,1546.30209
1208.30461,1547.65844
1209.85895,1559.86557
1209.85895,1561.22192
1209.85895,1563.93461
1209.85895,1565.29096
1209.85895,1551.72748
1211.41329,1568.00366
1211.41329,1569.36
1211.41329,1562.57827
1211.41329,1557.15287
1211.41329,1572.0727
1211.41329,1566.64731
1212.96762,1573.42905
1212.96762,1574.7854
1212.96762,1562.57827
1212.96762,1570.71635
1214.52196,1576.14174
1214.52196,1566.64731
1214.52196,1577.49809
1216.0763,1570.71635
1216.0763,1578.85444
1217.63064,1581.56713
1217.63064,1580.21079
1217.63064,1582.92348
1217.63064,1574.7854
1217.63064,1574.7854
1219.18498,1576.14174
1219.18498,1576.14174
1220.73932,1574.7854
1220.73932,1574.7854
1222.29366,1573.42905
1222.29366,1573.42905
1223.848,1570.71635
1223.848,1570.71635
1225.40233,1566.64731
1225.40233,1566.64731
1226.95667,1562.57827
1226.95667,1562.57827
1228.51101,1559.86557
1230.06535,1554.44018
1231.61969,1550.37114
1233.17403,1546.30209
1234.72837,1542.23305
1236.28271,1539.52035
1237.83705,1536.80766
1239.39138,1536.80766
1240.94572,1536.80766
1242.50006,1539.52035
1244.0544,1540.8767
1245.60874,1543.5894
1247.16308,1546.30209
1248.71742,1547.65844
1250.27176,1551.72748
1251.82609,1554.44018
1253.38043,1557.15287
1254.93477,1559.86557
1256.48911,1562.57827
1258.04345,1566.64731
1259.59779,1569.36
1261.15213,1572.0727
1262.70647,1576.14174
1264.2608,1578.85444
1265.81514,1581.56713
1267.36948,1584.27983
1268.92382,1586.99253
1270.47816,1589.70522
1272.0325,1591.06157
1273.58684,1593.77426
1275.14118,1595.13061
1276.69551,1596.48696
1278.24985,1596.48696
1279.80419,1596.48696
1281.35853,1596.48696
1282.91287,1595.13061
1284.46721,1593.77426
1286.02155,1589.70522
1287.57589,1588.34887
1289.13022,1584.27983
1290.68456,1581.56713
1292.2389,1577.49809
1293.79324,1573.42905
1295.34758,1570.71635
1296.90192,1568.00366
1298.45626,1566.64731
1300.0106,1566.64731
1301.56494,1568.00366
1303.11927,1568.00366
1304.67361,1570.71635
1306.22795,1572.0727
1307.78229,1573.42905
1309.33663,1576.14174
1310.89097,1578.85444
1312.44531,1582.92348
1313.99965,1584.27983
1315.55398,1586.99253
1317.10832,1588.34887
1318.66266,1586.99253
1320.217,1585.63618
1321.77134,1585.63618
1323.32568,1584.27983
1324.88002,1582.92348
1326.43436,1581.56713
1327.98869,1580.21079
1329.54303,1578.85444
1331.09737,1577.49809
1332.65171,1576.14174
1334.20605,1576.14174
1335.76039,1577.49809
1335.76039,1576.14174
1335.76039,1574.7854
1335.76039,1573.42905
1335.76039,1572.0727
1335.76039,1570.71635
1337.31473,1576.14174
1337.31473,1580.21079
1338.86907,1588.34887
1338.86907,1577.49809
1338.86907,1581.56713
1338.86907,1586.99253
1338.86907,1578.85444
1338.86907,1580.21079
1338.86907,1581.56713
1338.86907,1582.92348
1338.86907,1584.27983
1338.86907,1585.63618
1340.4234,1584.27983
1340.4234,1589.70522
1340.4234,1591.06157
1341.97774,1588.34887
1341.97774,1591.06157
1343.53208,1591.06157
1343.53208,1591.06157
1345.08642,1591.06157
1345.08642,1593.77426
1346.64076,1592.41792
1346.64076,1591.06157
1346.64076,1593.77426
1346.64076,1595.13061
1346.64076,1596.48696
1346.64076,1597.84331
1346.64076,1599.19966
1346.64076,1595.13061
1348.1951,1601.91235
1348.1951,1599.19966
1348.1951,1600.556
1348.1951,1597.84331
1349.74944,1599.19966
1349.74944,1601.91235
1351.30378,1600.556
1351.30378,1603.2687
1352.85812,1603.2687
1352.85812,1601.91235
1354.41245,1601.91235
1354.41245,1603.2687
1355.96679,1603.2687
1355.96679,1600.556
1357.52113,1600.556
1357.52113,1603.2687
1359.07547,1599.19966
1359.07547,1596.48696
1359.07547,1595.13061
1359.07547,1601.91235
1359.07547,1600.556
1359.07547,1599.19966
1359.07547,1597.84331
1359.07547,1593.77426
1360.62981,1593.77426
1360.62981,1597.84331
1360.62981,1592.41792
1362.18415,1595.13061
1362.18415,1592.41792
1363.73849,1592.41792
1363.73849,1593.77426
1365.29283,1591.06157
1365.29283,1592.41792
1366.84716,1592.41792
1366.84716,1589.70522
1368.4015,1586.99253
1368.4015,1589.70522
1368.4015,1591.06157
1368.4015,1592.41792
1369.95584,1585.63618
1369.95584,1581.56713
1369.95584,1580.21079
1369.95584,1578.85444
1369.95584,1577.49809
1369.95584,1586.99253
1369.95584,1582.92348
1369.95584,1584.27983
1369.95584,1582.92348
1369.95584,1588.34887
1371.51018,1576.14174
1371.51018,1580.21079
1373.06452,1574.7854
1373.06452,1573.42905
1373.06452,1578.85444
1373.06452,1576.14174
1374.61886,1570.71635
1374.61886,1572.0727
1374.61886,1577.49809
1376.1732,1576.14174
1377.72754,1576.14174
1379.28187,1576.14174
1380.83621,1578.85444
1382.39055,1580.21079
1383.94489,1582.92348
1385.49923,1585.63618
1387.05357,1586.99253
1388.60791,1591.06157
1390.16225,1593.77426
1391.71658,1596.48696
1393.27092,1596.48696
1394.82526,1596.48696
1396.3796,1592.41792
1397.93394,1589.70522
1399.48828,1584.27983
1401.04262,1578.85444
1402.59696,1576.14174
1404.15129,1572.0727
1405.70563,1568.00366
1407.25997,1565.29096
1408.81431,1565.29096
1410.36865,1565.29096
1411.92299,1565.29096
1413.47733,1568.00366
1415.03167,1570.71635
1416.58601,1572.0727
1418.14034,1574.7854
1419.69468,1578.85444
1421.24902,1584.27983
1422.80336,1589.70522
1424.3577,1596.48696
1425.91204,1601.91235
1427.46638,1605.98139
1429.02072,1614.11948
1430.57505,1620.90122
1432.12939,1623.61391
1433.68373,1627.68296
1435.23807,1631.752
1436.79241,1631.752
1438.34675,1630.39565
1439.90109,1629.03931
1441.45543,1626.32661
1443.00976,1624.97026
1444.5641,1623.61391
1446.11844,1623.61391
1447.67278,1622.25757
1449.22712,1622.25757
1450.78146,1619.54487
1452.3358,1618.18852
1453.89014,1614.11948
1455.44447,1612.76313
1456.99881,1608.69409
1458.55315,1604.62505
1460.10749,1600.556
1461.66183,1597.84331
1463.21617,1593.77426
1464.77051,1589.70522
1466.32485,1585.63618
1467.87919,1581.56713
1469.43352,1577.49809
1470.98786,1573.42905
1472.5422,1569.36
1474.09654,1563.93461
1475.65088,1561.22192
1477.20522,1557.15287
1478.75956,1551.72748
1480.3139,1550.37114
1481.86823,1550.37114
1483.42257,1557.15287
1484.97691,1562.57827
1486.53125,1568.00366
1488.08559,1578.85444
1489.63993,1588.34887
1491.19427,1596.48696
1492.74861,1605.98139
1494.30294,1615.47583
1495.85728,1623.61391
1497.41162,1631.752
1498.96596,1638.53374
1500.5203,1643.95913
1502.07464,1649.38452
1503.62898,1654.80991
1505.18332,1660.2353
1506.73765,1664.30435
1508.29199,1667.01704
1509.84633,1665.66069
1511.40067,1660.2353
1512.95501,1653.45357
1514.50935,1645.31548
1516.06369,1635.82104
1517.61803,1626.32661
1519.17236,1618.18852
1520.7267,1593.77426
1520.7267,1592.41792
1520.7267,1595.13061
1520.7267,1596.48696
1520.7267,1610.05044
1522.28104,1597.84331
1522.28104,1608.69409
1523.83538,1610.05044
1523.83538,1601.91235
1523.83538,1600.556
1523.83538,1599.19966
1525.38972,1618.18852
1525.38972,1612.76313
1525.38972,1603.2687
1526.94406,1604.62505
1526.94406,1605.98139
1526.94406,1607.33774
1526.94406,1608.69409
1526.94406,1611.40678
1526.94406,1616.83218
1526.94406,1619.54487
1528.4984,1615.47583
1528.4984,1612.76313
1528.4984,1614.11948
1528.4984,1610.05044
1528.4984,1620.90122
1530.05274,1622.25757
1530.05274,1623.61391
1531.60708,1624.97026
1531.60708,1626.32661
1531.60708,1627.68296
1531.60708,1665.66069
1531.60708,1664.30435
1531.60708,1631.752
1531.60708,1667.01704
1531.60708,1661.59165
1531.60708,1660.2353
1533.16141,1639.89009
1533.16141,1658.87896
1533.16141,1635.82104
1533.16141,1634.4647
1533.16141,1633.10835
1533.16141,1630.39565
1533.16141,1629.03931
1533.16141,1662.948
1533.16141,1668.37339
1533.16141,1669.72974
1533.16141,1671.08609
1533.16141,1672.44243
1533.16141,1675.15513
1533.16141,1676.51148
1533.16141,1677.86782
1534.71575,1686.00591
1534.71575,1684.64956
1534.71575,1683.29322
1534.71575,1681.93687
1534.71575,1680.58052
1534.71575,1679.22417
1534.71575,1687.36226
1534.71575,1657.52261
1534.71575,1637.17739
1534.71575,1673.79878
1534.71575,1643.95913
1534.71575,1642.60278
1534.71575,1641.24644
1534.71575,1638.53374
1536.27009,1691.4313
1536.27009,1688.71861
1536.27009,1695.50035
1536.27009,1645.31548
1536.27009,1646.67183
1536.27009,1648.02817
1536.27009,1649.38452
1536.27009,1694.144
1536.27009,1656.16626
1536.27009,1654.80991
1536.27009,1653.45357
1536.27009,1652.09722
1536.27009,1650.74087
1536.27009,1690.07495
1536.27009,1696.85669
1537.82443,1692.78765
1537.82443,1709.06382
1537.82443,1698.21304
1537.82443,1699.56939
1537.82443,1700.92574
1537.82443,1702.28208
1537.82443,1704.99478
1537.82443,1706.35113
1537.82443,1707.70748
1539.37877,1713.13287
1539.37877,1710.42017
1539.37877,1717.20191
1539.37877,1718.55826
1539.37877,1703.63843
1539.37877,1711.77652
1539.37877,1714.48921
1539.37877,1719.9146
1539.37877,1715.84556
1540.93311,1722.6273
1540.93311,1726.69634
1540.93311,1728.05269
1540.93311,1723.98365
1540.93311,1729.40904
1540.93311,1721.27095
1542.48745,1734.83443
1542.48745,1725.34
1542.48745,1730.76539
1542.48745,1732.12173
1542.48745,1737.54713
1542.48745,1736.19078
1544.04179,1733.47808
1544.04179,1738.90347
1544.04179,1740.25982
1544.04179,1751.1106
1544.04179,1749.75426
1544.04179,1752.46695
1544.04179,1753.8233
1545.59612,1745.68521
1545.59612,1744.32886
1545.59612,1742.97252
1545.59612,1741.61617
1545.59612,1748.39791
1545.59612,1747.04156
1545.59612,1755.17965
1545.59612,1756.53599
1545.59612,1760.60504
1545.59612,1759.24869
1547.15046,1757.89234
1547.15046,1761.96139
1547.15046,1763.31773
1548.7048,1764.67408
1550.25914,1766.03043
1551.81348,1767.38678
1551.81348,1768.74312
1551.81348,1770.09947
1551.81348,1771.45582
1551.81348,1772.81217
1551.81348,1774.16851
1551.81348,1775.52486
1551.81348,1776.88121
1551.81348,1778.23756
1551.81348,1779.59391
1551.81348,1780.95025
1553.36782,1782.3066
1554.92216,1783.66295
1554.92216,1785.0193
1554.92216,1786.37564
1554.92216,1787.73199
1554.92216,1789.08834
1554.92216,1790.44469
1564.24819,1751.1106
1564.24819,1752.46695
1564.24819,1753.8233
1564.24819,1755.17965
1565.80253,1756.53599
1565.80253,1757.89234
1565.80253,1749.75426
1567.35687,1759.24869
1567.35687,1748.39791
1567.35687,1747.04156
1568.91121,1744.32886
1568.91121,1745.68521
1570.46554,1742.97252
1570.46554,1741.61617
1572.01988,1733.47808
1572.01988,1740.25982
1572.01988,1723.98365
1572.01988,1737.54713
1572.01988,1736.19078
1572.01988,1734.83443
1572.01988,1722.6273
1573.57422,1732.12173
1573.57422,1730.76539
1573.57422,1729.40904
1573.57422,1721.27095
1573.57422,1738.90347
1573.57422,1725.34
1575.12856,1726.69634
1575.12856,1719.9146
1575.12856,1728.05269
1576.6829,1718.55826
1578.23724,1715.84556
1578.23724,1717.20191
1578.23724,1714.48921
1579.79158,1713.13287
1579.79158,1711.77652
1581.34592,1710.42017
1581.34592,1709.06382
1582.90026,1707.70748
1582.90026,1706.35113
1582.90026,1704.99478
1582.90026,1699.56939
1582.90026,1700.92574
1582.90026,1702.28208
1582.90026,1703.63843
1582.90026,1681.93687
1584.45459,1698.21304
1584.45459,1695.50035
1584.45459,1694.144
1584.45459,1692.78765
1584.45459,1683.29322
1584.45459,1696.85669
1584.45459,1680.58052
1584.45459,1671.08609
1584.45459,1672.44243
1586.00893,1684.64956
1586.00893,1669.72974
1586.00893,1668.37339
1586.00893,1679.22417
1586.00893,1691.4313
1586.00893,1673.79878
1587.56327,1675.15513
1587.56327,1686.00591
1587.56327,1688.71861
1587.56327,1690.07495
1587.56327,1677.86782
1587.56327,1668.37339
1589.11761,1687.36226
1589.11761,1676.51148
1589.11761,1668.37339
1590.67195,1668.37339
1592.22629,1668.37339
1593.78063,1668.37339
1595.33497,1662.948
1595.33497,1667.01704
1595.33497,1665.66069
1595.33497,1664.30435
1596.8893,1661.59165
1596.8893,1660.2353
1596.8893,1662.948
1598.44364,1660.2353
1599.99798,1654.80991
1599.99798,1657.52261
1599.99798,1660.2353
1599.99798,1653.45357
1601.55232,1658.87896
1601.55232,1652.09722
1601.55232,1656.16626
1601.55232,1660.2353
1603.10666,1650.74087
1603.10666,1646.67183
1603.10666,1645.31548
1603.10666,1660.2353
1604.661,1643.95913
1604.661,1649.38452
1604.661,1648.02817
1606.21534,1643.95913
1607.76968,1641.24644
1607.76968,1643.95913
1607.76968,1642.60278
1609.32401,1642.60278
1609.32401,1641.24644
1610.87835,1639.89009
1610.87835,1638.53374
1612.43269,1639.89009
1612.43269,1635.82104
1613.98703,1639.89009
1613.98703,1638.53374
1613.98703,1631.752
1615.54137,1627.68296
1615.54137,1633.10835
1615.54137,1620.90122
1615.54137,1622.25757
1615.54137,1623.61391
1615.54137,1624.97026
1615.54137,1626.32661
1615.54137,1634.4647
1615.54137,1635.82104
1615.54137,1637.17739
1617.09571,1618.18852
1617.09571,1611.40678
1617.09571,1631.752
1617.09571,1630.39565
1617.09571,1615.47583
1617.09571,1627.68296
1617.09571,1633.10835
1617.09571,1619.54487
1617.09571,1622.25757
1617.09571,1612.76313
1617.09571,1616.83218
1617.09571,1610.05044
1617.09571,1614.11948
1618.65005,1604.62505
1618.65005,1605.98139
1618.65005,1607.33774
1618.65005,1608.69409
1618.65005,1629.03931
1618.65005,1618.18852
1620.20439,1612.76313
1620.20439,1603.2687
1620.20439,1601.91235
1620.20439,1600.556
1621.75872,1608.69409
1621.75872,1599.19966
1621.75872,1593.77426
1621.75872,1596.48696
1621.75872,1595.13061
1623.31306,1597.84331
1623.31306,1591.06157
1623.31306,1592.41792
1623.31306,1603.2687
1624.8674,1589.70522
1624.8674,1599.19966
1626.42174,1595.13061
1626.42174,1588.34887
1627.97608,1584.27983
1627.97608,1593.77426
1627.97608,1585.63618
1627.97608,1586.99253
1629.53042,1593.77426
1631.08476,1596.48696
1632.6391,1600.556
1634.19343,1603.2687
1635.74777,1605.98139
1637.30211,1610.05044
1638.85645,1611.40678
1640.41079,1615.47583
1641.96513,1618.18852
1643.51947,1619.54487
1645.07381,1620.90122
1646.62815,1622.25757
1648.18248,1622.25757
1649.73682,1622.25757
1651.29116,1622.25757
1652.8455,1620.90122
1654.39984,1619.54487
1655.95418,1618.18852
1657.50852,1618.18852
1659.06286,1615.47583
1660.61719,1614.11948
1662.17153,1611.40678
1663.72587,1611.40678
1665.28021,1612.76313
1666.83455,1615.47583
1668.38889,1619.54487
1669.94323,1623.61391
1671.49757,1629.03931
1671.49757,1629.03931
1673.0519,1633.10835
1673.0519,1633.10835
1674.60624,1634.4647
1674.60624,1634.4647
1676.16058,1638.53374
1676.16058,1638.53374
1677.71492,1641.24644
1677.71492,1641.24644
1679.26926,1642.60278
1679.26926,1642.60278
1680.8236,1642.60278
1680.8236,1642.60278
1682.37794,1642.60278
1682.37794,1642.60278
1683.93228,1642.60278
1683.93228,1642.60278
1685.48661,1641.24644
1685.48661,1641.24644
1687.04095,1639.89009
1687.04095,1639.89009
1688.59529,1638.53374
1688.59529,1638.53374
1690.14963,1635.82104
1690.14963,1635.82104
1691.70397,1634.4647
1691.70397,1634.4647
1693.25831,1630.39565
1693.25831,1630.39565
1694.81265,1629.03931
1694.81265,1629.03931
1696.36699,1626.32661
1696.36699,1626.32661
1697.92133,1623.61391
1697.92133,1623.61391
1699.47566,1620.90122
1699.47566,1620.90122
1701.03,1618.18852
1701.03,1618.18852
1702.58434,1615.47583
1702.58434,1615.47583
1704.13868,1615.47583
1704.13868,1615.47583
1704.13868,1608.69409
1704.13868,1611.40678
1704.13868,1610.05044
1705.69302,1615.47583
1705.69302,1612.76313
1705.69302,1614.11948
1705.69302,1615.47583
1705.69302,1616.83218
1705.69302,1615.47583
1707.24736,1616.83218
1707.24736,1618.18852
1707.24736,1616.83218
1708.8017,1622.25757
1708.8017,1619.54487
1708.8017,1620.90122
1708.8017,1619.54487
1708.8017,1619.54487
1708.8017,1623.61391
1710.35604,1620.90122
1710.35604,1624.97026
1710.35604,1620.90122
1711.91037,1624.97026
1711.91037,1622.25757
1711.91037,1622.25757
1713.46471,1623.61391
1713.46471,1624.97026
1713.46471,1623.61391
1715.01905,1626.32661
1715.01905,1624.97026
1715.01905,1624.97026
1716.57339,1624.97026
1716.57339,1624.97026
1716.57339,1626.32661
1718.12773,1626.32661
1718.12773,1623.61391
1718.12773,1623.61391
1719.68207,1624.97026
1719.68207,1623.61391
1719.68207,1623.61391
1721.23641,1622.25757
1721.23641,1624.97026
1721.23641,1623.61391
1721.23641,1622.25757
1722.79075,1620.90122
1722.79075,1623.61391
1722.79075,1620.90122
1722.79075,1622.25757
1724.34508,1619.54487
1724.34508,1619.54487
1724.34508,1622.25757
1725.89942,1622.25757
1725.89942,1618.18852
1725.89942,1618.18852
1727.45376,1620.90122
1727.45376,1616.83218
1727.45376,1616.83218
1729.0081,1619.54487
1729.0081,1618.18852
1729.0081,1616.83218
1729.0081,1616.83218
1729.0081,1615.47583
1729.0081,1616.83218
1730.56244,1615.47583
1730.56244,1615.47583
1730.56244,1614.11948
1732.11678,1615.47583
1732.11678,1612.76313
1732.11678,1615.47583
1733.67112,1615.47583
1733.67112,1614.11948
1733.67112,1615.47583
1735.22546,1615.47583
1735.22546,1616.83218
1735.22546,1616.83218
1736.77979,1616.83218
1736.77979,1616.83218
1736.77979,1615.47583
1738.33413,1619.54487
1738.33413,1619.54487
1738.33413,1616.83218
1739.88847,1619.54487
1739.88847,1619.54487
1739.88847,1618.18852
1741.44281,1619.54487
1741.44281,1619.54487
1741.44281,1619.54487
1742.99715,1618.18852
1742.99715,1615.47583
1742.99715,1618.18852
1742.99715,1618.18852
1742.99715,1616.83218
1742.99715,1614.11948
1744.55149,1612.76313
1744.55149,1616.83218
1744.55149,1610.05044
1744.55149,1616.83218
1744.55149,1611.40678
1744.55149,1614.11948
1746.10583,1615.47583
1746.10583,1615.47583
1746.10583,1610.05044
1747.66017,1612.76313
1747.66017,1612.76313
1747.66017,1610.05044
1747.66017,1608.69409
1747.66017,1607.33774
1749.2145,1610.05044
1749.2145,1605.98139
1749.2145,1610.05044
1749.2145,1607.33774
1750.76884,1608.69409
1750.76884,1605.98139
1750.76884,1608.69409
1752.32318,1607.33774
1752.32318,1607.33774
1752.32318,1605.98139
1753.87752,1607.33774
1753.87752,1607.33774
1753.87752,1607.33774
1755.43186,1605.98139
1755.43186,1605.98139
1755.43186,1608.69409
1756.9862,1607.33774
1756.9862,1607.33774
1756.9862,1607.33774
1758.54054,1607.33774
1758.54054,1608.69409
1758.54054,1610.05044
1758.54054,1611.40678
1758.54054,1608.69409
1758.54054,1608.69409
1758.54054,1605.98139
1760.09488,1615.47583
1760.09488,1612.76313
1760.09488,1611.40678
1760.09488,1611.40678
1760.09488,1611.40678
1760.09488,1616.83218
1760.09488,1614.11948
1761.64922,1619.54487
1761.64922,1618.18852
1761.64922,1612.76313
1761.64922,1612.76313
1763.20355,1615.47583
1763.20355,1620.90122
1763.20355,1615.47583
1764.75789,1619.54487
1764.75789,1630.39565
1764.75789,1622.25757
1764.75789,1623.61391
1764.75789,1624.97026
1764.75789,1626.32661
1764.75789,1619.54487
1764.75789,1629.03931
1766.31223,1627.68296
1766.31223,1623.61391
1766.31223,1631.752
1766.31223,1623.61391
1767.86657,1635.82104
1767.86657,1634.4647
1767.86657,1627.68296
1767.86657,1633.10835
1767.86657,1627.68296
1769.42091,1637.17739
1769.42091,1638.53374
1769.42091,1633.10835
1769.42091,1639.89009
1769.42091,1633.10835
1769.42091,1646.67183
1770.97525,1650.74087
1770.97525,1649.38452
1770.97525,1648.02817
1770.97525,1638.53374
1770.97525,1645.31548
1770.97525,1641.24644
1770.97525,1638.53374
1772.52959,1652.09722
1772.52959,1643.95913
1772.52959,1654.80991
1772.52959,1657.52261
1772.52959,1642.60278
1772.52959,1643.95913
1772.52959,1643.95913
1772.52959,1656.16626
1772.52959,1653.45357
1774.08393,1649.38452
1774.08393,1660.2353
1774.08393,1661.59165
1774.08393,1658.87896
1774.08393,1649.38452
1775.63826,1654.80991
1775.63826,1654.80991
1775.63826,1662.948
1777.1926,1668.37339
1777.1926,1658.87896
1777.1926,1658.87896
1777.1926,1664.30435
1777.1926,1665.66069
1777.1926,1667.01704
1778.74694,1669.72974
1778.74694,1662.948
1778.74694,1662.948
1780.30128,1662.948
1780.30128,1671.08609
1780.30128,1672.44243
1780.30128,1662.948
1780.30128,1673.79878
1781.85562,1660.2353
1781.85562,1660.2353
1783.40996,1657.52261
1783.40996,1657.52261
1784.9643,1652.09722
1784.9643,1652.09722
1786.51864,1646.67183
1786.51864,1646.67183
1788.07297,1642.60278
1788.07297,1642.60278
1789.62731,1638.53374
1789.62731,1638.53374
1791.18165,1634.4647
1791.18165,1634.4647
1792.73599,1630.39565
1792.73599,1630.39565
1794.29033,1627.68296
1794.29033,1627.68296
1795.84467,1624.97026
1795.84467,1624.97026
1797.39901,1624.97026
1797.39901,1624.97026
1798.95335,1622.25757
1798.95335,1622.25757
1800.50768,1622.25757
1800.50768,1622.25757
1802.06202,1622.25757
1802.06202,1622.25757
1803.61636,1620.90122
1803.61636,1620.90122
1805.1707,1620.90122
1805.1707,1620.90122
1806.72504,1619.54487
1806.72504,1619.54487
1808.27938,1616.83218
1808.27938,1616.83218
1809.83372,1614.11948
1809.83372,1614.11948
1811.38806,1611.40678
1811.38806,1611.40678
1812.9424,1608.69409
1812.9424,1608.69409
1814.49673,1603.2687
1814.49673,1603.2687
1816.05107,1599.19966
1817.60541,1596.48696
1819.15975,1592.41792
1820.71409,1588.34887
1822.26843,1584.27983
1823.82277,1581.56713
1825.37711,1580.21079
1826.93144,1578.85444
1828.48578,1578.85444
1830.04012,1580.21079
1831.59446,1582.92348
1833.1488,1585.63618
1834.70314,1589.70522
1836.25748,1592.41792
1837.81182,1596.48696
1839.36615,1600.556
1840.92049,1604.62505
1842.47483,1608.69409
1844.02917,1611.40678
1845.58351,1615.47583
1847.13785,1619.54487
1848.69219,1622.25757
1850.24653,1626.32661
1851.80086,1629.03931
1853.3552,1630.39565
1854.90954,1631.752
1856.46388,1633.10835
1858.01822,1634.4647
1859.57256,1634.4647
1861.1269,1634.4647
1862.68124,1634.4647
1864.23557,1633.10835
1865.78991,1631.752
1867.34425,1629.03931
1868.89859,1626.32661
1870.45293,1623.61391
1872.00727,1620.90122
1873.56161,1618.18852
1875.11595,1612.76313
1876.67029,1610.05044
1878.22462,1607.33774
1879.77896,1603.2687
1881.3333,1599.19966
1882.88764,1596.48696
1884.44198,1595.13061
1885.99632,1592.41792
1887.55066,1589.70522
1889.105,1589.70522
1890.65933,1586.99253
1892.21367,1586.99253
1893.76801,1585.63618
1895.32235,1582.92348
1896.87669,1581.56713
1898.43103,1580.21079
1899.98537,1577.49809
1901.53971,1577.49809
1903.09404,1580.21079
1904.64838,1582.92348
1906.20272,1586.99253
1907.75706,1591.06157
1909.3114,1596.48696
1910.86574,1599.19966
1912.42008,1601.91235
1913.97442,1604.62505
1915.52875,1608.69409
1917.08309,1610.05044
1918.63743,1611.40678
1920.19177,1610.05044
1921.74611,1610.05044
1923.30045,1608.69409
1924.85479,1607.33774
1926.40913,1604.62505
1927.96346,1600.556
1929.5178,1599.19966
1931.07214,1596.48696
1932.62648,1593.77426
1934.18082,1592.41792
1935.73516,1591.06157
1937.2895,1589.70522
1938.84384,1588.34887
1940.39818,1586.99253
1941.95251,1588.34887
1943.50685,1584.27983
1943.50685,1589.70522
1945.06119,1589.70522
1945.06119,1585.63618
1946.61553,1592.41792
1948.16987,1593.77426
1949.72421,1593.77426
1951.27855,1595.13061
1952.83289,1596.48696
1954.38722,1597.84331
1955.94156,1599.19966
1957.4959,1599.19966
1959.05024,1600.556
1960.60458,1600.556
1962.15892,1600.556
1963.71326,1599.19966
1965.2676,1599.19966
1966.82193,1597.84331
1968.37627,1596.48696
1969.93061,1596.48696
1971.48495,1595.13061
1973.03929,1593.77426
1974.59363,1592.41792
1976.14797,1591.06157
1977.70231,1588.34887
1979.25664,1586.99253
1980.81098,1584.27983
1982.36532,1581.56713
1983.91966,1578.85444
1985.474,1576.14174
1987.02834,1574.7854
1988.58268,1572.0727
1990.13702,1570.71635
1991.69136,1569.36
1993.24569,1569.36
1994.80003,1569.36
1996.35437,1572.0727
1997.90871,1573.42905
1999.46305,1576.14174
2001.01739,1578.85444
2002.57173,1582.92348
2004.12607,1585.63618
2005.6804,1588.34887
2007.23474,1591.06157
2008.78908,1591.06157
2010.34342,1591.06157
2011.89776,1591.06157
2013.4521,1589.70522
2015.00644,1589.70522
2016.56078,1589.70522
2018.11511,1588.34887
2019.66945,1588.34887
2021.22379,1588.34887
2022.77813,1588.34887
2024.33247,1586.99253
2025.88681,1585.63618
2027.44115,1584.27983
2028.99549,1582.92348
2030.54982,1580.21079
2032.10416,1580.21079
2033.6585,1578.85444
2035.21284,1577.49809
2036.76718,1577.49809
2038.32152,1578.85444
2039.87586,1580.21079
2041.4302,1580.21079
2042.98453,1581.56713
2044.53887,1582.92348
2046.09321,1584.27983
2047.64755,1585.63618
2049.20189,1586.99253
2050.75623,1589.70522
2052.31057,1589.70522
2053.86491,1591.06157
2055.41925,1591.06157
2056.97358,1591.06157
2058.52792,1591.06157
2060.08226,1588.34887
2061.6366,1586.99253
2063.19094,1582.92348
2064.74528,1581.56713
2066.29962,1578.85444
2067.85396,1573.42905
2069.40829,1569.36
2070.96263,1565.29096
2070.96263,1557.15287
2070.96263,1555.79653
2070.96263,1553.08383
2070.96263,1551.72748
2070.96263,1570.71635
2072.51697,1550.37114
2072.51697,1547.65844
2072.51697,1554.44018
2072.51697,1559.86557
2072.51697,1569.36
2072.51697,1558.50922
2072.51697,1568.00366
2072.51697,1549.01479
2072.51697,1572.0727
2074.07131,1554.44018
2074.07131,1546.30209
2074.07131,1542.23305
2074.07131,1540.8767
2074.07131,1559.86557
2074.07131,1573.42905
2074.07131,1566.64731
2074.07131,1565.29096
2074.07131,1543.5894
2074.07131,1544.94575
2075.62565,1563.93461
2075.62565,1539.52035
2075.62565,1538.16401
2075.62565,1536.80766
2075.62565,1550.37114
2075.62565,1561.22192
2077.17999,1544.94575
2077.17999,1562.57827
2077.17999,1535.45131
2077.17999,1534.09496
2078.73433,1540.8767
2078.73433,1532.73862
2080.28867,1531.38227
2080.28867,1538.16401
2080.28867,1528.66957
2080.28867,1530.02592
2081.843,1536.80766
2083.39734,1538.16401
2084.95168,1540.8767
2086.50602,1544.94575
2088.06036,1546.30209
2089.6147,1549.01479
2091.16904,1551.72748
2092.72338,1554.44018
2094.27771,1557.15287
2095.83205,1558.50922
2097.38639,1559.86557
2098.94073,1559.86557
2100.49507,1561.22192
2102.04941,1562.57827
2103.60375,1562.57827
2105.15809,1562.57827
2106.71243,1562.57827
2108.26676,1562.57827
2109.8211,1562.57827
2111.37544,1562.57827
2112.92978,1562.57827
2114.48412,1562.57827
2116.03846,1561.22192
2117.5928,1559.86557
2119.14714,1558.50922
2120.70147,1555.79653
2122.25581,1554.44018
2123.81015,1551.72748
2125.36449,1549.01479
2126.91883,1546.30209
2128.47317,1543.5894
2130.02751,1540.8767
2131.58185,1539.52035
2133.13618,1538.16401
2134.69052,1536.80766
2136.24486,1535.45131
2137.7992,1534.09496
2139.35354,1532.73862
2140.90788,1532.73862
2142.46222,1531.38227
2144.01656,1532.73862
2145.57089,1536.80766
2147.12523,1538.16401
2148.67957,1542.23305
2150.23391,1546.30209
2151.78825,1550.37114
2153.34259,1554.44018
2154.89693,1555.79653
2156.45127,1559.86557
2158.0056,1559.86557
2159.55994,1559.86557
2161.11428,1558.50922
2162.66862,1558.50922
2164.22296,1558.50922
2165.7773,1558.50922
2167.33164,1558.50922
2168.88598,1559.86557
2170.44032,1559.86557
2171.99465,1561.22192
2173.54899,1561.22192
2175.10333,1559.86557
2176.65767,1558.50922
2178.21201,1557.15287
2179.76635,1557.15287
2181.32069,1553.08383
2181.32069,1551.72748
2181.32069,1557.15287
2182.87503,1554.44018
2182.87503,1555.79653
2184.42936,1555.79653
2185.9837,1557.15287
2185.9837,1558.50922
2185.9837,1565.29096
2185.9837,1561.22192
2185.9837,1562.57827
2185.9837,1563.93461
2185.9837,1559.86557
2185.9837,1566.64731
2185.9837,1568.00366
2187.53804,1568.00366
2189.09238,1568.00366
2190.64672,1568.00366
2192.20106,1568.00366
2193.7554,1568.00366
2195.30974,1569.36
2195.30974,1576.14174
2195.30974,1572.0727
2195.30974,1570.71635
2196.86407,1574.7854
2196.86407,1573.42905
2196.86407,1577.49809
2196.86407,1578.85444
2196.86407,1580.21079
2196.86407,1593.77426
2196.86407,1595.13061
2198.41841,1584.27983
2198.41841,1595.13061
2198.41841,1592.41792
2198.41841,1581.56713
2199.97275,1582.92348
2199.97275,1591.06157
2199.97275,1595.13061
2199.97275,1588.34887
2199.97275,1585.63618
2201.52709,1595.13061
2201.52709,1589.70522
2201.52709,1586.99253
2203.08143,1595.13061
2204.63577,1595.13061
2204.63577,1596.48696
2206.19011,1596.48696
2206.19011,1597.84331
2206.19011,1599.19966
2206.19011,1600.556
2206.19011,1601.91235
2206.19011,1603.2687
2207.74445,1603.2687
2209.29878,1603.2687
2210.85312,1603.2687
2212.40746,1603.2687
2213.9618,1603.2687
2215.51614,1603.2687
2217.07048,1601.91235
2218.62482,1601.91235
2218.62482,1600.556
2220.17916,1600.556
2220.17916,1599.19966
2221.7335,1599.19966
2221.7335,1597.84331
2223.28783,1597.84331
2223.28783,1596.48696
2224.84217,1596.48696
2226.39651,1596.48696
2226.39651,1595.13061
2227.95085,1595.13061
2227.95085,1593.77426
2229.50519,1593.77426
2229.50519,1592.41792
2229.50519,1591.06157
2229.50519,1589.70522
2229.50519,1588.34887
2229.50519,1586.99253
2231.05953,1586.99253
2232.61387,1586.99253
2232.61387,1585.63618
2234.16821,1585.63618
2234.16821,1584.27983
2235.72254,1584.27983
2235.72254,1582.92348
2237.27688,1582.92348
2238.83122,1582.92348
2240.38556,1582.92348
2241.9399,1582.92348
2243.49424,1582.92348
2245.04858,1582.92348
2245.04858,1581.56713
2245.04858,1580.21079
2245.04858,1578.85444
2245.04858,1577.49809
2246.60292,1577.49809
2248.15725,1577.49809
2249.71159,1577.49809
2249.71159,1570.71635
2249.71159,1572.0727
2249.71159,1568.00366
2249.71159,1569.36
2251.26593,1573.42905
2251.26593,1566.64731
2251.26593,1577.49809
2252.82027,1577.49809
2252.82027,1574.7854
2252.82027,1576.14174
2252.82027,1565.29096
2254.37461,1563.93461
2254.37461,1562.57827
2254.37461,1561.22192
2254.37461,1559.86557
2254.37461,1558.50922
2254.37461,1555.79653
2255.92895,1557.15287
2255.92895,1554.44018
2255.92895,1553.08383
2257.48329,1551.72748
2257.48329,1550.37114
2259.03763,1549.01479
2259.03763,1547.65844
2260.59196,1546.30209
2260.59196,1544.94575
2260.59196,1543.5894
2260.59196,1542.23305
2260.59196,1539.52035
2262.1463,1540.8767
2262.1463,1538.16401
2262.1463,1536.80766
2262.1463,1535.45131
2263.70064,1534.09496
2265.25498,1532.73862
2265.25498,1531.38227
2265.25498,1530.02592
2266.80932,1527.31322
2266.80932,1528.66957
2266.80932,1530.02592
2268.36366,1543.5894
2268.36366,1525.95688
2268.36366,1544.94575
2269.918,1525.95688
2269.918,1542.23305
2269.918,1540.8767
2269.918,1539.52035
2271.47234,1538.16401
2271.47234,1536.80766
2271.47234,1524.60053
2271.47234,1520.53149
2271.47234,1532.73862
2271.47234,1534.09496
2271.47234,1535.45131
2273.02667,1519.17514
2273.02667,1524.60053
2273.02667,1523.24418
2273.02667,1521.88783
2274.58101,1516.46244
2274.58101,1517.81879
2276.13535,1517.81879
2276.13535,1519.17514
2276.13535,1521.88783
2276.13535,1516.46244
2277.68969,1520.53149
2277.68969,1523.24418
2277.68969,1521.88783
2279.24403,1524.60053
2279.24403,1523.24418
2280.79837,1525.95688
2280.79837,1527.31322
2280.79837,1530.02592
2280.79837,1531.38227
2280.79837,1532.73862
2280.79837,1534.09496
2280.79837,1535.45131
2280.79837,1536.80766
2280.79837,1538.16401
2280.79837,1528.66957
2282.35271,1539.52035
2282.35271,1538.16401
2283.90705,1540.8767
2283.90705,1539.52035
2285.46139,1540.8767
2287.01572,1543.5894
2287.01572,1542.23305
2288.57006,1544.94575
2288.57006,1543.5894
2290.1244,1544.94575
2291.67874,1544.94575
2293.23308,1544.94575
2294.78742,1544.94575
2296.34176,1544.94575
2296.34176,1546.30209
2296.34176,1547.65844
2297.8961,1547.65844
2297.8961,1549.01479
2299.45043,1550.37114
2299.45043,1551.72748
2299.45043,1553.08383
2299.45043,1555.79653
2301.00477,1554.44018
2301.00477,1557.15287
2301.00477,1558.50922
2301.00477,1559.86557
2302.55911,1561.22192
2302.55911,1562.57827
2304.11345,1563.93461
2304.11345,1565.29096
2304.11345,1566.64731
2304.11345,1592.41792
2304.11345,1599.19966
2304.11345,1570.71635
2304.11345,1593.77426
2304.11345,1597.84331
2304.11345,1596.48696
2305.66779,1595.13061
2305.66779,1572.0727
2305.66779,1578.85444
2305.66779,1569.36
2305.66779,1600.556
2305.66779,1607.33774
2305.66779,1605.98139
2305.66779,1604.62505
2305.66779,1603.2687
2305.66779,1601.91235
2305.66779,1574.7854
2305.66779,1591.06157
2305.66779,1568.00366
2305.66779,1573.42905
2307.22213,1576.14174
2307.22213,1581.56713
2307.22213,1577.49809
2307.22213,1580.21079
2307.22213,1589.70522
2307.22213,1614.11948
2307.22213,1586.99253
2307.22213,1585.63618
2307.22213,1584.27983
2307.22213,1582.92348
2307.22213,1608.69409
2307.22213,1610.05044
2307.22213,1612.76313
2308.77647,1611.40678
2308.77647,1588.34887
2308.77647,1615.47583
2308.77647,1616.83218
2308.77647,1618.18852
2308.77647,1619.54487
2308.77647,1620.90122
2308.77647,1624.97026
2308.77647,1623.61391
2308.77647,1627.68296
2308.77647,1626.32661
2310.33081,1635.82104
2310.33081,1629.03931
2310.33081,1630.39565
2310.33081,1631.752
2310.33081,1633.10835
2310.33081,1634.4647
2310.33081,1622.25757
2310.33081,1637.17739
2310.33081,1638.53374
2310.33081,1639.89009
2310.33081,1641.24644
2310.33081,1642.60278
2310.33081,1643.95913
2311.88514,1645.31548
2311.88514,1646.67183
2311.88514,1648.02817
2311.88514,1649.38452
2311.88514,1650.74087
2311.88514,1652.09722
2311.88514,1653.45357
2311.88514,1654.80991
2313.43948,1656.16626
2313.43948,1657.52261
2313.43948,1658.87896
2313.43948,1660.2353
2313.43948,1664.30435
2313.43948,1662.948
2313.43948,1667.01704
2313.43948,1665.66069
2314.99382,1661.59165
2314.99382,1668.37339
2314.99382,1669.72974
2314.99382,1671.08609
2314.99382,1672.44243
2314.99382,1673.79878
2314.99382,1675.15513
2314.99382,1676.51148
2314.99382,1677.86782
2314.99382,1679.22417
2314.99382,1680.58052
2314.99382,1681.93687
2314.99382,1683.29322
2316.54816,1684.64956
2316.54816,1686.00591
2316.54816,1687.36226
2316.54816,1688.71861
2316.54816,1690.07495
2316.54816,1691.4313
2316.54816,1692.78765
2318.1025,1694.144
2318.1025,1695.50035
2318.1025,1696.85669
2318.1025,1700.92574
2318.1025,1698.21304
2318.1025,1704.99478
2318.1025,1702.28208
2318.1025,1703.63843
2319.65684,1714.48921
2319.65684,1706.35113
2319.65684,1707.70748
2319.65684,1709.06382
2319.65684,1710.42017
2319.65684,1711.77652
2319.65684,1713.13287
2319.65684,1699.56939
2321.21118,1715.84556
2321.21118,1717.20191
2322.76552,1718.55826
2322.76552,1733.47808
2322.76552,1719.9146
2324.31985,1734.83443
2324.31985,1725.34
2324.31985,1726.69634
2324.31985,1728.05269
2324.31985,1729.40904
2324.31985,1730.76539
2324.31985,1736.19078
2324.31985,1721.27095
2324.31985,1732.12173
2324.31985,1738.90347
2324.31985,1737.54713
2324.31985,1741.61617
2324.31985,1740.25982
2325.87419,1723.98365
2325.87419,1742.97252
2325.87419,1722.6273
2327.42853,1744.32886
2327.42853,1684.64956
2327.42853,1755.17965
2327.42853,1757.89234
2328.98287,1756.53599
2328.98287,1686.00591
2328.98287,1753.8233
2328.98287,1790.44469
2328.98287,1745.68521
2328.98287,1759.24869
2328.98287,1761.96139
2330.53721,1760.60504
2330.53721,1787.73199
2330.53721,1687.36226
2330.53721,1763.31773
2330.53721,1789.08834
2330.53721,1747.04156
2330.53721,1752.46695
2332.09155,1787.73199
2332.09155,1748.39791
2332.09155,1690.07495
2332.09155,1691.4313
2332.09155,1764.67408
2332.09155,1786.37564
2332.09155,1785.0193
2332.09155,1783.66295
2332.09155,1688.71861
2332.09155,1751.1106
2332.09155,1749.75426
2333.64589,1771.45582
2333.64589,1774.16851
2333.64589,1775.52486
2333.64589,1776.88121
2333.64589,1778.23756
2333.64589,1768.74312
2333.64589,1772.81217
2333.64589,1782.3066
2333.64589,1766.03043
2333.64589,1767.38678
2333.64589,1770.09947
2335.20023,1780.95025
2335.20023,1779.59391
2339.86324,1787.73199
2339.86324,1789.08834
2339.86324,1790.44469
2339.86324,1791.80104
2339.86324,1782.3066
2339.86324,1780.95025
2341.41758,1779.59391
2341.41758,1791.80104
2341.41758,1786.37564
2341.41758,1785.0193
2341.41758,1783.66295
2342.97192,1779.59391
2344.52626,1778.23756
2346.0806,1775.52486
2346.0806,1776.88121
2347.63494,1745.68521
2347.63494,1775.52486
2347.63494,1747.04156
2347.63494,1744.32886
2347.63494,1749.75426
2349.18928,1772.81217
2349.18928,1751.1106
2349.18928,1748.39791
2349.18928,1774.16851
2349.18928,1771.45582
2349.18928,1741.61617
2349.18928,1742.97252
2349.18928,1740.25982
2349.18928,1738.90347
2349.18928,1736.19078
2349.18928,1733.47808
2349.18928,1734.83443
2350.74361,1737.54713
2350.74361,1732.12173
2350.74361,1730.76539
2350.74361,1729.40904
2350.74361,1759.24869
2350.74361,1726.69634
2350.74361,1725.34
2350.74361,1723.98365
2350.74361,1767.38678
2350.74361,1770.09947
2350.74361,1752.46695
2350.74361,1768.74312
2350.74361,1764.67408
2350.74361,1766.03043
2352.29795,1722.6273
2352.29795,1756.53599
2352.29795,1757.89234
2352.29795,1728.05269
2352.29795,1760.60504
2352.29795,1761.96139
2352.29795,1763.31773
2352.29795,1755.17965
2352.29795,1753.8233
2352.29795,1717.20191
2352.29795,1718.55826
2352.29795,1721.27095
2353.85229,1702.28208
2353.85229,1719.9146
2353.85229,1715.84556
2353.85229,1714.48921
2353.85229,1713.13287
2353.85229,1711.77652
2353.85229,1710.42017
2353.85229,1703.63843
2353.85229,1707.70748
2353.85229,1706.35113
2353.85229,1704.99478
2355.40663,1709.06382
2355.40663,1700.92574
2355.40663,1696.85669
2355.40663,1699.56939
2355.40663,1692.78765
2355.40663,1691.4313
2355.40663,1690.07495
2355.40663,1688.71861
2355.40663,1698.21304
2355.40663,1694.144
2356.96097,1684.64956
2356.96097,1681.93687
2356.96097,1686.00591
2356.96097,1695.50035
2356.96097,1680.58052
2356.96097,1679.22417
2356.96097,1687.36226
2358.51531,1668.37339
2358.51531,1669.72974
2358.51531,1671.08609
2358.51531,1677.86782
2358.51531,1673.79878
2358.51531,1675.15513
2358.51531,1676.51148
2358.51531,1667.01704
2358.51531,1683.29322
2360.06965,1665.66069
2360.06965,1672.44243
2360.06965,1664.30435
2360.06965,1662.948
2360.06965,1661.59165
2360.06965,1660.2353
2360.06965,1658.87896
2360.06965,1657.52261
2360.06965,1656.16626
2360.06965,1654.80991
2360.06965,1653.45357
2360.06965,1652.09722
2360.06965,1650.74087
2361.62399,1649.38452
2361.62399,1648.02817
2361.62399,1645.31548
2361.62399,1643.95913
2361.62399,1642.60278
2363.17832,1646.67183
2363.17832,1638.53374
2363.17832,1639.89009
2363.17832,1641.24644
2363.17832,1637.17739
2363.17832,1635.82104
2363.17832,1634.4647
2364.73266,1633.10835
2364.73266,1631.752
2366.287,1630.39565
2366.287,1629.03931
2367.84134,1627.68296
2367.84134,1616.83218
2367.84134,1619.54487
2367.84134,1620.90122
2367.84134,1615.47583
2369.39568,1614.11948
2369.39568,1622.25757
2369.39568,1618.18852
2369.39568,1626.32661
2370.95002,1624.97026
2370.95002,1623.61391
2370.95002,1612.76313
2372.50436,1611.40678
2372.50436,1610.05044
2372.50436,1604.62505
2372.50436,1605.98139
2372.50436,1601.91235
2372.50436,1603.2687
2374.0587,1608.69409
2374.0587,1601.91235
2374.0587,1607.33774
2375.61303,1601.91235
2377.16737,1601.91235
2378.72171,1601.91235
2380.27605,1601.91235
2381.83039,1600.556
2383.38473,1599.19966
2384.93907,1599.19966
2384.93907,1597.84331
2386.49341,1596.48696
2386.49341,1595.13061
2386.49341,1593.77426
2386.49341,1592.41792
2392.71076,1580.21079
2392.71076,1581.56713
2392.71076,1582.92348
2394.2651,1584.27983
2394.2651,1585.63618
2394.2651,1586.99253
2395.81944,1586.99253
2397.37378,1588.34887
2397.37378,1605.98139
2397.37378,1604.62505
2397.37378,1603.2687
2397.37378,1595.13061
2397.37378,1596.48696
2397.37378,1597.84331
2397.37378,1589.70522
2397.37378,1607.33774
2398.92812,1600.556
2398.92812,1592.41792
2398.92812,1591.06157
2398.92812,1593.77426
2398.92812,1601.91235
2398.92812,1608.69409
2398.92812,1599.19966
2400.48246,1610.05044
2402.03679,1610.05044
2403.59113,1610.05044
2405.14547,1608.69409
2406.69981,1608.69409
2408.25415,1610.05044
2409.80849,1611.40678
2411.36283,1601.91235
2411.36283,1610.05044
2411.36283,1608.69409
2411.36283,1607.33774
2411.36283,1605.98139
2411.36283,1604.62505
2411.36283,1603.2687
2411.36283,1597.84331
2411.36283,1600.556
2411.36283,1599.19966
2411.36283,1593.77426
2411.36283,1596.48696
2411.36283,1595.13061
2412.91717,1588.34887
2412.91717,1592.41792
2412.91717,1584.27983
2412.91717,1585.63618
2412.91717,1589.70522
2414.4715,1591.06157
2414.4715,1586.99253
2414.4715,1581.56713
2414.4715,1582.92348
2416.02584,1577.49809
2416.02584,1580.21079
2417.58018,1578.85444
2417.58018,1568.00366
2417.58018,1576.14174
2417.58018,1574.7854
2417.58018,1573.42905
2417.58018,1569.36
2417.58018,1570.71635
2419.13452,1572.0727
2419.13452,1565.29096
2419.13452,1566.64731
2419.13452,1563.93461
2420.68886,1561.22192
2420.68886,1562.57827
2422.2432,1559.86557
2423.79754,1558.50922
2425.35188,1558.50922
2426.90621,1558.50922
2426.90621,1549.01479
2428.46055,1558.50922
2428.46055,1550.37114
2428.46055,1551.72748
2428.46055,1553.08383
2428.46055,1554.44018
2428.46055,1555.79653
2428.46055,1557.15287
2428.46055,1546.30209
2428.46055,1547.65844
2428.46055,1544.94575
2442.4496,1576.14174
2444.00394,1577.49809
2445.55828,1576.14174
2447.11262,1576.14174
2448.66696,1573.42905
2450.2213,1572.0727
2451.77564,1569.36
2453.32997,1568.00366
2454.88431,1565.29096
2456.43865,1563.93461
2457.99299,1562.57827
2459.54733,1563.93461
2461.10167,1563.93461
2462.65601,1565.29096
2464.21035,1566.64731
2465.76468,1566.64731
2467.31902,1566.64731
2468.87336,1566.64731
2470.4277,1566.64731
2471.98204,1568.00366
2473.53638,1572.0727
2475.09072,1574.7854
2476.64506,1578.85444
2478.19939,1584.27983
2479.75373,1589.70522
2481.30807,1595.13061
2482.86241,1600.556
2484.41675,1607.33774
2485.97109,1611.40678
2487.52543,1616.83218
2489.07977,1620.90122
2490.6341,1622.25757
2492.18844,1623.61391
2493.74278,1627.68296
2495.29712,1629.03931
2496.85146,1630.39565
2498.4058,1630.39565
2499.96014,1629.03931
2501.51448,1626.32661
2503.06881,1623.61391
2504.62315,1619.54487
2506.17749,1615.47583
2507.73183,1611.40678
2509.28617,1607.33774
2510.84051,1603.2687
2512.39485,1599.19966
2513.94919,1596.48696
2515.50353,1593.77426
2517.05786,1591.06157
2518.6122,1588.34887
2520.16654,1585.63618
2521.72088,1581.56713
2523.27522,1578.85444
2524.82956,1576.14174
2526.3839,1573.42905
2527.93824,1572.0727
2529.49257,1569.36
2531.04691,1568.00366
2532.60125,1568.00366
2534.15559,1568.00366
2535.70993,1572.0727
2537.26427,1574.7854
2538.81861,1577.49809
2540.37295,1580.21079
2541.92728,1584.27983
2543.48162,1588.34887
2545.03596,1592.41792
2546.5903,1595.13061
2548.14464,1599.19966
2549.69898,1603.2687
2551.25332,1604.62505
2552.80766,1605.98139
2554.36199,1605.98139
2555.91633,1601.91235
2557.47067,1597.84331
2559.02501,1595.13061
2560.57935,1589.70522
2562.13369,1584.27983
2563.68803,1580.21079
2565.24237,1576.14174
2566.79671,1570.71635
2568.35104,1566.64731
2569.90538,1563.93461
2571.45972,1562.57827
2573.01406,1562.57827
2574.5684,1562.57827
2576.12274,1565.29096
2577.67708,1569.36
2579.23142,1572.0727
2580.78575,1573.42905
2582.34009,1576.14174
2583.89443,1578.85444
2585.44877,1580.21079
2587.00311,1580.21079
2588.55745,1581.56713
2590.11179,1581.56713
2591.66613,1582.92348
2593.22046,1584.27983
2594.7748,1585.63618
2596.32914,1588.34887
2597.88348,1589.70522
2599.43782,1589.70522
2600.99216,1589.70522
2602.5465,1588.34887
2604.10084,1585.63618
2605.65517,1584.27983
2607.20951,1582.92348
2608.76385,1582.92348
2610.31819,1582.92348
2611.87253,1585.63618
2613.42687,1588.34887
2614.98121,1591.06157
2616.53555,1592.41792
2618.08988,1592.41792
2619.64422,1591.06157
2621.19856,1588.34887
2622.7529,1585.63618
2624.30724,1582.92348
2625.86158,1581.56713
2627.41592,1582.92348
2628.97026,1584.27983
2630.5246,1586.99253
2632.07893,1589.70522
2633.63327,1592.41792
2635.18761,1593.77426
2636.74195,1595.13061
2638.29629,1593.77426
2639.85063,1591.06157
2641.40497,1589.70522
2642.95931,1586.99253
2644.51364,1585.63618
2646.06798,1585.63618
2647.62232,1584.27983
2649.17666,1584.27983
2650.731,1584.27983
2652.28534,1582.92348
2653.83968,1581.56713
2655.39402,1578.85444
2656.94835,1576.14174
2658.50269,1573.42905
2660.05703,1570.71635
2661.61137,1568.00366
2663.16571,1569.36
2664.72005,1570.71635
2666.27439,1572.0727
2667.82873,1576.14174
2669.38306,1580.21079
2670.9374,1584.27983
2672.49174,1588.34887
2674.04608,1591.06157
2675.60042,1596.48696
2677.15476,1599.19966
2678.7091,1601.91235
2680.26344,1605.98139
2681.81778,1608.69409
2683.37211,1610.05044
2684.92645,1611.40678
2686.48079,1611.40678
2688.03513,1611.40678
2689.58947,1611.40678
2691.14381,1611.40678
2692.69815,1611.40678
2694.25249,1610.05044
2695.80682,1610.05044
2697.36116,1608.69409
2698.9155,1608.69409
2700.46984,1608.69409
2702.02418,1607.33774
2703.57852,1607.33774
2705.13286,1605.98139
2706.6872,1604.62505
2708.24153,1603.2687
2709.79587,1601.91235
2711.35021,1600.556
2712.90455,1599.19966
2714.45889,1599.19966
2716.01323,1599.19966
2717.56757,1600.556
2719.12191,1601.91235
2720.67624,1604.62505
2722.23058,1607.33774
2723.78492,1608.69409
2725.33926,1611.40678
2726.8936,1614.11948
2728.44794,1615.47583
2730.00228,1618.18852
2731.55662,1618.18852
2733.11095,1618.18852
2734.66529,1615.47583
2736.21963,1612.76313
2737.77397,1610.05044
2739.32831,1603.2687
2740.88265,1597.84331
2742.43699,1593.77426
2743.99133,1588.34887
2745.54567,1582.92348
2747.1,1577.49809
2748.65434,1574.7854
2750.20868,1572.0727
2751.76302,1574.7854
2753.31736,1576.14174
2754.8717,1580.21079
2756.42604,1584.27983
2757.98038,1588.34887
2759.53471,1591.06157
2761.08905,1595.13061
2762.64339,1597.84331
2764.19773,1599.19966
2765.75207,1597.84331
2767.30641,1596.48696
2768.86075,1593.77426
2770.41509,1588.34887
2771.96942,1584.27983
2773.52376,1578.85444
2775.0781,1572.0727
2776.63244,1565.29096
2778.18678,1559.86557
2779.74112,1553.08383
2781.29546,1547.65844
2782.8498,1543.5894
2784.40413,1540.8767
2785.95847,1539.52035
2787.51281,1542.23305
2789.06715,1546.30209
2790.62149,1551.72748
2792.17583,1558.50922
2793.73017,1565.29096
2795.28451,1572.0727
2796.83885,1578.85444
2798.39318,1584.27983
2799.94752,1591.06157
2801.50186,1597.84331
2803.0562,1601.91235
2804.61054,1608.69409
2806.16488,1614.11948
2807.71922,1618.18852
2809.27356,1620.90122
2810.82789,1623.61391
2812.38223,1624.97026
2813.93657,1624.97026
2815.49091,1622.25757
2817.04525,1619.54487
2818.59959,1616.83218
2820.15393,1614.11948
2821.70827,1611.40678
2823.2626,1608.69409
2824.81694,1604.62505
2826.37128,1600.556
2827.92562,1597.84331
2829.47996,1595.13061
2831.0343,1591.06157
2832.58864,1588.34887
2834.14298,1584.27983
2835.69731,1581.56713
2837.25165,1577.49809
2838.80599,1573.42905
2840.36033,1570.71635
2841.91467,1568.00366
2843.46901,1563.93461
2845.02335,1561.22192
2846.57769,1559.86557
2848.13202,1558.50922
2849.68636,1555.79653
2851.2407,1555.79653
2852.79504,1555.79653
2854.34938,1558.50922
2855.90372,1561.22192
2857.45806,1563.93461
2859.0124,1566.64731
2860.56674,1569.36
2862.12107,1573.42905
2863.67541,1574.7854
2865.22975,1577.49809
2866.78409,1581.56713
2868.33843,1581.56713
2869.89277,1581.56713
2871.44711,1581.56713
2873.00145,1578.85444
2874.55578,1576.14174
2876.11012,1574.7854
2877.66446,1572.0727
2879.2188,1568.00366
2880.77314,1565.29096
2882.32748,1563.93461
2883.88182,1561.22192
2885.43616,1558.50922
2886.99049,1558.50922
2888.54483,1558.50922
2890.09917,1559.86557
2891.65351,1562.57827
2893.20785,1566.64731
2894.76219,1570.71635
2896.31653,1574.7854
2897.87087,1577.49809
2899.4252,1581.56713
2900.97954,1584.27983
2902.53388,1585.63618
2904.08822,1585.63618
2905.64256,1585.63618
2907.1969,1585.63618
2908.75124,1585.63618
2910.30558,1585.63618
2911.85992,1585.63618
2913.41425,1585.63618
2914.96859,1585.63618
2916.52293,1584.27983
2918.07727,1581.56713
2919.63161,1580.21079
2921.18595,1578.85444
2922.74029,1576.14174
2924.29463,1574.7854
2925.84896,1573.42905
2927.4033,1570.71635
2928.95764,1570.71635
2930.51198,1570.71635
2932.06632,1572.0727
2933.62066,1572.0727
2935.175,1572.0727
2936.72934,1573.42905
2938.28367,1573.42905
2939.83801,1573.42905
2941.39235,1574.7854
2942.94669,1574.7854
2944.50103,1576.14174
2946.05537,1576.14174
2947.60971,1577.49809
2949.16405,1578.85444
2950.71838,1580.21079
2952.27272,1580.21079
2953.82706,1580.21079
2955.3814,1580.21079
2956.93574,1580.21079
2958.49008,1577.49809
2960.04442,1576.14174
2961.59876,1574.7854
2963.15309,1572.0727
2964.70743,1569.36
2966.26177,1566.64731
2967.81611,1565.29096
2969.37045,1562.57827
2970.92479,1562.57827
2972.47913,1563.93461
2974.03347,1566.64731
2975.58781,1570.71635
2977.14214,1573.42905
2978.69648,1577.49809
2980.25082,1580.21079
2981.80516,1584.27983
2983.3595,1588.34887
2984.91384,1592.41792
2986.46818,1593.77426
2988.02252,1596.48696
2989.57685,1597.84331
2991.13119,1597.84331
2992.68553,1597.84331
2994.23987,1596.48696
2995.79421,1595.13061
2997.34855,1593.77426
2998.90289,1593.77426
3000.45723,1592.41792
3002.01156,1589.70522
3003.5659,1586.99253
3005.12024,1584.27983
3006.67458,1581.56713
3008.22892,1578.85444
3009.78326,1576.14174
3011.3376,1574.7854
3012.89194,1573.42905
3014.44627,1574.7854
3016.00061,1577.49809
3017.55495,1580.21079
3019.10929,1582.92348
3020.66363,1584.27983
3022.21797,1584.27983
3023.77231,1582.92348
3025.32665,1580.21079
3026.88099,1578.85444
3028.43532,1577.49809
3029.98966,1576.14174
3031.544,1574.7854
3033.09834,1576.14174
3034.65268,1576.14174
3036.20702,1577.49809
3037.76136,1578.85444
3039.3157,1578.85444
3040.87003,1578.85444
3042.42437,1578.85444
3043.97871,1580.21079
3045.53305,1582.92348
3047.08739,1585.63618
3048.64173,1588.34887
3050.19607,1592.41792
3051.75041,1596.48696
3053.30474,1600.556
3054.85908,1603.2687
3056.41342,1605.98139
3057.96776,1610.05044
3059.5221,1611.40678
3061.07644,1612.76313
3062.63078,1612.76313
3064.18512,1614.11948
3065.73945,1616.83218
3067.29379,1618.18852
3068.84813,1619.54487
3070.40247,1622.25757
3071.95681,1623.61391
3073.51115,1623.61391
3075.06549,1623.61391
3076.61983,1622.25757
3078.17416,1619.54487
3079.7285,1618.18852
3081.28284,1616.83218
3082.83718,1615.47583
3084.39152,1614.11948
3085.94586,1614.11948
3087.5002,1611.40678
3089.05454,1610.05044
3090.60888,1607.33774
3092.16321,1604.62505
3093.71755,1601.91235
3095.27189,1599.19966
3096.82623,1596.48696
3098.38057,1593.77426
3099.93491,1592.41792
3101.48925,1593.77426
3103.04359,1593.77426
3104.59792,1595.13061
3106.15226,1595.13061
3107.7066,1595.13061
3109.26094,1595.13061
3110.81528,1595.13061
3112.36962,1592.41792
3113.92396,1592.41792
3115.4783,1591.06157
3117.03263,1591.06157
3118.58697,1593.77426
3120.14131,1593.77426
3121.69565,1595.13061
3123.24999,1596.48696
3124.80433,1597.84331
3126.35867,1599.19966
3127.91301,1599.19966
3129.46734,1600.556
3131.02168,1599.19966
3132.57602,1597.84331
3134.13036,1595.13061
3135.6847,1592.41792
3137.23904,1589.70522
3138.79338,1586.99253
3140.34772,1584.27983
3141.90206,1581.56713
3143.45639,1581.56713
3145.01073,1582.92348
3146.56507,1584.27983
3148.11941,1588.34887
3149.67375,1591.06157
3151.22809,1595.13061
3152.78243,1597.84331
3154.33677,1603.2687
3155.8911,1610.05044
3157.44544,1615.47583
3158.99978,1619.54487
3160.55412,1626.32661
3162.10846,1631.752
3163.6628,1635.82104
3165.21714,1639.89009
3166.77148,1642.60278
3168.32581,1646.67183
3169.88015,1650.74087
3171.43449,1653.45357
3172.98883,1656.16626
3174.54317,1657.52261
3176.09751,1657.52261
3177.65185,1657.52261
3179.20619,1656.16626
3180.76052,1653.45357
3182.31486,1649.38452
3183.8692,1646.67183
3185.42354,1642.60278
3186.97788,1638.53374
3188.53222,1634.4647
3190.08656,1630.39565
3191.6409,1626.32661
3193.19523,1622.25757
3194.74957,1619.54487
3196.30391,1616.83218
3197.85825,1614.11948
3199.41259,1614.11948
3200.96693,1612.76313
3202.52127,1614.11948
3204.07561,1616.83218
3205.62995,1619.54487
3207.18428,1622.25757
3208.73862,1624.97026
3210.29296,1629.03931
3211.8473,1631.752
3213.40164,1633.10835
3214.95598,1637.17739
3216.51032,1638.53374
3218.06466,1641.24644
3219.61899,1641.24644
3221.17333,1641.24644
3222.72767,1638.53374
3224.28201,1638.53374
3225.83635,1637.17739
3227.39069,1637.17739
3228.94503,1638.53374
3230.49937,1641.24644
3232.0537,1642.60278
3233.60804,1642.60278
3235.16238,1641.24644
3236.71672,1638.53374
3238.27106,1635.82104
3239.8254,1631.752
3241.37974,1629.03931
3242.93408,1626.32661
3244.48841,1623.61391
3246.04275,1620.90122
3247.59709,1618.18852
3249.15143,1618.18852
3250.70577,1616.83218
3252.26011,1616.83218
3253.81445,1616.83218
3255.36879,1618.18852
3256.92313,1619.54487
3258.47746,1622.25757
3260.0318,1626.32661
3261.58614,1629.03931
3263.14048,1631.752
3264.69482,1637.17739
3266.24916,1639.89009
3267.8035,1643.95913
3269.35784,1643.95913
3270.91217,1643.95913
3272.46651,1641.24644
3274.02085,1638.53374
3275.57519,1634.4647
3277.12953,1631.752
3278.68387,1627.68296
3280.23821,1623.61391
3281.79255,1620.90122
3283.34688,1618.18852
3284.90122,1616.83218
3286.45556,1614.11948
3288.0099,1614.11948
3289.56424,1614.11948
3291.11858,1615.47583
3292.67292,1619.54487
3294.22726,1623.61391
3295.78159,1627.68296
3297.33593,1630.39565
3298.89027,1634.4647
3300.44461,1639.89009
3301.99895,1642.60278
3303.55329,1645.31548
3305.10763,1646.67183
3306.66197,1646.67183
3308.2163,1646.67183
3309.77064,1643.95913
3311.32498,1643.95913
3312.87932,1642.60278
3314.43366,1641.24644
3315.988,1641.24644
3317.54234,1639.89009
3319.09668,1639.89009
3320.65102,1638.53374
3322.20535,1638.53374
3323.75969,1638.53374
3325.31403,1638.53374
3326.86837,1638.53374
3328.42271,1638.53374
3329.97705,1638.53374
3331.53139,1638.53374
3333.08573,1638.53374
3334.64006,1638.53374
3336.1944,1637.17739
3337.74874,1635.82104
3339.30308,1633.10835
3340.85742,1630.39565
3342.41176,1627.68296
3343.9661,1626.32661
3345.52044,1624.97026
3347.07477,1624.97026
3348.62911,1626.32661
3350.18345,1627.68296
3351.73779,1627.68296
3353.29213,1629.03931
3354.84647,1630.39565
3356.40081,1631.752
3357.95515,1631.752
3359.50948,1631.752
3361.06382,1631.752
3362.61816,1631.752
3364.1725,1630.39565
3365.72684,1629.03931
3367.28118,1627.68296
3368.83552,1624.97026
3370.38986,1623.61391
3371.9442,1623.61391
3373.49853,1622.25757
3375.05287,1622.25757
3376.60721,1620.90122
3378.16155,1620.90122
3379.71589,1622.25757
3381.27023,1622.25757
3382.82457,1623.61391
3384.37891,1624.97026
3385.93324,1626.32661
3387.48758,1627.68296
3389.04192,1630.39565
3390.59626,1633.10835
3392.1506,1634.4647
3393.70494,1635.82104
3395.25928,1638.53374
3396.81362,1638.53374
3398.36795,1639.89009
3399.92229,1638.53374
3401.47663,1638.53374
3403.03097,1637.17739
3404.58531,1635.82104
3406.13965,1634.4647
3407.69399,1633.10835
3409.24833,1631.752
3410.80266,1630.39565
3412.357,1629.03931
3413.91134,1629.03931
3415.46568,1627.68296
3417.02002,1627.68296
3418.57436,1629.03931
3420.1287,1630.39565
3421.68304,1631.752
3423.23737,1634.4647
3424.79171,1637.17739
3426.34605,1639.89009
3427.90039,1641.24644
3429.45473,1643.95913
3431.00907,1646.67183
3432.56341,1649.38452
3434.11775,1650.74087
3435.67209,1650.74087
3437.22642,1649.38452
3438.78076,1645.31548
3440.3351,1643.95913
3441.88944,1639.89009
3443.44378,1637.17739
3444.99812,1634.4647
3446.55246,1633.10835
3448.1068,1630.39565
3449.66113,1630.39565
3451.21547,1631.752
3452.76981,1633.10835
3454.32415,1634.4647
3455.87849,1635.82104
3457.43283,1638.53374
3458.98717,1641.24644
3460.54151,1642.60278
3462.09584,1643.95913
3463.65018,1643.95913
3465.20452,1642.60278
3466.75886,1639.89009
3468.3132,1635.82104
3469.86754,1633.10835
3471.42188,1630.39565
3471.42188,1630.39565
3472.97622,1626.32661
3472.97622,1626.32661
3474.53055,1622.25757
3474.53055,1622.25757
3476.08489,1618.18852
3476.08489,1618.18852
3477.63923,1615.47583
3477.63923,1615.47583
3479.19357,1612.76313
3479.19357,1612.76313
3480.74791,1611.40678
3480.74791,1611.40678
3482.30225,1611.40678
3482.30225,1611.40678
3483.85659,1611.40678
3483.85659,1611.40678
3485.41093,1614.11948
3485.41093,1614.11948
3486.96527,1616.83218
3486.96527,1616.83218
3488.5196,1620.90122
3488.5196,1620.90122
3490.07394,1623.61391
3490.07394,1623.61391
3491.62828,1626.32661
3491.62828,1626.32661
3493.18262,1630.39565
3493.18262,1630.39565
3494.73696,1631.752
3494.73696,1631.752
3496.2913,1633.10835
3496.2913,1633.10835
3497.84564,1630.39565
3497.84564,1630.39565
3499.39998,1627.68296
3500.95431,1623.61391
3502.50865,1618.18852
3504.06299,1614.11948
3505.61733,1608.69409
3507.17167,1603.2687
3508.72601,1600.556
3510.28035,1597.84331
3511.83469,1595.13061
3513.38902,1591.06157
3514.94336,1589.70522
3516.4977,1589.70522
3518.05204,1591.06157
3519.60638,1592.41792
3521.16072,1595.13061
3522.71506,1597.84331
3524.2694,1600.556
3525.82373,1603.2687
3527.37807,1607.33774
3528.93241,1610.05044
3530.48675,1608.69409
3532.04109,1608.69409
3533.59543,1607.33774
3535.14977,1605.98139
3536.70411,1603.2687
3538.25844,1601.91235
3539.81278,1599.19966
3541.36712,1597.84331
3542.92146,1596.48696
3544.4758,1595.13061
3546.03014,1595.13061
3547.58448,1593.77426
3549.13882,1593.77426
3550.69316,1595.13061
3552.24749,1595.13061
3553.80183,1596.48696
3555.35617,1597.84331
3556.91051,1599.19966
3558.46485,1600.556
3560.01919,1601.91235
3561.57353,1603.2687
3563.12787,1604.62505
3564.6822,1607.33774
3566.23654,1608.69409
3567.79088,1610.05044
3569.34522,1611.40678
3570.89956,1611.40678
3572.4539,1610.05044
3574.00824,1608.69409
3575.56258,1607.33774
3577.11691,1604.62505
3578.67125,1601.91235
3580.22559,1597.84331
3581.77993,1596.48696
3583.33427,1593.77426
3584.88861,1591.06157
3586.44295,1588.34887
3587.99729,1585.63618
3589.55162,1582.92348
3591.10596,1580.21079
3592.6603,1577.49809
3594.21464,1576.14174
3595.76898,1576.14174
3597.32332,1578.85444
3598.87766,1580.21079
3600.432,1584.27983
3601.98634,1589.70522
3603.54067,1593.77426
3605.09501,1599.19966
3606.64935,1604.62505
3608.20369,1608.69409
3609.75803,1611.40678
3611.31237,1615.47583
3612.86671,1619.54487
3614.42105,1622.25757
3615.97538,1624.97026
3617.52972,1624.97026
3619.08406,1623.61391
3620.6384,1620.90122
3622.19274,1618.18852
3623.74708,1615.47583
3625.30142,1610.05044
3626.85576,1607.33774
3628.41009,1603.2687
3629.96443,1599.19966
3631.51877,1596.48696
3633.07311,1592.41792
3634.62745,1592.41792
3636.18179,1589.70522
3637.73613,1588.34887
3639.29047,1586.99253
3640.8448,1586.99253
3642.39914,1586.99253
3643.95348,1585.63618
3645.50782,1585.63618
3647.06216,1584.27983
3648.6165,1582.92348
3650.17084,1581.56713
3651.72518,1578.85444
3653.27951,1577.49809
3654.83385,1574.7854
3656.38819,1573.42905
3657.94253,1570.71635
3659.49687,1570.71635
3661.05121,1573.42905
3662.60555,1577.49809
3664.15989,1581.56713
3665.71423,1586.99253
3667.26856,1593.77426
3668.8229,1597.84331
3670.37724,1603.2687
3671.93158,1608.69409
3673.48592,1611.40678
3675.04026,1614.11948
3676.5946,1616.83218
3678.14894,1618.18852
3679.70327,1618.18852
3681.25761,1618.18852
3682.81195,1615.47583
3684.36629,1612.76313
3685.92063,1610.05044
3687.47497,1607.33774
3689.02931,1603.2687
3690.58365,1599.19966
3692.13798,1596.48696
3693.69232,1593.77426
3695.24666,1588.34887
3696.801,1584.27983
3698.35534,1581.56713
3699.90968,1580.21079
3701.46402,1577.49809
3703.01836,1576.14174
3704.57269,1573.42905
3706.12703,1572.0727
3707.68137,1569.36
3709.23571,1568.00366
3710.79005,1565.29096
3712.34439,1563.93461
3713.89873,1562.57827
3715.45307,1561.22192
3717.00741,1559.86557
3718.56174,1563.93461
3720.11608,1568.00366
3721.67042,1570.71635
3723.22476,1573.42905
3724.7791,1577.49809
3726.33344,1580.21079
3727.88778,1582.92348
3729.44212,1584.27983
3730.99645,1584.27983
3732.55079,1582.92348
3734.10513,1582.92348
3735.65947,1582.92348
3737.21381,1584.27983
3738.76815,1584.27983
3740.32249,1585.63618
3741.87683,1584.27983
3743.43116,1581.56713
3744.9855,1578.85444
3746.53984,1574.7854
3748.09418,1572.0727
3749.64852,1569.36
3751.20286,1569.36
3752.7572,1569.36
3754.31154,1572.0727
3755.86587,1576.14174
3757.42021,1578.85444
3758.97455,1582.92348
3760.52889,1585.63618
3762.08323,1588.34887
3763.63757,1592.41792
3765.19191,1595.13061
3766.74625,1596.48696
3768.30058,1599.19966
3769.85492,1601.91235
3771.40926,1604.62505
3772.9636,1605.98139
3774.51794,1607.33774
3776.07228,1607.33774
3777.62662,1605.98139
3779.18096,1604.62505
3780.7353,1601.91235
3782.28963,1600.556
3783.84397,1597.84331
3785.39831,1596.48696
3786.95265,1595.13061
3788.50699,1593.77426
3790.06133,1592.41792
3791.61567,1591.06157
3793.17001,1591.06157
3794.72434,1591.06157
3796.27868,1591.06157
3797.83302,1591.06157
3799.38736,1592.41792
3800.9417,1593.77426
3802.49604,1595.13061
3804.05038,1596.48696
3805.60472,1597.84331
3807.15905,1599.19966
3808.71339,1600.556
3810.26773,1603.2687
3811.82207,1604.62505
3813.37641,1605.98139
3814.93075,1607.33774
3816.48509,1605.98139
3818.03943,1604.62505
3819.59376,1603.2687
3821.1481,1600.556
3822.70244,1597.84331
3824.25678,1595.13061
3825.81112,1592.41792
3827.36546,1589.70522
3828.9198,1586.99253
3830.47414,1585.63618
3832.02848,1584.27983
3833.58281,1581.56713
3835.13715,1580.21079
3836.69149,1580.21079
3838.24583,1578.85444
3839.80017,1577.49809
3841.35451,1576.14174
3842.90885,1574.7854
3844.46319,1573.42905
3846.01752,1570.71635
3847.57186,1568.00366
3849.1262,1566.64731
3850.68054,1563.93461
3852.23488,1561.22192
3853.78922,1557.15287
3855.34356,1555.79653
3867.77827,1555.79653
3869.33261,1558.50922
3870.88694,1561.22192
3872.44128,1562.57827
3873.99562,1563.93461
3875.54996,1562.57827
3877.1043,1561.22192
3878.65864,1561.22192
3880.21298,1561.22192
3881.76732,1563.93461
3883.32165,1565.29096
3884.87599,1568.00366
3886.43033,1570.71635
3887.98467,1572.0727
3889.53901,1573.42905
3891.09335,1574.7854
3892.64769,1574.7854
3894.20203,1573.42905
3895.75637,1573.42905
3897.3107,1572.0727
3898.86504,1570.71635
3900.41938,1569.36
3901.97372,1568.00366
3903.52806,1566.64731
3905.0824,1565.29096
3906.63674,1563.93461
3908.19108,1561.22192
3909.74541,1559.86557
3911.29975,1558.50922
3912.85409,1558.50922
3914.40843,1561.22192
3915.96277,1563.93461
3917.51711,1566.64731
3919.07145,1569.36
3920.62579,1572.0727
3922.18012,1573.42905
3923.73446,1572.0727
3925.2888,1572.0727
3926.84314,1570.71635
3928.39748,1568.00366
3929.95182,1566.64731
3931.50616,1565.29096
3933.0605,1563.93461
3934.61483,1562.57827
3936.16917,1562.57827
3937.72351,1563.93461
3939.27785,1565.29096
3940.83219,1568.00366
3942.38653,1569.36
3943.94087,1570.71635
3945.49521,1572.0727
3947.04955,1573.42905
3948.60388,1573.42905
3950.15822,1573.42905
3951.71256,1570.71635
3953.2669,1569.36
3954.82124,1568.00366
3956.37558,1566.64731
3957.92992,1563.93461
3959.48426,1562.57827
3961.03859,1561.22192
3962.59293,1559.86557
3964.14727,1558.50922
3965.70161,1558.50922
3967.25595,1559.86557
3968.81029,1561.22192
3970.36463,1562.57827
3971.91897,1565.29096
3973.4733,1568.00366
3975.02764,1570.71635
3976.58198,1573.42905
3978.13632,1576.14174
3979.69066,1578.85444
3981.245,1581.56713
3982.79934,1584.27983
3984.35368,1585.63618
3985.90801,1586.99253
3987.46235,1588.34887
3989.01669,1588.34887
3990.57103,1586.99253
3992.12537,1584.27983
