Raman Shift,Intensity 
400,7.203667961
401,7.210928045
402,7.146072528
403,7.261685391
404,7.187527337
405,7.196362374
406,7.107575265
407,7.156939414
408,7.200661804
409,7.154245609
410,7.125757365
411,7.156252323
412,7.227321047
413,7.333100453
414,7.273185856
415,7.279550344
416,7.175967981
417,7.190762859
418,7.179791432
419,7.186755443
420,7.164584046
421,7.230720895
422,7.193389691
423,7.196159167
424,7.205326123
425,7.232266345
426,7.292480632
427,7.203255249
428,7.279833215
429,7.296169654
430,7.179323438
431,7.230629238
432,7.260956369
433,7.284346286
434,7.221334971
435,7.297964306
436,7.256124522
437,7.181581123
438,7.162345187
439,7.170235651
440,7.239202863
441,7.247461797
442,7.219578584
443,7.28334283
444,7.293175321
445,7.257212424
446,7.330206194
447,7.287148901
448,7.304480238
449,7.394329102
450,7.312755122
451,7.325776742
452,7.361674447
453,7.294345754
454,7.322291532
455,7.27740936
456,7.261478678
457,7.204846295
458,7.363688549
459,7.272845399
460,7.298921312
461,7.270555375
462,7.313392327
463,7.316807625
464,7.311892411
465,7.316202995
466,7.27598966
467,7.317057329
468,7.196292646
469,7.30617819
470,7.279754715
471,7.358293476
472,7.300708338
473,7.34031429
474,7.252690587
475,7.268584747
476,7.301496754
477,7.23911692
478,7.246541594
479,7.255726564
480,7.244034065
481,7.133916621
482,7.296940075
483,7.286572778
484,7.169571759
485,7.25107496
486,7.315327954
487,7.289004944
488,7.26932996
489,7.235506521
490,7.263174998
491,7.257590371
492,7.2075793
493,7.361501497
494,7.241476436
495,7.272982422
496,7.257158158
497,7.275624571
498,7.241075117
499,7.242054004
500,7.231935143
501,7.223220899
502,7.182666368
503,7.166217652
504,7.179583396
505,7.221059745
506,7.235720224
507,7.243137365
508,7.250778017
509,7.189246287
510,7.170465952
511,7.220771518
512,7.26523985
513,7.25796676
514,7.185166525
515,7.114911435
516,7.210737523
517,7.179351669
518,7.245065281
519,7.169150861
520,7.221736994
521,7.185817422
522,7.205169603
523,7.169798953
524,7.17412534
525,7.119044714
526,7.269366145
527,7.056746145
528,7.263405214
529,7.264538734
530,7.132074954
531,7.309723296
532,7.237647747
533,7.236384223
534,7.301606626
535,7.234584956
536,7.264514454
537,7.135617853
538,7.157467339
539,7.15160367
540,7.123778204
541,7.184913588
542,7.254977226
543,7.216157549
544,7.145765777
545,7.226098007
546,7.205691064
547,7.183032119
548,7.228927031
549,7.174896922
550,7.288071357
551,7.158525995
552,7.137529537
553,7.222115336
554,7.218575945
555,7.128208118
556,7.19560894
557,7.264341955
558,7.250906668
559,7.231119706
560,7.163345998
561,7.153798637
562,7.1247338
563,7.25043244
564,7.187152047
565,7.223038661
566,7.194185789
567,7.244057291
568,7.161375073
569,7.215456687
570,7.212704424
571,7.211133802
572,7.197381225
573,7.189647913
574,7.146573599
575,7.216314298
576,7.175089082
577,7.120324062
578,7.204739788
579,7.147880534
580,7.199048144
581,7.27490902
582,7.176235626
583,7.223510842
584,7.167445235
585,7.218044673
586,7.27326784
587,7.202368076
588,7.167973272
589,7.227070513
590,7.253746604
591,7.168649044
592,7.18873869
593,7.262477778
594,7.166713569
595,7.26541213
596,7.201507867
597,7.183725892
598,7.147221374
599,7.153057302
600,7.130818849
601,7.178532269
602,7.088091465
603,7.13881763
604,7.111311618
605,7.135033498
606,7.217945829
607,7.227493441
608,7.228100612
609,7.195997548
610,7.213775561
611,7.259146848
612,7.186485076
613,7.155462027
614,7.220097042
615,7.172059302
616,7.180473678
617,7.143632149
618,7.215369766
619,7.223756632
620,7.106034413
621,7.273265559
622,7.193300291
623,7.198850195
624,7.184254708
625,7.282256986
626,7.213042255
627,7.243160884
628,7.194412432
629,7.246577782
630,7.212435071
631,7.192562769
632,7.164886999
633,7.215458149
634,7.225372184
635,7.250185471
636,7.237153471
637,7.193045787
638,7.178332576
639,7.149628849
640,7.263995497
641,7.225320354
642,7.22987769
643,7.212056569
644,7.269904675
645,7.129393956
646,7.142981562
647,7.122075229
648,7.095851874
649,7.163506963
650,7.182574299
651,7.183085182
652,7.190381749
653,7.210778892
654,7.208728247
655,7.137053786
656,7.180282712
657,7.21210738
658,7.172316598
659,7.174652648
660,7.143889333
661,7.173671247
662,7.220198661
663,7.159335927
664,7.218452686
665,7.236069544
666,7.168279615
667,7.254821353
668,7.257438371
669,7.211221347
670,7.220858724
671,7.206906337
672,7.16757016
673,7.308156557
674,7.262503675
675,7.235863743
676,7.169932081
677,7.164744215
678,7.190308538
679,7.158249325
680,7.192576468
681,7.175765365
682,7.185573472
683,7.243763516
684,7.226340677
685,7.253254801
686,7.321566055
687,7.162556875
688,7.102671741
689,7.1996937
690,7.125139473
691,7.206996719
692,7.204768217
693,7.197464961
694,7.128336
695,7.100184064
696,7.282974943
697,7.190317626
698,7.177397767
699,7.239880921
700,7.133927122
701,7.224826889
702,7.217868484
703,7.223958764
704,7.177630328
705,7.228231407
706,7.141942821
707,7.239704764
708,7.237515852
709,7.173175728
710,7.269048224
711,7.181810994
712,7.177325651
713,7.223873488
714,7.183338398
715,7.146340031
716,7.21668717
717,7.147959168
718,7.119828425
719,7.288897215
720,7.158794557
721,7.221464126
722,7.223747097
723,7.180391316
724,7.166578019
725,7.250479019
726,7.222871131
727,7.202712171
728,7.136588036
729,7.229163027
730,7.274839544
731,7.149135308
732,7.198640051
733,7.285869154
734,7.147461948
735,7.235998824
736,7.18176804
737,7.050818685
738,7.142817748
739,7.225560977
740,7.25050891
741,7.202706982
742,7.226617018
743,7.158314565
744,7.204041756
745,7.172013248
746,7.113221114
747,7.194890589
748,7.181919204
749,7.150973714
750,7.352231667
751,7.161057759
752,7.171642764
753,7.167826287
754,7.160383339
755,7.169489149
756,7.183601373
757,7.1367919
758,7.186937526
759,7.195605269
760,7.222765002
761,7.24683049
762,7.244359071
763,7.222224677
764,7.124946849
765,7.148722595
766,7.241796065
767,7.245369429
768,7.236147034
769,7.173886746
770,7.229785943
771,7.244206883
772,7.139123718
773,7.159258372
774,7.107095656
775,7.259798126
776,7.143141145
777,7.196597784
778,7.21512973
779,7.226588003
780,7.158267759
781,7.221126243
782,7.272524398
783,7.193856817
784,7.181551482
785,7.212468442
786,7.299369316
787,7.313034253
788,7.237125974
789,7.209973089
790,7.152498023
791,7.221643788
792,7.189051255
793,7.265150052
794,7.171785535
795,7.195279407
796,7.191706319
797,7.192408783
798,7.148433055
799,7.172536364
800,7.124749687
801,7.128245999
802,7.178745282
803,7.231118469
804,7.160012203
805,7.16411562
806,7.163955634
807,7.151400605
808,7.251181277
809,7.160786893
810,7.166227054
811,7.200379924
812,7.23381332
813,7.10334065
814,7.14355844
815,7.205984733
816,7.216391898
817,7.098405746
818,7.126990104
819,7.076469728
820,7.142379908
821,7.13816407
822,7.131064156
823,7.166465243
824,7.145767773
825,7.114054451
826,7.237271233
827,7.232193199
828,7.208275616
829,7.215436323
830,7.212840657
831,7.142061135
832,7.222550721
833,7.159964208
834,7.242490867
835,7.230428874
836,7.118554944
837,7.228935306
838,7.203921701
839,7.232230683
840,7.230500652
841,7.193639399
842,7.216204949
843,7.115805439
844,7.210104502
845,7.227328343
846,7.187862427
847,7.150313515
848,7.242299863
849,7.161785085
850,7.205187451
851,7.272445531
852,7.14333131
853,7.257160147
854,7.215475772
855,7.213721764
856,7.093478601
857,7.28711248
858,7.179823084
859,7.188147911
860,7.209810054
861,7.170437535
862,7.158887084
863,7.176237839
864,7.156120714
865,7.168337914
866,7.244687631
867,7.306939678
868,7.12582153
869,7.203483659
870,7.156306186
871,7.093003005
872,7.23208358
873,7.280345854
874,7.28333415
875,7.126299504
876,7.257650172
877,7.23334908
878,7.271505104
879,7.110822853
880,7.174956664
881,7.195982701
882,7.166806777
883,7.184511399
884,7.144992
885,7.141230751
886,7.113989568
887,7.163492154
888,7.292605868
889,7.230810696
890,7.198033762
891,7.187184804
892,7.231300278
893,7.197701543
894,7.203055907
895,7.15110433
896,7.212372573
897,7.141245109
898,7.207403127
899,7.224261116
900,7.266736051
901,7.243421934
902,7.186516411
903,7.160249634
904,7.265939456
905,7.177757172
906,7.282259001
907,7.276709707
908,7.2864436
909,7.238685275
910,7.179361017
911,7.203125101
912,7.19092596
913,7.192421472
914,7.246287298
915,7.137701728
916,7.193426784
917,7.217060803
918,7.245224385
919,7.227795167
920,7.206151606
921,7.239747928
922,7.262497959
923,7.210882589
924,7.257300444
925,7.153965653
926,7.194446641
927,7.178254619
928,7.253401049
929,7.203118057
930,7.145279212
931,7.220809644
932,7.033532076
933,7.254956545
934,7.180790175
935,7.222858255
936,7.166197276
937,7.260351097
938,7.166509995
939,7.223543516
940,7.249992435
941,7.199133443
942,7.198355734
943,7.246823464
944,7.120893496
945,7.235421739
946,7.199569686
947,7.254575711
948,7.237499042
949,7.124395995
950,7.147177408
951,7.21548859
952,7.259616595
953,7.154363066
954,7.173530847
955,7.181070825
956,7.15635274
957,7.207374408
958,7.217723058
959,7.194357967
960,7.234724958
961,7.222095073
962,7.26143707
963,7.09732452
964,7.127107729
965,7.227853872
966,7.225530267
967,7.196187042
968,7.13826761
969,7.123658678
970,7.172968136
971,7.171346913
972,7.152662899
973,7.154433013
974,7.196244649
975,7.308268535
976,7.186315881
977,7.211892196
978,7.2097997
979,7.147811634
980,7.108031788
981,7.255369504
982,7.187960562
983,7.248532981
984,7.185466729
985,7.212985599
986,7.204109833
987,7.21634136
988,7.148392448
989,7.19000902
990,7.195152349
991,7.146865362
992,7.16768238
993,7.199161158
994,7.235737585
995,7.237545646
996,7.239453675
997,7.208668095
998,7.224119034
999,7.216361926
1000,7.209342071
1001,7.253168025
1002,7.177110489
1003,7.145297591
1004,7.179883914
1005,7.20709224
1006,7.24239043
1007,7.27841238
1008,7.173856252
1009,7.113268512
1010,7.201855996
1011,7.165915169
1012,7.208136151
1013,7.104986381
1014,7.356697969
1015,7.227649241
1016,7.212207208
1017,7.135499819
1018,7.107481027
1019,7.289184558
1020,7.260798318
1021,7.218318391
1022,7.218392975
1023,7.183797839
1024,7.128794412
1025,7.225996115
1026,7.245978266
1027,7.200055214
1028,7.171924017
1029,7.173784206
1030,7.114378892
1031,7.26842056
1032,7.216721834
1033,7.131480297
1034,7.245472968
1035,7.177650426
1036,7.271661447
1037,7.189382174
1038,7.072589818
1039,7.232878915
1040,7.260005643
1041,7.170560681
1042,7.291368653
1043,7.180887405
1044,7.203586827
1045,7.099259272
1046,7.09766425
1047,7.139621193
1048,7.221719939
1049,7.122778422
1050,7.237238976
1051,7.166351049
1052,7.141417617
1053,7.234791537
1054,7.226705691
1055,7.131001064
1056,7.180080988
1057,7.222209063
1058,7.186632005
1059,7.273740859
1060,7.204403319
1061,7.283926791
1062,7.148725994
1063,7.213553635
1064,7.188754249
1065,7.2301914
1066,7.118316827
1067,7.2421159
1068,7.285999648
1069,7.284903539
1070,7.260737647
1071,7.140553011
1072,7.159086317
1073,7.213621015
1074,7.175356206
1075,7.153995497
1076,7.132065186
1077,7.253137546
1078,7.252943065
1079,7.274458383
1080,7.215733831
1081,7.230797836
1082,7.20467358
1083,7.19951202
1084,7.22499699
1085,7.24446131
1086,7.222786623
1087,7.247728941
1088,7.176346799
1089,7.19641804
1090,7.183222083
1091,7.149621521
1092,7.169678953
1093,7.159645405
1094,7.157018809
1095,7.140522548
1096,7.201482635
1097,7.179856397
1098,7.138617928
1099,7.271484433
1100,7.18907236
1101,7.24695313
1102,7.169168312
1103,7.189261426
1104,7.18729912
1105,7.238193197
1106,7.226726816
1107,7.137087136
1108,7.299978601
1109,7.165593751
1110,7.218080732
1111,7.179194091
1112,7.204301908
1113,7.154392773
1114,7.192398673
1115,7.270025385
1116,7.181482851
1117,7.153415106
1118,7.359618891
1119,7.150661844
1120,7.258440573
1121,7.231294844
1122,7.14146047
1123,7.170284827
1124,7.179549643
1125,7.297311678
1126,7.232003511
1127,7.18624135
1128,7.186702502
1129,7.174137722
1130,7.26357154
1131,7.226416571
1132,7.11935128
1133,7.146777705
1134,7.165948857
1135,7.186631996
1136,7.18337262
1137,7.278036549
1138,7.203142213
1139,7.197769842
1140,7.326043127
1141,7.238067433
1142,7.231448664
1143,7.15947263
1144,7.19544454
1145,7.139629801
1146,7.171524412
1147,7.208134895
1148,7.13927239
1149,7.167666366
1150,7.247624978
1151,7.17975199
1152,7.157265692
1153,7.23454684
1154,7.084958024
1155,7.274193497
1156,7.161096324
1157,7.115287551
1158,7.159142131
1159,7.244591023
1160,7.210286923
1161,7.149934598
1162,7.104221966
1163,7.248075957
1164,7.18796512
1165,7.38512844
1166,7.264049154
1167,7.195428599
1168,7.129731487
1169,7.238040698
1170,7.251199269
1171,7.165232221
1172,7.247060565
1173,7.188611177
1174,7.236014883
1175,7.194708275
1176,7.213919203
1177,7.159224663
1178,7.165579831
1179,7.264413356
1180,7.17415807
1181,7.105887147
1182,7.221411589
1183,7.238347699
1184,7.183967978
1185,7.260902895
1186,7.225529055
1187,7.235917849
1188,7.156018623
1189,7.277314019
1190,7.173903382
1191,7.21776994
1192,7.168950038
1193,7.181234627
1194,7.261180589
1195,7.110968033
1196,7.178949978
1197,7.179714752
1198,7.227332089
1199,7.150435179
1200,7.285531491
1201,7.219923856
1202,7.274324623
1203,7.208757987
1204,7.205266154
1205,7.094829519
1206,7.17435386
1207,7.145247317
1208,7.189234204
1209,7.160244913
1210,7.187148369
1211,7.204852237
1212,7.184507251
1213,7.108842793
1214,7.155913971
1215,7.119901423
1216,7.301016176
1217,7.22822908
1218,7.150653409
1219,7.171279891
1220,7.248036296
1221,7.211909487
1222,7.2170512
1223,7.198842917
1224,7.267064541
1225,7.169650625
1226,7.129276858
1227,7.193200013
1228,7.186394431
1229,7.131995809
1230,7.233784935
1231,7.194324044
1232,7.19833072
1233,7.111936979
1234,7.15999977
1235,7.167833567
1236,7.18034775
1237,7.249447893
1238,7.057649515
1239,7.18533867
1240,7.201603707
1241,7.211346921
1242,7.281146187
1243,7.138162986
1244,7.161881362
1245,7.268235272
1246,7.192243208
1247,7.229593179
1248,7.19708711
1249,7.269531771
1250,7.200832008
1251,7.181253677
1252,7.218725706
1253,7.320830717
1254,7.189817705
1255,7.265416642
1256,7.22173061
1257,7.162578949
1258,7.209592006
1259,7.221829923
1260,7.218695422
1261,7.241172251
1262,7.239036447
1263,7.181304736
1264,7.276809738
1265,7.312582097
1266,7.244811666
1267,7.214417338
1268,7.226085449
1269,7.196107325
1270,7.19344601
1271,7.202211311
1272,7.113893143
1273,7.131444431
1274,7.156384112
1275,7.320768439
1276,7.243884133
1277,7.257449566
1278,7.245119652
1279,7.209975645
1280,7.25635914
1281,7.167529624
1282,7.20330525
1283,7.257016112
1284,7.324261659
1285,7.234356963
1286,7.16827154
1287,7.129797595
1288,7.189011841
1289,7.128915418
1290,7.190182013
1291,7.172403842
1292,7.22096388
1293,7.263800593
1294,7.175749856
1295,7.196126534
1296,7.235570511
1297,7.259950101
1298,7.266318979
1299,7.297166701
1300,7.183009396
1301,7.196510778
1302,7.170542284
1303,7.132608413
1304,7.155962506
1305,7.242128028
1306,7.2124865
1307,7.200889721
1308,7.258792886
1309,7.244044879
1310,7.130867726
1311,7.166991823
1312,7.198677609
1313,7.11538341
1314,7.116589717
1315,7.226917853
1316,7.261401263
1317,7.146974943
1318,7.272859719
1319,7.146134785
1320,7.168810545
1321,7.160257269
1322,7.262954682
1323,7.219930008
1324,7.124562323
1325,7.209076779
1326,7.247334147
1327,7.21416849
1328,7.166949215
1329,7.270074842
1330,7.155455656
1331,7.180159077
1332,7.274295507
1333,7.204008448
1334,7.228904533
1335,7.237959465
1336,7.22798928
1337,7.244042803
1338,7.204150278
1339,7.230307323
1340,7.200285272
1341,7.237743891
1342,7.289141428
1343,7.258077141
1344,7.284523233
1345,7.160736369
1346,7.104068279
1347,7.114163044
1348,7.172580759
1349,7.213398487
1350,7.26671546
1351,7.215032119
1352,7.268596245
1353,7.269337407
1354,7.265498096
1355,7.223300814
1356,7.208606429
1357,7.207569521
1358,7.231774721
1359,7.281331211
1360,7.172198417
1361,7.177949691
1362,7.2104529
1363,7.207753895
1364,7.162761619
1365,7.235376206
1366,7.293550763
1367,7.123284336
1368,7.184018398
1369,7.182825564
1370,7.265005496
1371,7.286614604
1372,7.15680847
1373,7.172258962
1374,7.28733883
1375,7.26270668
1376,7.150928739
1377,7.300029222
1378,7.201338124
1379,7.17574593
1380,7.138142627
1381,7.253115817
1382,7.249027074
1383,7.162326727
1384,7.27350946
1385,7.157055807
1386,7.202803393
1387,7.291650326
1388,7.27862667
1389,7.217819994
1390,7.217104636
1391,7.337872275
1392,7.168988679
1393,7.095101701
1394,7.265825265
1395,7.192335151
1396,7.140973997
1397,7.244303812
1398,7.231662519
1399,7.200718702
1400,7.159138326
1401,7.166708776
1402,7.307309646
1403,7.206277007
1404,7.160327264
1405,7.217222469
1406,7.332376989
1407,7.231471613
1408,7.358268358
1409,7.237675234
1410,7.197895451
1411,7.245641824
1412,7.260441376
1413,7.201800263
1414,7.092425509
1415,7.28206053
1416,7.274075131
1417,7.288991033
1418,7.194871165
1419,7.230009102
1420,7.220043091
1421,7.250031582
1422,7.280690162
1423,7.272451177
1424,7.236401267
1425,7.245946558
1426,7.253678233
1427,7.22905809
1428,7.171748745
1429,7.230918894
1430,7.213540441
1431,7.201506316
1432,7.202635791
1433,7.270977763
1434,7.252828792
1435,7.259464383
1436,7.1910117
1437,7.217355178
1438,7.166854997
1439,7.348168865
1440,7.20313795
1441,7.296618564
1442,7.277142552
1443,7.250432012
1444,7.247029513
1445,7.280368866
1446,7.244065213
1447,7.238448002
1448,7.134355664
1449,7.291977315
1450,7.263736698
1451,7.213527177
1452,7.252880204
1453,7.262105584
1454,7.314337591
1455,7.294715568
1456,7.244432851
1457,7.267430726
1458,7.2892631
1459,7.259546312
1460,7.201088278
1461,7.260389141
1462,7.341969189
1463,7.319109618
1464,7.308312907
1465,7.204161788
1466,7.155242098
1467,7.318347916
1468,7.252757438
1469,7.292689042
1470,7.278379251
1471,7.267613811
1472,7.207629686
1473,7.138044021
1474,7.220771929
1475,7.262345061
1476,7.348315756
1477,7.379635007
1478,7.250914088
1479,7.335810519
1480,7.30094893
1481,7.30130153
1482,7.26073654
1483,7.36347303
1484,7.300845964
1485,7.286093001
1486,7.238352622
1487,7.308467473
1488,7.285762163
1489,7.250521799
1490,7.364677135
1491,7.327021687
1492,7.287546406
1493,7.372872015
1494,7.274249564
1495,7.329147273
1496,7.288396275
1497,7.330682823
1498,7.331601752
1499,7.224200427
1500,7.308719806
1501,7.357055155
1502,7.369189746
1503,7.358140991
1504,7.309110493
1505,7.352011134
1506,7.284768698
1507,7.270720467
1508,7.372311075
1509,7.26920833
1510,7.367009648
1511,7.323066994
1512,7.316207225
1513,7.33505894
1514,7.3398508
1515,7.296193999
1516,7.351929951
1517,7.325362751
1518,7.297327366
1519,7.382064485
1520,7.357535664
1521,7.392146029
1522,7.380957315
1523,7.429961986
1524,7.2914309
1525,7.306648956
1526,7.34158621
1527,7.373987432
1528,7.409774175
1529,7.417634954
1530,7.389760146
1531,7.313941193
1532,7.398934213
1533,7.384966029
1534,7.292178503
1535,7.365181797
1536,7.428297334
1537,7.374564243
1538,7.319320488
1539,7.430014422
1540,7.352855008
1541,7.377699903
1542,7.442533363
1543,7.453083759
1544,7.447075658
1545,7.321643599
1546,7.405182954
1547,7.384476946
1548,7.367849822
1549,7.400227465
1550,7.327846897
1551,7.384778222
1552,7.377244402
1553,7.391538833
1554,7.338315982
1555,7.417333925
1556,7.285637132
1557,7.396149931
1558,7.296574122
1559,7.361120768
1560,7.316546199
1561,7.305868129
1562,7.399557593
1563,7.292059191
1564,7.432290154
1565,7.428985141
1566,7.319903613
1567,7.388104713
1568,7.381282689
1569,7.345747328
1570,7.443227966
1571,7.407616135
1572,7.363134061
1573,7.316453567
1574,7.461126367
1575,7.346643229
1576,7.336242639
1577,7.413130837
1578,7.399364453
1579,7.496407513
1580,7.334416353
1581,7.457667956
1582,7.389402159
1583,7.38279931
1584,7.435309546
1585,7.395371867
1586,7.358670315
1587,7.410769933
1588,7.358919553
1589,7.401535201
1590,7.261060574
1591,7.405832686
1592,7.45972704
1593,7.424842285
1594,7.408094376
1595,7.354600631
1596,7.446232769
1597,7.454067523
1598,7.370336257
1599,7.355109455
1600,7.486934524
1601,7.389904692
1602,7.44511607
1603,7.377569176
1604,7.299663655
1605,7.337599004
1606,7.38101148
1607,7.302528523
1608,7.329442348
1609,7.422827635
1610,7.323885753
1611,7.419254405
1612,7.44657055
1613,7.432374618
1614,7.446866885
1615,7.347579565
1616,7.489932691
1617,7.377209236
1618,7.377676105
1619,7.426992815
1620,7.329631169
1621,7.34443413
1622,7.474679189
1623,7.399862562
1624,7.415819348
1625,7.326640691
1626,7.354370553
1627,7.475285753
1628,7.427051328
1629,7.315000471
1630,7.382657215
1631,7.339904782
1632,7.379439651
1633,7.329941412
1634,7.435817537
1635,7.324092138
1636,7.37754557
1637,7.478266335
1638,7.372601129
1639,7.436707249
1640,7.377851387
1641,7.30776533
1642,7.34404842
1643,7.344364903
1644,7.259481344
1645,7.371337365
1646,7.469462979
1647,7.381024366
1648,7.214783419
1649,7.341281229
1650,7.412595716
1651,7.354683463
1652,7.411718484
1653,7.441181344
1654,7.362988101
1655,7.304996056
1656,7.299060358
1657,7.414547327
1658,7.311462374
1659,7.332908478
1660,7.302244767
1661,7.386800737
1662,7.316730658
1663,7.291832531
1664,7.435798165
1665,7.33154394
1666,7.376020835
1667,7.365477376
1668,7.289593312
1669,7.249944699
1670,7.348929775
1671,7.3340821
1672,7.357225072
1673,7.335181548
1674,7.335456672
1675,7.353777068
1676,7.238413822
1677,7.347233554
1678,7.297789831
1679,7.320716546
1680,7.382043688
1681,7.430832388
1682,7.338381693
1683,7.323838187
1684,7.327382375
1685,7.314841553
1686,7.436410266
1687,7.406218638
1688,7.307040116
1689,7.316270284
1690,7.331671569
1691,7.293085432
1692,7.307723742
1693,7.235002915
1694,7.34610021
1695,7.352159864
1696,7.233821711
1697,7.292251158
1698,7.344360232
1699,7.287755544
1700,7.342122557
1701,7.320086599
1702,7.246981202
1703,7.288521133
1704,7.358427803
1705,7.293344129
1706,7.285811502
1707,7.345557641
1708,7.237428482
1709,7.351920313
1710,7.403388474
1711,7.314547194
1712,7.285407941
1713,7.246489732
1714,7.273376032
1715,7.227626245
1716,7.2800507
1717,7.251789093
1718,7.310324284
1719,7.243241696
1720,7.240724704
1721,7.243387195
1722,7.282579663
1723,7.252973736
1724,7.344457129
1725,7.28031395
1726,7.224622411
1727,7.336447638
1728,7.294486445
1729,7.315380942
1730,7.252357817
1731,7.155963898
1732,7.26177799
1733,7.274702898
1734,7.303717749
1735,7.274912431
1736,7.226217932
1737,7.240682119
1738,7.332767543
1739,7.244598614
1740,7.217658365
1741,7.301937066
1742,7.219329338
1743,7.202054815
1744,7.250636079
1745,7.267510136
1746,7.278506224
1747,7.29835353
1748,7.266193107
1749,7.235564073
1750,7.259712438
1751,7.22914473
1752,7.210194553
1753,7.145588555
1754,7.265372272
1755,7.315931771
1756,7.252854676
1757,7.243125953
1758,7.239815765
1759,7.155388668
1760,7.178259121
1761,7.179986253
1762,7.124813294
1763,7.22884717
1764,7.261593282
1765,7.23211322
1766,7.305105441
1767,7.310916538
1768,7.207365281
1769,7.165776465
1770,7.192844007
1771,7.263848661
1772,7.187542034
1773,7.259701555
1774,7.236063332
1775,7.228940935
1776,7.271766162
1777,7.243717523
1778,7.237378852
1779,7.283599786
1780,7.230755048
1781,7.249255949
1782,7.275190992
1783,7.198263673
1784,7.181045488
1785,7.173119549
1786,7.172493479
1787,7.202893045
1788,7.21437268
1789,7.187402665
1790,7.272664616
1791,7.272446442
1792,7.182413436
1793,7.240983738
1794,7.179680108
1795,7.231990065
1796,7.144899116
1797,7.185457572
1798,7.282485889
1799,7.156163526
1800,7.274277765
1801,7.10192871
1802,7.313950559
1803,7.207831014
1804,7.188770475
1805,7.256090105
1806,7.183227381
1807,7.201783411
1808,7.160474235
1809,7.212926368
1810,7.196125051
1811,7.295030019
1812,7.218073256
1813,7.236641679
1814,7.125186395
1815,7.245547589
1816,7.310920893
1817,7.177893167
1818,7.139658225
1819,7.198301029
1820,7.206962689
1821,7.277638124
1822,7.206762278
1823,7.131175109
1824,7.198956362
1825,7.22475897
1826,7.154157502
1827,7.186257408
1828,7.202759946
1829,7.189222759
1830,7.241168621
1831,7.181499239
1832,7.22168971
1833,7.234969545
1834,7.188766149
1835,7.190413736
1836,7.120939352
1837,7.171817543
1838,7.23887916
1839,7.173218109
1840,7.235438894
1841,7.216168769
1842,7.099568718
1843,7.283045087
1844,7.18931349
1845,7.101207708
1846,7.198453865
1847,7.26275812
1848,7.263895936
1849,7.089348894
1850,7.283193484
1851,7.188444947
1852,7.179321715
1853,7.218709594
1854,7.120965971
1855,7.134319772
1856,7.175019215
1857,7.178882871
1858,7.221920292
1859,7.153632797
1860,7.19161689
1861,7.178435468
1862,7.340506537
1863,7.18332335
1864,7.224547962
1865,7.268204886
1866,7.175154255
1867,7.246173237
1868,7.310505549
1869,7.212693549
1870,7.241036524
1871,7.217478713
1872,7.235080226
1873,7.268894063
1874,7.243379409
1875,7.30360934
1876,7.205039167
1877,7.289732858
1878,7.275208644
1879,7.206176854
1880,7.17184701
1881,7.309217046
1882,7.222447512
1883,7.133201187
1884,7.266620301
1885,7.148043035
1886,7.108435838
1887,7.21726311
1888,7.181074683
1889,7.159825703
1890,7.212382078
1891,7.314583193
1892,7.209836194
1893,7.17470687
1894,7.153438177
1895,7.278852253
1896,7.133231778
1897,7.181135416
1898,7.221875375
1899,7.174071467
1900,7.226293041
1901,7.210174887
1902,7.192485762
1903,7.237687832
1904,7.223989429
1905,7.196295392
1906,7.259212562
1907,7.200943998
1908,7.188583902
1909,7.270305246
1910,7.147830091
1911,7.107137614
1912,7.246236045
1913,7.208465788
1914,7.230610917
1915,7.215807753
1916,7.202057979
1917,7.220938905
1918,7.173429444
1919,7.182325285
1920,7.229088582
1921,7.220539741
1922,7.167038519
1923,7.280826035
1924,7.216458475
1925,7.238142933
1926,7.318321385
1927,7.207484214
1928,7.256518257
1929,7.212650328
1930,7.227164214
1931,7.172658471
1932,7.235686672
1933,7.218243472
1934,7.109600594
1935,7.175869682
1936,7.166402364
1937,7.218311041
1938,7.206292553
1939,7.142017106
1940,7.230744481
1941,7.197391397
1942,7.162912802
1943,7.260745847
1944,7.211101621
1945,7.246482225
1946,7.187710997
1947,7.192096642
1948,7.223396843
1949,7.194830341
1950,7.176189808
1951,7.182650126
1952,7.274558358
1953,7.194390083
1954,7.245501144
1955,7.18241906
1956,7.218564393
1957,7.221088379
1958,7.206178043
1959,7.143800886
1960,7.125351087
1961,7.191956789
1962,7.166082875
1963,7.212323197
1964,7.172456981
1965,7.211425889
1966,7.199281516
1967,7.216335888
1968,7.158363915
1969,7.174865721
1970,7.250383877
1971,7.245192365
1972,7.223532165
1973,7.186558998
1974,7.17360597
1975,7.216462058
1976,7.257343996
1977,7.261338807
1978,7.271448057
1979,7.248141952
1980,7.158104612
1981,7.181551994
1982,7.175149337
1983,7.187128798
1984,7.221992399
1985,7.217246024
1986,7.254582445
1987,7.263373413
1988,7.190397503
1989,7.174003354
1990,7.191223593
1991,7.187805603
1992,7.140921975
1993,7.264337039
1994,7.179037214
1995,7.208300884
1996,7.097013694
1997,7.17048333
1998,7.280650732
1999,7.153122311
2000,7.196791794
2001,7.20291912
2002,7.171252023
2003,7.188610833
2004,7.217988344
2005,7.22700215
2006,7.164997424
2007,7.23658474
2008,7.165361529
2009,7.198437118
2010,7.214311542
2011,7.234818523
2012,7.300682545
2013,7.200544692
2014,7.158698824
2015,7.239223621
2016,7.160167997
2017,7.283447837
2018,7.243275214
2019,7.128765798
2020,7.151834127
2021,7.228551106
2022,7.232350237
2023,7.186783621
2024,7.201156623
2025,7.252081504
2026,7.223147167
2027,7.183448483
2028,7.141828387
2029,7.275115662
2030,7.179110153
2031,7.232112343
2032,7.155913385
2033,7.222080791
2034,7.199484592
2035,7.192347729
2036,7.155140724
2037,7.225762032
2038,7.204094458
2039,7.220360884
2040,7.107378047
2041,7.302324827
2042,7.256413682
2043,7.178170046
2044,7.194374422
2045,7.327957773
2046,7.258982715
2047,7.291802592
2048,7.200104362
2049,7.248274573
2050,7.249217792
2051,7.250829365
2052,7.258390627
2053,7.215685707
2054,7.163421241
2055,7.224250759
2056,7.15309305
2057,7.123877952
2058,7.266856519
2059,7.152817592
2060,7.190154692
2061,7.160972581
2062,7.309519105
2063,7.194312231
2064,7.151933116
2065,7.130646554
2066,7.199252337
2067,7.232126313
2068,7.168178097
2069,7.235769286
2070,7.171533454
2071,7.221275302
2072,7.163157416
2073,7.201476693
2074,7.239191914
2075,7.171968063
2076,7.290841027
2077,7.228617147
2078,7.188434056
2079,7.24470735
2080,7.223880713
2081,7.186029682
2082,7.195182906
2083,7.177258191
2084,7.138670697
2085,7.226932851
2086,7.247215577
2087,7.158487572
2088,7.139363186
2089,7.227580654
2090,7.284128772
2091,7.334727086
2092,7.304416397
2093,7.202917805
2094,7.245745091
2095,7.238902113
2096,7.165487819
2097,7.215597008
2098,7.120101847
2099,7.175963197
2100,7.179965805
2101,7.247225027
2102,7.251735291
2103,7.233187444
2104,7.21934343
2105,7.179609408
2106,7.225281877
2107,7.160761857
2108,7.306665261
2109,7.142106992
2110,7.196548386
2111,7.266710919
2112,7.218740321
2113,7.225205284
2114,7.174679145
2115,7.211048718
2116,7.300479175
2117,7.25752139
2118,7.101912469
2119,7.173010666
2120,7.149659132
2121,7.207933593
2122,7.090850137
2123,7.129253289
2124,7.267689668
2125,7.162152136
2126,7.204694951
2127,7.285433142
2128,7.223887552
2129,7.181491392
2130,7.202170281
2131,7.115996374
2132,7.188409115
2133,7.27536186
2134,7.172122246
2135,7.177191405
2136,7.21863585
2137,7.203069368
2138,7.216595447
2139,7.251833698
2140,7.086693507
2141,7.272787548
2142,7.224608122
2143,7.232167125
2144,7.234501088
2145,7.142742653
2146,7.136316425
2147,7.252213846
2148,7.233402906
2149,7.141656026
2150,7.190034438
2151,7.161507014
2152,7.233668434
2153,7.225415503
2154,7.192352441
2155,7.190081854
2156,7.20926555
2157,7.212681301
2158,7.264067496
2159,7.227721787
2160,7.202776858
2161,7.269823747
2162,7.182184722
2163,7.171903118
2164,7.20429926
2165,7.151071873
2166,7.244570702
2167,7.266532617
2168,7.171163768
2169,7.157133725
2170,7.078994983
2171,7.136431031
2172,7.155093219
2173,7.235058442
2174,7.186730612
2175,7.097812797
2176,7.220163094
2177,7.144481739
2178,7.134261956
2179,7.209889999
2180,7.249975917
2181,7.246713065
2182,7.180593589
2183,7.182612366
2184,7.199947191
2185,7.241824503
2186,7.144761288
2187,7.190788442
2188,7.249296839
2189,7.28864234
2190,7.299323292
2191,7.188552573
2192,7.167251016
2193,7.216856152
2194,7.188040532
2195,7.206482838
2196,7.040965592
2197,7.230694975
2198,7.165170289
2199,7.107564845
2200,7.221388078
2201,7.239511361
2202,7.204588837
2203,7.230575583
2204,7.22443356
2205,7.145436865
2206,7.228188578
2207,7.171401614
2208,7.21047645
2209,7.212207999
2210,7.229244861
2211,7.181111392
2212,7.280980668
2213,7.246158039
2214,7.198367077
2215,7.124727145
2216,7.235519503
2217,7.229771362
2218,7.159163408
2219,7.235878322
2220,7.221794903
2221,7.218621538
2222,7.17589995
2223,7.1323181
2224,7.213548305
2225,7.173252152
2226,7.214492513
2227,7.246904656
2228,7.194209082
2229,7.222277798
2230,7.208032654
2231,7.168026932
2232,7.159903562
2233,7.235082144
2234,7.16060346
2235,7.161174224
2236,7.3052475
2237,7.173101755
2238,7.231487171
2239,7.185823293
2240,7.177764866
2241,7.084571319
2242,7.188219035
2243,7.204493017
2244,7.173671763
2245,7.205275727
2246,7.288538141
2247,7.275841258
2248,7.201961404
2249,7.301359109
2250,7.142729973
2251,7.251746185
2252,7.261327531
2253,7.226027229
2254,7.124574948
2255,7.254610911
2256,7.208534267
2257,7.194669489
2258,7.18525785
2259,7.140680692
2260,7.094556336
2261,7.194931339
2262,7.19516627
2263,7.183368905
2264,7.250329122
2265,7.228634964
2266,7.1308483
2267,7.217438739
2268,7.080023362
2269,7.19635491
2270,7.21197279
2271,7.160783072
2272,7.226688677
2273,7.180344061
2274,7.179304326
2275,7.155113216
2276,7.249955191
2277,7.298592194
2278,7.180084724
2279,7.122996459
2280,7.208660156
2281,7.245923846
2282,7.196983052
2283,7.255887211
2284,7.240301938
2285,7.142262953
2286,7.228305589
2287,7.209643871
2288,7.089049852
2289,7.164034324
2290,7.164925113
2291,7.152881141
2292,7.171196456
2293,7.212261806
2294,7.246303857
2295,7.24926916
2296,7.18788716
2297,7.250602977
2298,7.236657036
2299,7.138402158
2300,7.14566279
2301,7.20283859
2302,7.12228695
2303,7.216506177
2304,7.255982132
2305,7.190190073
2306,7.089161315
2307,7.239457263
2308,7.214387922
2309,7.111084733
2310,7.193735024
2311,7.190416914
2312,7.22921754
2313,7.130268334
2314,7.157008488
2315,7.268485922
2316,7.139617268
2317,7.21363179
2318,7.233667953
2319,7.171143469
2320,7.098315954
2321,7.178641861
2322,7.218187934
2323,7.259964151
2324,7.202780372
2325,7.30940769
2326,7.171051555
2327,7.193942438
2328,7.130013373
2329,7.264339118
2330,7.206626563
2331,7.229837426
2332,7.218712621
2333,7.202938352
2334,7.221283637
2335,7.153688275
2336,7.2199182
2337,7.125219431
2338,7.1910231
2339,7.122828087
2340,7.254986325
2341,7.098343651
2342,7.187904743
2343,7.110552045
2344,7.137467761
2345,7.141259752
2346,7.184895944
2347,7.168939232
2348,7.245511369
2349,7.241517921
2350,7.134179031
2351,7.188999047
2352,7.256150298
2353,7.15875619
2354,7.174759216
2355,7.22557784
2356,7.172781799
2357,7.330110893
2358,7.17083927
2359,7.265932096
2360,7.237566752
2361,7.110084504
2362,7.248620132
2363,7.191495291
2364,7.133840619
2365,7.281089202
2366,7.155008333
2367,7.202738832
2368,7.197645548
2369,7.214792811
2370,7.254897494
2371,7.269601623
2372,7.15205022
2373,7.136727372
2374,7.192990719
2375,7.158502255
2376,7.240405063
2377,7.226003194
2378,7.158859506
2379,7.20387311
2380,7.146580047
2381,7.243333583
2382,7.295613607
2383,7.213826698
2384,7.14327197
2385,7.208990741
2386,7.235830016
2387,7.191628447
2388,7.231393197
2389,7.177101396
2390,7.191160811
2391,7.236808998
2392,7.16637649
2393,7.070039523
2394,7.233221816
2395,7.217835592
2396,7.114910582
2397,7.185183649
2398,7.154705989
2399,7.260800685
2400,7.242387483
2401,7.149367908
2402,7.269967895
2403,7.198404014
2404,7.180769363
2405,7.163491887
2406,7.16409063
2407,7.188623872
2408,7.225422298
2409,7.183217577
2410,7.207709406
2411,7.253081735
2412,7.195624876
2413,7.171201343
2414,7.240372908
2415,7.193847469
2416,7.108361119
2417,7.199137119
2418,7.206018492
2419,7.179407346
2420,7.171321372
2421,7.175971955
2422,7.272971257
2423,7.089095758
2424,7.163730298
2425,7.216354295
2426,7.240156527
2427,7.178163034
2428,7.16136635
2429,7.344933615
2430,7.177836778
2431,7.286808124
2432,7.238674803
2433,7.16006099
2434,7.256543705
2435,7.14495365
2436,7.135703746
2437,7.19560879
2438,7.100589311
2439,7.210612287
2440,7.09466919
2441,7.181191678
2442,7.169292883
2443,7.176572391
2444,7.257793505
2445,7.178865172
2446,7.226069496
2447,7.288581933
2448,7.158952983
2449,7.136687303
2450,7.23048722
2451,7.249115545
2452,7.193447934
2453,7.187181399
2454,7.213542495
2455,7.20598103
2456,7.226495109
2457,7.178150127
2458,7.231298824
2459,7.203965589
2460,7.18857128
2461,7.191507606
2462,7.113083068
2463,7.21134639
2464,7.200376848
2465,7.254250864
2466,7.185758533
2467,7.144473294
2468,7.312331983
2469,7.156697104
2470,7.137485613
2471,7.168331059
2472,7.182555296
2473,7.194425765
2474,7.267280396
2475,7.251048912
2476,7.212747068
2477,7.188413233
2478,7.178297399
2479,7.158026001
2480,7.239903916
2481,7.231818261
2482,7.192633918
2483,7.230161248
2484,7.139727493
2485,7.101364661
2486,7.091761757
2487,7.220251798
2488,7.183120699
2489,7.119937898
2490,7.174373515
2491,7.167143364
2492,7.236470862
2493,7.246955623
2494,7.187238611
2495,7.250604844
2496,7.332473521
2497,7.209481086
2498,7.148880863
2499,7.221919019
2500,7.219969172
2501,7.104543088
2502,7.154121785
2503,7.214328156
2504,7.257960272
2505,7.244925358
2506,7.135859464
2507,7.158271206
2508,7.247074461
2509,7.198824072
2510,7.23239332
2511,7.163979959
2512,7.187402157
2513,7.275552786
2514,7.158877467
2515,7.08745468
2516,7.134018286
2517,7.187421806
2518,7.147937238
2519,7.178026073
2520,7.141421007
2521,7.274246516
2522,7.099583847
2523,7.194934863
2524,7.185086895
2525,7.265294971
2526,7.170694982
2527,7.244130158
2528,7.105792401
2529,7.186574554
2530,7.203884529
2531,7.163583122
2532,7.141407806
2533,7.199491991
2534,7.187075309
2535,7.235783206
2536,7.201015098
2537,7.164931175
2538,7.135653508
2539,7.148323721
2540,7.173651307
2541,7.268379399
2542,7.155613978
2543,7.165055472
2544,7.154136412
2545,7.291007438
2546,7.314599115
2547,7.111822599
2548,7.268212121
2549,7.296805769
2550,7.223197632
2551,7.214001054
2552,7.193866884
2553,7.237614145
2554,7.149254505
2555,7.297769821
2556,7.231450633
2557,7.225581341
2558,7.241346616
2559,7.232366857
2560,7.244955353
2561,7.228922804
2562,7.244975974
2563,7.225614106
2564,7.284417821
2565,7.148885547
2566,7.23587808
2567,7.178531447
2568,7.243712754
2569,7.246871405
2570,7.18422964
2571,7.158925797
2572,7.264809484
2573,7.205753702
2574,7.217586311
2575,7.202932085
2576,7.213088507
2577,7.185692361
2578,7.228773335
2579,7.233654429
2580,7.172026837
2581,7.162103365
2582,7.262526448
2583,7.238706556
2584,7.140450505
2585,7.185251206
2586,7.286865686
2587,7.200507977
2588,7.165263599
2589,7.231718953
2590,7.25430081
2591,7.157218316
2592,7.199622401
2593,7.186726004
2594,7.111210201
2595,7.157860789
2596,7.15282272
2597,7.188599015
2598,7.240287125
2599,7.109152374
2600,7.182097386
2601,7.209936773
2602,7.191920947
2603,7.209454068
2604,7.135936629
2605,7.232695888
2606,7.225757293
2607,7.151668287
2608,7.205127748
2609,7.108168657
2610,7.161726604
2611,7.241886626
2612,7.173993433
2613,7.223868939
2614,7.283326254
2615,7.218182069
2616,7.198947972
2617,7.161704983
2618,7.142716619
2619,7.16593366
2620,7.259800455
2621,7.065370413
2622,7.18188848
2623,7.166779157
2624,7.157777459
2625,7.185009574
2626,7.196439701
2627,7.228943511
2628,7.243857152
2629,7.136478944
2630,7.225994026
2631,7.241769561
2632,7.243697919
2633,7.203925917
2634,7.177503887
2635,7.197298662
2636,7.216321807
2637,7.210781838
2638,7.293303156
2639,7.200675181
2640,7.286713108
2641,7.165886251
2642,7.20533607
2643,7.205044352
2644,7.16999124
2645,7.206985918
2646,7.136583433
2647,7.222339254
2648,7.134252913
2649,7.185167958
2650,7.229145977
2651,7.173558165
2652,7.090234029
2653,7.07040664
2654,7.133106095
2655,7.296450183
2656,7.152759593
2657,7.168449429
2658,7.18945584
2659,7.157809705
2660,7.219771612
2661,7.234663769
2662,7.245776526
2663,7.184102378
2664,7.183014786
2665,7.130959715
2666,7.257129729
2667,7.148018723
2668,7.180496398
2669,7.162752627
2670,7.269200752
2671,7.191154096
2672,7.145755123
2673,7.180899683
2674,7.24019984
2675,7.24107916
2676,7.24184803
2677,7.128376312
2678,7.171307541
2679,7.105787495
2680,7.291382221
2681,7.198356014
2682,7.254395788
2683,7.182527224
2684,7.171149311
2685,7.130847351
2686,7.275581137
2687,7.187038737
2688,7.207675634
2689,7.265025531
2690,7.134774647
2691,7.185406298
2692,7.1617991
2693,7.109164798
2694,7.297124835
2695,7.175263253
2696,7.256838798
2697,7.177927054
2698,7.210857729
2699,7.191881695
2700,7.240414526
2701,7.233337071
2702,7.068716658
2703,7.191248171
2704,7.129623285
2705,7.203208185
2706,7.128218913
2707,7.212593942
2708,7.127433136
2709,7.18821224
2710,7.249055384
2711,7.254117343
2712,7.117741795
2713,7.204822527
2714,7.221393278
2715,7.176226267
2716,7.247831808
2717,7.260813579
2718,7.194068271
2719,7.223101498
2720,7.216342453
2721,7.230806025
2722,7.204483445
2723,7.227049399
2724,7.238338353
2725,7.26177113
2726,7.162245158
2727,7.214334205
2728,7.248996622
2729,7.229902624
2730,7.218370598
2731,7.310937878
2732,7.168120844
2733,7.112351068
2734,7.20096426
2735,7.258543339
2736,7.27488292
2737,7.230299067
2738,7.204808321
2739,7.174302087
2740,7.136695423
2741,7.188937731
2742,7.210494503
2743,7.144051941
2744,7.155522873
2745,7.207256953
2746,7.236448
2747,7.186751804
2748,7.278496237
2749,7.141382507
2750,7.224078538
2751,7.141513999
2752,7.224677748
2753,7.229265294
2754,7.224125967
2755,7.111888592
2756,7.224176813
2757,7.210989437
2758,7.189350221
2759,7.227306642
2760,7.190069534
2761,7.20852362
2762,7.126947474
2763,7.225709821
2764,7.147518
2765,7.263481144
2766,7.221595612
2767,7.224241905
2768,7.181981504
2769,7.139295517
2770,7.223730562
2771,7.123301415
2772,7.261780725
2773,7.179583296
2774,7.201621395
2775,7.19271484
2776,7.16262637
2777,7.170298565
2778,7.151956848
2779,7.16122476
2780,7.184335991
2781,7.144276917
2782,7.19473803
2783,7.233781838
2784,7.190523096
2785,7.212511613
2786,7.220469097
2787,7.206018771
2788,7.224614693
2789,7.191713294
2790,7.171344658
2791,7.152020451
2792,7.138974763
2793,7.14298317
2794,7.179458171
2795,7.168771592
2796,7.152499155
2797,7.156133979
2798,7.171956637
2799,7.162871054
2800,7.220821591
2801,7.23945958
2802,7.223424778
2803,7.234123199
2804,7.28079291
2805,7.162828831
2806,7.199800539
2807,7.168839279
2808,7.19762633
2809,7.173610643
2810,7.148559814
2811,7.252359099
2812,7.243193653
2813,7.193228798
2814,7.149350481
2815,7.104358022
2816,7.226895327
2817,7.256147786
2818,7.193296719
2819,7.272584868
2820,7.167873935
2821,7.236528142
2822,7.120126722
2823,7.237067007
2824,7.133084281
2825,7.22787063
2826,7.169151728
2827,7.220359553
2828,7.305153232
2829,7.298483509
2830,7.170986797
2831,7.102491826
2832,7.300306133
2833,7.181052171
2834,7.144585924
2835,7.178632905
2836,7.180072424
2837,7.219403754
2838,7.233576706
2839,7.196842611
2840,7.188611323
2841,7.203021171
2842,7.183187919
2843,7.158055999
2844,7.167744671
2845,7.206801657
2846,7.198397567
2847,7.233623578
2848,7.278856547
2849,7.268274861
2850,7.280813026
2851,7.209644925
2852,7.204011628
2853,7.1396055
2854,7.137620947
2855,7.192244869
2856,7.171648079
2857,7.211566161
2858,7.258711088
2859,7.204399799
2860,7.307463998
2861,7.171184683
2862,7.221276669
2863,7.163902808
2864,7.156656076
2865,7.302247357
2866,7.128872903
2867,7.194022306
2868,7.179627295
2869,7.230714237
2870,7.208319911
2871,7.250806539
2872,7.112831429
2873,7.220229193
2874,7.169122878
2875,7.170473808
2876,7.151895151
2877,7.152933743
2878,7.23481036
2879,7.233216185
2880,7.215601491
2881,7.233789586
2882,7.205853765
2883,7.183367458
2884,7.201124131
2885,7.198734724
2886,7.180882294
2887,7.232428493
2888,7.201578577
2889,7.092560476
2890,7.200221955
2891,7.118488774
2892,7.205344827
2893,7.1612693
2894,7.249137646
2895,7.195308169
2896,7.279122495
2897,7.161723515
2898,7.213570159
2899,7.186174335
2900,7.230871696
2901,7.226479652
2902,7.229701644
2903,7.289325639
2904,7.19363458
2905,7.127394459
2906,7.216947409
2907,7.229037386
2908,7.14270734
2909,7.207008286
2910,7.232775233
2911,7.131404906
2912,7.176740144
2913,7.282330262
2914,7.198752256
2915,7.193079171
2916,7.162888705
2917,7.120164011
2918,7.163410814
2919,7.203610839
2920,7.202848535
2921,7.203375312
2922,7.204855199
2923,7.254791272
2924,7.183847508
2925,7.160323694
2926,7.221681301
2927,7.237115863
2928,7.193780921
2929,7.256544381
2930,7.281676363
2931,7.193941464
2932,7.196816123
2933,7.156708778
2934,7.138533243
2935,7.216028669
2936,7.243808308
2937,7.181850025
2938,7.230432568
2939,7.143952326
2940,7.237113151
2941,7.222930586
2942,7.193269996
2943,7.185986711
2944,7.180018617
2945,7.258830423
2946,7.248756527
2947,7.136460454
2948,7.193859403
2949,7.230809532
2950,7.227595605
2951,7.143253685
2952,7.252070313
2953,7.128187375
2954,7.180946009
2955,7.105090387
2956,7.290137139
2957,7.257714616
2958,7.117122176
2959,7.152369056
2960,7.130380342
2961,7.269570579
2962,7.188242465
2963,7.148024736
2964,7.195535135
2965,7.205423858
2966,7.127257008
2967,7.258164831
2968,7.18542552
2969,7.146622857
2970,7.170375749
2971,7.237641302
2972,7.245417379
2973,7.175271538
2974,7.221355945
2975,7.239411259
2976,7.208769624
2977,7.190006053
2978,7.145969957
2979,7.280024312
2980,7.222627486
2981,7.25667699
2982,7.104648112
2983,7.178915877
2984,7.248379378
2985,7.192092289
2986,7.293699243
2987,7.139694341
2988,7.263236713
2989,7.226756135
2990,7.154026196
2991,7.13728543
2992,7.230046314
2993,7.234508038
2994,7.147058517
2995,7.207130594
2996,7.367031163
2997,7.183805889
2998,7.137408438
2999,7.255184286
3000,7.221663731
3001,7.250353891
3002,7.166594061
3003,7.183677716
3004,7.240658598
3005,7.213901029
3006,7.173812028
3007,7.243452138
3008,7.176244945
3009,7.095058936
3010,7.118767981
3011,7.141897501
3012,7.164922034
3013,7.142309955
3014,7.148134835
3015,7.245673281
3016,7.18383827
3017,7.233180904
3018,7.126115289
3019,7.120974908
3020,7.191692904
3021,7.176963766
3022,7.246561971
3023,7.167468422
3024,7.142737364
3025,7.233400821
3026,7.228573712
3027,7.235352789
3028,7.201412754
3029,7.215087058
3030,7.196727172
3031,7.121136537
3032,7.079365894
3033,7.220972456
3034,7.223618386
3035,7.162790759
3036,7.198439727
3037,7.309162552
3038,7.243676979
3039,7.200106681
3040,7.180523614
3041,7.201557864
3042,7.183079395
3043,7.206671887
3044,7.224785529
3045,7.263732778
3046,7.191617029
3047,7.200941064
3048,7.246555372
3049,7.224215374
3050,7.194041053
3051,7.1902292
3052,7.254742686
3053,7.176522336
3054,7.308517245
3055,7.210864909
3056,7.163920939
3057,7.20278137
3058,7.260873111
3059,7.141239053
3060,7.136250455
3061,7.20806123
3062,7.220392164
3063,7.258871701
3064,7.185055073
3065,7.187136618
3066,7.183821303
3067,7.211152612
3068,7.227386107
3069,7.246407061
3070,7.199076685
3071,7.213570317
3072,7.26583776
3073,7.200695877
3074,7.180762422
3075,7.178237772
3076,7.174476849
3077,7.202920525
3078,7.179263728
3079,7.205781087
3080,7.24745471
3081,7.187240839
3082,7.18346603
3083,7.266021
3084,7.26866256
3085,7.204505304
3086,7.16190351
3087,7.216469721
3088,7.163451488
3089,7.220075979
3090,7.271301156
3091,7.162581791
3092,7.184349549
3093,7.215086019
3094,7.225060245
3095,7.153196119
3096,7.223637598
3097,7.159546779
3098,7.167997492
3099,7.192231245
3100,7.164937325
3101,7.189510313
3102,7.102928674
3103,7.147882073
3104,7.249382864
3105,7.214047371
3106,7.214922947
3107,7.114772407
3108,7.272955567
3109,7.131095684
3110,7.158043724
3111,7.087010228
3112,7.201645581
3113,7.25318311
3114,7.184462798
3115,7.186855075
3116,7.168946953
3117,7.250450876
3118,7.228704963
3119,7.207569446
3120,7.218024341
3121,7.20420187
3122,7.218738664
3123,7.273501477
3124,7.15163514
3125,7.119981418
3126,7.227935572
3127,7.156312384
3128,7.181514739
3129,7.165093995
3130,7.164895235
3131,7.281659843
3132,7.135680504
3133,7.151004053
3134,7.225088984
3135,7.08811958
3136,7.204583241
3137,7.169159195
3138,7.170458656
3139,7.242016818
3140,7.137714344
3141,7.191957728
3142,7.222196435
3143,7.245578152
3144,7.129547145
3145,7.193710268
3146,7.188412299
3147,7.162240478
3148,7.192357164
3149,7.270635493
3150,7.156902224
3151,7.295811611
3152,7.164286415
3153,7.282255812
3154,7.226010291
3155,7.117517674
3156,7.246580355
3157,7.176412281
3158,7.180069663
3159,7.163141219
3160,7.191683805
3161,7.201183919
3162,7.197382605
3163,7.204928491
3164,7.038806943
3165,7.142712538
3166,7.151691696
3167,7.205357746
3168,7.228474866
3169,7.182957766
3170,7.17662739
3171,7.251579438
3172,7.143966818
3173,7.257318564
3174,7.188890279
3175,7.218364589
3176,7.155049144
3177,7.143833376
3178,7.212855888
3179,7.216899271
3180,7.173569932
3181,7.186405061
3182,7.187181205
3183,7.184567019
3184,7.115394396
3185,7.059081517
3186,7.16010609
3187,7.103650924
3188,7.285318591
3189,7.138140829
3190,7.254083943
3191,7.216100009
3192,7.241223429
3193,7.178855064
3194,7.206795507
3195,7.133960676
3196,7.209031903
3197,7.189336261
3198,7.176043905
3199,7.149244831
3200,7.24153213
3201,7.230910175
3202,7.269484908
3203,7.217986618
3204,7.187638755
3205,7.197743556
3206,7.273735545
3207,7.209807055
3208,7.224556469
3209,7.261580811
3210,7.226503881
3211,7.247268664
3212,7.259992457
3213,7.185402137
3214,7.24168721
3215,7.137155374
3216,7.240946832
3217,7.124045476
3218,7.169547812
3219,7.185068755
3220,7.223663301
3221,7.252244197
3222,7.257925046
3223,7.106234459
3224,7.240514243
3225,7.30188832
3226,7.193695406
3227,7.269008513
3228,7.146987044
3229,7.208546292
3230,7.155034782
3231,7.180901598
3232,7.229784018
3233,7.247945967
3234,7.17372286
3235,7.126648118
3236,7.128146425
3237,7.202904128
3238,7.168489685
3239,7.172410948
3240,7.236794639
3241,7.149460291
3242,7.223997027
3243,7.2605364
3244,7.27517245
3245,7.239803583
3246,7.204820324
3247,7.193546542
3248,7.117555389
3249,7.168022319
3250,7.219887833
3251,7.282649207
3252,7.201875179
3253,7.216629765
3254,7.29430102
3255,7.249114261
3256,7.154708115
3257,7.228427291
3258,7.122901721
3259,7.129000906
3260,7.240615934
3261,7.287713723
3262,7.240495185
3263,7.172825217
3264,7.155359321
3265,7.246095916
3266,7.189410068
3267,7.155021295
3268,7.183034945
3269,7.190584822
3270,7.212921394
3271,7.116371676
3272,7.237845709
3273,7.177146332
3274,7.167407717
3275,7.175258658
3276,7.293691559
3277,7.120873894
3278,7.239961742
3279,7.199265911
3280,7.180283948
3281,7.14939948
3282,7.269625815
3283,7.246606884
3284,7.188403767
3285,7.188880844
3286,7.17594935
3287,7.209644632
3288,7.157740473
3289,7.216886489
3290,7.189483093
3291,7.24411571
3292,7.150208532
3293,7.159094318
3294,7.155396496
3295,7.206243951
3296,7.237508462
3297,7.229061595
3298,7.242350465
3299,7.132421607
3300,7.160982318
3301,7.235077753
3302,7.211004819
3303,7.167961918
3304,7.249491755
3305,7.193089907
3306,7.20381828
3307,7.256210537
3308,7.243908039
3309,7.24088751
3310,7.248725049
3311,7.214598934
3312,7.142949448
3313,7.250263268
3314,7.137520579
3315,7.188745877
3316,7.147883563
3317,7.271049295
3318,7.243016274
3319,7.185410887
3320,7.156550274
3321,7.204901917
3322,7.244154896
3323,7.255740288
3324,7.254502966
3325,7.176013035
3326,7.140019416
3327,7.260349793
3328,7.252470413
3329,7.11709792
3330,7.181913596
3331,7.228773724
3332,7.187736774
3333,7.186563894
3334,7.30050343
3335,7.111370251
3336,7.170949083
3337,7.181211474
3338,7.278537587
3339,7.210212515
3340,7.167714327
3341,7.159509771
3342,7.217675422
3343,7.155393976
3344,7.291597297
3345,7.191811701
3346,7.249863401
3347,7.24596585
3348,7.212595498
3349,7.195093077
3350,7.199055829
3351,7.227285103
3352,7.245761783
3353,7.109880813
3354,7.231294664
3355,7.222108386
3356,7.270631714
3357,7.249834666
3358,7.255942337
3359,7.229233372
3360,7.209652309
3361,7.196566834
3362,7.198422449
3363,7.246560118
3364,7.116179743
3365,7.203703825
3366,7.207104554
3367,7.214497629
3368,7.241708876
3369,7.196419294
3370,7.179560322
3371,7.091634925
3372,7.181531799
3373,7.299103843
3374,7.230149776
3375,7.251040549
3376,7.170225962
3377,7.177486608
3378,7.189839314
3379,7.262396534
3380,7.229263873
3381,7.159087598
3382,7.168786818
3383,7.185345403
3384,7.213049682
3385,7.22410994
3386,7.141310771
3387,7.19761479
3388,7.224846777
3389,7.17144708
3390,7.143647934
3391,7.106754704
3392,7.198224872
3393,7.220056771
3394,7.127468669
3395,7.233403714
3396,7.160468771
3397,7.137977115
3398,7.184715636
3399,7.165378689
3400,7.312509394
3401,7.206914086
3402,7.227892133
3403,7.2490277
3404,7.202221908
3405,7.313178927
3406,7.174444832
3407,7.241606831
3408,7.17325249
3409,7.200083172
3410,7.197553263
3411,7.14519542
3412,7.284498943
3413,7.167128196
3414,7.247319177
3415,7.237256476
3416,7.163023738
3417,7.091169413
3418,7.202195886
3419,7.150655818
3420,7.145456069
3421,7.139574655
3422,7.142050452
3423,7.120405487
3424,7.230588129
3425,7.355662404
3426,7.187454079
3427,7.180428929
3428,7.167643481
3429,7.168034282
3430,7.21149229
3431,7.171198289
3432,7.144056813
3433,7.230047201
3434,7.13431329
3435,7.200868262
3436,7.183822561
3437,7.08134467
3438,7.170450015
3439,7.172683436
3440,7.122860404
3441,7.212040993
3442,7.20225349
3443,7.225512105
3444,7.239571162
3445,7.09838384
3446,7.169864912
3447,7.250193592
3448,7.255258832
3449,7.136701014
3450,7.207995929
3451,7.183004155
3452,7.114488768
3453,7.144744046
3454,7.201705684
3455,7.243366885
3456,7.077895038
3457,7.190665202
3458,7.179399403
3459,7.21607413
3460,7.169216589
3461,7.202629453
3462,7.194469473
3463,7.130481726
3464,7.116159387
3465,7.099648035
3466,7.23692214
3467,7.179491373
3468,7.214671662
3469,7.240892883
3470,7.15399821
3471,7.215536111
3472,7.196789149
3473,7.229066391
3474,7.179356088
3475,7.193408601
3476,7.250329312
3477,7.133071622
3478,7.230054616
3479,7.1448056
3480,7.136523153
3481,7.174731271
3482,7.212091373
3483,7.164398075
3484,7.221102455
3485,7.179936258
3486,7.185863542
3487,7.2369265
3488,7.095615603
3489,7.244409709
3490,7.222709994
3491,7.193925323
3492,7.146174108
3493,7.154972277
3494,7.091834308
3495,7.270417294
3496,7.183291064
3497,7.259363793
3498,7.192187619
3499,7.213864832
3500,7.208587698
3501,7.184674823
3502,7.150393286
3503,7.196681018
3504,7.212703533
3505,7.158454689
3506,7.138467432
3507,7.248363224
3508,7.217097981
3509,7.173732676
3510,7.199166486
3511,7.242155386
3512,7.328253366
3513,7.172375563
3514,7.118679658
3515,7.156180294
3516,7.191058612
3517,7.22015787
3518,7.129906276
3519,7.170620234
3520,7.198457157
3521,7.20977513
3522,7.237483551
3523,7.307372807
3524,7.210829316
3525,7.187626768
3526,7.183388844
3527,7.26378287
3528,7.241624245
3529,7.137007648
3530,7.172573708
3531,7.209275417
3532,7.274670744
3533,7.241077941
3534,7.266947799
3535,7.13312781
3536,7.136374848
3537,7.119214225
3538,7.171018514
3539,7.136502856
3540,7.216940272
3541,7.16603126
3542,7.184633752
3543,7.231845567
3544,7.058047176
3545,7.181532142
3546,7.164121439
3547,7.169173153
3548,7.178611168
3549,7.106036904
3550,7.188256735
3551,7.254638743
3552,7.083807622
3553,7.197665898
3554,7.237078976
3555,7.140155907
3556,7.225780038
3557,7.211015792
3558,7.203160164
3559,7.247951675
3560,7.211913648
3561,7.175946227
3562,7.170206131
3563,7.187809435
3564,7.177090453
3565,7.124154872
3566,7.174682897
3567,7.224471305
3568,7.318542752
3569,7.171345631
3570,7.237081376
3571,7.178581129
3572,7.248037096
3573,7.311572643
3574,7.190571263
3575,7.091414142
3576,7.31011754
3577,7.16921783
3578,7.260497943
3579,7.198068246
3580,7.212608209
3581,7.218537309
3582,7.220197337
3583,7.318245892
3584,7.349137656
3585,7.14892987
3586,7.173398781
3587,7.134581597
3588,7.153035132
3589,7.197816205
3590,7.193787968
3591,7.254057023
3592,7.223202926
3593,7.24460045
3594,7.237169293
3595,7.165828927
3596,7.152686108
3597,7.2162502
3598,7.125251642
3599,7.187612196
3600,7.171708021
3601,7.244358863
3602,7.186778167
3603,7.209565896
3604,7.161328641
3605,7.144429686
3606,7.216674239
3607,7.214855284
3608,7.240980991
3609,7.17089203
3610,7.195533466
3611,7.21636024
3612,7.279644791
3613,7.1615258
3614,7.157977568
3615,7.233929331
3616,7.140377157
3617,7.209587447
3618,7.173847507
3619,7.152852935
3620,7.294254727
3621,7.108512562
3622,7.209601414
3623,7.19877693
3624,7.136822149
3625,7.262899931
3626,7.231897604
3627,7.224683528
3628,7.214155143
3629,7.170922485
3630,7.318602124
3631,7.08834982
3632,7.219864816
3633,7.184559773
3634,7.1877371
3635,7.143346845
3636,7.143362597
3637,7.181162035
3638,7.147643236
3639,7.279646988
3640,7.173764253
3641,7.270624014
3642,7.273007356
3643,7.134400512
3644,7.143932423
3645,7.13635823
3646,7.326950031
3647,7.235804619
3648,7.174341571
3649,7.218600615
3650,7.195936478
3651,7.211279951
3652,7.297943816
3653,7.12597535
3654,7.202363031
3655,7.178037642
3656,7.300644856
3657,7.12738914
3658,7.141113829
3659,7.14421415
3660,7.203140171
3661,7.199371093
3662,7.228990599
3663,7.151505575
3664,7.137593049
3665,7.162120032
3666,7.236681573
3667,7.25169413
3668,7.186367988
3669,7.174518032
3670,7.206275559
3671,7.242211363
3672,7.226424367
3673,7.165680944
3674,7.201081571
3675,7.194471223
3676,7.173161833
3677,7.271755058
3678,7.235864104
3679,7.173317227
3680,7.155714944
3681,7.163539141
3682,7.229970587
3683,7.153771429
3684,7.160153638
3685,7.143473057
3686,7.173918652
3687,7.169608046
3688,7.207429793
3689,7.143434244
3690,7.208545527
3691,7.115863223
3692,7.160620486
3693,7.235775585
3694,7.247235816
3695,7.178139255
3696,7.22415874
3697,7.118258289
3698,7.136694858
3699,7.228791937
3700,7.206192168
3701,7.198581212
3702,7.203470368
3703,7.190253908
3704,7.220078401
3705,7.226630644
3706,7.198817175
3707,7.240527886
3708,7.228577612
3709,7.159145453
3710,7.315368015
3711,7.098245633
3712,7.251588821
3713,7.276095513
3714,7.233632727
3715,7.141724809
3716,7.241527868
3717,7.225899295
3718,7.197580787
3719,7.127507024
3720,7.156641503
3721,7.212829307
3722,7.221892754
3723,7.181487438
3724,7.277866112
3725,7.251272111
3726,7.211777756
3727,7.206645561
3728,7.255272042
3729,7.108131446
3730,7.144691682
3731,7.209118408
3732,7.198592248
3733,7.195657596
3734,7.101672369
3735,7.149509091
3736,7.163668378
3737,7.209733204
3738,7.245551475
3739,7.163724276
3740,7.221839988
3741,7.212900275
3742,7.234510264
3743,7.236627744
3744,7.17735517
3745,7.164935253
3746,7.297606849
3747,7.285909897
3748,7.282853697
3749,7.167748942
3750,7.095114549
3751,7.170719367
3752,7.225239966
3753,7.152025118
3754,7.25069896
3755,7.20318458
3756,7.258242704
3757,7.187958322
3758,7.22231779
3759,7.238746059
3760,7.298102526
3761,7.152791584
3762,7.240830209
3763,7.259928787
3764,7.148796568
3765,7.224828886
3766,7.186559783
3767,7.117697786
3768,7.243937076
3769,7.189795241
3770,7.293758957
3771,7.128571347
3772,7.208343001
3773,7.218050015
3774,7.237571396
3775,7.234100206
3776,7.143449656
3777,7.350520114
3778,7.170146991
3779,7.149196411
3780,7.167037536
3781,7.282344436
3782,7.239153901
3783,7.150272367
3784,7.178987255
3785,7.200448478
3786,7.22672382
3787,7.17859677
3788,7.217251803
3789,7.276474683
3790,7.21181841
3791,7.179660634
3792,7.229657153
3793,7.14075181
3794,7.112829742
3795,7.222546006
3796,7.194505332
3797,7.257030555
3798,7.239326934
3799,7.239844173
3800,7.185807233
3801,7.202178961
3802,7.16533683
3803,7.172686875
3804,7.121162547
3805,7.221766909
3806,7.193886595
3807,7.126893766
3808,7.201598779
3809,7.263041124
3810,7.148918811
3811,7.143932273
3812,7.22792242
3813,7.136604232
3814,7.273131887
3815,7.244148799
3816,7.175204522
3817,7.17692997
3818,7.147960275
3819,7.203509235
3820,7.219566863
3821,7.151355973
3822,7.205763458
3823,7.236547531
3824,7.201100511
3825,7.226249624
3826,7.226598125
3827,7.200792242
3828,7.284831284
3829,7.164353272
3830,7.19200238
3831,7.146944409
3832,7.207252244
3833,7.21716531
3834,7.198163113
3835,7.177579946
3836,7.183775597
3837,7.316774072
3838,7.161542613
3839,7.222953111
3840,7.264044295
3841,7.129972321
3842,7.254946979
3843,7.198235462
3844,7.224332204
3845,7.162054428
3846,7.225896408
3847,7.170820142
3848,7.151946782
3849,7.225729822
3850,7.20013722
3851,7.246824367
3852,7.2565507
3853,7.20652762
3854,7.258850302
3855,7.198126404
3856,7.21355533
3857,7.188352857
3858,7.230815003
3859,7.185689538
3860,7.225002921
3861,7.294298954
3862,7.245607977
3863,7.186398269
3864,7.192165012
3865,7.204842929
3866,7.16910684
3867,7.194859987
3868,7.159954695
3869,7.257829944
3870,7.19548719
3871,7.298579458
3872,7.203606568
3873,7.269734746
3874,7.160490662
3875,7.131541478
3876,7.238620468
3877,7.222517482
3878,7.210180993
3879,7.228749172
3880,7.216681243
3881,7.21262108
3882,7.190196348
3883,7.156705746
3884,7.139726433
3885,7.201821872
3886,7.207943845
3887,7.24080048
3888,7.249812488
3889,7.129595926
3890,7.241637241
3891,7.218619848
3892,7.209488758
3893,7.232461626
3894,7.169768531
3895,7.109263589
3896,7.074509094
3897,7.205802977
3898,7.241431042
3899,7.284800476
3900,7.241774233
3901,7.190616131
3902,7.280335219
3903,7.134337666
3904,7.201999416
3905,7.143560752
3906,7.193288814
3907,7.247038076
3908,7.211522474
3909,7.076197929
3910,7.236687135
3911,7.286942854
3912,7.210734862
3913,7.232290382
3914,7.254559584
3915,7.222086995
3916,7.15970814
3917,7.29926432
3918,7.128517601
3919,7.252540132
3920,7.227879639
3921,7.229056259
3922,7.252807756
3923,7.240888926
3924,7.161572144
3925,7.183193375
3926,7.18352427
3927,7.171425944
3928,7.180813776
3929,7.170686151
3930,7.126580097
3931,7.190847141
3932,7.106471907
3933,7.205313826
3934,7.198447168
3935,7.18018652
3936,7.168767609
3937,7.23582715
3938,7.205261071
3939,7.184010214
3940,7.199448088
3941,7.209915826
3942,7.183989976
3943,7.209013182
3944,7.131353045
3945,7.153960852
3946,7.277045333
3947,7.026500065
3948,7.114718991
3949,7.185683716
3950,7.202518236
3951,7.105635992
3952,7.192735381
3953,7.23820244
3954,7.178972694
3955,7.199576014
3956,7.106334192
3957,7.193656038
3958,7.151737377
3959,7.132490134
3960,7.285037392
3961,7.232164838
3962,7.340797367
3963,7.221745943
3964,7.244602282
3965,7.207070512
3966,7.077180486
3967,7.11178055
3968,7.228726372
3969,7.191447688
3970,7.152168606
3971,7.152049837
3972,7.110825648
3973,7.182133519
3974,7.192471276
3975,7.186271264
3976,7.185685173
3977,7.129469361
3978,7.197372247
3979,7.301098766
3980,7.125499637
3981,7.230837649
3982,7.240221601
3983,7.164712288
3984,7.204858795
3985,7.211194046
3986,7.256342427
3987,7.16602726
3988,7.151981534
3989,7.214316282
3990,7.205838089
3991,7.238394336
3992,7.198082412
3993,7.14370999
3994,7.113577654
3995,7.240453986
3996,7.272680104
3997,7.231240594
3998,7.277068976
3999,7.203411649
4000,7.173533074
