Raman shift,Intensity
783.97012,1856.90573
785.52446,1858.26208
785.52446,1855.54938
785.52446,1859.61842
787.0788,1860.97477
788.63314,1860.97477
790.18748,1866.40016
790.18748,1867.75651
790.18748,1862.33112
790.18748,1863.68747
790.18748,1865.04381
790.18748,1873.1819
790.18748,1871.82555
790.18748,1870.46921
790.18748,1869.11286
790.18748,1874.53825
790.18748,1875.8946
790.18748,1877.25094
790.18748,1878.60729
791.74181,1878.60729
791.74181,1879.96364
791.74181,1881.31999
793.29615,1881.31999
793.29615,1882.67634
794.85049,1885.38903
794.85049,1884.03268
796.40483,1888.10173
796.40483,1886.74538
797.95917,1890.81442
797.95917,1889.45807
797.95917,1892.17077
799.51351,1894.88346
799.51351,1893.52712
801.06785,1894.88346
802.62219,1894.88346
804.17652,1894.88346
805.73086,1894.88346
807.2852,1894.88346
808.83954,1898.95251
808.83954,1894.88346
808.83954,1896.23981
810.39388,1903.02155
810.39388,1897.59616
810.39388,1904.3779
810.39388,1901.6652
810.39388,1908.44694
810.39388,1900.30886
811.94822,1924.72312
811.94822,1923.36677
811.94822,1915.22868
811.94822,1907.09059
811.94822,1905.73425
811.94822,1913.87233
811.94822,1908.44694
811.94822,1904.3779
811.94822,1903.02155
811.94822,1909.80329
811.94822,1901.6652
811.94822,1926.07946
811.94822,1930.14851
811.94822,1928.79216
811.94822,1927.43581
813.50256,1931.50485
813.50256,1909.80329
813.50256,1922.01042
813.50256,1912.51599
813.50256,1913.87233
813.50256,1911.15964
813.50256,1916.58503
813.50256,1905.73425
813.50256,1917.94138
813.50256,1907.09059
815.0569,1917.94138
815.0569,1915.22868
815.0569,1916.58503
815.0569,1912.51599
815.0569,1911.15964
815.0569,1920.65407
815.0569,1919.29772
815.0569,1938.28659
815.0569,1936.93025
815.0569,1932.8612
815.0569,1939.64294
816.61123,1935.5739
816.61123,1934.21755
816.61123,1940.99929
816.61123,1942.35564
816.61123,1943.71198
816.61123,1945.06833
816.61123,1946.42468
816.61123,1947.78103
816.61123,1920.65407
816.61123,1922.01042
816.61123,1919.29772
816.61123,1924.72312
816.61123,1923.36677
818.16557,1926.07946
818.16557,1949.13737
818.16557,1928.79216
818.16557,1927.43581
818.16557,1951.85007
819.71991,1955.91911
819.71991,1953.20642
819.71991,1954.56277
819.71991,1950.49372
819.71991,1934.21755
819.71991,1931.50485
819.71991,1932.8612
819.71991,1930.14851
821.27425,1964.0572
821.27425,1965.41355
821.27425,1961.3445
821.27425,1959.98816
821.27425,1936.93025
821.27425,1957.27546
821.27425,1938.28659
821.27425,1958.63181
821.27425,1935.5739
821.27425,1940.99929
822.82859,1962.70085
822.82859,1939.64294
822.82859,1966.7699
822.82859,1942.35564
822.82859,1968.12624
822.82859,1957.27546
824.38293,1945.06833
824.38293,1947.78103
824.38293,1949.13737
824.38293,1950.49372
824.38293,1959.98816
824.38293,1958.63181
824.38293,1946.42468
824.38293,1955.91911
824.38293,1943.71198
824.38293,1980.33337
824.38293,1969.48259
824.38293,1970.83894
824.38293,1972.19529
824.38293,1973.55163
824.38293,1974.90798
824.38293,1978.97703
824.38293,1977.62068
825.93727,1983.04607
825.93727,1976.26433
825.93727,1987.11511
825.93727,1961.3445
825.93727,1984.40242
825.93727,1964.0572
825.93727,1968.12624
825.93727,1966.7699
825.93727,1953.20642
825.93727,1951.85007
825.93727,1981.68972
825.93727,1954.56277
825.93727,1988.47146
825.93727,1962.70085
827.49161,1993.89685
827.49161,1995.2532
827.49161,1989.82781
827.49161,1991.18416
827.49161,1969.48259
827.49161,1972.19529
827.49161,1985.75876
827.49161,1965.41355
829.04594,2002.03494
829.04594,1999.32224
829.04594,2003.39128
829.04594,1992.5405
829.04594,1996.60955
829.04594,1997.96589
829.04594,1970.83894
829.04594,1973.55163
830.60028,2000.67859
830.60028,1974.90798
830.60028,2010.17302
830.60028,2011.52937
830.60028,2004.74763
830.60028,2007.46033
830.60028,2006.10398
832.15462,1981.68972
832.15462,2012.88572
832.15462,2008.81668
832.15462,1976.26433
832.15462,1977.62068
833.70896,1978.97703
833.70896,1985.75876
833.70896,1984.40242
833.70896,1983.04607
833.70896,1980.33337
833.70896,2016.95476
833.70896,2015.59841
833.70896,2014.24207
833.70896,1989.82781
833.70896,2018.31111
835.2633,1997.96589
835.2633,1987.11511
835.2633,1988.47146
835.2633,1993.89685
835.2633,1992.5405
835.2633,1991.18416
835.2633,2016.95476
835.2633,2018.31111
836.81764,1995.2532
836.81764,2015.59841
836.81764,2018.31111
836.81764,1996.60955
836.81764,1999.32224
836.81764,2000.67859
836.81764,2002.03494
836.81764,2006.10398
836.81764,2016.95476
838.37198,2010.17302
838.37198,2014.24207
838.37198,2008.81668
838.37198,2018.31111
838.37198,2007.46033
838.37198,2016.95476
838.37198,2004.74763
838.37198,2003.39128
838.37198,2011.52937
839.92632,2023.7365
839.92632,2026.4492
839.92632,2027.80554
839.92632,2029.16189
839.92632,2012.88572
839.92632,2018.31111
839.92632,2019.66746
839.92632,2021.02381
839.92632,2022.38015
839.92632,2025.09285
839.92632,2016.95476
841.48066,2029.16189
841.48066,2016.95476
841.48066,2018.31111
841.48066,2019.66746
843.03499,2019.66746
843.03499,2022.38015
843.03499,2021.02381
843.03499,2029.16189
844.58933,2022.38015
844.58933,2025.09285
844.58933,2030.51824
844.58933,2023.7365
844.58933,2029.16189
846.14367,2026.4492
846.14367,2030.51824
846.14367,2034.58728
846.14367,2033.23094
846.14367,2031.87459
847.69801,2027.80554
847.69801,2033.23094
847.69801,2031.87459
847.69801,2030.51824
847.69801,2034.58728
847.69801,2029.16189
849.25235,2029.16189
849.25235,2027.80554
850.80669,2027.80554
850.80669,2029.16189
852.36103,2027.80554
852.36103,2026.4492
853.91537,2014.24207
853.91537,2027.80554
853.91537,2021.02381
853.91537,2022.38015
853.91537,2023.7365
853.91537,2025.09285
853.91537,2026.4492
853.91537,2015.59841
855.4697,2025.09285
855.4697,2012.88572
855.4697,2011.52937
855.4697,2008.81668
855.4697,2023.7365
855.4697,2026.4492
855.4697,2027.80554
855.4697,2021.02381
855.4697,2016.95476
857.02404,2023.7365
857.02404,2006.10398
857.02404,2018.31111
857.02404,2021.02381
857.02404,2004.74763
857.02404,2010.17302
857.02404,2007.46033
858.57838,2002.03494
858.57838,2003.39128
858.57838,2019.66746
858.57838,2023.7365
858.57838,2006.10398
858.57838,2015.59841
858.57838,2007.46033
858.57838,2021.02381
858.57838,2014.24207
860.13272,2012.88572
860.13272,2015.59841
860.13272,2018.31111
860.13272,2008.81668
860.13272,2016.95476
860.13272,2022.38015
860.13272,2021.02381
860.13272,2019.66746
860.13272,1992.5405
860.13272,1993.89685
860.13272,1996.60955
860.13272,1997.96589
860.13272,1999.32224
860.13272,2014.24207
860.13272,2004.74763
860.13272,2000.67859
861.68706,1996.60955
861.68706,2002.03494
861.68706,1991.18416
861.68706,1989.82781
861.68706,2016.95476
861.68706,2000.67859
861.68706,2010.17302
861.68706,2003.39128
861.68706,2018.31111
861.68706,1997.96589
861.68706,1995.2532
861.68706,1999.32224
861.68706,2007.46033
861.68706,2012.88572
861.68706,1993.89685
861.68706,2011.52937
861.68706,2019.66746
861.68706,1992.5405
863.2414,1991.18416
863.2414,1989.82781
863.2414,2015.59841
863.2414,2002.03494
863.2414,2010.17302
863.2414,2000.67859
863.2414,1988.47146
863.2414,1996.60955
863.2414,1995.2532
863.2414,1993.89685
863.2414,1992.5405
863.2414,2011.52937
863.2414,2006.10398
863.2414,2008.81668
863.2414,1999.32224
863.2414,2016.95476
863.2414,2019.66746
863.2414,1997.96589
863.2414,2018.31111
863.2414,1995.2532
864.79574,2004.74763
864.79574,2014.24207
864.79574,2011.52937
864.79574,2010.17302
864.79574,1996.60955
864.79574,2007.46033
864.79574,1987.11511
864.79574,1999.32224
864.79574,1997.96589
864.79574,1991.18416
864.79574,2012.88572
864.79574,1981.68972
864.79574,1980.33337
864.79574,2000.67859
864.79574,1978.97703
864.79574,2003.39128
864.79574,2002.03494
864.79574,1992.5405
864.79574,1989.82781
864.79574,1988.47146
864.79574,1995.2532
866.35008,1977.62068
866.35008,2008.81668
866.35008,1973.55163
866.35008,1972.19529
866.35008,1984.40242
866.35008,1985.75876
866.35008,1988.47146
866.35008,1970.83894
866.35008,1983.04607
866.35008,1987.11511
866.35008,2003.39128
866.35008,1993.89685
866.35008,1999.32224
866.35008,1997.96589
866.35008,2006.10398
866.35008,2004.74763
866.35008,1996.60955
866.35008,1995.2532
866.35008,1976.26433
867.90441,1974.90798
867.90441,1969.48259
867.90441,1973.55163
867.90441,1993.89685
867.90441,1991.18416
867.90441,1972.19529
867.90441,1968.12624
867.90441,1985.75876
867.90441,1984.40242
867.90441,1983.04607
867.90441,1987.11511
867.90441,1981.68972
869.45875,1989.82781
869.45875,1988.47146
869.45875,1987.11511
869.45875,1962.70085
869.45875,1973.55163
869.45875,1964.0572
869.45875,1980.33337
869.45875,1969.48259
869.45875,1983.04607
869.45875,1974.90798
869.45875,1958.63181
869.45875,1981.68972
869.45875,1957.27546
869.45875,1955.91911
869.45875,1992.5405
869.45875,1985.75876
869.45875,1984.40242
869.45875,1966.7699
869.45875,1965.41355
869.45875,1995.2532
869.45875,1959.98816
869.45875,1961.3445
869.45875,1970.83894
871.01309,1962.70085
871.01309,1958.63181
871.01309,1972.19529
871.01309,1953.20642
871.01309,1974.90798
871.01309,1968.12624
871.01309,1970.83894
871.01309,1978.97703
871.01309,1977.62068
871.01309,1976.26433
871.01309,1984.40242
871.01309,1965.41355
871.01309,1964.0572
871.01309,1969.48259
871.01309,1966.7699
871.01309,1957.27546
871.01309,1987.11511
871.01309,1954.56277
871.01309,1985.75876
871.01309,1950.49372
871.01309,1949.13737
871.01309,1980.33337
871.01309,1959.98816
871.01309,1961.3445
871.01309,1983.04607
871.01309,1955.91911
872.56743,1983.04607
872.56743,1955.91911
872.56743,1951.85007
872.56743,1947.78103
872.56743,1946.42468
872.56743,1945.06833
872.56743,1976.26433
872.56743,1977.62068
872.56743,1978.97703
872.56743,1985.75876
872.56743,1981.68972
872.56743,1968.12624
872.56743,1987.11511
872.56743,1969.48259
872.56743,1970.83894
872.56743,1972.19529
872.56743,1949.13737
872.56743,1984.40242
872.56743,1954.56277
872.56743,1953.20642
872.56743,1965.41355
872.56743,1950.49372
872.56743,1957.27546
872.56743,1958.63181
872.56743,1959.98816
872.56743,1961.3445
872.56743,1943.71198
872.56743,1966.7699
874.12177,1951.85007
874.12177,1964.0572
874.12177,1962.70085
874.12177,1977.62068
874.12177,1976.26433
874.12177,1974.90798
874.12177,1973.55163
874.12177,1968.12624
874.12177,1966.7699
874.12177,1965.41355
874.12177,1949.13737
874.12177,1947.78103
874.12177,1946.42468
874.12177,1945.06833
874.12177,1943.71198
874.12177,1942.35564
874.12177,1940.99929
874.12177,1939.64294
874.12177,1938.28659
874.12177,1981.68972
874.12177,1935.5739
874.12177,1934.21755
874.12177,1932.8612
874.12177,1954.56277
874.12177,1980.33337
874.12177,1978.97703
874.12177,1950.49372
874.12177,1953.20642
874.12177,1980.33337
875.67611,1926.07946
875.67611,1931.50485
875.67611,1930.14851
875.67611,1951.85007
875.67611,1958.63181
875.67611,1949.13737
875.67611,1947.78103
875.67611,1946.42468
875.67611,1945.06833
875.67611,1934.21755
875.67611,1928.79216
875.67611,1940.99929
875.67611,1936.93025
875.67611,1939.64294
875.67611,1923.36677
875.67611,1950.49372
875.67611,1935.5739
875.67611,1942.35564
875.67611,1964.0572
875.67611,1962.70085
875.67611,1924.72312
875.67611,1955.91911
877.23045,1928.79216
877.23045,1926.07946
877.23045,1930.14851
877.23045,1931.50485
877.23045,1938.28659
877.23045,1922.01042
877.23045,1920.65407
877.23045,1924.72312
877.23045,1957.27546
877.23045,1927.43581
877.23045,1959.98816
877.23045,1961.3445
877.23045,1932.8612
877.23045,1943.71198
877.23045,1936.93025
877.23045,1951.85007
877.23045,1919.29772
877.23045,1916.58503
877.23045,1917.94138
878.78479,1927.43581
878.78479,1913.87233
878.78479,1919.29772
878.78479,1923.36677
878.78479,1922.01042
878.78479,1957.27546
878.78479,1920.65407
878.78479,1907.09059
878.78479,1908.44694
878.78479,1909.80329
878.78479,1915.22868
878.78479,1912.51599
878.78479,1953.20642
878.78479,1958.63181
880.33912,1912.51599
880.33912,1954.56277
880.33912,1955.91911
880.33912,1905.73425
880.33912,1909.80329
880.33912,1908.44694
880.33912,1907.09059
880.33912,1917.94138
880.33912,1913.87233
880.33912,1903.02155
880.33912,1915.22868
880.33912,1897.59616
880.33912,1898.95251
880.33912,1900.30886
880.33912,1911.15964
880.33912,1904.3779
881.89346,1893.52712
881.89346,1911.15964
881.89346,1904.3779
881.89346,1898.95251
881.89346,1900.30886
881.89346,1905.73425
881.89346,1894.88346
881.89346,1901.6652
881.89346,1896.23981
881.89346,1916.58503
881.89346,1903.02155
883.4478,1892.17077
883.4478,1897.59616
883.4478,1901.6652
883.4478,1896.23981
883.4478,1893.52712
883.4478,1894.88346
885.00214,1890.81442
885.00214,1878.60729
885.00214,1877.25094
885.00214,1892.17077
885.00214,1874.53825
885.00214,1873.1819
885.00214,1879.96364
885.00214,1881.31999
886.55648,1870.46921
886.55648,1869.11286
886.55648,1866.40016
886.55648,1867.75651
886.55648,1865.04381
886.55648,1871.82555
886.55648,1878.60729
886.55648,1874.53825
886.55648,1890.81442
886.55648,1889.45807
886.55648,1882.67634
886.55648,1881.31999
886.55648,1879.96364
886.55648,1875.8946
888.11082,1871.82555
888.11082,1877.25094
888.11082,1866.40016
888.11082,1886.74538
888.11082,1867.75651
888.11082,1873.1819
888.11082,1889.45807
888.11082,1863.68747
888.11082,1862.33112
888.11082,1860.97477
888.11082,1884.03268
888.11082,1869.11286
888.11082,1882.67634
888.11082,1888.10173
888.11082,1875.8946
888.11082,1870.46921
889.66516,1888.10173
889.66516,1885.38903
889.66516,1865.04381
889.66516,1863.68747
889.66516,1862.33112
889.66516,1859.61842
889.66516,1850.12399
889.66516,1856.90573
889.66516,1855.54938
889.66516,1854.19303
889.66516,1852.83668
889.66516,1886.74538
889.66516,1847.41129
889.66516,1848.76764
889.66516,1860.97477
889.66516,1884.03268
891.2195,1851.48034
891.2195,1843.34225
891.2195,1859.61842
891.2195,1858.26208
891.2195,1841.9859
891.2195,1848.76764
891.2195,1840.62955
891.2195,1846.05495
891.2195,1844.6986
891.2195,1885.38903
892.77384,1850.12399
892.77384,1846.05495
892.77384,1839.27321
892.77384,1841.9859
892.77384,1847.41129
892.77384,1835.20416
892.77384,1836.56051
892.77384,1837.91686
892.77384,1840.62955
892.77384,1858.26208
892.77384,1843.34225
892.77384,1844.6986
894.32817,1835.20416
894.32817,1851.48034
894.32817,1833.84782
894.32817,1839.27321
894.32817,1836.56051
894.32817,1856.90573
894.32817,1832.49147
895.88251,1852.83668
895.88251,1855.54938
895.88251,1833.84782
895.88251,1831.13512
895.88251,1837.91686
895.88251,1832.49147
895.88251,1854.19303
897.43685,1832.49147
897.43685,1831.13512
898.99119,1831.13512
898.99119,1832.49147
900.54553,1829.77877
900.54553,1832.49147
900.54553,1831.13512
900.54553,1828.42243
902.09987,1827.06608
902.09987,1825.70973
902.09987,1824.35338
902.09987,1822.99703
902.09987,1821.64069
902.09987,1820.28434
902.09987,1832.49147
902.09987,1818.92799
903.65421,1817.57164
903.65421,1832.49147
903.65421,1831.13512
905.20855,1818.92799
905.20855,1817.57164
905.20855,1820.28434
905.20855,1821.64069
905.20855,1824.35338
905.20855,1822.99703
905.20855,1816.2153
905.20855,1825.70973
905.20855,1827.06608
905.20855,1829.77877
905.20855,1828.42243
906.76288,1816.2153
908.31722,1816.2153
909.87156,1817.57164
911.4259,1818.92799
912.98024,1817.57164
914.53458,1816.2153
916.08892,1814.85895
917.64326,1814.85895
919.19759,1816.2153
919.19759,1818.92799
919.19759,1827.06608
919.19759,1825.70973
919.19759,1824.35338
919.19759,1822.99703
919.19759,1821.64069
919.19759,1820.28434
919.19759,1817.57164
920.75193,1828.42243
922.30627,1829.77877
922.30627,1828.42243
923.86061,1829.77877
923.86061,1831.13512
925.41495,1831.13512
926.96929,1832.49147
926.96929,1831.13512
928.52363,1831.13512
930.07797,1829.77877
931.6323,1828.42243
933.18664,1827.06608
934.74098,1827.06608
936.29532,1828.42243
937.84966,1828.42243
939.404,1832.49147
939.404,1829.77877
939.404,1831.13512
939.404,1837.91686
939.404,1833.84782
939.404,1835.20416
939.404,1836.56051
940.95834,1837.91686
942.51268,1840.62955
942.51268,1839.27321
944.06701,1840.62955
945.62135,1840.62955
945.62135,1841.9859
947.17569,1843.34225
947.17569,1841.9859
948.73003,1843.34225
950.28437,1843.34225
951.83871,1844.6986
953.39305,1844.6986
953.39305,1846.05495
954.94739,1846.05495
956.50173,1846.05495
956.50173,1847.41129
958.05606,1848.76764
958.05606,1847.41129
959.6104,1848.76764
959.6104,1850.12399
961.16474,1850.12399
962.71908,1851.48034
964.27342,1851.48034
965.82776,1851.48034
967.3821,1851.48034
968.93644,1848.76764
968.93644,1847.41129
968.93644,1846.05495
968.93644,1850.12399
970.49077,1844.6986
970.49077,1843.34225
972.04511,1843.34225
972.04511,1840.62955
972.04511,1841.9859
973.59945,1839.27321
973.59945,1840.62955
975.15379,1837.91686
975.15379,1839.27321
976.70813,1837.91686
978.26247,1837.91686
979.81681,1837.91686
981.37115,1837.91686
982.92548,1837.91686
984.47982,1837.91686
986.03416,1836.56051
986.03416,1837.91686
987.5885,1835.20416
987.5885,1836.56051
989.14284,1820.28434
989.14284,1833.84782
989.14284,1816.2153
989.14284,1818.92799
990.69718,1817.57164
990.69718,1814.85895
990.69718,1831.13512
990.69718,1829.77877
990.69718,1828.42243
990.69718,1832.49147
990.69718,1821.64069
992.25152,1828.42243
992.25152,1813.5026
992.25152,1810.7899
992.25152,1812.14625
992.25152,1827.06608
992.25152,1822.99703
993.80586,1824.35338
993.80586,1808.07721
993.80586,1806.72086
993.80586,1825.70973
993.80586,1827.06608
993.80586,1809.43356
995.36019,1806.72086
995.36019,1805.36451
996.91453,1804.00817
996.91453,1805.36451
998.46887,1802.65182
998.46887,1804.00817
1000.02321,1801.29547
1000.02321,1802.65182
1001.57755,1801.29547
1003.13189,1799.93912
1004.68623,1799.93912
1006.24057,1799.93912
1007.79491,1801.29547
1009.34924,1802.65182
1010.90358,1805.36451
1010.90358,1804.00817
1010.90358,1806.72086
1010.90358,1808.07721
1012.45792,1809.43356
1012.45792,1808.07721
1014.01226,1810.7899
1014.01226,1809.43356
1015.5666,1810.7899
1015.5666,1812.14625
1017.12094,1813.5026
1018.67528,1814.85895
1018.67528,1813.5026
1020.22962,1816.2153
1020.22962,1814.85895
1021.78395,1816.2153
1023.33829,1817.57164
1024.89263,1817.57164
1026.44697,1817.57164
1028.00131,1818.92799
1028.00131,1817.57164
1029.55565,1821.64069
1029.55565,1820.28434
1037.32734,1799.93912
1037.32734,1801.29547
1038.88168,1802.65182
1040.43602,1802.65182
1040.43602,1804.00817
1041.99036,1804.00817
1043.5447,1804.00817
1045.09904,1804.00817
1046.65337,1804.00817
1046.65337,1805.36451
1048.20771,1805.36451
1048.20771,1806.72086
1049.76205,1806.72086
1051.31639,1806.72086
1052.87073,1808.07721
1052.87073,1809.43356
1054.42507,1809.43356
1054.42507,1810.7899
1054.42507,1812.14625
1054.42507,1813.5026
1054.42507,1814.85895
1055.97941,1816.2153
1057.53375,1817.57164
1059.08808,1817.57164
1060.64242,1817.57164
1062.19676,1817.57164
1063.7511,1817.57164
1065.30544,1816.2153
1066.85978,1816.2153
1066.85978,1814.85895
1068.41412,1814.85895
1068.41412,1813.5026
1068.41412,1812.14625
1068.41412,1810.7899
1068.41412,1809.43356
1068.41412,1808.07721
1068.41412,1806.72086
1069.96846,1806.72086
1071.5228,1806.72086
1073.07713,1806.72086
1074.63147,1806.72086
1076.18581,1805.36451
1076.18581,1804.00817
1076.18581,1802.65182
1076.18581,1801.29547
1077.74015,1801.29547
1077.74015,1799.93912
1077.74015,1798.58277
1077.74015,1797.22643
1077.74015,1795.87008
1077.74015,1794.51373
1077.74015,1793.15738
1077.74015,1791.80104
1079.29449,1790.44469
1080.84883,1790.44469
1082.40317,1790.44469
1083.95751,1790.44469
1085.51184,1790.44469
1087.06618,1791.80104
1088.62052,1791.80104
1088.62052,1793.15738
1090.17486,1793.15738
1090.17486,1794.51373
1091.7292,1794.51373
1091.7292,1795.87008
1091.7292,1797.22643
1093.28354,1798.58277
1093.28354,1799.93912
1093.28354,1801.29547
1094.83788,1801.29547
1096.39222,1801.29547
1097.94655,1801.29547
1099.50089,1801.29547
1101.05523,1801.29547
1102.60957,1801.29547
1102.60957,1802.65182
1104.16391,1802.65182
1104.16391,1804.00817
1105.71825,1804.00817
1105.71825,1805.36451
1105.71825,1806.72086
1105.71825,1808.07721
1105.71825,1809.43356
1105.71825,1810.7899
1107.27259,1812.14625
1108.82693,1810.7899
1110.38126,1809.43356
1111.9356,1808.07721
1113.48994,1809.43356
1115.04428,1810.7899
1116.59862,1812.14625
1118.15296,1812.14625
1118.15296,1810.7899
1119.7073,1810.7899
1121.26164,1810.7899
1121.26164,1809.43356
1122.81598,1809.43356
1122.81598,1808.07721
1124.37031,1808.07721
1124.37031,1806.72086
1124.37031,1805.36451
1124.37031,1804.00817
1125.92465,1804.00817
1127.47899,1801.29547
1127.47899,1802.65182
1129.03333,1799.93912
1129.03333,1801.29547
1130.58767,1798.58277
1130.58767,1799.93912
1132.14201,1797.22643
1132.14201,1798.58277
1133.69635,1797.22643
1133.69635,1795.87008
1135.25069,1790.44469
1135.25069,1795.87008
1135.25069,1794.51373
1135.25069,1793.15738
1135.25069,1791.80104
1135.25069,1789.08834
1136.80502,1787.73199
1138.35936,1787.73199
1139.9137,1787.73199
1141.46804,1787.73199
1143.02238,1787.73199
1144.57672,1789.08834
1146.13106,1790.44469
1146.13106,1789.08834
1147.6854,1790.44469
1147.6854,1791.80104
1149.23973,1791.80104
1150.79407,1791.80104
1152.34841,1793.15738
1153.90275,1794.51373
1155.45709,1798.58277
1155.45709,1795.87008
1155.45709,1797.22643
1157.01143,1798.58277
1157.01143,1804.00817
1157.01143,1799.93912
1157.01143,1801.29547
1157.01143,1802.65182
1157.01143,1805.36451
1158.56577,1806.72086
1160.12011,1806.72086
1161.67444,1806.72086
1163.22878,1806.72086
1164.78312,1806.72086
1166.33746,1805.36451
1167.8918,1804.00817
1169.44614,1804.00817
1171.00048,1804.00817
1172.55482,1804.00817
1174.10915,1798.58277
1174.10915,1802.65182
1174.10915,1801.29547
1174.10915,1799.93912
1174.10915,1795.87008
1174.10915,1797.22643
1175.66349,1797.22643
1177.21783,1798.58277
1178.77217,1799.93912
1180.32651,1801.29547
1181.88085,1799.93912
1183.43519,1798.58277
1184.98953,1797.22643
1186.54387,1795.87008
1188.0982,1795.87008
1189.65254,1798.58277
1189.65254,1797.22643
1189.65254,1802.65182
1189.65254,1799.93912
1189.65254,1801.29547
1189.65254,1805.36451
1189.65254,1804.00817
1191.20688,1805.36451
1192.76122,1808.07721
1192.76122,1805.36451
1192.76122,1806.72086
1194.31556,1808.07721
1195.8699,1808.07721
1195.8699,1809.43356
1197.42424,1809.43356
1198.97858,1809.43356
1200.53291,1808.07721
1202.08725,1806.72086
1203.64159,1805.36451
1205.19593,1805.36451
1206.75027,1806.72086
1208.30461,1806.72086
1209.85895,1808.07721
1211.41329,1809.43356
1212.96762,1810.7899
1214.52196,1812.14625
1216.0763,1813.5026
1217.63064,1812.14625
1219.18498,1810.7899
1220.73932,1809.43356
1222.29366,1809.43356
1223.848,1808.07721
1225.40233,1809.43356
1226.95667,1810.7899
1228.51101,1810.7899
1230.06535,1810.7899
1231.61969,1810.7899
1233.17403,1810.7899
1234.72837,1809.43356
1236.28271,1810.7899
1237.83705,1810.7899
1239.39138,1810.7899
1240.94572,1810.7899
1242.50006,1809.43356
1244.0544,1809.43356
1245.60874,1809.43356
1247.16308,1808.07721
1248.71742,1806.72086
1250.27176,1805.36451
1251.82609,1804.00817
1253.38043,1804.00817
1254.93477,1804.00817
1256.48911,1804.00817
1258.04345,1813.5026
1258.04345,1805.36451
1258.04345,1806.72086
1258.04345,1808.07721
1258.04345,1809.43356
1258.04345,1810.7899
1258.04345,1814.85895
1258.04345,1812.14625
1259.59779,1814.85895
1259.59779,1816.2153
1261.15213,1816.2153
1261.15213,1817.57164
1262.70647,1817.57164
1264.2608,1817.57164
1265.81514,1820.28434
1265.81514,1818.92799
1265.81514,1821.64069
1267.36948,1821.64069
1268.92382,1822.99703
1270.47816,1824.35338
1272.0325,1827.06608
1272.0325,1825.70973
1273.58684,1836.56051
1273.58684,1827.06608
1273.58684,1828.42243
1273.58684,1829.77877
1273.58684,1831.13512
1273.58684,1832.49147
1273.58684,1833.84782
1273.58684,1835.20416
1275.14118,1836.56051
1276.69551,1837.91686
1276.69551,1836.56051
1278.24985,1836.56051
1279.80419,1835.20416
1281.35853,1836.56051
1282.91287,1837.91686
1284.46721,1839.27321
1286.02155,1837.91686
1287.57589,1829.77877
1287.57589,1836.56051
1287.57589,1835.20416
1287.57589,1833.84782
1287.57589,1832.49147
1287.57589,1831.13512
1289.13022,1828.42243
1289.13022,1829.77877
1290.68456,1828.42243
1292.2389,1825.70973
1292.2389,1828.42243
1292.2389,1827.06608
1293.79324,1824.35338
1293.79324,1825.70973
1295.34758,1822.99703
1295.34758,1824.35338
1296.90192,1822.99703
1298.45626,1822.99703
1300.0106,1821.64069
1301.56494,1821.64069
1303.11927,1821.64069
1304.67361,1821.64069
1306.22795,1821.64069
1307.78229,1827.06608
1307.78229,1822.99703
1307.78229,1824.35338
1307.78229,1825.70973
1307.78229,1831.13512
1307.78229,1828.42243
1307.78229,1829.77877
1309.33663,1831.13512
1310.89097,1833.84782
1310.89097,1831.13512
1310.89097,1832.49147
1312.44531,1833.84782
1313.99965,1835.20416
1313.99965,1833.84782
1315.55398,1835.20416
1317.10832,1833.84782
1318.66266,1832.49147
1320.217,1831.13512
1321.77134,1829.77877
1323.32568,1828.42243
1324.88002,1827.06608
1326.43436,1828.42243
1327.98869,1829.77877
1329.54303,1831.13512
1331.09737,1832.49147
1332.65171,1831.13512
1334.20605,1829.77877
1335.76039,1829.77877
1337.31473,1828.42243
1338.86907,1827.06608
1340.4234,1825.70973
1341.97774,1825.70973
1343.53208,1824.35338
1345.08642,1835.20416
1345.08642,1825.70973
1345.08642,1827.06608
1345.08642,1828.42243
1345.08642,1829.77877
1345.08642,1831.13512
1345.08642,1832.49147
1345.08642,1833.84782
1346.64076,1837.91686
1346.64076,1835.20416
1346.64076,1836.56051
1348.1951,1839.27321
1349.74944,1839.27321
1351.30378,1846.05495
1351.30378,1839.27321
1351.30378,1840.62955
1351.30378,1841.9859
1351.30378,1843.34225
1351.30378,1844.6986
1352.85812,1847.41129
1354.41245,1847.41129
1355.96679,1848.76764
1355.96679,1847.41129
1357.52113,1847.41129
1359.07547,1846.05495
1360.62981,1844.6986
1362.18415,1843.34225
1363.73849,1841.9859
1363.73849,1844.6986
1363.73849,1843.34225
1365.29283,1841.9859
1365.29283,1840.62955
1365.29283,1839.27321
1366.84716,1836.56051
1366.84716,1839.27321
1366.84716,1837.91686
1368.4015,1835.20416
1369.95584,1833.84782
1369.95584,1835.20416
1371.51018,1832.49147
1371.51018,1833.84782
1373.06452,1832.49147
1374.61886,1832.49147
1374.61886,1831.13512
1376.1732,1831.13512
1376.1732,1829.77877
1377.72754,1829.77877
1379.28187,1831.13512
1380.83621,1829.77877
1382.39055,1829.77877
1383.94489,1829.77877
1385.49923,1829.77877
1387.05357,1831.13512
1387.05357,1832.49147
1387.05357,1833.84782
1387.05357,1835.20416
1387.05357,1836.56051
1387.05357,1837.91686
1387.05357,1839.27321
1388.60791,1839.27321
1388.60791,1840.62955
1390.16225,1840.62955
1390.16225,1841.9859
1391.71658,1841.9859
1391.71658,1843.34225
1393.27092,1844.6986
1394.82526,1844.6986
1396.3796,1843.34225
1397.93394,1841.9859
1399.48828,1843.34225
1401.04262,1844.6986
1402.59696,1844.6986
1404.15129,1844.6986
1405.70563,1843.34225
1405.70563,1841.9859
1405.70563,1840.62955
1405.70563,1839.27321
1405.70563,1837.91686
1405.70563,1836.56051
1405.70563,1835.20416
1407.25997,1835.20416
1407.25997,1833.84782
1408.81431,1833.84782
1410.36865,1832.49147
1411.92299,1832.49147
1413.47733,1832.49147
1415.03167,1832.49147
1416.58601,1833.84782
1418.14034,1835.20416
1419.69468,1836.56051
1421.24902,1837.91686
1421.24902,1839.27321
1422.80336,1839.27321
1424.3577,1837.91686
1425.91204,1836.56051
1427.46638,1835.20416
1429.02072,1835.20416
1430.57505,1836.56051
1432.12939,1836.56051
1433.68373,1836.56051
1435.23807,1836.56051
1436.79241,1837.91686
1436.79241,1839.27321
1438.34675,1837.91686
1439.90109,1837.91686
1441.45543,1839.27321
1443.00976,1839.27321
1444.5641,1839.27321
1446.11844,1840.62955
1447.67278,1840.62955
1449.22712,1840.62955
1450.78146,1840.62955
1452.3358,1841.9859
1453.89014,1840.62955
1455.44447,1840.62955
1456.99881,1840.62955
1458.55315,1841.9859
1460.10749,1843.34225
1461.66183,1844.6986
1463.21617,1846.05495
1464.77051,1844.6986
1464.77051,1843.34225
1464.77051,1841.9859
1464.77051,1840.62955
1466.32485,1840.62955
1466.32485,1839.27321
1467.87919,1839.27321
1469.43352,1839.27321
1469.43352,1837.91686
1470.98786,1837.91686
1472.5422,1837.91686
1474.09654,1837.91686
1474.09654,1836.56051
1474.09654,1835.20416
1474.09654,1833.84782
1475.65088,1833.84782
1475.65088,1832.49147
1475.65088,1831.13512
1477.20522,1831.13512
1478.75956,1831.13512
1480.3139,1831.13512
1481.86823,1831.13512
1481.86823,1829.77877
1481.86823,1828.42243
1481.86823,1827.06608
1483.42257,1827.06608
1483.42257,1828.42243
1483.42257,1829.77877
1483.42257,1831.13512
1484.97691,1831.13512
1486.53125,1832.49147
1488.08559,1832.49147
1488.08559,1833.84782
1488.08559,1835.20416
1488.08559,1836.56051
1488.08559,1837.91686
1488.08559,1839.27321
1488.08559,1840.62955
1488.08559,1841.9859
1488.08559,1843.34225
1488.08559,1844.6986
1489.63993,1844.6986
1491.19427,1844.6986
1492.74861,1844.6986
1494.30294,1844.6986
1495.85728,1844.6986
1497.41162,1844.6986
1498.96596,1846.05495
1498.96596,1844.6986
1500.5203,1850.12399
1500.5203,1846.05495
1500.5203,1847.41129
1500.5203,1848.76764
1500.5203,1855.54938
1500.5203,1851.48034
1500.5203,1852.83668
1500.5203,1854.19303
1502.07464,1855.54938
1503.62898,1855.54938
1505.18332,1856.90573
1506.73765,1856.90573
1508.29199,1856.90573
1509.84633,1856.90573
1511.40067,1856.90573
1512.95501,1856.90573
1514.50935,1855.54938
1516.06369,1854.19303
1517.61803,1852.83668
1519.17236,1851.48034
1520.7267,1854.19303
1520.7267,1852.83668
1522.28104,1860.97477
1522.28104,1854.19303
1522.28104,1855.54938
1522.28104,1856.90573
1522.28104,1858.26208
1522.28104,1862.33112
1522.28104,1859.61842
1523.83538,1863.68747
1523.83538,1865.04381
1525.38972,1866.40016
1526.94406,1874.53825
1526.94406,1871.82555
1526.94406,1873.1819
1526.94406,1877.25094
1526.94406,1867.75651
1526.94406,1875.8946
1528.4984,1869.11286
1528.4984,1878.60729
1528.4984,1870.46921
1530.05274,1879.96364
1531.60708,1881.31999
1531.60708,1886.74538
1531.60708,1892.17077
1531.60708,1890.81442
1531.60708,1888.10173
1533.16141,1893.52712
1533.16141,1885.38903
1533.16141,1889.45807
1533.16141,1882.67634
1534.71575,1884.03268
1534.71575,1897.59616
1534.71575,1894.88346
1534.71575,1896.23981
1536.27009,1903.02155
1536.27009,1898.95251
1536.27009,1900.30886
1536.27009,1901.6652
1537.82443,1904.3779
1539.37877,1904.3779
1540.93311,1904.3779
1542.48745,1912.51599
1542.48745,1904.3779
1542.48745,1905.73425
1542.48745,1907.09059
1542.48745,1908.44694
1542.48745,1909.80329
1542.48745,1911.15964
1544.04179,1915.22868
1544.04179,1912.51599
1544.04179,1913.87233
1545.59612,1916.58503
1547.15046,1917.94138
1547.15046,1916.58503
1548.7048,1917.94138
1550.25914,1917.94138
1550.25914,1919.29772
1550.25914,1920.65407
1551.81348,1920.65407
1551.81348,1922.01042
1551.81348,1923.36677
1551.81348,1924.72312
1551.81348,1926.07946
1551.81348,1927.43581
1551.81348,1928.79216
1553.36782,1930.14851
1554.92216,1931.50485
1554.92216,1932.8612
1554.92216,1934.21755
1554.92216,1935.5739
1554.92216,1936.93025
1554.92216,1938.28659
1608.95701,1901.10288
1677.98957,1866.042
1787.20526,1845.36506
1896.42095,1840.87008
2005.63664,1825.58713
2126.18603,1821.09214
2229.2197,1825.58713
2321.95,1850.75905
2482.68252,1830.98111
2643.41505,1815.69816
2741.29703,1830.98111
2908.21158,1821.09214
2988.57784,1821.09214
3057.6104,1830.98111
3212.1609,1821.09214
3385.25746,1830.98111
3499.62483,1830.98111
3655.20567,1821.09214
3815.9382,1835.47609
3902.48648,1821.09214
