Raman Shift,Intensity
123.981,12090.0
125.369,12117.0
126.758,12219.0
128.146,12158.0
129.534,12291.0
130.922,12338.0
132.309,12591.0
133.696,12582.0
135.083,12747.0
136.47,12724.0
137.857,13118.0
139.243,13019.0
140.63,13309.0
142.016,13354.0
143.401,13436.0
144.787,13414.0
146.172,13455.0
147.557,13519.0
148.942,13672.0
150.327,13810.0
151.711,14100.0
153.096,14497.0
154.48,14748.0
155.863,14865.0
157.247,14393.0
158.63,14069.0
160.013,13899.0
161.396,13749.0
162.779,13753.0
164.161,13955.0
165.544,13939.0
166.926,13902.0
168.308,13917.0
169.689,13796.0
171.07,13895.0
172.452,13756.0
173.833,13851.0
175.213,13846.0
176.594,13866.0
177.974,13995.0
179.354,13825.0
180.734,14057.0
182.114,14069.0
183.493,13980.0
184.872,14076.0
186.251,14226.0
187.63,14197.0
189.008,14329.0
190.387,14174.0
191.765,14235.0
193.143,14474.0
194.52,14389.0
195.898,14569.0
197.275,14522.0
198.652,14632.584
200.029,14637.0
201.405,14820.0
202.782,14754.0
204.158,14780.0
205.534,14659.0
206.909,14743.546
208.285,15010.0
209.66,14873.0
211.035,14944.0
212.41,14994.0
213.784,14908.0
215.159,14980.0
216.533,15057.0
217.907,15087.0
219.281,15263.0
220.654,15113.0
222.027,15277.0
223.4,15104.0
224.773,15354.0
226.146,15422.0
227.518,15601.0
228.891,15680.0
230.263,15995.0
231.634,16372.0
233.006,17201.0
234.377,18616.0
235.748,20352.0
237.119,22631.0
238.49,24698.0
239.86,26117.0
241.231,25938.0
242.601,23170.0
243.97,20810.0
245.34,18888.0
246.709,18058.0
248.079,17466.0
249.448,16994.0
250.816,17024.0
252.185,16833.0
253.553,17026.0
254.921,16916.0
256.289,17071.0
257.657,17425.0
259.024,17642.0
260.391,18713.0
261.758,20633.0
263.125,24384.0
264.492,29163.0
265.858,35393.0
267.224,41728.0
268.59,43914.0
269.956,38989.0
271.321,30769.0
272.687,25609.0
274.052,22712.0
275.416,21169.0
276.781,20893.0
278.146,21930.0
279.51,24323.0
280.874,28144.0
282.237,34554.0
283.601,41483.0
284.964,48291.0
286.327,50768.0
287.69,47394.0
289.053,40436.0
290.416,33211.0
291.778,28292.0
293.14,24771.0
294.502,22210.0
295.863,21020.0
297.225,20006.0
298.586,19658.0
299.947,19261.0
301.308,19062.0
302.668,18889.836
304.029,18690.0
305.389,18777.0
306.749,18766.0
308.108,18846.0
309.468,18885.688
310.827,18986.0
312.186,18993.0
313.545,19079.0
314.903,19164.0
316.262,19243.852
317.62,19476.0
318.978,19502.0
320.336,19808.0
321.693,20057.0
323.051,20385.0
324.408,21201.0
325.765,23012.0
327.121,25156.0
328.478,29056.0
329.834,32954.0
331.19,37079.0
332.546,39051.0
333.902,37331.0
335.257,32637.0
336.612,28629.0
337.967,25116.0
339.322,23294.0
340.677,21885.0
342.031,20896.0
343.385,20600.0
344.739,20036.0
346.093,19809.0
347.446,19704.0
348.799,19524.0
350.153,19561.0
351.505,19617.0
352.858,19504.0
354.21,19484.0
355.563,19512.0
356.915,19609.0
358.267,19504.0
359.618,19568.0
360.969,19482.0
362.321,19457.0
363.672,19498.0
365.022,19541.0
366.373,19602.0
367.723,19651.977
369.073,19700.41
370.423,19746.0
371.773,19814.0
373.122,19814.0
374.471,19901.127
375.821,19801.0
377.169,19982.0
378.518,19940.0
379.866,20080.0
381.215,20129.898
382.563,19951.0
383.91,20264.0
385.258,20157.0
386.605,20264.0
387.952,20525.0
389.299,20992.0
390.646,20907.0
391.992,22356.0
393.339,22425.0
394.685,22413.0
396.031,23363.0
397.376,24780.0
398.722,26584.0
400.067,28240.0
401.412,30139.0
402.757,31488.0
404.101,31470.0
405.446,30709.0
406.79,28458.0
408.134,25966.0
409.478,24337.0
410.821,23173.0
412.165,22528.0
413.508,21902.0
414.851,21338.0
416.193,21115.943
417.536,21179.0
418.878,20930.0
420.22,20936.0
421.562,21064.0
422.904,20852.0
424.245,20700.0
425.586,21009.0
426.927,21075.0
428.268,21005.0
429.609,21098.0
430.949,20999.0
432.289,20993.0
433.629,21123.0
434.969,21404.0
436.309,21151.0
437.648,21326.0
438.987,21266.0
440.326,21742.0
441.665,21794.0
443.003,21648.0
444.342,21882.0
445.68,22521.0
447.018,22883.0
448.355,23723.0
449.693,24691.0
451.03,26273.0
452.367,28761.0
453.704,31809.0
455.041,35468.0
456.377,37898.0
457.713,39865.0
459.049,38958.0
460.385,36574.0
461.721,33484.0
463.056,30544.0
464.391,28652.0
465.726,26692.0
467.061,25353.0
468.395,24768.0
469.73,24101.0
471.064,23469.0
472.398,23546.0
473.731,23016.0
475.065,23316.0
476.398,22833.0
477.731,22725.0
479.064,22705.0
480.397,22843.0
481.729,22785.0
483.062,22685.0
484.394,22872.0
485.725,22657.0
487.057,22698.0
488.389,22771.0
489.72,22845.0
491.051,22960.0
492.382,22688.0
493.712,22835.0
495.043,22656.0
496.373,22680.0
497.703,22478.0
499.032,22767.0
500.362,22658.0
501.691,22632.0
503.02,22930.0
504.349,22864.0
505.678,22744.0
507.007,22891.0
508.335,23052.0
509.663,22952.0
510.991,23084.0
512.319,23057.0
513.646,23194.0
514.973,23217.0
516.3,23358.0
517.627,23136.0
518.954,23438.0
520.28,23500.0
521.607,23241.0
522.933,23393.0
524.259,23443.0
525.584,23504.0
526.91,23338.0
528.235,23308.0
529.56,23564.0
530.885,23510.0
532.209,23750.0
533.534,23488.0
534.858,23384.0
536.182,23680.0
537.506,23858.0
538.829,23738.0
540.152,23723.0
541.476,23951.0
542.799,23789.0
544.121,24076.0
545.444,23635.0
546.766,23998.0
548.088,24260.0
549.41,24212.0
550.732,24494.0
552.053,24595.0
553.375,24880.0
554.696,24910.0
556.017,24822.0
557.337,25389.0
558.658,25318.0
559.978,25470.0
561.298,25130.0
562.618,25190.0
563.938,25510.0
565.257,24833.0
566.576,24632.0
567.895,24809.0
569.214,24453.0
570.533,24785.0
571.851,24646.0
573.17,24452.0
574.488,24520.0
575.805,24706.0
577.123,24611.0
578.44,24777.0
579.758,24614.0
581.075,24583.0
582.391,24949.0
583.708,24667.0
585.024,24915.0
586.341,24814.0
587.657,24724.0
588.972,24987.0
590.288,25042.0
591.603,25222.0
592.918,25196.0
594.233,25264.414
595.548,25147.0
596.863,25300.0
598.177,25254.0
599.491,25258.0
600.805,25264.0
602.119,25318.029
603.432,25515.0
604.746,25444.0
606.059,25620.0
607.372,25628.0
608.685,25531.0
609.997,25640.0
611.309,25824.0
612.621,25706.0
613.933,25806.0
615.245,25706.0
616.557,26472.0
617.868,26038.0
619.179,26243.0
620.49,26115.0
621.801,26104.0
623.111,25814.0
624.421,26432.0
625.731,26068.0
627.041,26560.0
628.351,26127.0
629.66,26533.0
630.97,26390.0
632.279,26451.0
633.588,26975.0
634.896,26804.0
636.205,26980.0
637.513,26976.0
638.821,27543.0
640.129,27355.0
641.437,27809.0
642.744,28180.0
644.051,27949.0
645.358,27824.0
646.665,27676.0
647.972,27624.0
649.278,27593.0
650.584,27200.0
651.89,27065.0
653.196,26808.0
654.502,27178.0
655.807,27099.0
657.113,27058.0
658.418,26922.0
659.722,27091.0
661.027,27385.0
662.331,27318.0
663.636,27082.0
664.94,26987.0
666.244,27480.0
667.547,27001.0
668.851,27355.0
670.154,27368.0
671.457,27466.0
672.76,27350.0
674.062,27325.0
675.365,27697.0
676.667,27456.0
677.969,27474.0
679.271,27744.0
680.572,27566.0
681.874,27630.0
683.175,27512.0
684.476,27855.0
685.777,27913.0
687.077,27870.0
688.378,28016.0
689.678,27952.0
690.978,28074.0
692.278,28121.0
693.577,27998.0
694.877,27716.0
696.176,28508.0
697.475,28012.0
698.774,28531.0
700.072,28308.0
701.371,28500.0
702.669,28421.0
703.967,28577.0
705.265,28680.232
706.562,28489.0
707.86,28810.0
709.157,28680.0
710.454,28475.0
711.751,28881.0
713.047,28600.0
714.344,29096.0
715.64,28785.0
716.936,28972.0
718.232,28491.0
719.527,28810.0
720.823,29217.0
722.118,29052.0
723.413,29005.0
724.708,29070.0
726.002,29056.0
727.297,29209.0
728.591,29410.0
729.885,29033.0
731.179,29399.0
732.472,29544.0
733.766,29320.0
735.059,29333.0
736.352,29368.0
737.645,29549.0
738.937,29587.0
740.23,29722.0
741.522,29782.0
742.814,29446.0
744.106,29712.0
745.397,29716.0
746.689,29764.0
747.98,29912.0
749.271,29658.0
750.562,30076.0
751.853,29914.0
753.143,30205.0
754.433,30019.0
755.723,29990.0
757.013,30275.0
758.303,30025.0
759.592,30387.0
760.881,29993.0
762.17,30272.0
763.459,30451.0
764.748,30429.0
766.036,30528.0
767.325,30338.0
768.613,30886.0
769.901,30327.0
771.188,30756.0
772.476,30852.0
773.763,30470.0
775.05,31025.0
776.337,30681.0
777.624,31121.0
778.91,30958.0
780.196,30961.0
781.482,30983.0
782.768,30999.344
784.054,31193.0
785.339,31203.0
786.625,31252.0
787.91,31443.0
789.195,31310.0
790.479,31630.0
791.764,31413.0
793.048,31384.0
794.332,31689.0
795.616,31521.0
796.9,31825.0
798.183,31726.0
799.467,31894.0
800.75,31711.0
802.033,32053.0
803.316,32014.0
804.598,31939.0
805.88,32326.0
807.163,31793.0
808.445,32460.0
809.726,32162.0
811.008,32240.0
812.289,32307.0
813.57,32596.0
814.851,32497.0
816.132,32664.0
817.413,32707.0
818.693,32772.0
819.973,32725.0
821.253,33141.0
822.533,33066.0
823.813,33244.0
825.092,33667.0
826.371,33587.0
827.65,33832.0
828.929,34034.0
830.208,34133.0
831.486,34724.0
832.764,34944.0
834.042,34824.0
835.32,35629.0
836.598,36272.0
837.875,36865.0
839.152,38193.0
840.429,39254.0
841.706,40755.0
842.983,42889.0
844.259,44037.0
845.536,46148.0
846.812,47944.0
848.088,49661.0
849.363,51347.0
850.639,49944.0
851.914,50757.0
853.189,51000.0
854.464,50817.0
855.739,50914.0
857.013,50312.0
858.288,49372.0
859.562,46914.0
860.836,45346.0
862.11,44048.0
863.383,42488.0
864.656,41000.0
865.93,40859.0
867.203,39428.0
868.475,38990.0
869.748,38710.0
871.02,38293.0
872.292,37753.0
873.564,37640.0
874.836,37460.0
876.108,37454.0
877.379,37305.012
878.65,37174.258
879.922,37059.0
881.192,36904.0
882.463,36691.0
883.733,36577.0
885.004,36724.0
886.274,36611.0
887.544,36798.0
888.813,36637.0
890.083,36976.0
891.352,36569.0
892.621,36771.0
893.89,37296.0
895.159,37168.0
896.427,37268.0
897.695,37397.0
898.964,37568.0
900.232,38145.0
901.499,38075.0
902.767,38552.0
904.034,38665.0
905.301,39225.0
906.568,39677.0
907.835,40224.0
909.102,41433.0
910.368,41820.0
911.634,42736.0
912.9,43795.0
914.166,45310.0
915.432,46746.0
916.697,49017.0
917.962,50914.0
919.227,52532.0
920.492,55324.0
921.757,57283.0
923.021,58845.0
924.285,59340.0
925.55,59737.0
926.813,58668.0
928.077,57372.0
929.341,55488.0
930.604,53684.0
931.867,51784.0
933.13,50512.0
934.393,48581.0
935.655,47364.0
936.918,46570.0
938.18,44626.0
939.442,44203.0
940.703,42689.0
941.965,41906.0
943.226,41561.0
944.488,40786.0
945.749,40128.0
947.009,39872.0
948.27,39410.777
949.53,39508.0
950.791,39028.0
952.051,38892.0
953.311,38955.0
954.57,38582.0
955.83,38605.02
957.089,38606.0
958.348,38404.0
959.607,38338.0
960.866,38138.0
962.124,38184.0
963.383,38113.0
964.641,37952.0
965.899,38044.0
967.156,38042.0
968.414,38195.0
969.671,37953.0
970.928,37974.0
972.185,38118.0
973.442,37840.0
974.699,38016.0
975.955,37916.0
977.211,37952.0
978.468,38168.0
979.723,37766.0
980.979,38362.0
982.234,38205.0
983.49,38052.0
984.745,38605.0
986.0,37827.0
987.254,38498.0
988.509,38572.0
989.763,38050.0
991.017,38464.0
992.271,38378.0
993.525,38372.0
994.779,38338.0
996.032,38560.0
997.285,38736.0
998.538,38625.0
999.791,38834.0
1001.044,38450.0
1002.296,39166.0
1003.548,38720.0
1004.8,39379.0
1006.052,39190.0
1007.304,39456.0
1008.555,39688.0
1009.807,39149.0
1011.058,39524.0
1012.309,39561.0
1013.559,39322.0
1014.81,39277.0
1016.06,39225.0
1017.31,38952.0
1018.56,39154.0
1019.81,39328.0
1021.06,38945.0
1022.309,39106.0
1023.558,39396.0
1024.807,39126.0
1026.056,39400.0
1027.305,39160.0
1028.553,39434.0
1029.801,39188.0
1031.049,39667.0
1032.297,39517.0
1033.545,39461.0
1034.793,39300.0
1036.04,39347.219
1037.287,39565.0
1038.534,39553.0
1039.781,39527.0
1041.027,39838.0
1042.274,39954.0
1043.52,39712.0
1044.766,39849.0
1046.012,39968.0
1047.257,39914.0
1048.503,39748.0
1049.748,39979.0
1050.993,40312.0
1052.238,39774.0
1053.483,40198.0
1054.727,40209.0
1055.971,40020.0
1057.216,40076.0
1058.459,40051.852
1059.703,40163.0
1060.947,40243.0
1062.19,40265.793
1063.433,40394.0
1064.676,40307.0
1065.919,40442.0
1067.162,40365.0
1068.404,40260.0
1069.646,40333.59
1070.888,40240.0
1072.13,40302.0
1073.372,40505.0
1074.613,40388.0
1075.855,40628.0
1077.096,40850.0
1078.337,40605.0
1079.578,40717.0
1080.818,41012.0
1082.059,40944.0
1083.299,41028.0
1084.539,40845.0
1085.779,41152.0
1087.018,41096.0
1088.258,41104.0
1089.497,41052.0
1090.736,41008.0
1091.975,41025.0
1093.213,41131.0
1094.452,41100.0
1095.69,40763.0
1096.928,41427.0
1098.166,40898.0
1099.404,41276.0
1100.642,41443.0
1101.879,41322.0
1103.116,41096.0
1104.353,41368.0
1105.59,41339.0
1106.827,41539.0
1108.063,41227.0
1109.299,41640.0
1110.536,41368.0
1111.771,41704.0
1113.007,41475.0
1114.243,41273.0
1115.478,41542.0
1116.713,41494.0
1117.948,41553.0
1119.183,41818.0
1120.418,41959.0
1121.652,41706.0
1122.886,41933.0
1124.12,41966.0
1125.354,42008.0
1126.588,42048.0
1127.821,41792.0
1129.055,41929.0
1130.288,41723.0
1131.521,42164.0
1132.753,42317.0
1133.986,42112.0
1135.218,42030.0
1136.45,42133.0
1137.682,42635.0
1138.914,41848.0
1140.146,42579.0
1141.377,42296.0
1142.609,42216.0
1143.84,42458.0
1145.071,42226.0
1146.301,42643.0
1147.532,42665.0
1148.762,42585.0
1149.992,42699.0
1151.222,42690.0
1152.452,42557.0
1153.682,43115.0
1154.911,43108.0
1156.14,42658.0
1157.369,43307.0
1158.598,43098.0
1159.827,42946.0
1161.055,43284.0
1162.284,43419.0
1163.512,43205.0
1164.74,43497.0
1165.967,43512.0
1167.195,43778.0
1168.422,43879.121
1169.65,44042.0
1170.877,43948.0
1172.103,43825.0
1173.33,43505.0
1174.557,43774.0
1175.783,43576.0
1177.009,44110.0
1178.235,43970.0
1179.461,43376.0
1180.686,44096.0
1181.912,43870.0
1183.137,43872.0
1184.362,44304.0
1185.587,44307.0
1186.811,44413.996
1188.036,43888.0
1189.26,44443.0
1190.484,44320.0
1191.708,44166.0
1192.932,44568.0
1194.155,44704.0
1195.378,44337.0
1196.602,44340.0
1197.825,44496.0
1199.047,44816.0
1200.27,44558.0
1201.492,44821.0
1202.715,44749.0
1203.937,45177.0
1205.159,45093.074
1206.38,45128.0
1207.602,44937.0
1208.823,45120.0
1210.044,45099.738
1211.265,45096.0
1212.486,45254.0
1213.707,45277.0
1214.927,45405.0
1216.147,45464.0
1217.367,45512.0
1218.587,45564.0
1219.807,45665.0
1221.027,45576.0
1222.246,45638.0
1223.465,45570.0
1224.684,45650.0
1225.903,45784.0
1227.121,46003.0
1228.34,45865.0
1229.558,45736.0
1230.776,45949.0
1231.994,46032.0
1233.212,46032.0
1234.429,45928.0
1235.646,46474.0
1236.864,46140.0
1238.081,46157.0
1239.297,46673.0
1240.514,46121.0
1241.73,46442.0
1242.947,46744.0
1244.163,46480.0
1245.378,46632.0
1246.594,46477.0
1247.81,46893.0
1249.025,46896.0
1250.24,46422.0
1251.455,46938.0
1252.67,46520.0
1253.885,46817.0
1255.099,46973.0
1256.313,46716.0
1257.527,46958.0
1258.741,46626.0
1259.955,47216.0
1261.168,47452.0
1262.382,46948.0
1263.595,47275.0
1264.808,47398.0
1266.021,47420.0
1267.233,47603.0
1268.446,47808.0
1269.658,47636.0
1270.87,47629.0
1272.082,47675.055
1273.294,47460.0
1274.505,47680.0
1275.716,47708.0
1276.928,47684.0
1278.139,47803.0
1279.349,47756.0
1280.56,48105.0
1281.77,47928.0
1282.981,48176.0
1284.191,48137.0
1285.401,48123.0
1286.61,48378.0
1287.82,48450.0
1289.029,48224.0
1290.239,48568.0
1291.448,48000.0
1292.656,48808.0
1293.865,48450.0
1295.073,48738.0
1296.282,48662.0
1297.49,48824.0
1298.698,48953.629
1299.906,48710.0
1301.113,49186.0
1302.32,49016.0
1303.528,49081.0
1304.735,48957.0
1305.942,49088.0
1307.148,48744.0
1308.355,49046.0
1309.561,49497.0
1310.767,49130.0
1311.973,49692.0
1313.179,49312.0
1314.384,49451.0
1315.59,49062.0
1316.795,49840.0
1318.0,49661.0
1319.205,49702.0
1320.41,49528.0
1321.614,49826.0
1322.819,49899.0
1324.023,49490.0
1325.227,50049.0
1326.431,50001.0
1327.634,50208.0
1328.838,50181.0
1330.041,50342.387
1331.244,50168.0
1332.447,50460.0
1333.65,50613.0
1334.852,50264.0
