Raman Shift,Intensity
209.0,0.074
210.0,0.066
211.0,4.169
212.0,8.471
213.0,8.015
214.0,4.849
215.0,2.367
216.0,1.79
217.0,1.239
218.0,2.193
219.0,3.368
220.0,3.924
221.0,3.87
222.0,3.885
223.0,4.279
224.0,4.685
225.0,5.42
226.0,6.267
227.0,6.473
228.0,5.65
229.0,4.833
230.0,4.022
231.0,3.218
232.0,3.235
233.0,3.708
234.0,4.071
235.0,4.132
236.0,4.198
237.0,3.501
238.0,2.729
239.0,2.649
240.0,3.153
241.0,3.66
242.0,4.169
243.0,4.681
244.0,5.196
245.0,5.713
246.0,6.423
247.0,7.367
248.0,8.237
249.0,8.338
250.0,8.44
251.0,8.853
252.0,9.382
253.0,9.754
254.0,9.862
255.0,9.981
256.0,10.523
257.0,11.066
258.0,11.612
259.0,12.162
260.0,12.584
261.0,12.71
262.0,12.836
263.0,13.365
264.0,13.917
265.0,14.977
266.0,16.384
267.0,17.481
268.0,17.613
269.0,17.745
270.0,19.017
271.0,20.425
272.0,21.834
273.0,23.243
274.0,24.652
275.0,26.061
276.0,27.47
277.0,30.329
278.0,33.445
279.0,36.562
280.0,39.678
281.0,42.93
282.0,46.903
283.0,50.875
284.0,54.849
285.0,58.823
286.0,63.204
287.0,68.036
288.0,73.326
289.0,81.577
290.0,89.828
291.0,105.215
292.0,122.455
293.0,143.99
294.0,170.651
295.0,198.993
296.0,239.791
297.0,280.59
298.0,321.737
299.0,362.98
300.0,389.07
301.0,396.49
302.0,399.047
303.0,363.724
304.0,328.366
305.0,283.222
306.0,235.329
307.0,193.603
308.0,159.46
309.0,127.146
310.0,107.992
311.0,88.854
312.0,76.563
313.0,65.96
314.0,57.332
315.0,51.012
316.0,44.867
317.0,39.825
318.0,34.784
319.0,31.141
320.0,27.837
321.0,25.191
322.0,23.209
323.0,21.367
324.0,20.246
325.0,19.151
326.0,18.073
327.0,16.929
328.0,15.982
329.0,15.24
330.0,14.497
331.0,13.756
332.0,13.017
333.0,13.817
334.0,14.808
335.0,16.044
336.0,17.464
337.0,19.106
338.0,21.39
339.0,23.675
340.0,22.296
341.0,20.692
342.0,18.543
343.0,16.074
344.0,13.748
345.0,11.715
346.0,9.687
347.0,8.517
348.0,7.347
349.0,6.478
350.0,5.74
351.0,5.169
352.0,4.863
353.0,4.557
354.0,4.25
355.0,3.943
356.0,4.31
357.0,4.87
358.0,4.817
359.0,4.075
360.0,3.479
361.0,3.606
362.0,3.732
363.0,3.858
364.0,3.985
365.0,3.621
366.0,2.877
367.0,2.478
368.0,3.038
369.0,3.599
370.0,4.159
371.0,4.719
372.0,4.407
373.0,3.66
374.0,3.076
375.0,2.764
376.0,2.419
377.0,1.671
378.0,0.923
379.0,1.197
380.0,1.756
381.0,2.101
382.0,2.224
383.0,2.173
384.0,1.422
385.0,0.67
386.0,0.711
387.0,0.832
388.0,0.953
389.0,1.074
390.0,1.05
391.0,0.733
392.0,0.434
393.0,0.554
394.0,0.673
395.0,0.461
396.0,0.142
397.0,0.177
398.0,0.497
399.0,0.734
400.0,0.617
401.0,0.501
402.0,0.385
403.0,0.269
404.0,0.154
405.0,0.04
406.0,0.075
407.0,0.189
408.0,0.272
409.0,0.054
410.0,0.38
411.0,0.358
412.0,0.247
413.0,0.137
414.0,0.028
415.0,0.025
416.0,0.356
417.0,0.689
418.0,0.171
419.0,0.374
420.0,0.307
421.0,0.029
422.0,0.179
423.0,0.076
424.0,0.027
425.0,0.13
426.0,0.233
427.0,0.054
428.0,0.393
429.0,0.462
430.0,0.362
431.0,0.416
432.0,0.759
433.0,0.992
434.0,0.013
435.0,0.966
436.0,1.222
437.0,1.317
438.0,1.166
439.0,0.823
440.0,0.624
441.0,0.718
442.0,0.827
443.0,1.363
444.0,1.899
445.0,2.092
446.0,2.185
447.0,2.278
448.0,2.37
449.0,2.233
450.0,1.454
451.0,0.694
452.0,0.79
453.0,0.881
454.0,0.971
455.0,1.062
456.0,1.152
457.0,1.244
458.0,1.342
459.0,1.436
460.0,1.528
461.0,1.618
462.0,1.707
463.0,1.795
464.0,1.883
465.0,1.971
466.0,2.058
467.0,2.145
468.0,2.232
469.0,2.318
470.0,1.964
471.0,1.618
472.0,1.938
473.0,2.473
474.0,2.551
475.0,2.19
476.0,1.945
477.0,2.029
478.0,2.122
479.0,2.652
480.0,3.181
481.0,3.011
482.0,2.647
483.0,2.766
484.0,3.294
485.0,3.687
486.0,3.767
487.0,3.848
488.0,3.928
489.0,4.007
490.0,3.715
491.0,3.347
492.0,2.978
493.0,2.608
494.0,2.725
495.0,3.699
496.0,4.498
497.0,4.127
498.0,3.756
499.0,3.787
500.0,3.863
501.0,3.639
502.0,3.266
503.0,3.09
504.0,3.162
505.0,3.121
506.0,2.704
507.0,2.268
508.0,2.282
509.0,2.31
510.0,2.687
511.0,3.178
512.0,2.954
513.0,2.111
514.0,1.553
515.0,1.618
516.0,1.644
517.0,1.245
518.0,0.822
519.0,1.184
520.0,1.669
521.0,1.574
522.0,1.172
523.0,0.963
524.0,0.986
525.0,0.986
526.0,1.02
527.0,1.083
528.0,1.142
529.0,1.185
530.0,1.216
531.0,1.254
532.0,1.043
533.0,0.64
534.0,0.565
535.0,1.068
536.0,1.504
537.0,1.51
538.0,1.523
539.0,1.108
540.0,0.64
541.0,0.813
542.0,1.301
543.0,1.348
544.0,0.96
545.0,0.572
546.0,0.186
547.0,0.101
548.0,0.417
549.0,0.934
550.0,1.041
551.0,1.107
552.0,0.867
553.0,0.508
554.0,0.352
555.0,0.416
556.0,0.345
557.0,0.034
558.0,0.324
559.0,0.199
560.0,0.72
561.0,0.832
562.0,0.903
563.0,0.672
564.0,0.316
565.0,0.186
566.0,0.275
567.0,0.342
568.0,0.404
569.0,0.521
570.0,1.054
571.0,1.573
572.0,1.249
573.0,0.855
574.0,0.795
575.0,0.856
576.0,0.671
577.0,0.275
578.0,0.04
579.0,0.101
580.0,0.236
581.0,0.754
582.0,1.271
583.0,1.343
584.0,1.403
585.0,1.102
586.0,0.704
587.0,0.584
588.0,0.644
589.0,0.704
590.0,0.765
591.0,0.825
592.0,0.885
593.0,0.944
594.0,1.004
595.0,1.064
596.0,1.124
597.0,1.184
598.0,1.887
599.0,2.865
600.0,2.642
601.0,1.324
602.0,0.641
603.0,1.161
604.0,1.602
605.0,1.661
606.0,1.721
607.0,1.78
608.0,1.84
609.0,1.52
610.0,1.119
611.0,1.019
612.0,1.078
613.0,1.138
614.0,1.198
615.0,1.258
616.0,1.319
617.0,1.314
618.0,0.913
619.0,0.513
620.0,0.563
621.0,0.625
622.0,0.687
623.0,0.748
624.0,0.512
625.0,0.112
626.0,0.154
627.0,0.679
628.0,0.909
629.0,0.509
630.0,0.183
631.0,0.245
632.0,0.308
633.0,0.372
634.0,0.437
635.0,0.889
636.0,1.417
637.0,1.0
638.0,0.138
639.0,0.003
640.0,0.533
641.0,0.549
642.0,0.313
643.0,0.779
644.0,0.216
645.0,1.13
646.0,0.737
647.0,0.346
648.0,0.375
649.0,0.447
650.0,0.519
651.0,0.591
652.0,0.38
653.0,0.013
654.0,0.193
655.0,0.13
656.0,0.051
657.0,0.027
658.0,0.028
659.0,0.363
660.0,0.737
661.0,0.196
662.0,0.345
663.0,0.07
664.0,0.323
665.0,0.39
666.0,0.347
667.0,0.271
668.0,0.195
669.0,0.331
670.0,0.723
671.0,0.969
672.0,0.896
673.0,0.751
674.0,0.215
675.0,0.293
676.0,0.1
677.0,0.492
678.0,0.045
679.0,0.496
680.0,0.322
681.0,0.072
682.0,0.125
683.0,0.672
684.0,0.988
685.0,1.062
686.0,1.124
687.0,1.189
688.0,1.15
689.0,0.759
690.0,0.468
691.0,1.018
692.0,1.568
693.0,1.658
694.0,1.739
695.0,1.817
696.0,1.892
697.0,2.309
698.0,2.855
699.0,3.121
700.0,3.2
701.0,3.504
702.0,4.056
703.0,4.607
704.0,5.159
705.0,5.6
706.0,5.677
707.0,5.859
708.0,6.882
709.0,7.907
710.0,8.932
711.0,9.957
712.0,11.396
713.0,12.894
714.0,14.393
715.0,15.893
716.0,18.306
717.0,21.224
718.0,24.898
719.0,29.243
720.0,34.378
721.0,40.619
722.0,46.859
723.0,53.1
724.0,58.428
725.0,59.937
726.0,60.895
727.0,55.764
728.0,50.632
729.0,43.647
730.0,36.616
731.0,30.406
732.0,24.322
733.0,20.042
734.0,16.331
735.0,13.243
736.0,10.484
737.0,8.25
738.0,6.442
739.0,4.843
740.0,3.507
741.0,2.665
742.0,2.757
743.0,2.615
744.0,1.755
745.0,1.034
746.0,1.127
747.0,1.195
748.0,0.812
749.0,0.43
750.0,0.487
751.0,0.548
752.0,0.239
753.0,0.141
754.0,0.16
755.0,0.064
756.0,0.033
757.0,0.129
758.0,0.226
759.0,0.32
760.0,0.183
761.0,0.201
762.0,0.403
763.0,0.313
764.0,0.222
765.0,0.126
766.0,0.027
767.0,0.061
768.0,0.133
769.0,0.225
770.0,0.319
771.0,0.412
772.0,0.491
773.0,0.109
774.0,0.291
775.0,0.148
776.0,0.713
777.0,0.514
778.0,0.099
779.0,0.355
780.0,0.898
781.0,0.845
782.0,0.455
783.0,0.338
784.0,0.437
785.0,0.75
786.0,1.328
787.0,1.527
788.0,1.144
789.0,0.759
790.0,0.375
791.0,0.23
792.0,0.815
793.0,1.317
794.0,1.416
795.0,1.468
796.0,1.084
797.0,0.715
798.0,0.815
799.0,0.915
800.0,1.015
801.0,1.116
802.0,1.647
803.0,2.232
804.0,2.42
805.0,2.522
806.0,2.259
807.0,1.878
808.0,1.83
809.0,1.934
810.0,2.038
811.0,2.14
812.0,2.513
813.0,3.099
814.0,3.202
815.0,2.82
816.0,2.65
817.0,2.755
818.0,2.86
819.0,2.965
820.0,3.072
821.0,3.18
822.0,3.288
823.0,3.398
824.0,3.408
825.0,3.034
826.0,2.733
827.0,2.846
828.0,3.005
829.0,3.605
830.0,4.167
831.0,3.797
832.0,3.43
833.0,3.546
834.0,3.669
835.0,4.253
836.0,4.868
837.0,4.616
838.0,4.259
839.0,4.312
840.0,4.442
841.0,4.575
842.0,4.71
843.0,4.481
844.0,4.131
845.0,4.471
846.0,5.107
847.0,5.419
848.0,5.559
849.0,5.701
850.0,5.843
851.0,5.987
852.0,6.13
853.0,6.274
854.0,6.418
855.0,6.561
856.0,6.703
857.0,6.621
858.0,6.27
859.0,6.326
860.0,6.949
861.0,7.381
862.0,7.507
863.0,7.63
864.0,7.752
865.0,8.025
866.0,8.637
867.0,8.974
868.0,8.598
869.0,8.46
870.0,9.059
871.0,9.445
872.0,9.058
873.0,8.669
874.0,8.278
875.0,8.117
876.0,9.199
877.0,10.216
878.0,10.803
879.0,11.441
880.0,12.519
881.0,13.512
882.0,13.588
883.0,13.609
884.0,12.698
885.0,11.803
886.0,11.385
887.0,10.974
888.0,11.052
889.0,11.126
890.0,10.702
891.0,10.269
892.0,10.796
893.0,11.353
894.0,11.441
895.0,11.507
896.0,11.568
897.0,11.623
898.0,11.219
899.0,10.777
900.0,11.232
901.0,11.779
902.0,11.887
903.0,11.944
904.0,12.005
905.0,12.071
906.0,12.145
907.0,12.23
908.0,12.311
909.0,12.388
910.0,12.464
911.0,12.538
912.0,12.627
913.0,12.728
914.0,12.806
915.0,12.867
916.0,12.943
917.0,13.038
918.0,13.563
919.0,14.197
920.0,14.426
921.0,14.568
922.0,14.712
923.0,14.858
924.0,15.007
925.0,15.161
926.0,15.321
927.0,15.473
928.0,15.6
929.0,15.739
930.0,15.924
931.0,16.134
932.0,16.355
933.0,16.611
934.0,17.324
935.0,18.15
936.0,18.575
937.0,18.929
938.0,19.299
939.0,19.649
940.0,19.976
941.0,20.316
942.0,20.672
943.0,21.01
944.0,21.334
945.0,21.674
946.0,22.465
947.0,23.34
948.0,23.784
949.0,24.149
950.0,24.498
951.0,24.828
952.0,24.67
953.0,24.414
954.0,25.499
955.0,26.656
956.0,26.836
957.0,26.938
958.0,26.96
959.0,26.871
960.0,26.723
961.0,26.538
962.0,26.282
963.0,25.962
964.0,25.606
965.0,25.258
966.0,25.39
967.0,25.487
968.0,25.101
969.0,24.751
970.0,24.859
971.0,24.908
972.0,24.496
973.0,24.079
974.0,23.656
975.0,23.228
976.0,22.79
977.0,22.344
978.0,21.894
979.0,21.547
980.0,21.59
981.0,21.623
982.0,21.647
983.0,21.521
984.0,21.026
985.0,20.529
986.0,20.026
987.0,19.695
988.0,19.69
989.0,19.678
990.0,19.659
991.0,19.21
992.0,18.159
993.0,17.33
994.0,16.771
995.0,16.452
996.0,16.387
997.0,16.313
998.0,16.231
999.0,15.848
1000.0,15.24
1001.0,14.628
1002.0,14.009
1003.0,13.717
1004.0,13.595
1005.0,13.108
1006.0,12.457
1007.0,12.178
1008.0,12.024
1009.0,11.461
1010.0,10.784
1011.0,10.099
1012.0,9.406
1013.0,8.706
1014.0,7.998
1015.0,7.762
1016.0,7.552
1017.0,7.333
1018.0,7.089
1019.0,6.342
1020.0,5.679
1021.0,5.944
1022.0,6.054
1023.0,5.275
1024.0,4.489
1025.0,3.694
1026.0,3.023
1027.0,2.73
1028.0,2.429
1029.0,2.12
1030.0,1.801
1031.0,1.475
1032.0,1.139
1033.0,0.795
1034.0,0.693
1035.0,0.846
1036.0,0.424
1037.0,0.472
1038.0,1.061
1039.0,1.46
1040.0,2.217
1041.0,3.152
1042.0,3.713
1043.0,4.149
1044.0,4.595
1045.0,5.051
1046.0,5.068
1047.0,5.029
1048.0,5.488
1049.0,5.984
1050.0,5.978
1051.0,6.024
1052.0,6.558
1053.0,7.103
1054.0,7.657
1055.0,8.105
1056.0,8.16
1057.0,8.228
1058.0,8.305
1059.0,8.202
1060.0,7.785
1061.0,7.38
1062.0,6.98
1063.0,6.857
1064.0,6.992
1065.0,6.197
1066.0,4.789
1067.0,4.093
1068.0,3.739
1069.0,2.599
1070.0,1.215
1071.0,0.605
1072.0,2.503
1073.0,4.397
1074.0,6.281
1075.0,7.127
1076.0,8.062
1077.0,9.944
1078.0,11.824
1079.0,13.704
1080.0,15.991
1081.0,19.432
1082.0,24.151
1083.0,31.244
1084.0,39.025
1085.0,47.689
1086.0,56.352
1087.0,65.013
1088.0,75.947
1089.0,88.279
1090.0,113.663
1091.0,144.349
1092.0,201.197
1093.0,264.423
1094.0,357.375
1095.0,453.703
1096.0,524.033
1097.0,585.291
1098.0,556.647
1099.0,516.395
1100.0,425.687
1101.0,336.896
1102.0,252.927
1103.0,182.117
1104.0,132.33
1105.0,95.082
1106.0,71.096
1107.0,55.139
1108.0,44.829
1109.0,38.15
1110.0,33.098
1111.0,30.976
1112.0,29.615
1113.0,28.25
1114.0,26.891
1115.0,28.159
1116.0,29.429
1117.0,30.694
1118.0,31.951
1119.0,33.198
1120.0,34.26
1121.0,34.957
1122.0,36.106
1123.0,37.85
1124.0,39.303
1125.0,40.519
1126.0,41.382
1127.0,42.05
1128.0,43.53
1129.0,45.263
1130.0,45.588
1131.0,45.738
1132.0,47.445
1133.0,48.994
1134.0,49.594
1135.0,50.059
1136.0,50.119
1137.0,50.945
1138.0,53.121
1139.0,54.52
1140.0,55.085
1141.0,56.286
1142.0,57.916
1143.0,59.18
1144.0,60.285
1145.0,62.703
1146.0,65.333
1147.0,67.429
1148.0,69.473
1149.0,71.47
1150.0,73.563
1151.0,76.055
1152.0,78.153
1153.0,79.546
1154.0,81.472
1155.0,83.97
1156.0,86.125
1157.0,88.056
1158.0,90.007
1159.0,91.972
1160.0,94.389
1161.0,96.848
1162.0,98.758
1163.0,100.733
1164.0,103.184
1165.0,105.502
1166.0,107.45
1167.0,109.649
1168.0,112.212
1169.0,115.124
1170.0,118.328
1171.0,120.818
1172.0,122.99
1173.0,126.137
1174.0,129.575
1175.0,132.028
1176.0,134.608
1177.0,138.214
1178.0,141.883
1179.0,145.589
1180.0,148.869
1181.0,151.511
1182.0,154.453
1183.0,157.647
1184.0,159.727
1185.0,161.316
1186.0,162.911
1187.0,164.512
1188.0,166.121
1189.0,167.737
1190.0,169.358
1191.0,170.521
1192.0,170.534
1193.0,170.553
1194.0,170.578
1195.0,170.93
1196.0,171.511
1197.0,170.484
1198.0,168.912
1199.0,168.809
1200.0,168.819
1201.0,167.812
1202.0,167.044
1203.0,167.141
1204.0,166.443
1205.0,164.388
1206.0,163.206
1207.0,162.802
1208.0,160.536
1209.0,157.435
1210.0,155.732
1211.0,154.273
1212.0,151.748
1213.0,149.522
1214.0,148.653
1215.0,147.425
1216.0,145.487
1217.0,143.56
1218.0,141.643
1219.0,138.634
1220.0,135.097
1221.0,132.944
1222.0,131.063
1223.0,129.189
1224.0,127.421
1225.0,126.11
1226.0,125.188
1227.0,124.987
1228.0,123.368
1229.0,120.447
1230.0,119.053
1231.0,118.338
1232.0,118.583
1233.0,118.981
1234.0,119.388
1235.0,119.805
1236.0,120.23
1237.0,120.883
1238.0,121.876
1239.0,123.194
1240.0,124.756
1241.0,126.327
1242.0,127.908
1243.0,130.014
1244.0,132.293
1245.0,135.554
1246.0,138.661
1247.0,141.394
1248.0,143.34
1249.0,144.44
1250.0,146.651
1251.0,149.421
1252.0,152.203
1253.0,155.037
1254.0,158.943
1255.0,162.231
1256.0,163.396
1257.0,164.57
1258.0,165.755
1259.0,166.949
1260.0,168.152
1261.0,167.162
1262.0,165.62
1263.0,167.372
1264.0,168.358
1265.0,165.735
1266.0,163.12
1267.0,160.513
1268.0,158.23
1269.0,156.193
1270.0,152.886
1271.0,149.203
1272.0,147.67
1273.0,146.039
1274.0,143.488
1275.0,141.755
1276.0,141.442
1277.0,140.195
1278.0,138.229
1279.0,137.977
1280.0,138.25
1281.0,137.991
1282.0,137.721
1283.0,137.457
1284.0,137.62
1285.0,138.482
1286.0,139.023
1287.0,139.34
1288.0,141.874
1289.0,144.999
1290.0,147.016
1291.0,149.157
1292.0,151.749
1293.0,154.115
1294.0,156.165
1295.0,157.872
1296.0,159.381
1297.0,161.369
1298.0,163.296
1299.0,162.589
1300.0,162.042
1301.0,161.911
1302.0,162.067
1303.0,162.529
1304.0,159.474
1305.0,154.991
1306.0,149.592
1307.0,143.885
1308.0,136.294
1309.0,129.362
1310.0,123.567
1311.0,118.272
1312.0,113.36
1313.0,107.638
1314.0,101.699
1315.0,96.238
1316.0,91.034
1317.0,86.353
1318.0,81.643
1319.0,76.884
1320.0,72.45
1321.0,68.211
1322.0,63.484
1323.0,58.828
1324.0,55.482
1325.0,52.067
1326.0,48.591
1327.0,45.412
1328.0,42.436
1329.0,39.898
1330.0,37.253
1331.0,33.496
1332.0,30.584
1333.0,29.599
1334.0,27.982
1335.0,25.858
1336.0,23.738
1337.0,21.626
1338.0,19.528
1339.0,17.6
1340.0,16.11
1341.0,15.196
1342.0,14.86
1343.0,14.119
1344.0,13.248
1345.0,12.364
1346.0,11.594
1347.0,11.258
1348.0,11.184
1349.0,11.42
1350.0,10.046
1351.0,7.997
1352.0,7.565
1353.0,7.424
1354.0,8.178
1355.0,7.895
1356.0,6.317
1357.0,6.687
1358.0,7.908
1359.0,8.038
1360.0,8.307
1361.0,9.483
1362.0,9.884
1363.0,9.32
1364.0,10.345
1365.0,12.058
1366.0,12.676
1367.0,13.23
1368.0,13.774
1369.0,14.571
1370.0,15.665
1371.0,15.51
1372.0,14.855
1373.0,16.427
1374.0,18.04
1375.0,19.638
1376.0,20.373
1377.0,20.225
1378.0,21.368
1379.0,22.904
1380.0,23.297
1381.0,24.001
1382.0,25.523
1383.0,27.032
1384.0,28.53
1385.0,30.017
1386.0,31.362
1387.0,31.098
1388.0,30.822
1389.0,30.537
1390.0,29.89
1391.0,29.009
1392.0,28.123
1393.0,26.971
1394.0,24.979
1395.0,23.487
1396.0,22.672
1397.0,21.462
1398.0,20.085
1399.0,18.717
1400.0,17.217
1401.0,15.285
1402.0,13.06
1403.0,10.563
1404.0,9.456
1405.0,8.619
1406.0,6.701
1407.0,4.978
1408.0,3.621
1409.0,2.25
1410.0,0.864
1411.0,0.536
1412.0,1.949
1413.0,3.374
1414.0,4.247
1415.0,4.518
1416.0,4.79
1417.0,5.144
1418.0,7.165
1419.0,8.796
1420.0,9.648
1421.0,9.052
1422.0,7.569
1423.0,8.741
1424.0,9.72
1425.0,8.823
1426.0,7.642
1427.0,6.162
1428.0,6.049
1429.0,6.112
1430.0,3.453
1431.0,1.217
1432.0,0.281
1433.0,1.787
1434.0,3.3
1435.0,4.26
1436.0,5.943
1437.0,9.833
1438.0,13.737
1439.0,17.655
1440.0,21.09
1441.0,24.106
1442.0,25.134
1443.0,26.182
1444.0,27.252
1445.0,27.019
1446.0,26.4
1447.0,26.367
1448.0,26.764
1449.0,27.924
1450.0,28.307
1451.0,28.292
1452.0,31.134
1453.0,34.075
1454.0,37.019
1455.0,39.262
1456.0,40.886
1457.0,41.855
1458.0,42.175
1459.0,42.866
1460.0,41.735
1461.0,39.303
1462.0,37.267
1463.0,34.471
1464.0,33.017
1465.0,29.913
1466.0,26.114
1467.0,24.489
1468.0,23.615
1469.0,22.729
1470.0,23.887
1471.0,27.081
1472.0,27.618
1473.0,27.016
1474.0,27.727
1475.0,27.89
1476.0,27.279
1477.0,26.135
1478.0,24.728
1479.0,21.861
1480.0,19.408
1481.0,18.201
1482.0,17.196
1483.0,16.569
1484.0,15.51
1485.0,14.728
1486.0,14.38
1487.0,13.889
1488.0,13.29
1489.0,11.523
1490.0,9.752
1491.0,8.109
1492.0,6.581
1493.0,5.083
1494.0,4.743
1495.0,4.723
1496.0,5.271
1497.0,3.349
1498.0,0.05
1499.0,0.031
1500.0,0.0
