Wavenumber (cm⁻¹),Intensity
200.0,-14.39099999999997
201.00097751710655,-8.527273704789813
202.0019550342131,-2.6635474095796567
203.00293255131965,3.200178885630507
204.0039100684262,9.063905180840663
205.00488758553274,14.92763147605082
206.0058651026393,20.791357771260977
207.00684261974584,26.655084066471137
208.0078201368524,32.5188103616813
209.00879765395894,38.38253665689145
210.00977517106548,44.1611603128055
211.01075268817203,41.30738709677423
212.01173020527858,38.154120234604164
213.01270772238513,32.90341251221907
214.01368523949168,23.315754643206386
215.01466275659823,13.080560117302102
216.01564027370478,9.279191593352953
217.01661779081132,4.47109188660805
218.01759530791787,2.2470410557185114
219.01857282502445,0.04036754643207769
220.019550342131,1.3362111436950193
221.02052785923755,1.7221554252199291
222.0215053763441,0.5132365591397949
223.02248289345064,1.6320527859237595
224.0234604105572,2.381730205278608
225.02443792766374,4.593235581622693
226.0254154447703,6.9705083088954165
227.02639296187684,9.033434017595317
228.02737047898339,10.895263929618773
229.02834799608993,12.272292277614861
230.02932551319648,12.866436950146628
231.03030303030303,12.914242424242424
232.03128054740958,12.91230303030303
233.03225806451613,12.598161290322581
234.03323558162268,12.170304007820137
235.03421309872923,11.76398142717498
236.03519061583577,10.672513196480942
237.03616813294232,9.378577712609973
238.03714565004887,8.831952101661784
239.03812316715542,8.03847507331379
240.03910068426197,6.984758553274688
241.04007820136852,6.227700879765393
242.04105571847506,6.494181818181816
243.0420332355816,6.755370478983377
244.0430107526882,7.322666666666681
245.04398826979474,8.15100879765398
246.0449657869013,9.472287390029356
247.04594330400784,11.296541544477053
248.04692082111438,13.021319648093883
249.04789833822093,15.894008797653994
250.04887585532748,18.380994134897367
251.04985337243403,18.793695014662752
252.05083088954058,18.433073313782977
253.05180840664713,16.980213098729198
254.05278592375367,13.777876832844546
255.05376344086022,10.59003225806449
256.05474095796677,7.407744868035168
257.0557184750733,4.304451612903214
258.05669599217987,2.335305962854343
259.0576735092864,0.9793421309872887
260.05865102639297,0.27230791788856634
261.0596285434995,1.2171837732160338
262.06060606060606,2.081484848484848
263.0615835777126,1.4571378299120228
264.06256109481916,0.8109442815249267
265.0635386119257,1.0703519061583555
266.06451612903226,3.5069677419354797
267.0654936461388,5.747767350928637
268.06647116324535,7.428197458455517
269.0674486803519,9.022692082111437
270.06842619745845,8.872172043010755
271.069403714565,8.49199315738026
272.07038123167155,7.243797653958958
273.0713587487781,5.360381231671566
274.07233626588464,4.143601173020521
275.0733137829912,4.874768328445742
276.07429130009774,5.505560117302042
277.0752688172043,6.539440860215044
278.07624633431084,7.561665689149528
279.0772238514174,10.231413489736013
280.07820136852393,14.510701857282427
281.0791788856305,20.138372434017455
282.08015640273703,29.492153470185574
283.0811339198436,39.3251114369499
284.08211143695013,53.82155718475045
285.0830889540567,69.66784652981393
286.0840664711632,88.67791300097709
287.0850439882698,110.81747800586466
288.0860215053764,132.19122580645225
289.0869990224829,150.24750830889604
290.0879765395895,166.63683577712604
291.088954056696,164.6638846529812
292.0899315738026,157.43765200390962
293.0909090909091,142.55036363636293
294.09188660801567,119.54626001954966
295.0928641251222,97.10559237536597
296.09384164222877,76.56281231671497
297.0948191593353,56.72083968719415
298.09579667644186,43.179461388073975
299.0967741935484,31.588096774193303
300.09775171065496,22.229723362658675
301.0987292277615,15.319148582600041
302.09970674486806,9.23379178885625
303.1006842619746,6.852348973606982
304.10166177908116,4.350217986314719
305.1026392961877,2.392583577712574
306.10361681329425,0.7307673509286303
307.1045943304008,0.23568132942326644
308.10557184750735,0.3203460410557202
309.1065493646139,0.4206793743890538
310.10752688172045,0.5433440860215079
311.108504398827,0.6632668621700859
312.10948191593354,0.5137458455522945
313.1104594330401,0.3344193548387079
314.11143695014664,0.208642228739002
315.1124144672532,0.13356891495601086
316.11339198435974,0.09478103616813553
317.1143695014663,0.348483870967745
318.11534701857283,0.7825659824047037
319.1163245356794,2.1206500488758673
320.11730205278593,3.6524193548387216
321.1182795698925,5.358473118279581
322.119257086999,7.260072336265896
323.1202346041056,9.635275659824064
324.1212121212121,13.533000000000014
325.1221896383187,17.662518084066484
326.1231671554252,23.96800586510265
327.12414467253177,30.258319648093845
328.1251221896383,34.475688172043014
329.12609970674487,36.84233431085044
330.1270772238514,37.080813294232655
331.12805474095796,32.16420821114371
332.1290322580645,27.055903225806475
333.13000977517106,20.997699902248318
334.1309872922776,15.095185728250266
335.13196480938416,11.042920821114388
336.1329423264907,8.217794721407643
337.13391984359725,5.798531769305975
338.1348973607038,4.201489736070396
339.13587487781035,2.7043000977517186
340.1368523949169,1.9096764418377403
341.13782991202345,1.1914281524926742
342.13880742913,0.7314144672531809
343.13978494623655,0.4582043010752691
344.1407624633431,0.5243313782991117
345.14173998044964,1.1191779081133826
346.1427174975562,1.6120283479960933
347.14369501466274,1.4045190615835816
348.1446725317693,1.214982404692081
349.14565004887584,1.3047321603128015
350.1466275659824,1.469750733137832
351.14760508308893,1.2899276637341281
352.1485826001955,0.6779706744868159
353.14956011730203,0.2174545454545406
354.1505376344086,0.43541935483870453
355.1515151515151,0.6076363636363662
356.1524926686217,0.4870263929618816
357.1534701857282,0.30957869012708
358.1544477028348,0.21591104594330454
359.1554252199413,0.1910733137829926
360.15640273704787,0.13361094819159597
361.1573802541544,0.07189540566959625
362.15835777126097,0.18930498533723722
363.1593352883675,0.461221896383167
364.16031280547406,0.9754115347018602
365.1612903225806,0.7914193548387317
366.16226783968716,0.19597653958945035
367.1632453567937,0.17438807429126507
368.16422287390026,1.1843431085043623
369.1652003910068,1.9481133919843792
370.16617790811335,1.3831886608015913
371.1671554252199,0.6999413489736247
372.16813294232645,0.2650557184750852
373.169110459433,0.04428543499510499
374.17008797653955,0.1877947214076271
375.1710654936461,0.1270518084066498
376.1720430107527,0.12458064516129444
377.17302052785925,0.4361700879765448
378.1739980449658,0.7179784946236528
379.17497556207235,0.43183577712609467
380.1759530791789,0.0636011730205276
381.17693059628544,0.11253372434017973
382.177908113392,0.47069208211143865
383.17888563049854,0.5454926686216971
384.1798631476051,0.1851955034213111
385.18084066471164,0.27901368523948994
386.1818181818182,0.09045454545454693
387.18279569892474,0.33516129032258096
388.1837732160313,0.36036950146627506
389.18475073313783,0.18661290322580612
390.1857282502444,0.11428836754643237
391.18670576735093,0.311382209188661
392.1876832844575,0.5605630498533724
393.188660801564,0.9088611925708696
394.1896383186706,1.3373675464320613
395.1906158357771,2.0524428152492646
396.1915933528837,2.877635386119253
397.1925708699902,3.9238690127077165
398.19354838709677,5.166387096774187
399.1945259042033,6.27984555229716
400.19550342130987,7.086852394916906
401.1964809384164,7.656876832844575
402.19745845552296,7.680853372434018
403.1984359726295,7.880096774193538
404.19941348973606,9.10317008797652
405.2003910068426,10.833633431085024
406.20136852394916,12.40125024437926
407.2023460410557,13.720982404692066
408.20332355816225,14.442734115347035
409.20430107526886,13.31005376344081
410.2052785923754,12.066454545454494
411.20625610948196,10.82668621700875
412.2072336265885,9.785000977517095
413.20821114369505,9.6618475073314
414.2091886608016,10.208737047898355
415.21016617790815,10.612474095796683
416.2111436950147,10.759938416422292
417.21212121212125,10.466181818181749
418.2130987292278,8.486048875855259
419.21407624633434,6.459208211143629
420.2150537634409,4.443462365591334
421.21603128054744,2.5321827956988763
422.217008797654,1.0646304985336918
423.21798631476054,0.3101182795699047
424.2189638318671,0.504526881720413
425.21994134897363,0.14614956011731625
426.2209188660802,0.5035024437927608
427.22189638318673,0.27475659824046217
428.2228739002933,0.09499120234604493
429.2238514173998,0.2635610948191643
430.2248289345064,0.444110459433042
431.2258064516129,0.5025483870967735
432.2267839687195,0.46021798631475896
433.227761485826,0.38318475073313607
434.22873900293257,0.29358357771260807
435.2297165200391,0.1913528836754622
436.23069403714567,0.08885043988269695
437.2316715542522,0.03828152492668573
438.23264907135876,0.06695014662756943
439.2336265884653,0.2422424242424247
440.23460410557186,0.2997829912023481
441.2355816226784,0.43332258064516255
442.23655913978496,0.42289247311827516
443.2375366568915,0.17421700879765534
444.23851417399806,0.21671945259041808
445.2394916911046,0.11598631476051083
446.24046920821115,0.505489736070388
447.2414467253177,1.398565004887595
448.24242424242425,2.72109090909092
449.2434017595308,4.4731436950146755
450.24437927663735,6.510435972629531
451.2453567937439,8.380598240469217
452.24633431085044,10.31780645161291
453.247311827957,12.22349462365592
454.24828934506354,14.39737536656892
455.2492668621701,16.335557184750733
456.25024437927664,16.941899315738027
457.2512218963832,16.364946236559142
458.25219941348973,14.768293255131972
459.2531769305963,11.553591397849473
460.25415444770283,8.219964809384177
461.2551319648094,4.9881202346041205
462.2561094819159,2.204698924731192
463.2570869990225,0.7693470185728288
464.258064516129,0.4395483870967712
465.2590420332356,0.6233225806451651
466.2600195503421,0.33430400782013503
467.26099706744867,0.9510967741935306
468.2619745845552,2.7377204301075073
469.26295210166177,5.236658846529762
470.2639296187683,9.717835777126043
471.26490713587486,15.284657869012593
472.2658846529814,24.18247214076232
473.26686217008796,35.10582111436929
474.2678396871945,49.87540860215026
475.26881720430106,67.68275268817173
476.2697947214076,86.87704398826942
477.27077223851416,107.60559628543461
478.2717497556207,123.52077321603119
479.27272727272725,127.67163636363628
480.2737047898338,127.06847702834827
481.27468230694035,113.24643108504436
482.2756598240469,95.90512316715585
483.27663734115345,77.17550048875903
484.27761485826,58.05270087976584
485.27859237536654,41.745829912023794
486.2795698924731,28.97006451612937
487.28054740957964,18.183500488758735
488.2815249266862,11.652747800586695
489.2825024437928,5.804359726295095
490.28347996089934,2.254774193548337
491.2844574780059,1.1894662756598493
492.28543499511244,1.6633743890517878
493.286412512219,0.8444477028347808
494.28739002932554,0.932950146627618
495.2883675464321,3.3963401759531435
496.28934506353863,7.478795698924877
497.2903225806452,14.415032258064658
498.29130009775173,22.95124340175977
499.2922776148583,35.45221016617815
500.2932551319648,50.821187683284826
501.2942326490714,73.17601857282544
502.2952101661779,99.96431182795746
503.2961876832845,132.39686217008853
504.297165200391,169.1302971652009
505.29814271749757,203.51218768328485
506.2991202346041,234.38590615835815
507.30009775171067,253.8710420332355
508.3010752688172,247.07324731182788
509.30205278592376,233.64465982404667
510.3030303030303,203.12172727272696
511.30400782013686,168.48806940371432
512.3049853372434,135.97575659824204
513.3059628543499,105.93646138807568
514.3069403714564,80.87089931573904
515.307917888563,61.51269794721506
516.3088954056695,45.322351906158914
517.3098729227761,34.90311143695071
518.3108504398826,25.66752785923791
519.3118279569892,18.95324731182832
520.3128054740957,13.157524926686458
521.3137829912023,9.363266862170253
522.3147605083088,6.677309872922912
523.3157380254154,4.513254154447814
524.3167155425219,2.7161202346042046
525.3176930596285,1.3941818181818582
526.318670576735,0.7218318670577182
527.3196480938416,0.18189736070382265
528.3206256109481,0.1774477028347783
529.3216031280547,0.4097536656891482
530.3225806451612,0.4136774193548408
531.3235581622678,0.39879472140762323
532.3245356793743,0.4438308895405605
533.3255131964809,0.45917302052786957
534.3264907135874,0.34167546432062906
535.327468230694,0.4674770283479618
536.3284457478005,0.6826715542522238
537.3294232649071,0.3192541544477322
538.3304007820136,0.1672658846529548
539.3313782991202,0.5276451612902965
540.3323558162267,0.9670664711631993
541.3333333333333,1.6019999999999488
542.3343108504398,2.1787038123166864
543.3352883675464,2.4628523949169034
544.3362658846529,2.4896832844574863
545.3372434017595,2.342457478005883
546.338220918866,2.105386119257108
547.3391984359725,1.9404799608993137
548.3401759530791,1.9154985337243502
549.3411534701856,1.647365591397895
550.3421309872922,1.1536217008797975
551.3431085043987,0.8855601173020566
552.3440860215054,0.8453333333333324
553.345063538612,0.7470156402736986
554.3460410557185,0.5470938416422247
555.347018572825,0.407010752688169
556.3479960899316,0.3012043010752669
557.3489736070381,0.24925513196480928
558.3499511241447,0.3880801564027463
559.3509286412512,0.7902658846529901
560.3519061583578,1.0382580645161286
561.3528836754643,0.9982394916911032
562.3538611925709,0.925521994134896
563.3548387096774,0.8601935483870958
564.355816226784,0.8139022482893444
565.3567937438905,0.7816529814271745
566.3577712609971,0.8545894428152533
567.3587487781036,1.338286412512232
568.3597262952102,2.2154868035190733
569.3607038123167,2.9294486803519124
570.3616813294233,3.402692082111443
571.3626588465298,3.8912414467253233
572.3636363636364,4.393818181818188
573.3646138807429,4.909693059628548
574.3655913978495,5.436129032258069
575.366568914956,6.060756598240475
576.3675464320626,6.927384164222881
577.3685239491691,7.783008797653962
578.3695014662757,8.038803519061583
579.3704789833822,7.6504652981427155
580.3714565004888,6.887337243401755
581.3724340175953,5.711302052785921
582.3734115347019,4.735112414467252
583.3743890518084,3.961341153470185
584.375366568915,3.1987214076246335
585.3763440860215,2.439483870967743
586.377321603128,1.6838768328445763
587.3782991202346,0.9308973607038147
588.3792766373411,0.32594330400782157
589.3802541544477,0.16350244379276557
590.3812316715542,0.2891114369501463
591.3822091886608,0.21339491691104784
592.3831867057673,0.10925415444770135
593.3841642228739,0.17053372434017727
594.3851417399804,0.09818963831866995
595.386119257087,0.09212121212121338
596.3870967741935,0.10580645161290067
597.3880742913001,0.21734213098729321
598.3890518084066,0.4319990224828848
599.3900293255132,0.9830703812316668
600.3910068426197,1.2443567937438889
601.3919843597263,1.295400782013686
602.3929618768328,1.1247126099706803
603.3939393939394,0.7957272727272776
604.3949169110459,0.6581476050830873
605.3958944281525,0.7575278592375344
606.396871945259,0.8563685239491676
607.3978494623656,0.9272580645161277
608.3988269794721,0.813052785923762
609.3998044965787,0.40788465298143695
610.4007820136852,0.09990615835777407
611.4017595307918,0.030008797653958825
612.4027370478983,0.05917790811339035
613.4037145650049,0.09880742913000973
614.4046920821114,0.07288563049853554
615.405669599218,0.21311730205277352
616.4066471163245,0.6286793743890411
617.4076246334312,0.8394017595307895
618.4086021505377,0.8113333333333308
619.4095796676443,0.594353861192531
620.4105571847508,0.2599648093841547
621.4115347018574,0.13379667644182655
622.4125122189639,0.22401759530795104
623.4134897360705,0.5173782991202438
624.414467253177,0.5669345063538576
625.4154447702836,0.6833284457478271
626.4164222873901,1.2118914956012325
627.4173998044967,1.9433968719453083
628.4183773216032,2.461809384164247
629.4193548387098,2.7950000000000252
630.4203323558163,3.170380254154478
631.4213098729228,3.5995337243402075
632.4222873900294,3.845398826979471
633.423264907136,3.828651026392961
634.4242424242425,3.65157575757573
635.425219941349,3.2244222873899977
636.4261974584556,2.745884652981394
637.4271749755621,2.2699169110459136
638.4281524926687,1.9240850439882566
639.4291300097752,1.818728250244381
640.4301075268818,1.847193548387099
641.4310850439883,1.8845366568914983
642.4320625610949,1.9781300097751808
643.4330400782014,2.3024086021505705
644.434017595308,2.8362932551319964
645.4349951124145,3.1770645161290383
646.4359726295211,3.279649071358755
647.4369501466276,3.389812316715549
648.4379276637342,3.506551319648101
649.4389051808407,3.321190615835745
650.4398826979473,2.650932551319605
651.4408602150538,1.9960645161290063
652.4418377321604,1.5846119257086828
653.4428152492669,1.266513196480922
654.4437927663735,0.9534242424242265
655.44477028348,0.6444555229716366
656.4457478005866,0.35944281524925414
657.4467253176931,0.19868426197458255
658.4477028347997,0.31254936461389526
659.4486803519062,0.5931700879765512
660.4496578690128,0.5983509286412377
661.4506353861193,0.30216129032256733
662.4516129032259,0.1882258064516177
663.4525904203324,0.3235826001955106
664.453567937439,0.3351720430107452
665.4545454545455,0.15763636363635625
666.455522971652,0.07503225806451747
667.4565004887586,0.07839198435972503
668.4574780058651,0.1296217008797712
669.4584555229717,0.2783929618768384
670.4594330400782,0.35662170087976525
671.4604105571848,0.20306451612902038
672.4613880742913,0.11958455522972372
673.4623655913979,0.1763655913978455
674.4633431085044,0.06256891495600803
675.464320625611,0.2616265884653162
676.4652981427175,0.8163792766373585
677.4662756598241,1.1688181818181858
678.4672531769306,1.2677077223851438
679.4682306940372,1.1668719452590335
680.4692082111437,0.8157478005864987
681.4701857282503,0.6716999022482937
682.4711632453568,0.9864565004887713
683.4721407624634,1.373366568914963
684.4731182795699,1.5336129032258072
685.4740957966765,1.4822561094819124
686.475073313783,1.1931671554252097
687.4760508308896,0.7728162267839602
688.4770283479961,0.487428152492665
689.4780058651027,0.33538123167155165
690.4789833822092,0.22580742913000812
691.4799608993158,0.17956011730205274
692.4809384164223,0.17655718475073306
693.4819159335289,0.17162658846529802
694.4828934506354,0.35729423264907745
695.483870967742,0.7825806451612971
696.4848484848485,0.9094545454545423
697.485826001955,0.5573460410557123
698.4868035190616,0.2106656891495577
699.4877810361681,0.10017106549364599
700.4887585532747,0.0856686217008796
701.4897360703812,0.07065395894428139
702.4907135874878,0.05514858260019537
703.4916911045943,0.03814956011730192
704.4926686217009,0.023087976539589362
705.4936461388074,0.013544477028347957
706.494623655914,0.008021505376344067
707.4956011730205,0.005504398826979468
708.4965786901271,0.006489736070381241
709.4975562072336,0.011482893450635401
710.4985337243402,0.021480938416422304
711.4995112414467,0.2412913000977519
712.5004887585533,0.697737047898338
713.5014662756598,0.8236598240469211
714.5024437927664,0.47687585532746923
715.5034213098729,0.16896285434995162
716.5043988269795,0.09755718475073308
717.505376344086,0.23691397849462237
718.5063538611926,0.6135943304007792
719.5073313782991,1.001633431085042
720.5083088954057,1.154149560117302
721.5092864125122,1.1782785923753663
722.5102639296188,1.2210645161290317
723.5112414467253,1.2464662756598242
724.5122189638319,1.0652111436950187
725.5131964809384,0.7133548387096816
726.514173998045,0.532230694037146
727.5151515151515,0.5101212121212124
728.516129032258,0.48303225806451655
729.5171065493646,0.4514183773216036
730.5180840664711,0.4147947214076253
731.5190615835777,0.377313782991203
732.5200391006842,0.3339980449657878
733.5210166177908,0.2813440860215064
734.5219941348973,0.22315835777126222
735.5229716520039,0.1594838709677433
736.5239491691104,0.08975171065493805
737.524926686217,0.03872727272727343
738.5259042033235,0.07027956989247104
