Raman Shift,Intensity 
400,17.99860558
401,17.91302422
402,18.03480663
403,18.05579309
404,18.00037479
405,17.99648996
406,18.06912772
407,18.03044274
408,18.00041971
409,18.06439315
410,17.95122443
411,18.02113612
412,17.91507384
413,18.01187132
414,18.12235711
415,17.96951198
416,18.08550128
417,18.02985611
418,17.96292654
419,17.92561905
420,18.03360939
421,17.96465658
422,17.98309629
423,17.9537409
424,18.02067099
425,18.06433154
426,18.05772887
427,17.94911293
428,18.10026566
429,17.92123885
430,18.03787805
431,17.95026331
432,18.061479
433,17.998832
434,17.97071611
435,17.88270731
436,18.08058887
437,17.92466957
438,18.03667763
439,17.98101317
440,18.00344575
441,18.00018841
442,18.01269508
443,18.00221982
444,18.0238716
445,18.05455066
446,18.07795906
447,18.03484723
448,18.1013931
449,17.9433049
450,17.97382819
451,18.02471499
452,17.9487241
453,18.02813071
454,18.02838984
455,17.91435954
456,18.00932243
457,17.92345137
458,18.08521857
459,17.8848157
460,17.94332844
461,17.96754456
462,18.06809479
463,17.90190913
464,17.99137209
465,18.03152402
466,17.92278008
467,17.92962946
468,18.02439046
469,18.1242846
470,18.02815677
471,18.09188749
472,18.03226982
473,17.98247829
474,17.95023933
475,17.91731815
476,17.98674016
477,17.99188023
478,17.92483285
479,17.93438992
480,17.91456085
481,17.99677136
482,18.02927553
483,17.99982702
484,18.03191112
485,17.92487667
486,18.01097459
487,17.93803676
488,18.04304
489,18.04309585
490,17.99510505
491,17.95860368
492,17.87049532
493,17.99282444
494,18.01754222
495,17.91929801
496,17.87416848
497,17.93975442
498,18.13194806
499,17.99338956
500,18.02628345
501,18.00135552
502,18.01908773
503,18.01139026
504,17.97705228
505,18.01658722
506,17.91664323
507,18.09673802
508,18.00660962
509,17.90600643
510,17.86181141
511,18.05845435
512,17.94102533
513,17.96337768
514,18.00512111
515,17.98531447
516,18.00737835
517,17.8998015
518,17.9664061
519,17.95303232
520,18.03362657
521,17.94990076
522,17.98214691
523,18.05791844
524,17.93875869
525,18.03917523
526,18.01276509
527,18.03166096
528,18.0018684
529,18.0072203
530,17.99185966
531,18.10570577
532,18.07708776
533,17.90990272
534,17.96542794
535,17.95890381
536,18.05326943
537,17.89845997
538,17.99861732
539,17.98582155
540,17.98326301
541,18.19052319
542,18.06726136
543,18.09588737
544,17.95375117
545,18.08974106
546,18.11790416
547,17.97878402
548,17.86826708
549,17.89413675
550,17.94233052
551,18.11770801
552,17.96544773
553,17.94198483
554,18.06032675
555,18.04452515
556,17.89429202
557,18.02507843
558,17.99473345
559,18.03842726
560,18.02819931
561,18.03891368
562,17.99723793
563,17.95289483
564,17.95520941
565,17.89244806
566,18.0954005
567,18.00597634
568,17.86013936
569,18.02883568
570,18.00652178
571,18.03729863
572,17.98354772
573,17.96711979
574,18.1214382
575,18.00709727
576,18.03379903
577,18.0331974
578,17.92832937
579,17.90086604
580,18.01736637
581,17.98839973
582,18.11343204
583,17.98129077
584,17.94273384
585,17.98891656
586,18.02188026
587,18.02930032
588,18.06039479
589,18.02115155
590,17.94378566
591,18.03364895
592,18.0254713
593,17.99889833
594,18.14930476
595,18.0239619
596,17.97472454
597,18.01623686
598,18.01317974
599,18.02711343
600,17.97190304
601,17.99477255
602,18.06321959
603,17.95466791
604,18.07107149
605,17.99972417
606,18.00017226
607,17.97983133
608,17.96209959
609,18.04447345
610,17.99543181
611,17.92909791
612,17.89244206
613,18.0115777
614,18.10813386
615,17.97990782
616,17.93494479
617,17.95083822
618,18.07145331
619,18.00857743
620,18.01452103
621,18.01743319
622,18.03798045
623,17.9714981
624,17.92748785
625,18.00726246
626,17.94602929
627,18.01779111
628,17.94190186
629,18.10102338
630,17.95847799
631,18.03138548
632,17.92142074
633,18.05639787
634,18.05121867
635,18.1158648
636,17.95231664
637,17.9831954
638,18.0215174
639,17.88506341
640,17.99211832
641,17.96692056
642,18.1221911
643,18.00321824
644,18.00957104
645,17.99748977
646,17.94659318
647,18.00384542
648,18.00498646
649,17.99620818
650,17.97003892
651,17.97523247
652,17.9825278
653,17.97733708
654,17.95111696
655,18.00735455
656,17.95816224
657,18.01055215
658,17.90940087
659,18.02474916
660,17.97126428
661,17.96117364
662,18.01978475
663,17.9936096
664,18.07077505
665,17.98339346
666,18.06823139
667,18.00118594
668,18.11254382
669,18.06547135
670,18.04841237
671,17.99284469
672,18.01657653
673,17.85173911
674,18.02289727
675,18.0342843
676,17.96011376
677,17.89696696
678,17.99068795
679,18.04429801
680,17.91304917
681,18.00466801
682,17.96951561
683,18.03058337
684,18.07424863
685,17.96197536
686,17.99811963
687,18.00746643
688,17.94170759
689,17.927084
690,17.94737166
691,18.07196517
692,18.05162388
693,18.01227529
694,17.92685681
695,17.99501615
696,18.04069244
697,17.94380525
698,18.07250697
699,18.05340322
700,17.99773495
701,17.96674858
702,17.99282371
703,18.0743385
704,17.91472538
705,17.98851793
706,18.04735968
707,17.93983072
708,18.12917712
709,17.97489344
710,18.0104148
711,18.01887609
712,17.94436196
713,18.02347961
714,17.89928535
715,17.98344317
716,18.10757761
717,17.92046473
718,17.99286671
719,17.91289267
720,17.90803221
721,18.01888975
722,17.97723909
723,17.9718988
724,17.96996307
725,18.05690099
726,17.98603729
727,17.9104257
728,18.06629232
729,18.02815532
730,18.05308974
731,18.00156706
732,17.94490307
733,18.05190043
734,17.94559431
735,18.07674129
736,18.07514447
737,17.95665512
738,17.95606313
739,18.04714381
740,18.01163811
741,18.0668867
742,18.02502711
743,17.91149218
744,17.92988102
745,18.07791054
746,18.05849685
747,18.11759498
748,17.85196477
749,18.01347145
750,18.08280743
751,18.05069709
752,17.97952888
753,17.93979655
754,17.99415304
755,18.09129703
756,17.94609884
757,18.01291818
758,17.97334435
759,17.98207094
760,18.04191147
761,18.11294857
762,18.02060114
763,17.99820599
764,17.97805746
765,17.97416049
766,17.8456996
767,17.98410177
768,18.00009455
769,17.93801148
770,18.01706966
771,17.98766428
772,18.13530856
773,18.06648467
774,18.07364634
775,18.05260807
776,18.04178877
777,18.10440254
778,17.95810684
779,17.89580571
780,18.01872154
781,17.94011688
782,18.039187
783,18.03386192
784,18.05779234
785,18.03908637
786,18.00912714
787,18.09313586
788,17.99420557
789,17.8894533
790,17.9852531
791,18.00596041
792,17.93678832
793,17.93680957
794,18.0061156
795,17.92069986
796,18.02424262
797,17.97640609
798,18.05178897
799,17.91127003
800,18.01076347
801,18.06264325
802,17.90823755
803,18.00602588
804,18.00088864
805,17.80087335
806,18.01674721
807,18.02611713
808,17.94407218
809,17.87552857
810,17.98074355
811,18.10301865
812,18.17289247
813,17.97878524
814,18.00600476
815,17.95964243
816,17.989652
817,18.07289715
818,17.95954704
819,18.10542659
820,17.98393584
821,17.98109306
822,18.00283567
823,18.01068652
824,17.96173373
825,17.96383985
826,17.92901448
827,18.01998387
828,18.08117245
829,17.99727802
830,18.01818804
831,17.911296
832,17.9587041
833,18.02031197
834,17.94448441
835,18.00919989
836,18.05925556
837,18.03040849
838,18.05605952
839,17.99929835
840,17.93414529
841,18.02419738
842,17.98406497
843,18.10280905
844,17.97649251
845,17.98965476
846,18.051487
847,18.08053312
848,17.97028093
849,18.02575658
850,17.96301666
851,17.97615975
852,17.97886821
853,17.98355311
854,18.02325256
855,17.97819643
856,17.98981885
857,17.92335318
858,17.94166463
859,18.04369242
860,18.09971277
861,17.99466812
862,17.93183465
863,17.88000511
864,17.99211875
865,17.97336655
866,17.89974869
867,17.94609045
868,18.0401639
869,17.91216705
870,17.99123087
871,18.01533261
872,17.94832041
873,17.97210749
874,17.9596414
875,18.00883522
876,17.96923094
877,18.03687285
878,17.99962366
879,18.03920576
880,17.92507175
881,18.03307788
882,18.06833186
883,18.03932142
884,17.93159566
885,18.07825274
886,18.01457617
887,18.03235419
888,18.00224778
889,18.11884223
890,17.94568053
891,18.02552007
892,18.08090513
893,18.06735474
894,18.07946628
895,17.94433747
896,18.0997085
897,18.11920417
898,17.98147145
899,18.03377333
900,17.9388043
901,17.95371418
902,17.98757681
903,18.06852482
904,17.91100475
905,17.90621858
906,18.06625242
907,18.02308745
908,17.91264333
909,18.04266829
910,17.97243166
911,17.99381574
912,17.8711276
913,18.02886717
914,18.01317875
915,18.04764788
916,17.99928052
917,18.06934458
918,18.02190128
919,18.00234121
920,17.93071743
921,18.02185725
922,18.01556832
923,18.04570287
924,17.99926472
925,17.99179742
926,17.93140657
927,18.02823553
928,18.03027587
929,17.93256246
930,17.95830531
931,17.98765884
932,17.98642784
933,17.98947685
934,17.97964492
935,18.11506498
936,17.99282432
937,18.05902645
938,18.09480914
939,17.96421524
940,18.04495021
941,17.92859436
942,17.93377273
943,18.07720737
944,18.02646682
945,17.8929906
946,18.03509996
947,17.96169397
948,18.00033424
949,18.04269751
950,18.01407755
951,18.1044232
952,17.89955471
953,17.92111437
954,18.0078518
955,18.03663207
956,17.96346568
957,18.05241271
958,18.00700119
959,17.92103118
960,17.96291879
961,17.98048604
962,17.92650056
963,17.9725769
964,18.00214447
965,18.02330964
966,18.05732047
967,18.04571116
968,18.01951138
969,18.02972845
970,18.13714254
971,17.9737959
972,17.92771503
973,18.00820911
974,18.01884359
975,17.98197292
976,17.96655906
977,17.97181303
978,17.88990533
979,17.98189909
980,17.96573542
981,18.11988298
982,17.99944339
983,18.06305928
984,17.96549966
985,18.00102346
986,18.05270231
987,17.96556782
988,17.97400644
989,18.09636021
990,17.94441665
991,17.9188459
992,17.89242056
993,18.06793795
994,17.93230834
995,18.0320557
996,18.00729975
997,18.23412172
998,17.9242235
999,18.0316503
1000,18.0468724
1001,18.02979947
1002,17.96551817
1003,18.08731438
1004,18.03833382
1005,18.0611877
1006,18.07187717
1007,18.01886427
1008,17.99442769
1009,17.97277234
1010,17.98707847
1011,18.02920026
1012,18.1039535
1013,17.94763515
1014,18.06606767
1015,17.98741946
1016,17.97723526
1017,18.0321516
1018,18.05961455
1019,18.10536375
1020,18.02422804
1021,18.11126492
1022,18.1239141
1023,17.97504818
1024,18.03420254
1025,18.03674307
1026,17.94711351
1027,17.97315698
1028,18.03161457
1029,18.0548811
1030,18.01120453
1031,18.05263864
1032,18.01120664
1033,18.03188077
1034,18.11839612
1035,18.01103675
1036,18.06607766
1037,18.04891658
1038,18.02375549
1039,17.96850832
1040,18.02526456
1041,17.96732088
1042,18.06457485
1043,17.98388594
1044,17.92061379
1045,17.9241508
1046,17.97029025
1047,17.98313898
1048,18.0335986
1049,18.14230366
1050,18.03236012
1051,17.94462501
1052,17.94693928
1053,18.04380839
1054,18.0371004
1055,17.9942464
1056,17.96422799
1057,17.94192915
1058,17.96736944
1059,17.91996191
1060,18.03426848
1061,17.98908841
1062,18.02098192
1063,18.00135612
1064,18.06704158
1065,17.97717214
1066,18.00815402
1067,17.97506006
1068,18.17203789
1069,18.04349988
1070,18.02193796
1071,17.98868305
1072,18.10466553
1073,18.00751257
1074,18.01582349
1075,17.94435316
1076,18.03709857
1077,17.94415715
1078,18.0394725
1079,17.91864289
1080,17.95952946
1081,17.96108936
1082,18.11464884
1083,17.94131906
1084,17.93480847
1085,17.95151567
1086,17.98677709
1087,18.0752758
1088,17.93223717
1089,18.0248464
1090,18.08451285
1091,17.94063706
1092,17.99054802
1093,17.94004556
1094,18.02008606
1095,18.03147745
1096,18.06756426
1097,17.96009699
1098,17.9104552
1099,17.98668698
1100,17.96412509
1101,17.97399062
1102,18.06514573
1103,17.92725016
1104,18.07145022
1105,17.88305844
1106,17.95002117
1107,17.99882063
1108,17.97909446
1109,17.96541072
1110,18.01999822
1111,17.91374264
1112,18.10921228
1113,18.10953274
1114,17.96892
1115,18.06086277
1116,18.02452286
1117,17.93620766
1118,17.98905459
1119,18.00863043
1120,18.01534702
1121,18.04299098
1122,18.05648834
1123,18.0495274
1124,17.94094261
1125,18.01719106
1126,17.88375171
1127,17.98084657
1128,18.0189884
1129,18.03525168
1130,18.06507702
1131,18.09841647
1132,17.93649378
1133,18.06098318
1134,18.02585581
1135,17.992306
1136,17.91805997
1137,18.07679453
1138,17.92869666
1139,17.98624278
1140,18.10013687
1141,17.9357633
1142,18.01269707
1143,18.08845887
1144,18.01946591
1145,17.92570366
1146,17.95345038
1147,17.91393759
1148,17.99588038
1149,18.04242816
1150,17.95526836
1151,18.10740961
1152,18.0270033
1153,18.02677414
1154,17.97435083
1155,17.99470542
1156,17.9567971
1157,18.06692636
1158,17.96483922
1159,18.02698095
1160,18.03110378
1161,17.98798749
1162,17.97795662
1163,18.10903204
1164,18.03536113
1165,17.99840968
1166,17.92618337
1167,18.04620756
1168,18.00975264
1169,17.99463574
1170,18.01071067
1171,18.04206904
1172,17.90269219
1173,17.9777088
1174,18.00509595
1175,17.99160301
1176,17.94386821
1177,18.09654398
1178,18.09023679
1179,17.98681906
1180,17.99415359
1181,18.13823576
1182,18.10538185
1183,18.0046387
1184,18.11665253
1185,18.04500037
1186,18.02929251
1187,18.0335902
1188,17.97424911
1189,17.90286659
1190,17.96091477
1191,18.06806442
1192,17.95256206
1193,17.88341792
1194,18.00812786
1195,18.16351851
1196,17.97924508
1197,17.99065279
1198,17.97504469
1199,18.08287896
1200,18.04721414
1201,17.98970272
1202,18.06792874
1203,17.99411636
1204,17.97096529
1205,17.96635533
1206,17.88344339
1207,18.11957536
1208,17.99258415
1209,18.00221239
1210,17.95752975
1211,17.93734302
1212,17.98077536
1213,18.05973034
1214,18.03041058
1215,18.01477384
1216,17.91184843
1217,18.12281827
1218,17.98986691
1219,17.91102121
1220,17.9882178
1221,17.82885214
1222,17.94650126
1223,18.03262
1224,17.89403636
1225,17.93294455
1226,18.04033903
1227,18.01449114
1228,18.09720555
1229,18.04242475
1230,18.01823059
1231,17.88791602
1232,18.06645367
1233,18.05277781
1234,18.03909476
1235,18.00206697
1236,17.9368223
1237,18.01155879
1238,18.00176404
1239,17.92765744
1240,18.1538327
1241,18.03095343
1242,18.01229802
1243,18.02934676
1244,17.97324474
1245,18.04636366
1246,18.07780622
1247,17.90088023
1248,18.0338252
1249,17.98469331
1250,17.97214931
1251,17.93111289
1252,17.96713445
1253,18.06919847
1254,18.04585512
1255,18.04147839
1256,18.0604758
1257,18.10521436
1258,18.13292022
1259,18.03160643
1260,18.04644194
1261,17.95701943
1262,18.05455361
1263,18.11250348
1264,17.95214164
1265,18.00584994
1266,17.97001729
1267,18.00676034
1268,17.94942353
1269,18.0185021
1270,18.01251783
1271,17.95795316
1272,17.98888448
1273,17.99951344
1274,17.87559914
1275,17.97252963
1276,17.97614245
1277,17.9189158
1278,18.0725931
1279,17.98592111
1280,17.9363049
1281,18.06894572
1282,18.01619625
1283,18.14915435
1284,17.98208594
1285,17.96295669
1286,18.01263012
1287,17.99833191
1288,18.03815649
1289,17.92167637
1290,17.9979496
1291,17.89287022
1292,17.97208027
1293,18.06632942
1294,17.94519693
1295,18.01769523
1296,18.05280377
1297,18.02443548
1298,17.99410941
1299,17.97157953
1300,17.95092907
1301,18.01833038
1302,17.97405241
1303,18.06614349
1304,17.90833397
1305,17.9992675
1306,18.00368123
1307,17.95721017
1308,18.04143077
1309,18.00072285
1310,18.00355914
1311,18.03907265
1312,17.94992984
1313,17.94925103
1314,17.97198578
1315,18.02399365
1316,18.05618814
1317,18.05416024
1318,17.94025732
1319,17.87894118
1320,18.00262716
1321,18.02766043
1322,17.91161103
1323,17.89088138
1324,18.02773578
1325,18.0329017
1326,17.98124281
1327,17.97040303
1328,17.98678497
1329,18.0390432
1330,17.9117119
1331,18.02832288
1332,17.96363487
1333,17.987341
1334,17.93135877
1335,18.0325058
1336,17.93061183
1337,17.96358933
1338,17.89743443
1339,17.99668799
1340,18.07003679
1341,18.01275522
1342,17.92033816
1343,17.89610581
1344,18.00465516
1345,18.06821225
1346,17.97640419
1347,17.92278245
1348,18.06236592
1349,18.05080982
1350,18.00936077
1351,17.97852927
1352,18.00994996
1353,17.93034439
1354,17.94011459
1355,17.97952678
1356,18.14233385
1357,17.9429322
1358,18.00133314
1359,17.96297855
1360,18.03452137
1361,18.02779825
1362,17.96818378
1363,18.07725106
1364,18.00497732
1365,17.95669999
1366,17.9978593
1367,17.97178161
1368,17.99077496
1369,17.94939515
1370,18.05683244
1371,18.03975589
1372,18.13093558
1373,18.03109018
1374,18.03955246
1375,17.9765265
1376,18.1120287
1377,17.99606069
1378,17.94087708
1379,17.98213673
1380,17.96362314
1381,17.93666154
1382,18.03572651
1383,18.04137689
1384,17.93331247
1385,18.06921592
1386,18.05596003
1387,18.05652893
1388,18.052283
1389,17.95297502
1390,18.05729704
1391,17.95765776
1392,17.98785005
1393,17.93868501
1394,17.87845199
1395,18.06782467
1396,17.98072462
1397,17.98190495
1398,17.89916866
1399,18.1322561
1400,17.94506638
1401,18.07193293
1402,17.9890258
1403,18.04259968
1404,18.02876845
1405,18.08390427
1406,17.96889769
1407,18.13149931
1408,18.00461848
1409,18.12605833
1410,18.0052814
1411,17.93896239
1412,18.16783347
1413,18.10131554
1414,18.05000853
1415,18.02688595
1416,17.96499071
1417,17.8844043
1418,18.04548815
1419,18.04819665
1420,18.0130389
1421,18.02581645
1422,17.92897115
1423,17.91483199
1424,18.07141772
1425,17.98523522
1426,17.98930528
1427,17.9633656
1428,17.99742854
1429,17.97163858
1430,18.04160521
1431,17.99038316
1432,18.05791066
1433,17.99076917
1434,17.99027987
1435,18.13708012
1436,18.03128529
1437,17.91835777
1438,18.06001001
1439,18.02778737
1440,17.98027448
1441,18.00555801
1442,17.95828628
1443,17.98691838
1444,17.97008728
1445,18.0435021
1446,17.93943623
1447,18.085236
1448,17.95577728
1449,17.87284449
1450,18.07868413
1451,18.02587496
1452,17.88588533
1453,17.9773198
1454,18.11696244
1455,17.9706722
1456,18.05226222
1457,18.01321949
1458,18.08470804
1459,17.9700302
1460,18.02886961
1461,17.95698691
1462,17.94432714
1463,17.9211397
1464,18.04062371
1465,17.86153546
1466,18.05415071
1467,18.00560919
1468,18.04218723
1469,18.06102125
1470,17.92945289
1471,18.04990246
1472,17.91013366
1473,17.97780086
1474,18.16528334
1475,17.96972698
1476,17.97083242
1477,17.98963804
1478,18.12715219
1479,17.99761744
1480,18.00050494
1481,18.04461056
1482,18.01502022
1483,17.92250517
1484,17.95310062
1485,18.00246225
1486,17.97542149
1487,17.98558993
1488,17.93580759
1489,17.84634971
1490,18.03948679
1491,17.92919005
1492,17.93804906
1493,17.98524806
1494,18.03476626
1495,18.01335329
1496,17.99298445
1497,18.03321697
1498,18.01545557
1499,17.98091313
1500,18.02607708
1501,17.9998215
1502,18.0400601
1503,17.99544495
1504,17.98126039
1505,17.87381715
1506,18.05363341
1507,17.97327599
1508,17.9244655
1509,17.95540809
1510,18.08265364
1511,17.96886476
1512,17.92364279
1513,18.01882417
1514,18.03531258
1515,18.0734567
1516,17.99230343
1517,17.99579799
1518,17.96371973
1519,18.00602123
1520,18.00597318
1521,18.07444069
1522,18.08786343
1523,17.92234745
1524,18.0810166
1525,17.91609831
1526,18.09774801
1527,18.02474674
1528,17.97178922
1529,18.04712717
1530,18.05591753
1531,18.11511197
1532,18.04489607
1533,18.08489953
1534,18.01052749
1535,18.02787147
1536,17.89984128
1537,18.05258692
1538,17.93602055
1539,17.99648224
1540,18.02166403
1541,17.9479059
1542,17.95178584
1543,18.06900899
1544,17.84252601
1545,17.97670156
1546,17.92591937
1547,18.05262325
1548,17.99083826
1549,17.93092493
1550,18.01206648
1551,17.97487697
1552,18.07481438
1553,18.0750773
1554,18.09349219
1555,17.962095
1556,17.96052257
1557,17.92906107
1558,17.86314052
1559,18.03409968
1560,18.019898
1561,17.96068796
1562,17.88018831
1563,18.05791706
1564,17.92720332
1565,18.01955719
1566,17.97681052
1567,18.05595397
1568,18.04464336
1569,18.01757127
1570,18.05295883
1571,18.02065051
1572,17.9876501
1573,17.97677465
1574,17.9511573
1575,17.9865411
1576,18.10170736
1577,17.97411262
1578,18.05679221
1579,17.96840699
1580,17.99020353
1581,17.98355374
1582,17.97733187
1583,17.92968475
1584,18.00948335
1585,18.06632317
1586,18.09237308
1587,18.08266809
1588,17.99536822
1589,17.96083538
1590,18.04359462
1591,17.96215405
1592,17.98398214
1593,18.06430644
1594,18.04809415
1595,18.02811891
1596,17.92787281
1597,18.02538033
1598,17.9957029
1599,17.97968728
1600,18.07035784
1601,18.01952291
1602,17.88778408
1603,17.88208952
1604,17.91064903
1605,17.94342141
1606,18.06502295
1607,18.11128667
1608,17.95348983
1609,18.07195118
1610,18.0496208
1611,17.99003888
1612,18.01801548
1613,18.04414855
1614,18.06572643
1615,17.93472903
1616,18.02780611
1617,18.03809236
1618,17.94011903
1619,18.01920263
1620,17.98811883
1621,17.94322875
1622,17.94152653
1623,17.97442712
1624,17.99659825
1625,18.07704352
1626,18.02708367
1627,17.99674869
1628,18.03330867
1629,17.99411936
1630,18.01590465
1631,17.98081843
1632,18.06586084
1633,18.11321792
1634,18.04408214
1635,18.03255455
1636,17.97738701
1637,18.04408692
1638,17.94468391
1639,18.07461684
1640,18.0079109
1641,18.00816597
1642,18.00427315
1643,17.95111038
1644,17.97398012
1645,17.9884811
1646,18.02990026
1647,18.00182978
1648,17.93590447
1649,18.00526035
1650,17.98668679
1651,17.98372585
1652,18.01266674
1653,17.96455588
1654,18.05373785
1655,17.91493887
1656,18.0699559
1657,18.01354857
1658,17.97838707
1659,18.08819638
1660,17.97007939
1661,18.00114516
1662,18.00654269
1663,18.003567
1664,18.10801325
1665,17.96579993
1666,18.01956912
1667,17.91878894
1668,18.06022752
1669,17.99457813
1670,18.03163579
1671,17.94862879
1672,18.0303797
1673,18.02980742
1674,18.09465988
1675,18.02331114
1676,17.94842388
1677,17.95212081
1678,17.99595329
1679,17.96283007
1680,17.96041518
1681,17.93412027
1682,18.03376336
1683,17.94073763
1684,18.05989882
1685,17.99452399
1686,17.89394448
1687,18.02383304
1688,17.94874369
1689,18.00824499
1690,18.06181962
1691,18.00910071
1692,17.92963786
1693,17.97594593
1694,18.1669222
1695,18.04110747
1696,18.05493899
1697,18.06785587
1698,17.97786973
1699,17.90302488
1700,17.98602633
1701,17.97755174
1702,17.9189753
1703,18.09892899
1704,18.00438105
1705,17.92936672
1706,18.04535564
1707,17.94958669
1708,18.03162436
1709,18.11060756
1710,17.94553994
1711,18.01606746
1712,18.08072204
1713,18.04266286
1714,17.89952201
1715,17.92930168
1716,17.99187677
1717,18.05961051
1718,17.96659606
1719,17.92704854
1720,17.9440266
1721,17.98237559
1722,18.05494345
1723,18.07150811
1724,18.05744825
1725,18.02039806
1726,17.99223645
1727,18.05119071
1728,17.94988698
1729,17.9869172
1730,18.00379426
1731,18.05263888
1732,18.07417867
1733,18.20680521
1734,18.03373623
1735,17.955616
1736,18.06662911
1737,18.06911202
1738,17.99318976
1739,17.95976446
1740,17.8984879
1741,17.98570956
1742,18.08705135
1743,18.03394302
1744,17.96234142
1745,17.98046641
1746,17.98512857
1747,17.98724222
1748,18.06324155
1749,17.96357073
1750,18.02112789
1751,17.92037422
1752,17.93406679
1753,17.96847474
1754,18.0742869
1755,18.05806852
1756,17.95608734
1757,18.06151526
1758,18.12293553
1759,18.05766075
1760,18.0083983
1761,17.92549369
1762,18.02706062
1763,17.99354393
1764,18.03641308
1765,18.01880209
1766,18.030556
1767,17.94934732
1768,17.97587166
1769,18.01942783
1770,17.98041659
1771,18.0897119
1772,17.98546657
1773,18.05243727
1774,17.88567659
1775,17.95598627
1776,18.06039933
1777,17.99713971
1778,17.94631733
1779,17.87524949
1780,17.98022741
1781,18.07627212
1782,17.88661456
1783,18.02655938
1784,18.0336437
1785,17.96194771
1786,18.00012289
1787,17.87358001
1788,18.01475455
1789,17.9305937
1790,17.96715738
1791,17.9679248
1792,18.01422544
1793,17.93370214
1794,18.03902889
1795,17.90687251
1796,18.06360151
1797,18.01432374
1798,17.98531497
1799,18.02273332
1800,18.02817644
1801,18.03850857
1802,17.95809239
1803,18.03550493
1804,17.94972656
1805,18.01040621
1806,18.02993916
1807,17.91498398
1808,18.06065477
1809,18.08925297
1810,18.02632965
1811,18.00587814
1812,17.98831334
1813,18.0997553
1814,17.91602649
1815,18.00829884
1816,18.00852806
1817,17.95410909
1818,18.03941962
1819,17.99109653
1820,17.99936763
1821,17.99568988
1822,17.97364032
1823,17.99930942
1824,18.05919004
1825,18.02356949
1826,17.98556442
1827,18.01762029
1828,18.04637397
1829,18.02590602
1830,17.99036209
1831,17.8888137
1832,17.99899008
1833,17.96211738
1834,18.08845036
1835,18.0697594
1836,17.96536019
1837,18.05404368
1838,18.03404353
1839,18.09580505
1840,18.10497421
1841,18.02565835
1842,18.02867684
1843,18.00250943
1844,17.94264649
1845,17.95974071
1846,17.94039092
1847,18.07924277
1848,18.03558143
1849,18.0109787
1850,17.93549759
1851,18.07356963
1852,17.98249682
1853,17.93187519
1854,18.02148933
1855,18.01656445
1856,18.02647506
1857,17.94030359
1858,17.93960284
1859,18.032723
1860,17.94066221
1861,18.10700638
1862,17.97091551
1863,18.07528905
1864,17.86061917
1865,17.8923609
1866,17.93936953
1867,17.83832852
1868,17.96515553
1869,17.97423571
1870,17.8718445
1871,17.97773071
1872,17.88688795
1873,18.03702861
1874,17.97500632
1875,17.94598512
1876,17.94652381
1877,17.95487557
1878,17.86771974
1879,17.91287313
1880,17.92540961
1881,17.96444897
1882,18.00812579
1883,18.06495137
1884,17.98306036
1885,18.04058452
1886,18.06972577
1887,18.00542476
1888,17.90932151
1889,17.95650416
1890,17.97029144
1891,17.88452033
1892,17.97574744
1893,18.09560376
1894,18.06226186
1895,17.99963295
1896,17.96198297
1897,17.95125973
1898,18.11543759
1899,18.0760216
1900,18.07952736
1901,18.05375367
1902,17.97233734
1903,18.11486274
1904,18.04693451
1905,17.91573641
1906,17.987283
1907,17.93796927
1908,18.00023692
1909,17.93600011
1910,18.01888897
1911,17.92574335
1912,17.84838357
1913,18.02698345
1914,18.05281823
1915,17.82458353
1916,18.0399769
1917,17.97970882
1918,18.06842622
1919,17.88147719
1920,18.10183736
1921,17.95311295
1922,17.97201638
1923,17.98274202
1924,17.99317386
1925,17.90427437
1926,17.97913016
1927,18.02650727
1928,17.9974959
1929,18.04389098
1930,17.93682635
1931,18.00300938
1932,17.94607105
1933,17.89475185
1934,17.92621467
1935,17.96816986
1936,18.05407978
1937,18.0014279
1938,18.04516177
1939,17.86930744
1940,18.08052933
1941,17.96070829
1942,17.981435
1943,18.15561076
1944,18.12784094
1945,18.03653229
1946,18.02983473
1947,18.09953345
1948,17.94095491
1949,18.09976842
1950,18.05362539
1951,17.97424143
1952,17.95596015
1953,17.91458065
1954,18.0719676
1955,17.97745632
1956,17.98460293
1957,17.98842046
1958,18.05128144
1959,17.98475414
1960,18.0317081
1961,17.9893112
1962,18.0788982
1963,18.04165526
1964,17.95853581
1965,18.01425536
1966,17.9893522
1967,17.90061532
1968,18.00387271
1969,17.96321234
1970,17.99642147
1971,17.90893342
1972,17.90967309
1973,18.01224525
1974,18.02476351
1975,18.0753899
1976,18.01482136
1977,17.99568881
1978,17.95719214
1979,17.97047182
1980,17.98363134
1981,18.0234067
1982,17.99982769
1983,17.99082538
1984,17.94656478
1985,18.118875
1986,18.00356313
1987,18.00657246
1988,17.94900677
1989,18.05249639
1990,17.88629354
1991,17.99880065
1992,17.96922548
1993,18.0357931
1994,18.07627641
1995,18.01853789
1996,17.9935832
1997,17.98800033
1998,17.96441873
1999,17.8923327
2000,17.90509396
2001,18.01205727
2002,17.98972089
2003,17.99661757
2004,17.93980968
2005,18.01572458
2006,18.02561754
2007,18.02587824
2008,17.93232505
2009,18.00469562
2010,18.02183973
2011,18.07807737
2012,18.03036111
2013,17.91506701
2014,18.02750217
2015,17.90602095
2016,18.1247723
2017,17.94500128
2018,18.01472615
2019,18.00220422
2020,17.94217289
2021,18.07695439
2022,17.99607207
2023,18.00239221
2024,18.09113063
2025,17.98329308
2026,17.9346646
2027,17.98275178
2028,17.99770494
2029,18.02237625
2030,17.88420906
2031,18.01138303
2032,18.00659343
2033,17.998345
2034,18.07120721
2035,17.94814941
2036,17.90982427
2037,17.96916715
2038,18.04780579
2039,18.01038994
2040,17.90715307
2041,17.93998619
2042,18.01376424
2043,17.96992184
2044,18.01855668
2045,17.85342618
2046,18.05012619
2047,17.9612974
2048,18.05256454
2049,17.96569489
2050,17.98295484
2051,18.07415306
2052,17.99864573
2053,17.90300858
2054,18.0957258
2055,17.94417672
2056,18.01045685
2057,18.00779913
2058,18.0552054
2059,17.99055216
2060,17.92627573
2061,18.04302907
2062,17.91835009
2063,17.9600738
2064,17.94906037
2065,17.91517853
2066,18.10277276
2067,17.98941567
2068,18.03460081
2069,18.02613745
2070,18.03837981
2071,18.05961203
2072,17.98843176
2073,17.97429843
2074,18.04452043
2075,17.89268646
2076,17.88627504
2077,17.99266819
2078,17.94919543
2079,17.99829219
2080,18.09116242
2081,17.98389787
2082,17.99468991
2083,17.94510513
2084,18.00025725
2085,18.059614
2086,17.90389248
2087,18.07613046
2088,17.97879428
2089,17.95398269
2090,18.03279019
2091,17.94244515
2092,17.98999918
2093,17.99255123
2094,17.9472719
2095,17.93665151
2096,18.00663763
2097,18.09146315
2098,17.74550571
2099,18.05306451
2100,18.06077642
2101,17.93506135
2102,18.05176992
2103,17.99986718
2104,18.08362844
2105,17.93908875
2106,17.96754312
2107,18.01057709
2108,17.9486712
2109,18.04859522
2110,17.95234223
2111,17.99303178
2112,17.87093065
2113,17.95362248
2114,18.06758294
2115,18.09325144
2116,18.05639055
2117,18.08938416
2118,17.96710993
2119,17.97092733
2120,17.96390604
2121,18.01871962
2122,17.91563077
2123,17.96822812
2124,18.04163398
2125,17.95837257
2126,18.05284908
2127,17.98890937
2128,18.05087496
2129,18.03418734
2130,17.93572637
2131,18.01176323
2132,17.99208568
2133,17.99659104
2134,17.97398125
2135,18.03513852
2136,18.0132483
2137,18.01464289
2138,18.04745925
2139,18.08475973
2140,17.98504054
2141,18.05345183
2142,17.9500982
2143,17.97493513
2144,17.9102764
2145,18.11360827
2146,18.01943965
2147,18.01858914
2148,17.96165223
2149,17.98271888
2150,18.04354894
2151,18.07072233
2152,18.04341505
2153,17.99020169
2154,18.06661046
2155,18.14819098
2156,18.00526949
2157,17.98093767
2158,18.00068912
2159,18.0480922
2160,18.03975856
2161,17.87017828
2162,18.10924786
2163,18.04412759
2164,17.96147652
2165,17.99147578
2166,17.94090721
2167,18.01212957
2168,17.93947808
2169,18.01022432
2170,17.97293582
2171,18.08014836
2172,17.99920379
2173,17.98108792
2174,17.93969336
2175,18.07178653
2176,17.98510551
2177,18.10056461
2178,17.96152406
2179,17.97148894
2180,18.03152321
2181,18.00585209
2182,17.98617394
2183,17.97786324
2184,18.0315488
2185,18.04037914
2186,17.98317027
2187,18.07185608
2188,18.05754639
2189,17.9559485
2190,17.95667518
2191,18.00922267
2192,18.07848376
2193,17.93479199
2194,17.96408488
2195,18.00239382
2196,17.92820273
2197,18.13306121
2198,17.96064574
2199,18.08016756
2200,17.89857703
2201,17.98526251
2202,17.97834974
2203,17.87913542
2204,18.07478453
2205,18.06496281
2206,17.90415494
2207,17.91213677
2208,18.01208092
2209,17.93855931
2210,17.98686635
2211,17.93308644
2212,17.93501753
2213,18.01872931
2214,17.93549704
2215,18.05790381
2216,18.00068434
2217,17.95841082
2218,17.99421911
2219,18.17686868
2220,18.01788907
2221,17.96682592
2222,18.05894939
2223,17.97338381
2224,18.10396057
2225,18.0952886
2226,17.99485376
2227,18.08227737
2228,17.92755566
2229,17.9623527
2230,18.03034627
2231,17.98151931
2232,18.07264815
2233,18.00427972
2234,18.01912226
2235,18.02438302
2236,18.08838848
2237,18.02284672
2238,18.00663286
2239,17.92264822
2240,17.91549212
2241,17.94709305
2242,17.96613976
2243,18.01804847
2244,18.04313525
2245,17.93158932
2246,17.90606338
2247,18.06678552
2248,18.05782979
2249,17.96509894
2250,18.05667892
2251,17.97866846
2252,17.883451
2253,18.02835836
2254,18.00927926
2255,17.95507703
2256,17.98525827
2257,17.96741307
2258,17.97761423
2259,18.03579218
2260,18.09320999
2261,18.00403401
2262,18.03551378
2263,17.98542525
2264,18.02108475
2265,17.97792871
2266,18.08902153
2267,18.0348093
2268,18.03192046
2269,18.07287359
2270,17.99979588
2271,17.94151552
2272,17.98896233
2273,18.0973335
2274,18.02243363
2275,18.00530516
2276,17.88246452
2277,17.93378522
2278,18.00530406
2279,17.96819802
2280,17.93623036
2281,18.06780426
2282,18.03617981
2283,17.90218912
2284,18.01023614
2285,17.93500155
2286,17.96143328
2287,17.9463628
2288,17.98402482
2289,18.00847245
2290,17.9753789
2291,18.02131021
2292,17.9718597
2293,18.01613401
2294,17.94360322
2295,18.08221802
2296,17.96415251
2297,17.99451428
2298,18.00876496
2299,17.92082634
2300,18.0625016
2301,18.00841933
2302,17.99344245
2303,18.03754743
2304,18.00461105
2305,17.92244612
2306,17.94105517
2307,18.02520571
2308,17.90873365
2309,18.08744608
2310,17.96002046
2311,18.11881742
2312,18.01445054
2313,18.07926894
2314,18.02133043
2315,17.99598809
2316,17.88377548
2317,18.01271533
2318,17.96678266
2319,18.03676658
2320,18.08352963
2321,18.06220723
2322,17.97133942
2323,17.91264281
2324,18.06750049
2325,18.01107586
2326,18.06365423
2327,17.93568794
2328,18.02334115
2329,17.92068018
2330,18.05400382
2331,17.96729497
2332,18.12850048
2333,18.10344135
2334,18.04410058
2335,17.89775115
2336,18.10844585
2337,17.96954698
2338,17.97410761
2339,17.89239291
2340,17.95013405
2341,17.91724015
2342,17.95021488
2343,17.99934291
2344,17.96627158
2345,17.99557012
2346,17.89886986
2347,17.99428713
2348,17.98674268
2349,18.0842143
2350,17.94969628
2351,18.02775396
2352,18.07318237
2353,18.03520421
2354,17.9918644
2355,17.88783823
2356,18.01999628
2357,17.9704098
2358,17.95644701
2359,17.92081134
2360,18.13984982
2361,18.03576939
2362,17.95841421
2363,18.01171485
2364,17.85996469
2365,18.02599062
2366,18.03506817
2367,17.98683463
2368,18.05267059
2369,18.10329182
2370,17.99042114
2371,18.05072528
2372,18.03614284
2373,18.09194092
2374,17.9698692
2375,18.00386519
2376,17.94592551
2377,18.06397468
2378,17.92297897
2379,18.0682617
2380,18.12398879
2381,17.9055611
2382,18.09943441
2383,18.0765182
2384,18.04276827
2385,18.07627437
2386,18.10010487
2387,17.99814916
2388,17.95028162
2389,17.92074216
2390,18.01452472
2391,18.04768888
2392,18.09041178
2393,18.1585246
2394,18.0281235
2395,18.09647392
2396,18.03034226
2397,18.12629503
2398,18.035896
2399,17.94699128
2400,18.06409297
2401,17.96835428
2402,17.97870035
2403,18.0703311
2404,18.17233544
2405,17.98180353
2406,18.01467574
2407,18.02377038
2408,17.91832995
2409,18.02444824
2410,18.00328159
2411,17.97130104
2412,18.02155073
2413,17.90478546
2414,17.95333047
2415,18.14344136
2416,17.90442244
2417,18.03535614
2418,18.00460943
2419,18.04249433
2420,18.02667078
2421,18.03044404
2422,17.96560515
2423,18.05078336
2424,17.94011553
2425,18.09540702
2426,18.02949118
2427,18.01762996
2428,17.94317957
2429,18.07461475
2430,17.96657405
2431,18.00913866
2432,18.01200599
2433,17.94322284
2434,18.02406888
2435,18.03996319
2436,18.03062572
2437,18.08125931
2438,18.06636969
2439,17.91753878
2440,18.02578357
2441,17.99887771
2442,18.12863478
2443,18.02915102
2444,18.1030549
2445,17.99972927
2446,17.99770309
2447,17.8603559
2448,18.02705408
2449,17.95890795
2450,18.04761021
2451,17.86174784
2452,17.90029985
2453,17.99410202
2454,17.88419607
2455,17.95945205
2456,17.9478404
2457,18.00663703
2458,17.94876496
2459,18.04583285
2460,18.06635908
2461,17.86623214
2462,18.0734619
2463,17.9980431
2464,17.99751113
2465,17.93294071
2466,18.00915624
2467,18.02731286
2468,18.04008247
2469,17.86545821
2470,17.9534008
2471,18.01043187
2472,17.87440311
2473,18.06036048
2474,17.89632312
2475,17.93874552
2476,17.97144849
2477,17.93252203
2478,18.00716865
2479,17.87127989
2480,18.05793125
2481,18.12934665
2482,17.88359453
2483,18.06111106
2484,18.03522385
2485,18.00975457
2486,17.9483459
2487,17.94200578
2488,17.93541757
2489,18.04288856
2490,17.93469743
2491,18.00281359
2492,17.9771348
2493,17.97433548
2494,18.02954828
2495,18.05531567
2496,18.02675144
2497,17.98119408
2498,17.97698142
2499,18.07400847
2500,17.99600767
2501,17.91725024
2502,17.9372066
2503,17.92130523
2504,18.10296984
2505,18.00952601
2506,18.0369171
2507,17.96902007
2508,17.98807445
2509,18.09461003
2510,18.11007764
2511,17.99414976
2512,17.92524411
2513,18.00655371
2514,18.0122438
2515,18.07682038
2516,17.9472215
2517,17.94793022
2518,17.96493333
2519,18.00475347
2520,17.95514856
2521,18.0462593
2522,18.04162716
2523,17.84053858
2524,17.98610586
2525,18.00090657
2526,17.93888519
2527,18.00914503
2528,17.9146518
2529,17.93926926
2530,18.00262448
2531,18.04735855
2532,17.9913114
2533,18.00885115
2534,17.96790195
2535,17.98219791
2536,17.93429042
2537,17.99128041
2538,17.97700028
2539,17.96489177
2540,17.92760322
2541,18.01425329
2542,18.05855401
2543,17.88718151
2544,17.97024615
2545,18.04778708
2546,18.10314178
2547,18.00619047
2548,17.90646761
2549,18.03620026
2550,17.99983155
2551,17.98062989
2552,17.95796947
2553,17.97243398
2554,17.95536744
2555,17.97021208
2556,18.06316977
2557,17.93574333
2558,17.9156973
2559,17.99512514
2560,18.16201962
2561,18.07263671
2562,17.94622885
2563,17.96797607
2564,18.06786363
2565,17.97412869
2566,17.98511653
2567,17.97672836
2568,17.96626473
2569,17.98889961
2570,17.93013252
2571,17.99434336
2572,18.049474
2573,18.00147391
2574,17.96092222
2575,17.94533797
2576,17.941145
2577,17.92494097
2578,17.91632093
2579,18.01461875
2580,18.03276454
2581,18.01640072
2582,18.05890232
2583,17.96653851
2584,17.99681399
2585,17.93247639
2586,18.04380875
2587,18.02996638
2588,17.98866718
2589,17.96243741
2590,17.96535128
2591,18.01098375
2592,18.05370709
2593,17.92196034
2594,17.95888687
2595,17.95337381
2596,18.08262748
2597,18.10348135
2598,18.00873916
2599,18.05457686
2600,17.88625916
2601,17.97513093
2602,17.93120027
2603,18.07277282
2604,18.05341088
2605,18.01078031
2606,18.05700512
2607,18.07264808
2608,17.94382637
2609,18.01929016
2610,17.99542714
2611,18.09161205
2612,18.00675518
2613,18.03980207
2614,18.08050173
2615,17.98117253
2616,18.15305206
2617,17.97447537
2618,18.12745579
2619,17.99713371
2620,17.99491343
2621,18.0059078
2622,17.94132072
2623,17.99234926
2624,17.99124007
2625,18.01967616
2626,18.00221755
2627,17.90093005
2628,18.03746507
2629,18.0769066
2630,17.93489309
2631,18.01652931
2632,17.97707791
2633,17.94237413
2634,17.98406657
2635,17.99872189
2636,17.95728851
2637,18.14066674
2638,18.06820437
2639,18.08792452
2640,18.0400869
2641,18.06540052
2642,18.03679116
2643,18.08470175
2644,18.02303553
2645,17.98393829
2646,17.93570642
2647,18.04660206
2648,17.98354549
2649,18.05436981
2650,18.01314413
2651,18.07268909
2652,18.05677554
2653,17.92704724
2654,17.92776883
2655,17.89422343
2656,17.87935736
2657,18.01016781
2658,18.02201589
2659,18.06659254
2660,18.01583391
2661,17.96061242
2662,18.07118774
2663,18.14932532
2664,18.04301379
2665,18.06115952
2666,17.97587593
2667,18.06094188
2668,18.06299309
2669,18.05348845
2670,18.08724378
2671,17.93997588
2672,17.97758351
2673,18.06647998
2674,18.07227738
2675,17.97751148
2676,17.88275933
2677,17.93593329
2678,18.05408853
2679,17.9465144
2680,18.10216975
2681,17.94303393
2682,18.00799158
2683,17.93791881
2684,18.00866039
2685,18.11097035
2686,17.90487974
2687,17.9950879
2688,17.9530955
2689,18.0500318
2690,18.00626068
2691,18.10556744
2692,17.99363646
2693,17.92853237
2694,17.99920302
2695,17.87695432
2696,17.97201424
2697,17.98008693
2698,18.12134787
2699,17.95289979
2700,18.01752304
2701,18.03839871
2702,17.94575096
2703,17.96965165
2704,17.91143249
2705,17.95857908
2706,17.92626238
2707,17.91312385
2708,18.02113464
2709,17.92613048
2710,18.12803607
2711,17.93478452
2712,17.95755111
2713,18.07449097
2714,18.02055155
2715,18.02515116
2716,17.98165031
2717,17.95391057
2718,17.96165352
2719,17.97272984
2720,17.99336297
2721,17.87213419
2722,18.02804369
2723,18.03182034
2724,17.88511616
2725,18.01192634
2726,18.0682402
2727,17.94504883
2728,18.00782453
2729,17.91359533
2730,17.86050358
2731,17.96499834
2732,17.96857852
2733,17.99878548
2734,17.98741527
2735,17.92591001
2736,18.07329537
2737,17.94999391
2738,17.92728723
2739,18.1122012
2740,17.88530345
2741,18.0334877
2742,18.02628787
2743,18.02887751
2744,18.00218809
2745,17.964253
2746,17.90992079
2747,17.97072384
2748,18.07380944
2749,18.0553842
2750,17.98883119
2751,18.10322818
2752,17.9264769
2753,17.9730645
2754,17.99647258
2755,17.96198142
2756,17.95727551
2757,17.99424228
2758,18.01356748
2759,17.96279642
2760,18.02129422
2761,17.96964879
2762,18.00059571
2763,18.00256199
2764,18.02203339
2765,17.93950989
2766,18.07236019
2767,17.97258811
2768,18.00419235
2769,17.94822473
2770,17.97019317
2771,18.02301836
2772,17.99700729
2773,18.00553227
2774,17.98586212
2775,17.92937443
2776,18.01829545
2777,17.96042323
2778,17.97001562
2779,17.98590809
2780,17.92517193
2781,18.05330564
2782,18.00243766
2783,17.92817808
2784,18.01403747
2785,18.02533817
2786,17.87156392
2787,17.98485704
2788,17.98782941
2789,18.07583256
2790,17.90973562
2791,18.03839404
2792,17.97955591
2793,17.92554348
2794,17.96183382
2795,17.99610452
2796,17.99476553
2797,18.02599075
2798,17.96341422
2799,18.04254126
2800,17.99422913
2801,18.02216253
2802,17.94699646
2803,18.11015201
2804,17.99028196
2805,17.98209935
2806,18.00757346
2807,17.97854561
2808,17.94737448
2809,17.99341837
2810,18.07339545
2811,17.95113501
2812,17.9447899
2813,18.02089272
2814,18.00060757
2815,17.96250308
2816,17.97359765
2817,17.96988337
2818,17.93572315
2819,18.03758624
2820,18.02712529
2821,17.96169741
2822,18.09692123
2823,17.98845833
2824,17.91458531
2825,17.98037291
2826,18.07007824
2827,18.04196907
2828,17.98465265
2829,18.09306368
2830,18.03806596
2831,18.00199165
2832,18.0217724
2833,17.90701481
2834,18.01591156
2835,18.02243306
2836,18.05087723
2837,18.11545209
2838,18.07367049
2839,17.93201708
2840,18.03051393
2841,18.07816884
2842,18.01017056
2843,18.11772141
2844,17.95279692
2845,18.07887216
2846,17.96586013
2847,18.07483367
2848,17.91958495
2849,17.97102677
2850,18.05186561
2851,18.00495296
2852,17.96876524
2853,18.11263079
2854,17.99130156
2855,17.88474825
2856,17.97550957
2857,17.95346362
2858,18.00462944
2859,18.03959017
2860,18.05613874
2861,18.01787107
2862,18.00237606
2863,17.98518006
2864,17.93210356
2865,17.97250733
2866,17.9860081
2867,18.06330757
2868,17.97295066
2869,17.99616086
2870,18.0309049
2871,17.90532367
2872,17.83222187
2873,18.07678881
2874,17.90906536
2875,18.01490019
2876,18.05159096
2877,18.0018495
2878,18.11185118
2879,17.96470747
2880,17.97906042
2881,17.93357692
2882,18.08351259
2883,17.99997149
2884,17.92087432
2885,17.9415408
2886,17.90352416
2887,17.95863627
2888,17.99424532
2889,17.92417266
2890,18.01533447
2891,17.96995194
2892,17.9479825
2893,17.96649115
2894,17.97400303
2895,18.08368195
2896,17.9235784
2897,18.07608245
2898,17.95877152
2899,18.08844154
2900,17.90027922
2901,17.96315276
2902,18.08577829
2903,18.13587361
2904,17.95827474
2905,18.08575609
2906,17.94512906
2907,18.01061987
2908,18.00374039
2909,18.06815414
2910,18.07343348
2911,17.96402282
2912,17.98995867
2913,17.99016362
2914,17.94217352
2915,18.02374599
2916,17.9336116
2917,17.94009887
2918,18.01017068
2919,18.10471274
2920,18.04805984
2921,18.06170968
2922,18.02113555
2923,18.04459315
2924,18.10465598
2925,17.96724995
2926,18.09304663
2927,18.11738233
2928,18.02135578
2929,18.01673536
2930,17.91144197
2931,17.97975497
2932,18.12510219
2933,18.08952029
2934,18.02973296
2935,17.9139418
2936,18.02453452
2937,18.00716484
2938,17.96153646
2939,18.10018765
2940,18.06589556
2941,18.02377461
2942,18.00496972
2943,17.90301165
2944,17.9777959
2945,17.96172192
2946,17.94438996
2947,17.95517743
2948,18.07126472
2949,18.00387519
2950,18.08262857
2951,18.09751258
2952,17.97663624
2953,17.91225409
2954,17.89046728
2955,18.06304828
2956,17.96547623
2957,17.97588237
2958,17.98050409
2959,17.87276258
2960,18.09712691
2961,17.97885377
2962,17.93273741
2963,18.09395473
2964,18.16993147
2965,18.05622729
2966,17.98348771
2967,17.96498733
2968,18.02067481
2969,17.94839441
2970,18.00923376
2971,18.04945194
2972,18.03534745
2973,18.09210752
2974,17.98893361
2975,18.07594556
2976,17.87571709
2977,17.99810822
2978,17.99794034
2979,17.9709012
2980,17.94128869
2981,17.98469766
2982,17.96298612
2983,17.85744486
2984,17.97988783
2985,18.01367767
2986,17.96997628
2987,18.09487471
2988,17.84552021
2989,17.87447975
2990,18.00497384
2991,18.06748973
2992,18.06859962
2993,17.97629517
2994,17.89360251
2995,17.99145445
2996,18.04575533
2997,18.0102208
2998,18.10049688
2999,18.00991661
3000,17.99977916
3001,17.98041669
3002,17.94247277
3003,17.96425543
3004,17.93820707
3005,17.98135974
3006,18.03296217
3007,18.02704546
3008,18.01815006
3009,18.06159164
3010,17.99457781
3011,17.97715748
3012,17.97337228
3013,18.05538357
3014,18.04504993
3015,18.05114089
3016,18.01764992
3017,18.05427221
3018,18.09923923
3019,17.98839357
3020,17.95062248
3021,17.97982598
3022,18.055788
3023,17.99619781
3024,18.04374486
3025,17.91302515
3026,17.93365008
3027,18.00774796
3028,18.04780503
3029,17.93629754
3030,17.92695889
3031,18.07131069
3032,17.95813542
3033,17.9331467
3034,17.87385115
3035,17.99147835
3036,18.0565774
3037,17.96331997
3038,18.03424209
3039,18.06362509
3040,18.06952477
3041,17.96621236
3042,18.00222046
3043,17.98078668
3044,17.95809869
3045,17.94601081
3046,18.02689377
3047,17.981127
3048,17.96824992
3049,18.08869194
3050,17.99634198
3051,17.93133323
3052,17.98943207
3053,18.00980021
3054,18.02785608
3055,17.96836946
3056,18.00949115
3057,18.04308004
3058,18.02053116
3059,18.04922286
3060,17.97203501
3061,18.05030782
3062,17.92522865
3063,18.09401947
3064,18.01992351
3065,18.04313908
3066,17.91293033
3067,18.01576904
3068,17.97275962
3069,17.93064373
3070,17.93566965
3071,18.02370689
3072,17.94961992
3073,17.88802179
3074,18.01870118
3075,18.00790688
3076,17.96299647
3077,17.98382411
3078,17.92506763
3079,17.94402575
3080,17.95862292
3081,17.91781302
3082,18.0544326
3083,17.97155787
3084,17.98198994
3085,18.09993879
3086,17.89416513
3087,17.97493814
3088,18.04676878
3089,18.01664586
3090,18.02407805
3091,18.04599359
3092,17.8601087
3093,18.01090587
3094,18.14021709
3095,17.96564273
3096,17.97996472
3097,18.01730723
3098,18.01780139
3099,18.01655513
3100,17.97975235
3101,18.11572203
3102,18.01442519
3103,17.98951019
3104,18.01655852
3105,18.09311633
3106,18.06156685
3107,17.9021677
3108,17.95353464
3109,18.00121846
3110,17.91335562
3111,17.98256922
3112,17.96761666
3113,18.08211717
3114,17.96269084
3115,17.90770356
3116,17.86633793
3117,17.93415981
3118,18.11950446
3119,18.03870065
3120,17.99303398
3121,17.92933581
3122,17.94738599
3123,17.9248253
3124,17.96752138
3125,17.9841022
3126,17.92825115
3127,18.02737933
3128,18.10588289
3129,18.0667613
3130,18.02361425
3131,18.08865187
3132,17.96842884
3133,17.97526507
3134,17.9821579
3135,17.97616342
3136,18.0210906
3137,18.01639829
3138,17.9996066
3139,17.98154642
3140,18.00202756
3141,17.93105824
3142,18.06094908
3143,18.08765584
3144,18.02043378
3145,17.88475148
3146,18.00108298
3147,18.00861032
3148,17.99628537
3149,18.04010378
3150,17.97735016
3151,18.03764524
3152,17.93871077
3153,17.98880375
3154,17.99163372
3155,17.99675363
3156,18.04086001
3157,17.97954754
3158,18.03000848
3159,17.97561188
3160,18.05054569
3161,17.93127783
3162,18.00431458
3163,18.04353044
3164,18.06848799
3165,18.0391412
3166,17.92802405
3167,17.9963049
3168,18.05096898
3169,18.01411892
3170,17.99905397
3171,18.01783619
3172,17.91217751
3173,18.05439965
3174,18.02862853
3175,17.99448009
3176,17.97766092
3177,18.05351248
3178,17.99722198
3179,17.9954993
3180,18.01152042
3181,18.02655447
3182,17.96967059
3183,18.00343894
3184,18.02452952
3185,18.09332798
3186,18.0439729
3187,18.02774995
3188,17.96015678
3189,17.97375097
3190,17.99103941
3191,18.0015293
3192,18.10485604
3193,17.95906915
3194,17.97600677
3195,17.96924329
3196,17.93270352
3197,17.93912538
3198,17.99446342
3199,18.07781025
3200,17.9551545
3201,17.96016779
3202,18.05370638
3203,17.97702897
3204,18.07347465
3205,17.90849276
3206,18.05930501
3207,17.99598883
3208,18.01666453
3209,18.01674899
3210,18.07721029
3211,18.08912841
3212,18.04693605
3213,18.02809807
3214,17.9278233
3215,18.01566803
3216,17.95692321
3217,17.9622731
3218,18.02027061
3219,17.99530752
3220,18.00319146
3221,17.98625164
3222,18.00900159
3223,18.10557244
3224,18.00595057
3225,18.00718432
3226,17.87570706
3227,17.96001785
3228,18.10800751
3229,17.93577608
3230,17.91642151
3231,17.96233733
3232,18.00348707
3233,17.99934996
3234,17.98290871
3235,18.02512338
3236,17.87873611
3237,18.04245225
3238,18.08476122
3239,17.95887624
3240,17.98531705
3241,17.89799718
3242,17.96156714
3243,18.00368085
3244,17.89770113
3245,18.01952013
3246,17.9328379
3247,18.01174801
3248,17.94589821
3249,17.95826462
3250,17.98410453
3251,17.97955243
3252,18.00393829
3253,17.94234655
3254,18.00854933
3255,18.05493955
3256,17.92702985
3257,18.10962937
3258,17.87223646
3259,18.00070774
3260,18.05289916
3261,18.0259308
3262,18.03722757
3263,18.04222527
3264,17.99429121
3265,17.98609997
3266,18.02654165
3267,18.00770581
3268,17.95724591
3269,18.0119631
3270,18.04035643
3271,17.81201868
3272,18.07501719
3273,18.00510113
3274,17.96895198
3275,18.0219751
3276,17.94243289
3277,18.03684708
3278,17.99043157
3279,18.08078024
3280,18.00311891
3281,17.85279235
3282,17.91516588
3283,18.08581506
3284,18.00812815
3285,17.84088471
3286,18.08054465
3287,17.98230554
3288,17.94763496
3289,18.00118562
3290,17.95920151
3291,18.0825106
3292,17.98228692
3293,18.00947726
3294,17.89543215
3295,17.90835257
3296,17.99762701
3297,17.97697191
3298,17.9764538
3299,18.08649338
3300,17.94433639
3301,18.10869708
3302,18.01995942
3303,18.0696652
3304,17.9761198
3305,17.94084559
3306,17.94820846
3307,17.94645999
3308,18.09201469
3309,18.09169125
3310,17.9591975
3311,17.93632829
3312,18.01157718
3313,17.98854732
3314,17.92411525
3315,17.95388596
3316,18.03165811
3317,18.16843816
3318,17.96397679
3319,17.97627971
3320,17.95763966
3321,18.0444694
3322,17.97172191
3323,18.02447074
3324,17.97873243
3325,18.06280089
3326,17.9625648
3327,17.98536858
3328,17.95839334
3329,17.99327208
3330,17.99455858
3331,17.98784305
3332,17.97976617
3333,17.864721
3334,18.02338342
3335,18.06187852
3336,18.05727392
3337,18.02523266
3338,18.02610876
3339,18.01521415
3340,17.96720589
3341,18.04437907
3342,18.04258339
3343,17.89591934
3344,17.98232232
3345,18.07242295
3346,18.01761182
3347,18.00705164
3348,17.95089245
3349,18.09561756
3350,17.99070536
3351,18.06626984
3352,18.02026021
3353,18.07104992
3354,18.04376756
3355,18.00959162
3356,17.92418388
3357,18.0025045
3358,17.99211712
3359,17.90323607
3360,17.99693147
3361,17.97589809
3362,17.91429121
3363,18.04878534
3364,18.03212159
3365,18.0657342
3366,18.06944331
3367,17.94710403
3368,17.89386076
3369,18.07801103
3370,18.07890809
3371,18.06605081
3372,18.07838745
3373,18.04726345
3374,17.93047813
3375,18.11200706
3376,18.01811394
3377,17.91969405
3378,18.0062794
3379,18.0135248
3380,18.06208678
3381,17.93181842
3382,17.93947829
3383,17.91379643
3384,17.98508518
3385,18.0091546
3386,18.0274872
3387,18.05799534
3388,17.98681126
3389,18.05212621
3390,17.94992072
3391,18.01754931
3392,18.02459081
3393,17.99997916
3394,18.02403545
3395,18.03245061
3396,17.94337974
3397,17.91981779
3398,17.99156468
3399,18.01553587
3400,18.01433456
3401,18.05035756
3402,18.07079253
3403,18.0088932
3404,17.95722851
3405,18.01591202
3406,17.96120557
3407,18.04894521
3408,18.01265252
3409,17.91511632
3410,17.97306193
3411,17.90729793
3412,18.0397027
3413,18.01618297
3414,18.09971382
3415,17.79153181
3416,18.03511905
3417,17.96018421
3418,17.96777913
3419,17.9623194
3420,18.01071504
3421,18.08440996
3422,18.137522
3423,17.9179024
3424,17.91518125
3425,18.08688599
3426,18.09430955
3427,17.88686769
3428,17.99259113
3429,17.9941475
3430,17.99461512
3431,17.96121985
3432,18.08806098
3433,18.04328464
3434,18.04756993
3435,18.03096886
3436,17.95464588
3437,18.00923908
3438,18.06101631
3439,17.98210516
3440,18.04429303
3441,18.04420519
3442,17.95827017
3443,17.95397241
3444,17.99208634
3445,17.9350169
3446,18.07224625
3447,18.10626396
3448,17.95869635
3449,18.0698025
3450,17.93733702
3451,18.07501457
3452,18.05199442
3453,18.05490037
3454,18.07173633
3455,18.00833497
3456,17.96649973
3457,18.05295663
3458,18.01420176
3459,18.00951885
3460,17.94400054
3461,17.9789504
3462,18.03748002
3463,17.96144616
3464,18.02097839
3465,17.99667979
3466,17.99556492
3467,18.07912002
3468,17.96694443
3469,17.96759935
3470,17.99198373
3471,18.01649877
3472,17.94563508
3473,18.05867032
3474,18.04326367
3475,17.93688297
3476,18.01936656
3477,18.03089319
3478,17.91223102
3479,18.0037572
3480,18.03166153
3481,17.9474132
3482,18.0211591
3483,17.87786152
3484,18.07188841
3485,17.9950119
3486,17.99460251
3487,18.02243158
3488,17.90650615
3489,17.96787126
3490,18.00397696
3491,17.99660932
3492,18.08775055
3493,17.93136566
3494,17.98563067
3495,18.01233082
3496,17.96503163
3497,18.06850931
3498,17.96770543
3499,18.00311042
3500,18.13088822
3501,18.09547045
3502,18.05491168
3503,17.96591715
3504,17.91289251
3505,18.11073304
3506,18.05956226
3507,17.93121684
3508,18.12115228
3509,18.03449224
3510,18.10433778
3511,18.05747603
3512,17.96496592
3513,18.05542112
3514,18.03072929
3515,18.09762347
3516,17.96939162
3517,18.00196186
3518,18.01902354
3519,18.0628988
3520,17.96386503
3521,18.00467208
3522,18.07197258
3523,17.97277134
3524,17.94561038
3525,18.06176447
3526,17.99562673
3527,17.94920383
3528,18.05697782
3529,17.95217286
3530,17.99111943
3531,17.97323742
3532,17.99415754
3533,17.95863937
3534,18.09030109
3535,17.93437304
3536,17.98033688
3537,17.97694352
3538,18.0310944
3539,18.00876491
3540,17.98221514
3541,17.95144575
3542,17.97717572
3543,17.97580246
3544,17.98043398
3545,17.94320101
3546,18.05588984
3547,17.94799451
3548,18.0106298
3549,17.97887159
3550,17.92480303
3551,18.09155331
3552,18.03431753
3553,18.03860399
3554,18.03526508
3555,18.04426991
3556,17.96708614
3557,17.99775424
3558,18.01841054
3559,18.00706934
3560,18.07127333
3561,17.98491783
3562,17.98117156
3563,18.01444685
3564,18.0010359
3565,18.05822949
3566,17.99866591
3567,18.00950487
3568,18.00760973
3569,18.02283092
3570,17.87665395
3571,17.90475081
3572,18.009666
3573,18.01643121
3574,17.93579441
3575,18.0092306
3576,18.02972308
3577,17.98408267
3578,18.1222398
3579,18.09382105
3580,17.97466004
3581,17.99740002
3582,17.96304415
3583,17.96291723
3584,18.03383628
3585,18.14605868
3586,17.90165776
3587,18.03104111
3588,18.03838287
3589,18.00649665
3590,18.03786693
3591,17.97538466
3592,17.96785552
3593,17.87454414
3594,18.0328567
3595,18.03722071
3596,18.0034862
3597,17.95029872
3598,18.04340082
3599,18.03065595
3600,17.98688533
3601,18.02866325
3602,17.996199
3603,17.97100637
3604,17.94297708
3605,18.04096611
3606,17.98556359
3607,18.06637404
3608,17.93730238
3609,17.90189357
3610,17.95868377
3611,18.01705571
3612,17.85472989
3613,17.94449111
3614,17.98400379
3615,17.93540427
3616,17.94470416
3617,17.98078447
3618,17.91311884
3619,17.97209415
3620,18.0138366
3621,17.95271773
3622,17.97071746
3623,17.99395208
3624,17.98940864
3625,18.01022708
3626,17.98820448
3627,18.02811916
3628,17.98756644
3629,17.97864274
3630,17.89097778
3631,17.95621022
3632,18.025206
3633,17.99951032
3634,18.00499446
3635,18.03769956
3636,17.91830658
3637,17.92922628
3638,17.99277201
3639,17.97119776
3640,17.92789775
3641,17.87569123
3642,18.03498391
3643,18.05485622
3644,18.00202523
3645,17.93757072
3646,18.05354808
3647,17.9543202
3648,17.97017085
3649,18.10453359
3650,17.99342346
3651,18.02816076
3652,17.94521943
3653,17.89226815
3654,18.02801704
3655,17.85805468
3656,18.03718642
3657,17.93800901
3658,17.96411313
3659,17.95125572
3660,17.92732975
3661,18.03655832
3662,18.04459852
3663,18.04410294
3664,17.90885651
3665,17.99793995
3666,18.01499797
3667,18.01261545
3668,17.97132294
3669,18.02042084
3670,18.06993349
3671,18.05908247
3672,18.00122574
3673,18.04752437
3674,18.02926799
3675,17.96196409
3676,17.95434416
3677,18.03858918
3678,18.0727815
3679,18.03919118
3680,17.97415895
3681,17.91004945
3682,18.07080501
3683,17.98519161
3684,18.04056812
3685,18.00177856
3686,18.11314259
3687,17.97561745
3688,17.94011664
3689,18.03011431
3690,18.05335585
3691,17.93706314
3692,18.01668988
3693,17.94228462
3694,18.04336299
3695,17.9448149
3696,18.01312511
3697,18.00747902
3698,17.99739485
3699,17.99700742
3700,17.86440462
3701,18.06709197
3702,17.89307727
3703,17.89474972
3704,18.03679906
3705,18.00757679
3706,17.88926275
3707,17.94568244
3708,18.0054867
3709,17.99368985
3710,18.02273395
3711,18.06123361
3712,17.8873923
3713,17.95921482
3714,17.94470698
3715,18.04590943
3716,17.87761284
3717,18.0118144
3718,18.02220828
3719,18.04073321
3720,17.95489305
3721,18.01223878
3722,18.06581235
3723,18.05294978
3724,18.00928418
3725,17.98480378
3726,17.98399097
3727,17.98399349
3728,18.03536459
3729,17.95113295
3730,17.98895234
3731,18.09848223
3732,18.02204041
3733,17.94553649
3734,17.96607183
3735,17.87686409
3736,18.02684055
3737,18.04035283
3738,17.97557606
3739,18.04276802
3740,17.97866228
3741,18.07594978
3742,17.9879017
3743,18.0608341
3744,17.93460858
3745,17.93852954
3746,18.01141053
3747,18.06660423
3748,18.0528988
3749,17.9681226
3750,17.94732602
3751,18.08164582
3752,18.11205634
3753,17.97928192
3754,18.10202381
3755,18.06482401
3756,17.91855476
3757,18.03614612
3758,18.06155179
3759,18.08951665
3760,18.10661869
3761,18.04398307
3762,17.97489011
3763,18.03663633
3764,17.97039943
3765,18.04387104
3766,17.9632468
3767,17.90669465
3768,17.94940814
3769,17.98958921
3770,17.85602223
3771,17.93519915
3772,17.94574788
3773,18.06820345
3774,17.99651289
3775,18.04509567
3776,17.88983138
3777,17.95468606
3778,18.09093952
3779,18.02596934
3780,17.92428845
3781,17.99585191
3782,18.04620822
3783,18.01567423
3784,17.99575429
3785,18.09937301
3786,18.01274916
3787,18.06436668
3788,17.96317438
3789,18.00926012
3790,17.96644664
3791,18.02861731
3792,17.92418508
3793,18.0050836
3794,18.06370845
3795,18.07089288
3796,18.00838665
3797,18.01307609
3798,17.9862189
3799,18.0402453
3800,17.93477582
3801,17.85960708
3802,17.92011625
3803,18.09739145
3804,18.02779624
3805,17.92672147
3806,18.09570218
3807,17.88713509
3808,18.04181566
3809,17.9719953
3810,18.12839894
3811,17.97954986
3812,18.0000709
3813,18.08267905
3814,18.04690626
3815,17.92616006
3816,17.97667981
3817,17.95809125
3818,18.07464622
3819,18.0254138
3820,18.06349817
3821,18.004272
3822,17.95510458
3823,17.99772971
3824,17.96037295
3825,17.95002109
3826,18.01666956
3827,17.8890058
3828,17.95804853
3829,18.07081834
3830,18.00315119
3831,17.98250659
3832,18.10088413
3833,17.9825713
3834,17.99303504
3835,18.01122254
3836,17.93737067
3837,17.93321027
3838,17.9783326
3839,18.03648175
3840,17.97663424
3841,18.13991383
3842,18.0607684
3843,17.93656101
3844,18.06750596
3845,17.94671932
3846,17.9325004
3847,17.92927233
3848,18.02249194
3849,18.01793527
3850,17.86112029
3851,17.92621604
3852,17.94363078
3853,17.98310612
3854,18.01762559
3855,17.87662514
3856,17.99401858
3857,18.13511657
3858,17.94975569
3859,17.92256118
3860,18.02122228
3861,17.90155841
3862,17.99115666
3863,17.95364416
3864,18.12777292
3865,18.06255147
3866,18.10094234
3867,17.98731473
3868,17.93570443
3869,17.99777928
3870,18.09398814
3871,17.95670639
3872,18.09443845
3873,18.02655179
3874,18.02185485
3875,18.01024937
3876,17.9716262
3877,18.05594339
3878,18.05175806
3879,17.99981862
3880,17.95989203
3881,17.98648359
3882,17.86868558
3883,17.93763938
3884,18.03842848
3885,17.92264029
3886,18.12380687
3887,17.95382844
3888,17.95198768
3889,18.03448247
3890,18.01420199
3891,18.01643137
3892,17.99084841
3893,18.03336694
3894,17.95591996
3895,18.00820792
3896,18.05576226
3897,17.90737213
3898,17.95038099
3899,18.01326922
3900,17.91239014
3901,17.98642044
3902,17.96792156
3903,17.90946722
3904,17.96442887
3905,17.89149405
3906,17.99901901
3907,17.92947784
3908,17.94868705
3909,18.01162474
3910,18.02783802
3911,17.99215513
3912,18.04061761
3913,17.97322565
3914,18.06334634
3915,17.99773125
3916,17.99090777
3917,18.01529277
3918,18.02981095
3919,17.91783744
3920,18.00530729
3921,17.98487642
3922,18.07990431
3923,17.97600128
3924,17.92798812
3925,17.98965695
3926,18.00453158
3927,18.01292588
3928,18.04433638
3929,18.05966874
3930,17.99344519
3931,17.95363347
3932,17.99644993
3933,18.03477855
3934,18.09950715
3935,17.96939718
3936,18.0522543
3937,18.00285097
3938,18.00385995
3939,18.05777482
3940,17.93858541
3941,17.93430431
3942,18.05929429
3943,18.07001089
3944,17.95817944
3945,18.00233103
3946,18.00851726
3947,18.08171137
3948,18.15039801
3949,17.99762945
3950,18.02653374
3951,18.04749595
3952,18.06523888
3953,17.99598663
3954,18.10462745
3955,17.9000154
3956,18.05375493
3957,18.07006293
3958,18.00491532
3959,17.96517133
3960,18.07954881
3961,17.9047548
3962,17.81623669
3963,17.88707258
3964,18.02326075
3965,17.9496247
3966,17.99988309
3967,17.87752502
3968,18.00345721
3969,17.98408067
3970,17.97451399
3971,17.96344758
3972,18.03087652
3973,17.94843442
3974,18.13215198
3975,18.11251658
3976,18.0432442
3977,17.98605133
3978,17.91279696
3979,18.03176186
3980,18.04754873
3981,17.99434547
3982,17.98612691
3983,17.99757176
3984,18.02766206
3985,17.95373726
3986,17.99745962
3987,17.94365526
3988,17.84383623
3989,18.00534799
3990,18.01411793
3991,18.02620827
3992,17.98680896
3993,17.99221216
3994,18.02618473
3995,17.99684686
3996,17.9514305
3997,17.98423592
3998,17.95764438
3999,18.0273009
4000,17.99073261
