Raman Shift,Intensity
231.0,2.531
232.0,4.734
233.0,7.368
234.0,10.693
235.0,15.617
236.0,20.572
237.0,24.796
238.0,29.066
239.0,32.894
240.0,36.332
241.0,38.87
242.0,37.23
243.0,35.589
244.0,33.105
245.0,30.555
246.0,27.614
247.0,24.117
248.0,20.307
249.0,16.536
250.0,12.772
251.0,9.631
252.0,6.722
253.0,4.288
254.0,2.652
255.0,1.048
256.0,1.955
257.0,2.861
258.0,2.373
259.0,1.157
260.0,0.075
261.0,0.71
262.0,1.518
263.0,0.759
264.0,0.067
265.0,0.392
266.0,0.378
267.0,0.889
268.0,3.017
269.0,5.155
270.0,6.541
271.0,7.847
272.0,8.701
273.0,9.178
274.0,9.585
275.0,9.661
276.0,9.701
277.0,9.432
278.0,8.831
279.0,8.849
280.0,9.472
281.0,10.674
282.0,14.773
283.0,18.894
284.0,20.252
285.0,21.003
286.0,21.98
287.0,23.203
288.0,23.99
289.0,21.838
290.0,19.706
291.0,17.594
292.0,15.504
293.0,13.068
294.0,10.689
295.0,8.552
296.0,8.284
297.0,7.688
298.0,7.02
299.0,6.36
300.0,5.514
301.0,4.438
302.0,3.415
303.0,2.775
304.0,2.139
305.0,1.838
306.0,1.631
307.0,1.036
308.0,0.032
309.0,0.941
310.0,0.758
311.0,0.613
312.0,0.175
313.0,1.124
314.0,1.863
315.0,2.361
316.0,2.787
317.0,2.83
318.0,2.861
319.0,2.892
320.0,2.916
321.0,3.546
322.0,4.818
323.0,5.75
324.0,5.128
325.0,3.745
326.0,3.443
327.0,3.354
328.0,3.37
329.0,3.256
330.0,3.033
331.0,2.452
332.0,1.867
333.0,1.28
334.0,0.671
335.0,0.542
336.0,0.772
337.0,0.773
338.0,0.153
339.0,0.51
340.0,0.02
341.0,0.632
342.0,0.709
343.0,0.472
344.0,0.369
345.0,0.554
346.0,0.738
347.0,0.492
348.0,0.245
349.0,0.597
350.0,1.19
351.0,1.267
352.0,0.557
353.0,0.014
354.0,0.967
355.0,1.677
356.0,2.312
357.0,2.887
358.0,3.462
359.0,4.027
360.0,4.587
361.0,5.356
362.0,6.087
363.0,6.016
364.0,5.69
365.0,5.125
366.0,4.37
367.0,3.726
368.0,3.396
369.0,3.032
370.0,3.118
371.0,3.226
372.0,2.75
373.0,1.982
374.0,1.211
375.0,0.436
376.0,0.274
377.0,0.197
378.0,0.123
379.0,0.281
380.0,0.778
381.0,1.06
382.0,1.117
383.0,1.173
384.0,1.228
385.0,1.283
386.0,0.941
387.0,0.559
388.0,0.716
389.0,1.208
390.0,1.844
391.0,2.774
392.0,3.422
393.0,2.75
394.0,1.81
395.0,1.662
396.0,1.73
397.0,1.802
398.0,1.879
399.0,1.794
400.0,1.004
401.0,0.221
402.0,0.239
403.0,0.345
404.0,0.733
405.0,1.293
406.0,1.249
407.0,0.07
408.0,0.942
409.0,0.083
410.0,1.122
411.0,1.474
412.0,1.654
413.0,2.297
414.0,3.375
415.0,4.252
416.0,4.48
417.0,4.726
418.0,4.982
419.0,5.249
420.0,5.221
421.0,5.07
422.0,5.302
423.0,6.053
424.0,6.302
425.0,5.75
426.0,5.208
427.0,5.455
428.0,5.814
429.0,5.911
430.0,5.848
431.0,6.013
432.0,6.191
433.0,6.001
434.0,4.199
435.0,2.403
436.0,2.125
437.0,2.102
438.0,1.837
439.0,1.379
440.0,1.063
441.0,1.067
442.0,1.078
443.0,1.091
444.0,1.11
445.0,0.455
446.0,0.421
447.0,0.399
448.0,0.462
449.0,0.977
450.0,0.502
451.0,0.032
452.0,1.327
453.0,2.607
454.0,2.223
455.0,1.284
456.0,0.952
457.0,1.034
458.0,1.003
459.0,0.924
460.0,0.826
461.0,1.598
462.0,2.151
463.0,1.705
464.0,1.127
465.0,0.76
466.0,0.611
467.0,0.495
468.0,0.775
469.0,1.048
470.0,0.426
471.0,0.206
472.0,0.097
473.0,0.125
474.0,0.337
475.0,0.536
476.0,0.6
477.0,0.348
478.0,0.119
479.0,0.765
480.0,1.408
481.0,1.348
482.0,1.086
483.0,1.062
484.0,1.25
485.0,1.163
486.0,0.445
487.0,0.361
488.0,0.11
489.0,0.687
490.0,1.306
491.0,1.936
492.0,2.304
493.0,2.493
494.0,2.521
495.0,2.27
496.0,2.025
497.0,1.786
498.0,1.552
499.0,1.323
500.0,1.099
501.0,1.18
502.0,1.415
503.0,1.768
504.0,2.476
505.0,2.908
506.0,2.285
507.0,1.669
508.0,1.945
509.0,2.244
510.0,2.565
511.0,2.913
512.0,3.291
513.0,3.615
514.0,3.382
515.0,1.918
516.0,0.58
517.0,0.477
518.0,0.381
519.0,0.696
520.0,1.075
521.0,0.873
522.0,0.359
523.0,0.044
524.0,0.012
525.0,0.066
526.0,0.119
527.0,0.173
528.0,0.222
529.0,0.618
530.0,0.663
531.0,0.61
532.0,1.075
533.0,1.989
534.0,2.657
535.0,2.203
536.0,1.761
537.0,1.702
538.0,1.64
539.0,1.997
540.0,2.378
541.0,2.081
542.0,1.511
543.0,1.148
544.0,1.061
545.0,0.978
546.0,0.899
547.0,0.784
548.0,0.245
549.0,0.317
550.0,0.317
551.0,1.075
552.0,1.192
553.0,1.029
554.0,1.086
555.0,1.365
556.0,1.503
557.0,1.315
558.0,1.123
559.0,0.932
560.0,0.856
561.0,0.667
562.0,0.451
563.0,0.544
564.0,0.705
565.0,0.622
566.0,0.784
567.0,0.852
568.0,0.6
569.0,0.398
570.0,0.596
571.0,0.79
572.0,0.562
573.0,0.295
574.0,0.026
575.0,0.246
576.0,0.04
577.0,0.575
578.0,1.01
579.0,1.16
580.0,1.326
581.0,1.507
582.0,1.694
583.0,1.431
584.0,1.159
585.0,1.249
586.0,1.436
587.0,1.643
588.0,1.834
589.0,1.639
590.0,0.912
591.0,0.285
592.0,0.465
593.0,0.698
594.0,1.371
595.0,2.049
596.0,1.117
597.0,0.035
598.0,0.423
599.0,1.573
600.0,1.524
601.0,0.383
602.0,0.12
603.0,0.581
604.0,1.284
605.0,1.991
606.0,2.704
607.0,2.048
608.0,1.472
609.0,1.694
610.0,1.966
611.0,1.632
612.0,0.979
613.0,0.988
614.0,1.719
615.0,2.305
616.0,2.575
617.0,2.713
618.0,2.043
619.0,1.389
620.0,1.198
621.0,1.107
622.0,0.539
623.0,0.117
624.0,0.184
625.0,0.067
626.0,0.539
627.0,1.249
628.0,1.663
629.0,1.446
630.0,1.226
631.0,1.005
632.0,0.783
633.0,0.558
634.0,0.33
635.0,0.101
636.0,0.123
637.0,0.282
638.0,0.982
639.0,1.112
640.0,0.76
641.0,0.52
642.0,0.283
643.0,0.144
644.0,0.368
645.0,0.562
646.0,0.317
647.0,0.071
648.0,0.666
649.0,1.345
650.0,0.967
651.0,0.496
652.0,0.743
653.0,1.414
654.0,1.441
655.0,0.712
656.0,0.417
657.0,1.084
658.0,1.595
659.0,1.325
660.0,1.069
661.0,1.726
662.0,2.382
663.0,1.809
664.0,1.061
665.0,0.312
666.0,0.44
667.0,0.384
668.0,0.234
669.0,0.852
670.0,1.469
671.0,1.942
672.0,2.091
673.0,2.241
674.0,2.391
675.0,2.541
676.0,2.693
677.0,2.852
678.0,3.432
679.0,4.062
680.0,4.695
681.0,5.331
682.0,5.413
683.0,5.361
684.0,5.538
685.0,5.719
686.0,5.563
687.0,4.816
688.0,4.183
689.0,3.915
690.0,3.603
691.0,2.887
692.0,2.32
693.0,2.067
694.0,1.829
695.0,1.196
696.0,0.496
697.0,0.483
698.0,0.742
699.0,0.731
700.0,0.539
701.0,0.577
702.0,0.864
703.0,0.988
704.0,0.811
705.0,0.527
706.0,0.064
707.0,0.462
708.0,0.307
709.0,1.071
710.0,0.898
711.0,0.719
712.0,0.541
713.0,0.362
714.0,0.195
715.0,0.12
716.0,0.269
717.0,0.56
718.0,0.595
719.0,0.404
720.0,0.21
721.0,0.014
722.0,0.054
723.0,0.055
724.0,0.311
725.0,0.564
726.0,0.775
727.0,0.548
728.0,0.317
729.0,0.083
730.0,0.155
731.0,0.007
732.0,0.228
733.0,0.445
734.0,0.658
735.0,0.557
736.0,0.292
737.0,0.233
738.0,0.351
739.0,0.553
740.0,0.759
741.0,0.963
742.0,1.165
743.0,1.365
744.0,1.563
745.0,1.748
746.0,1.838
747.0,1.985
748.0,1.701
749.0,1.419
750.0,1.139
751.0,0.921
752.0,0.638
753.0,0.355
754.0,0.802
755.0,1.478
756.0,1.517
757.0,1.239
758.0,0.957
759.0,0.675
760.0,0.393
761.0,0.138
762.0,0.083
763.0,0.282
764.0,0.336
765.0,0.055
766.0,0.124
767.0,0.068
768.0,0.289
769.0,0.479
770.0,0.648
771.0,0.356
772.0,0.063
773.0,0.686
774.0,1.371
775.0,0.778
776.0,0.001
777.0,0.024
778.0,0.15
779.0,0.664
780.0,1.335
781.0,1.079
782.0,0.222
783.0,0.044
784.0,0.122
785.0,0.515
786.0,1.164
787.0,1.24
788.0,0.439
789.0,0.052
790.0,0.112
791.0,0.275
792.0,0.412
793.0,0.457
794.0,0.14
795.0,0.081
796.0,0.568
797.0,1.205
798.0,1.376
799.0,1.519
800.0,0.768
801.0,0.022
802.0,0.052
803.0,0.237
804.0,0.424
805.0,0.592
806.0,0.418
807.0,0.127
808.0,0.507
809.0,1.191
810.0,1.575
811.0,1.761
812.0,1.697
813.0,1.424
814.0,1.155
815.0,0.888
816.0,0.845
817.0,1.205
818.0,1.428
819.0,1.652
820.0,1.566
821.0,0.821
822.0,0.329
823.0,0.555
824.0,0.881
825.0,1.594
826.0,2.168
827.0,1.955
828.0,1.714
829.0,1.002
830.0,0.282
831.0,0.022
832.0,0.241
833.0,0.447
834.0,1.141
835.0,0.921
836.0,0.647
837.0,0.786
838.0,0.974
839.0,1.16
840.0,1.38
841.0,1.017
842.0,0.333
843.0,0.241
844.0,0.384
845.0,0.862
846.0,1.477
847.0,2.076
848.0,2.537
849.0,1.926
850.0,0.555
851.0,0.299
852.0,0.871
853.0,0.916
854.0,0.496
855.0,0.069
856.0,0.367
857.0,0.156
858.0,0.81
859.0,1.136
860.0,0.626
861.0,0.325
862.0,0.329
863.0,0.33
864.0,0.335
865.0,0.337
866.0,0.332
867.0,0.453
868.0,0.945
869.0,1.194
870.0,0.699
871.0,0.271
872.0,0.032
873.0,0.002
874.0,0.505
875.0,1.018
876.0,1.539
877.0,2.064
878.0,2.595
879.0,3.131
880.0,3.672
881.0,4.179
882.0,4.238
883.0,4.304
884.0,4.376
885.0,4.454
886.0,4.537
887.0,4.623
888.0,4.234
889.0,3.859
890.0,4.073
891.0,4.265
892.0,3.924
893.0,3.569
894.0,2.746
895.0,1.903
896.0,1.991
897.0,2.146
898.0,1.897
899.0,1.561
900.0,1.676
901.0,1.841
902.0,1.122
903.0,0.31
904.0,0.084
905.0,0.235
906.0,0.14
907.0,0.017
908.0,0.171
909.0,0.324
910.0,0.475
911.0,0.623
912.0,0.352
913.0,0.002
914.0,0.466
915.0,1.099
916.0,0.908
917.0,0.538
918.0,0.217
919.0,0.16
920.0,0.263
921.0,0.773
922.0,1.313
923.0,1.906
924.0,1.689
925.0,1.28
926.0,1.275
927.0,1.365
928.0,1.047
929.0,0.583
930.0,0.573
931.0,0.654
932.0,0.325
933.0,0.098
934.0,0.282
935.0,0.693
936.0,0.843
937.0,0.917
938.0,0.993
939.0,1.069
940.0,0.724
941.0,0.298
942.0,0.839
943.0,1.418
944.0,1.137
945.0,0.713
946.0,0.725
947.0,0.81
948.0,0.896
949.0,0.93
950.0,0.569
951.0,0.16
952.0,0.207
953.0,0.302
954.0,0.398
955.0,0.495
956.0,0.123
957.0,0.284
958.0,0.746
959.0,1.845
960.0,1.474
961.0,1.06
962.0,0.838
963.0,0.443
964.0,1.546
965.0,2.581
966.0,1.663
967.0,0.801
968.0,0.893
969.0,0.944
970.0,0.528
971.0,0.217
972.0,0.813
973.0,1.291
974.0,1.885
975.0,2.157
976.0,0.726
977.0,0.323
978.0,0.263
979.0,0.738
980.0,0.816
981.0,0.894
982.0,0.969
983.0,1.043
984.0,1.117
985.0,1.347
986.0,1.927
987.0,1.976
988.0,1.027
989.0,0.661
990.0,1.241
991.0,1.752
992.0,1.882
993.0,1.526
994.0,1.082
995.0,0.636
996.0,0.188
997.0,0.552
998.0,1.632
999.0,1.546
1000.0,0.582
1001.0,0.556
1002.0,1.123
1003.0,1.358
1004.0,1.412
1005.0,0.749
1006.0,0.222
1007.0,0.062
1008.0,0.486
1009.0,0.635
1010.0,0.676
1011.0,1.145
1012.0,1.695
1013.0,1.339
1014.0,0.866
1015.0,0.872
1016.0,0.911
1017.0,0.446
1018.0,0.008
1019.0,0.032
1020.0,0.073
1021.0,0.115
1022.0,0.014
1023.0,0.005
1024.0,0.041
1025.0,0.088
1026.0,0.137
1027.0,0.188
1028.0,0.241
1029.0,0.297
1030.0,0.354
1031.0,0.414
1032.0,0.498
1033.0,0.565
1034.0,0.63
1035.0,0.702
1036.0,0.776
1037.0,0.853
1038.0,0.937
1039.0,1.025
1040.0,1.12
1041.0,1.218
1042.0,0.936
1043.0,0.521
1044.0,0.525
1045.0,0.632
1046.0,0.289
1047.0,0.115
1048.0,0.508
1049.0,1.138
1050.0,0.734
1051.0,0.373
1052.0,0.49
1053.0,0.609
1054.0,0.729
1055.0,0.966
1056.0,1.087
1057.0,1.055
1058.0,0.657
1059.0,0.451
1060.0,0.573
1061.0,0.462
1062.0,0.064
1063.0,0.085
1064.0,0.031
1065.0,0.773
1066.0,1.929
1067.0,1.671
1068.0,0.744
1069.0,0.214
1070.0,0.192
1071.0,0.27
1072.0,0.899
1073.0,1.045
1074.0,1.151
1075.0,1.257
1076.0,1.365
1077.0,1.472
1078.0,1.577
1079.0,1.627
1080.0,1.59
1081.0,1.174
1082.0,1.124
1083.0,1.754
1084.0,1.737
1085.0,0.797
1086.0,0.295
1087.0,0.405
1088.0,0.839
1089.0,1.474
1090.0,0.99
1091.0,0.118
1092.0,0.445
1093.0,1.081
1094.0,1.245
1095.0,1.359
1096.0,1.472
1097.0,1.491
1098.0,0.554
1099.0,0.087
1100.0,0.55
1101.0,0.963
1102.0,0.551
1103.0,0.342
1104.0,0.457
1105.0,0.315
1106.0,0.097
1107.0,0.104
1108.0,0.74
1109.0,0.649
1110.0,0.23
1111.0,0.23
1112.0,0.339
1113.0,0.46
1114.0,0.565
1115.0,0.104
1116.0,0.138
1117.0,1.022
1118.0,1.831
1119.0,1.405
1120.0,0.978
1121.0,0.552
1122.0,0.528
1123.0,1.165
1124.0,1.801
1125.0,2.439
1126.0,1.667
1127.0,0.185
1128.0,0.06
1129.0,0.048
1130.0,0.63
1131.0,1.264
1132.0,0.77
1133.0,0.486
1134.0,1.132
1135.0,1.519
1136.0,1.105
1137.0,0.965
1138.0,1.112
1139.0,1.23
1140.0,1.349
1141.0,1.146
1142.0,0.732
1143.0,0.705
1144.0,0.811
1145.0,1.383
1146.0,2.121
1147.0,1.733
1148.0,1.321
1149.0,0.907
1150.0,0.494
1151.0,0.08
1152.0,0.145
1153.0,0.032
1154.0,0.337
1155.0,0.982
1156.0,0.969
1157.0,0.542
1158.0,0.513
1159.0,0.627
1160.0,0.27
1161.0,0.138
1162.0,1.04
1163.0,1.985
1164.0,1.552
1165.0,1.268
1166.0,1.37
1167.0,1.469
1168.0,1.49
1169.0,1.264
1170.0,0.824
1171.0,1.129
1172.0,1.763
1173.0,1.503
1174.0,1.248
1175.0,0.805
1176.0,0.421
1177.0,0.428
1178.0,0.529
1179.0,0.619
1180.0,0.708
1181.0,0.797
1182.0,0.591
1183.0,0.139
1184.0,0.436
1185.0,1.065
1186.0,1.241
1187.0,1.329
1188.0,0.349
1189.0,0.35
1190.0,0.805
1191.0,1.337
1192.0,0.327
1193.0,0.031
1194.0,0.648
1195.0,0.947
1196.0,1.031
1197.0,1.11
1198.0,1.186
1199.0,1.256
1200.0,1.3
1201.0,0.83
1202.0,0.474
1203.0,0.545
1204.0,0.615
1205.0,0.496
1206.0,0.564
1207.0,0.632
1208.0,0.699
1209.0,0.864
1210.0,0.551
1211.0,0.078
1212.0,0.141
1213.0,0.203
1214.0,0.263
1215.0,0.508
1216.0,1.111
1217.0,1.437
1218.0,1.493
1219.0,1.181
1220.0,0.689
1221.0,0.66
1222.0,0.713
1223.0,0.225
1224.0,0.168
1225.0,0.119
1226.0,0.114
1227.0,0.696
1228.0,0.711
1229.0,0.203
1230.0,0.455
1231.0,1.042
1232.0,1.152
1233.0,1.191
1234.0,1.229
1235.0,1.147
1236.0,0.636
1237.0,0.343
1238.0,0.403
1239.0,0.446
1240.0,0.376
1241.0,0.33
1242.0,0.369
1243.0,0.41
1244.0,0.515
1245.0,1.111
1246.0,1.38
1247.0,0.878
1248.0,0.908
1249.0,1.511
1250.0,1.747
1251.0,1.802
1252.0,0.918
1253.0,0.084
1254.0,0.025
1255.0,0.034
1256.0,0.099
1257.0,0.399
1258.0,1.024
1259.0,0.981
1260.0,0.57
1261.0,0.56
1262.0,0.64
1263.0,0.722
1264.0,0.705
1265.0,0.237
1266.0,0.189
1267.0,0.833
1268.0,0.844
1269.0,0.361
1270.0,0.75
1271.0,1.402
1272.0,0.983
1273.0,0.529
1274.0,0.077
1275.0,0.166
1276.0,0.059
1277.0,0.049
1278.0,0.158
1279.0,0.268
1280.0,0.379
1281.0,1.032
1282.0,1.51
1283.0,1.068
1284.0,0.627
1285.0,0.187
1286.0,0.4
1287.0,1.078
1288.0,0.879
1289.0,0.453
1290.0,0.751
1291.0,0.812
1292.0,0.915
1293.0,0.808
1294.0,0.375
1295.0,0.295
1296.0,0.42
1297.0,1.017
1298.0,1.607
1299.0,0.61
1300.0,0.069
1301.0,0.751
1302.0,0.911
1303.0,0.623
1304.0,0.181
1305.0,0.263
1306.0,0.829
1307.0,1.9
1308.0,2.003
1309.0,2.104
1310.0,2.204
1311.0,2.301
1312.0,2.397
1313.0,2.04
1314.0,1.604
1315.0,2.264
1316.0,2.221
1317.0,0.06
1318.0,0.234
1319.0,1.535
1320.0,2.113
1321.0,2.016
1322.0,1.565
1323.0,1.16
1324.0,1.231
1325.0,1.301
1326.0,1.37
1327.0,1.786
1328.0,2.422
1329.0,2.775
1330.0,2.796
1331.0,2.294
1332.0,1.968
1333.0,2.007
1334.0,1.606
1335.0,1.1
1336.0,1.038
1337.0,1.107
1338.0,1.177
1339.0,1.247
1340.0,1.318
1341.0,1.106
1342.0,0.608
1343.0,0.109
1344.0,0.39
1345.0,0.209
1346.0,0.833
1347.0,1.458
1348.0,1.819
1349.0,1.876
1350.0,1.534
1351.0,1.025
1352.0,1.673
1353.0,2.01
1354.0,0.941
1355.0,0.622
1356.0,1.253
1357.0,1.092
1358.0,0.579
1359.0,1.679
1360.0,2.349
1361.0,1.834
1362.0,1.573
1363.0,1.63
1364.0,1.287
1365.0,0.772
1366.0,0.256
1367.0,0.143
1368.0,0.091
1369.0,0.009
1370.0,0.057
1371.0,0.516
1372.0,1.137
1373.0,0.637
1374.0,0.515
1375.0,1.711
1376.0,1.778
1377.0,0.687
1378.0,0.465
1379.0,0.525
1380.0,0.585
1381.0,0.646
1382.0,0.708
1383.0,0.385
1384.0,0.173
1385.0,0.235
1386.0,0.873
1387.0,1.514
1388.0,1.957
1389.0,2.023
1390.0,1.384
1391.0,0.296
1392.0,0.868
1393.0,1.429
1394.0,1.503
1395.0,1.58
1396.0,1.658
1397.0,1.333
1398.0,0.833
1399.0,1.459
1400.0,1.929
1401.0,2.015
1402.0,2.101
1403.0,2.188
1404.0,1.814
1405.0,1.279
1406.0,0.205
1407.0,0.255
1408.0,0.406
1409.0,1.156
1410.0,1.873
1411.0,2.006
1412.0,1.862
1413.0,0.78
1414.0,0.254
1415.0,0.335
1416.0,0.862
1417.0,1.525
1418.0,2.188
1419.0,2.461
1420.0,1.954
1421.0,1.807
1422.0,1.881
1423.0,0.761
1424.0,0.106
1425.0,0.042
1426.0,0.392
1427.0,1.096
1428.0,1.282
1429.0,1.337
1430.0,1.39
1431.0,1.442
1432.0,1.493
1433.0,1.156
1434.0,0.618
1435.0,1.201
1436.0,1.391
1437.0,0.263
1438.0,0.425
1439.0,1.651
1440.0,0.795
1441.0,0.214
1442.0,0.168
1443.0,0.402
1444.0,1.623
1445.0,1.521
1446.0,1.01
1447.0,1.058
1448.0,1.109
1449.0,1.162
1450.0,1.607
1451.0,2.254
1452.0,1.762
1453.0,1.395
1454.0,1.46
1455.0,1.183
1456.0,0.678
1457.0,0.617
1458.0,0.53
1459.0,0.036
1460.0,0.152
1461.0,0.848
1462.0,0.57
1463.0,0.251
1464.0,0.956
1465.0,1.127
1466.0,0.648
1467.0,0.625
1468.0,0.741
1469.0,0.856
1470.0,0.997
1471.0,1.529
1472.0,1.245
1473.0,0.796
1474.0,0.922
1475.0,1.263
1476.0,1.993
1477.0,2.331
1478.0,2.457
1479.0,2.551
1480.0,2.639
1481.0,2.718
1482.0,2.782
1483.0,2.845
1484.0,1.72
1485.0,0.55
1486.0,0.514
1487.0,0.674
1488.0,3.182
1489.0,3.384
1490.0,2.965
1491.0,1.274
1492.0,1.081
1493.0,1.757
1494.0,2.004
1495.0,2.628
1496.0,1.858
1497.0,0.876
1498.0,0.074
1499.0,0.396
1500.0,0.0
