Raman shift,Intensity
424.40273,1101.91103
426.61497,1101.91103
428.8272,1102.69194
431.03944,1102.69194
433.25168,1102.69194
435.46391,1102.69194
437.67615,1103.47285
439.88838,1103.47285
442.10062,1103.47285
444.31285,1104.25377
446.52509,1105.03468
448.73732,1105.03468
450.94956,1105.03468
453.1618,1105.81559
455.37403,1105.81559
457.58627,1106.5965
459.7985,1106.5965
462.01074,1106.5965
464.22297,1107.37742
466.43521,1107.37742
468.64745,1107.37742
470.85968,1108.15833
473.07192,1108.15833
475.28415,1108.15833
477.49639,1108.93924
479.70862,1108.93924
481.92086,1108.93924
484.1331,1108.93924
486.34533,1108.93924
488.55757,1108.93924
490.7698,1108.15833
492.98204,1108.15833
495.19427,1108.15833
497.40651,1108.15833
499.61874,1108.15833
501.83098,1108.15833
504.04322,1108.15833
506.25545,1108.15833
508.46769,1107.37742
510.67992,1107.37742
512.89216,1107.37742
515.10439,1106.5965
517.31663,1106.5965
519.52887,1106.5965
521.7411,1105.81559
523.95334,1105.81559
526.16557,1105.81559
528.37781,1105.03468
530.59004,1105.03468
532.80228,1105.03468
535.01451,1105.03468
537.22675,1104.25377
539.43899,1104.25377
541.65122,1104.25377
543.86346,1104.25377
546.07569,1103.47285
548.28793,1103.47285
550.50016,1103.47285
552.7124,1103.47285
554.92464,1103.47285
557.13687,1102.69194
559.34911,1102.69194
561.56134,1102.69194
563.77358,1103.47285
565.98581,1103.47285
568.19805,1103.47285
570.41029,1103.47285
572.62252,1103.47285
574.83476,1103.47285
577.04699,1104.25377
579.25923,1104.25377
581.47146,1104.25377
583.6837,1104.25377
585.89593,1104.25377
588.10817,1105.03468
590.32041,1105.03468
592.53264,1105.81559
594.74488,1105.81559
596.95711,1106.5965
599.16935,1107.37742
601.38158,1108.93924
603.59382,1108.93924
605.80606,1108.93924
608.01829,1109.72016
625.87586,1109.66115
676.05771,1104.66556
682.49128,1101.94069
726.23956,1104.66556
762.87479,1100.3492
762.87479,1101.13011
762.87479,1101.91103
762.87479,1102.69194
765.08702,1102.69194
765.08702,1101.91103
767.29926,1101.91103
767.29926,1102.69194
769.51149,1102.69194
769.51149,1101.91103
771.72373,1101.91103
771.72373,1102.69194
773.93596,1101.91103
773.93596,1102.69194
776.1482,1102.69194
776.1482,1101.91103
778.36044,1102.69194
778.36044,1101.91103
780.57267,1101.91103
780.57267,1102.69194
782.78491,1101.13011
782.78491,1101.91103
784.99714,1101.13011
784.99714,1101.91103
787.20938,1101.91103
787.20938,1101.13011
789.42161,1101.91103
789.42161,1101.13011
791.63385,1101.13011
791.63385,1101.91103
793.84609,1101.91103
793.84609,1101.13011
796.05832,1101.91103
796.05832,1101.13011
798.27056,1101.13011
798.27056,1101.91103
800.48279,1101.91103
800.48279,1101.13011
802.69503,1101.13011
802.69503,1101.91103
804.90726,1101.91103
804.90726,1101.13011
807.1195,1101.13011
807.1195,1101.91103
809.33173,1101.13011
809.33173,1101.91103
811.54397,1101.91103
811.54397,1101.13011
813.75621,1101.13011
813.75621,1101.91103
815.96844,1101.91103
815.96844,1101.13011
818.18068,1101.13011
818.18068,1101.91103
820.39291,1101.13011
820.39291,1101.91103
822.60515,1101.13011
822.60515,1101.91103
824.81738,1101.13011
824.81738,1101.91103
827.02962,1101.91103
827.02962,1101.13011
829.24186,1101.13011
829.24186,1101.91103
831.45409,1101.13011
831.45409,1101.91103
833.66633,1101.91103
833.66633,1101.13011
835.87856,1101.13011
835.87856,1101.91103
838.0908,1101.91103
838.0908,1101.13011
840.30303,1101.13011
840.30303,1101.91103
842.51527,1101.13011
842.51527,1101.91103
844.72751,1101.13011
844.72751,1101.91103
846.93974,1101.13011
846.93974,1101.91103
849.15198,1101.91103
849.15198,1101.13011
851.36421,1101.13011
851.36421,1101.91103
853.57645,1101.13011
853.57645,1101.91103
855.78868,1101.91103
855.78868,1101.13011
858.00092,1101.91103
858.00092,1101.13011
860.21315,1101.13011
860.21315,1101.91103
862.42539,1101.91103
862.42539,1101.13011
864.63763,1101.13011
864.63763,1101.91103
866.84986,1101.13011
866.84986,1101.91103
869.0621,1101.91103
869.0621,1101.13011
871.27433,1101.13011
871.27433,1101.91103
873.48657,1101.91103
873.48657,1101.91103
875.6988,1101.13011
875.6988,1101.91103
877.91104,1101.91103
877.91104,1100.3492
880.12328,1100.3492
880.12328,1101.91103
882.33551,1100.3492
882.33551,1101.91103
884.54775,1101.91103
884.54775,1100.3492
886.75998,1100.3492
886.75998,1101.91103
888.97222,1101.91103
888.97222,1100.3492
891.18445,1100.3492
891.18445,1101.91103
893.39669,1101.91103
893.39669,1100.3492
895.60892,1102.69194
895.60892,1100.3492
897.82116,1103.47285
897.82116,1100.3492
900.0334,1100.3492
900.0334,1104.25377
902.24563,1105.03468
902.24563,1100.3492
904.45787,1101.13011
904.45787,1105.03468
906.6701,1105.03468
906.6701,1101.13011
908.88234,1101.13011
908.88234,1105.03468
911.09457,1105.03468
911.09457,1101.13011
913.30681,1105.03468
913.30681,1101.13011
915.51905,1101.13011
915.51905,1105.03468
917.73128,1101.13011
917.73128,1104.25377
919.94352,1105.03468
919.94352,1101.13011
922.15575,1105.03468
922.15575,1101.91103
924.36799,1105.03468
924.36799,1101.13011
926.58022,1101.13011
926.58022,1105.03468
928.79246,1105.03468
928.79246,1101.13011
931.0047,1105.03468
931.0047,1101.13011
933.21693,1101.13011
933.21693,1105.03468
935.42917,1105.03468
935.42917,1101.13011
937.6414,1101.13011
937.6414,1105.03468
939.85364,1101.13011
939.85364,1105.03468
942.06587,1105.03468
942.06587,1104.25377
942.06587,1101.91103
944.27811,1105.81559
944.27811,1105.03468
944.27811,1101.91103
946.49034,1101.91103
946.49034,1105.81559
946.49034,1106.5965
948.70258,1106.5965
948.70258,1103.47285
948.70258,1104.25377
948.70258,1102.69194
948.70258,1107.37742
948.70258,1101.91103
948.70258,1108.15833
950.91482,1104.25377
950.91482,1108.15833
950.91482,1108.93924
950.91482,1109.72016
953.12705,1105.03468
953.12705,1104.25377
953.12705,1109.72016
955.33929,1109.72016
955.33929,1105.03468
957.55152,1105.03468
957.55152,1109.72016
957.55152,1111.28198
957.55152,1110.50107
959.76376,1112.06289
959.76376,1105.81559
959.76376,1105.03468
959.76376,1112.84381
961.97599,1105.81559
961.97599,1114.40563
961.97599,1113.62472
961.97599,1106.5965
964.18823,1127.68115
964.18823,1115.18655
964.18823,1129.24298
964.18823,1128.46206
964.18823,1108.15833
964.18823,1107.37742
964.18823,1106.5965
966.40047,1108.15833
966.40047,1108.93924
966.40047,1116.74837
966.40047,1115.96746
966.40047,1130.02389
966.40047,1130.8048
966.40047,1131.58571
966.40047,1132.36663
966.40047,1133.14754
966.40047,1126.90024
968.6127,1108.93924
968.6127,1126.11932
968.6127,1136.27119
968.6127,1135.49028
968.6127,1134.70936
968.6127,1133.92845
968.6127,1117.52928
968.6127,1109.72016
970.82494,1124.5575
970.82494,1111.28198
970.82494,1141.73758
970.82494,1110.50107
970.82494,1112.06289
970.82494,1142.51849
970.82494,1125.33841
970.82494,1118.3102
970.82494,1119.09111
970.82494,1119.87202
970.82494,1120.65293
970.82494,1121.43385
970.82494,1122.21476
970.82494,1122.99567
970.82494,1123.77659
970.82494,1137.0521
973.03717,1112.84381
973.03717,1113.62472
973.03717,1137.83302
973.03717,1114.40563
973.03717,1143.29941
973.03717,1144.08032
973.03717,1144.86123
973.03717,1145.64214
973.03717,1146.42306
973.03717,1140.17575
973.03717,1139.39484
973.03717,1138.61393
973.03717,1140.95667
973.03717,1148.7658
973.03717,1147.98488
975.24941,1147.20397
975.24941,1115.18655
975.24941,1149.54671
975.24941,1150.32762
977.46164,1151.10853
977.46164,1116.74837
977.46164,1152.67036
977.46164,1153.45127
977.46164,1117.52928
977.46164,1155.0131
977.46164,1155.79401
977.46164,1115.96746
979.67388,1157.35584
979.67388,1158.13675
979.67388,1158.91766
979.67388,1159.69857
979.67388,1130.02389
979.67388,1161.2604
979.67388,1131.58571
979.67388,1132.36663
979.67388,1118.3102
979.67388,1130.8048
979.67388,1151.88945
979.67388,1154.23218
979.67388,1156.57492
979.67388,1119.09111
979.67388,1119.87202
979.67388,1126.11932
979.67388,1129.24298
981.88611,1122.21476
981.88611,1122.99567
981.88611,1120.65293
981.88611,1125.33841
981.88611,1126.90024
981.88611,1128.46206
981.88611,1121.43385
981.88611,1133.14754
981.88611,1164.38405
981.88611,1162.04131
981.88611,1165.16496
981.88611,1160.47949
981.88611,1163.60314
984.09835,1165.94588
984.09835,1162.82223
984.09835,1135.49028
984.09835,1165.16496
984.09835,1164.38405
984.09835,1124.5575
984.09835,1123.77659
984.09835,1163.60314
984.09835,1133.92845
984.09835,1127.68115
986.31059,1134.70936
986.31059,1162.82223
986.31059,1167.5077
986.31059,1166.72679
986.31059,1140.17575
986.31059,1140.95667
986.31059,1170.63135
986.31059,1136.27119
986.31059,1165.94588
988.52282,1169.85044
988.52282,1137.0521
988.52282,1139.39484
988.52282,1171.41227
988.52282,1142.51849
988.52282,1141.73758
988.52282,1168.28861
988.52282,1161.2604
988.52282,1167.5077
988.52282,1166.72679
988.52282,1162.04131
990.73506,1168.28861
990.73506,1160.47949
990.73506,1169.06953
990.73506,1138.61393
990.73506,1137.83302
990.73506,1143.29941
990.73506,1171.41227
990.73506,1146.42306
990.73506,1145.64214
990.73506,1147.20397
992.94729,1144.86123
992.94729,1152.67036
992.94729,1148.7658
992.94729,1144.08032
992.94729,1150.32762
992.94729,1151.10853
992.94729,1169.06953
992.94729,1147.98488
992.94729,1149.54671
992.94729,1171.41227
992.94729,1159.69857
995.15953,1171.41227
995.15953,1153.45127
995.15953,1169.85044
995.15953,1158.91766
995.15953,1151.88945
997.37176,1157.35584
997.37176,1158.13675
997.37176,1155.79401
997.37176,1170.63135
997.37176,1156.57492
997.37176,1171.41227
997.37176,1154.23218
997.37176,1155.0131
997.37176,1172.19318
997.37176,1172.97409
997.37176,1173.755
997.37176,1174.53592
997.37176,1175.31683
997.37176,1176.09774
999.584,1172.19318
999.584,1176.09774
1001.79624,1172.97409
1004.00847,1173.755
1006.22071,1174.53592
1006.74321,1161.43362
1014.4635,1149.62586
1014.4635,1134.63909
1014.4635,1143.72198
1023.4705,1125.5562
1034.97977,1132.36663
1034.97977,1124.5575
1034.97977,1131.58571
1034.97977,1123.77659
1037.19201,1130.8048
1037.19201,1127.68115
1037.19201,1133.92845
1037.19201,1123.77659
1037.19201,1125.33841
1037.19201,1122.99567
1037.19201,1122.21476
1037.19201,1121.43385
1037.19201,1133.14754
1039.40424,1126.11932
1039.40424,1130.02389
1039.40424,1129.24298
1039.40424,1128.46206
1039.40424,1126.90024
1039.40424,1120.65293
1039.40424,1121.43385
1054.88989,1119.09111
1057.10213,1119.09111
1059.31436,1119.09111
1061.5266,1118.3102
1063.73883,1117.52928
1065.95107,1116.74837
1068.16331,1115.96746
1070.37554,1115.18655
1072.58778,1114.40563
1074.80001,1113.62472
1077.01225,1113.62472
1079.22448,1113.62472
1081.43672,1114.40563
1081.43672,1118.3102
1081.43672,1117.52928
1081.43672,1116.74837
1081.43672,1119.09111
1083.64895,1115.18655
1083.64895,1115.96746
1085.86119,1115.96746
1085.86119,1114.40563
1088.07343,1114.40563
1088.07343,1115.96746
1090.28566,1115.96746
1090.28566,1113.62472
1092.4979,1113.62472
1092.4979,1115.96746
1094.71013,1113.62472
1094.71013,1115.18655
1094.71013,1115.96746
1096.92237,1112.84381
1096.92237,1115.96746
1099.1346,1112.06289
1099.1346,1115.96746
1101.34684,1111.28198
1101.34684,1115.96746
1103.55908,1115.18655
1103.55908,1111.28198
1105.77131,1110.50107
1105.77131,1115.18655
1107.98355,1115.18655
1107.98355,1110.50107
1110.19578,1111.28198
1110.19578,1115.18655
1112.40802,1114.40563
1112.40802,1112.06289
1114.62025,1113.62472
1114.62025,1111.28198
1116.83249,1113.62472
1116.83249,1111.28198
1119.04472,1111.28198
1119.04472,1112.84381
1121.25696,1112.06289
1121.25696,1112.84381
1123.4692,1111.28198
1123.4692,1112.06289
1125.68143,1112.84381
1125.68143,1112.06289
1127.89367,1112.06289
1127.89367,1112.84381
1130.1059,1113.62472
1130.1059,1112.84381
1132.31814,1113.62472
1132.31814,1114.40563
1134.53037,1113.62472
1134.53037,1114.40563
1136.74261,1113.62472
1136.74261,1112.84381
1138.95485,1113.62472
1138.95485,1112.84381
1141.16708,1114.40563
1141.16708,1113.62472
1143.37932,1114.40563
1143.37932,1115.18655
1145.59155,1115.18655
1145.59155,1115.96746
1147.80379,1116.74837
1147.80379,1115.96746
1150.01602,1116.74837
1150.01602,1115.96746
1152.22826,1115.18655
1152.22826,1116.74837
1154.4405,1115.96746
1154.4405,1114.40563
1156.65273,1114.40563
1156.65273,1116.74837
1158.86497,1117.52928
1158.86497,1114.40563
1161.0772,1117.52928
1161.0772,1115.18655
1163.28944,1115.96746
1163.28944,1116.74837
1165.50167,1115.96746
1165.50167,1115.18655
1165.50167,1116.74837
1167.71391,1115.18655
1167.71391,1112.84381
1167.71391,1115.96746
1167.71391,1113.62472
1167.71391,1114.40563
1169.92614,1115.18655
1169.92614,1112.06289
1169.92614,1112.84381
1172.13838,1114.40563
1172.13838,1112.06289
1174.35062,1111.28198
1174.35062,1113.62472
1176.56285,1110.50107
1176.56285,1112.84381
1176.56285,1111.28198
1178.77509,1112.06289
1178.77509,1110.50107
1180.98732,1110.50107
1180.98732,1112.06289
1180.98732,1109.72016
1183.19956,1109.72016
1183.19956,1112.06289
1185.41179,1112.06289
1185.41179,1109.72016
1187.62403,1109.72016
1187.62403,1111.28198
1187.62403,1110.50107
1189.83627,1108.93924
1189.83627,1109.72016
1192.0485,1108.15833
1192.0485,1107.37742
1192.0485,1108.93924
1194.26074,1107.37742
1194.26074,1108.15833
1196.47297,1108.15833
1196.47297,1107.37742
1196.47297,1106.5965
1198.68521,1106.5965
1198.68521,1108.15833
1200.89744,1106.5965
1200.89744,1105.81559
1200.89744,1108.15833
1203.10968,1108.15833
1203.10968,1105.81559
1205.32192,1105.81559
1205.32192,1105.03468
1205.32192,1108.15833
1207.53415,1108.15833
1207.53415,1104.25377
1209.74639,1108.15833
1209.74639,1107.37742
1209.74639,1104.25377
1211.95862,1107.37742
1211.95862,1103.47285
1211.95862,1106.5965
1214.17086,1107.37742
1214.17086,1103.47285
1216.38309,1104.25377
1216.38309,1107.37742
1218.59533,1103.47285
1218.59533,1107.37742
1220.80756,1107.37742
1220.80756,1103.47285
1223.0198,1103.47285
1223.0198,1107.37742
1225.23204,1102.69194
1225.23204,1106.5965
1227.44427,1107.37742
1227.44427,1102.69194
1229.65651,1103.47285
1229.65651,1107.37742
1231.86874,1107.37742
1231.86874,1104.25377
1234.08098,1105.03468
1234.08098,1106.5965
1236.29321,1105.81559
1236.29321,1106.5965
1238.50545,1106.5965
1238.50545,1105.81559
1240.71769,1105.03468
1240.71769,1106.5965
1242.92992,1105.81559
1242.92992,1104.25377
1245.14216,1105.03468
1245.14216,1103.47285
1247.35439,1104.25377
1247.35439,1102.69194
1249.56663,1103.47285
1249.56663,1102.69194
1251.77886,1101.91103
1251.77886,1102.69194
1253.9911,1102.69194
1253.9911,1101.91103
1256.20333,1102.69194
1256.20333,1103.47285
1258.41557,1102.69194
1258.41557,1104.25377
1260.62781,1103.47285
1260.62781,1101.91103
1262.84004,1101.91103
1262.84004,1102.69194
1265.05228,1101.91103
1265.05228,1102.69194
1267.26451,1102.69194
1267.26451,1101.91103
1269.47675,1102.69194
1269.47675,1101.91103
1271.68898,1102.69194
1271.68898,1101.91103
1273.90122,1102.69194
1273.90122,1103.47285
1276.11346,1103.47285
1276.11346,1102.69194
1278.32569,1103.47285
1278.32569,1104.25377
1280.53793,1103.47285
1280.53793,1104.25377
1282.75016,1104.25377
1282.75016,1102.69194
1284.9624,1101.91103
1284.9624,1105.03468
1287.17463,1101.91103
1287.17463,1104.25377
1289.38687,1101.91103
1289.38687,1104.25377
1291.59911,1101.91103
1291.59911,1103.47285
1293.81134,1103.47285
1293.81134,1101.13011
1296.02358,1102.69194
1296.02358,1101.13011
1298.23581,1101.13011
1298.23581,1102.69194
1300.44805,1102.69194
1300.44805,1101.13011
1302.66028,1101.13011
1302.66028,1102.69194
1304.87252,1101.91103
1304.87252,1102.69194
1307.08475,1102.69194
1307.08475,1103.47285
1309.29699,1101.91103
1309.29699,1104.25377
1311.50923,1103.47285
1311.50923,1101.13011
1313.72146,1101.13011
1313.72146,1102.69194
1315.9337,1101.13011
1315.9337,1102.69194
1318.14593,1101.13011
1318.14593,1102.69194
1320.35817,1101.13011
1320.35817,1101.91103
1322.5704,1101.13011
1322.5704,1101.91103
1324.78264,1100.3492
1324.78264,1102.69194
1326.99488,1101.13011
1326.99488,1103.47285
1329.20711,1101.91103
1329.20711,1104.25377
1331.41935,1102.69194
1331.41935,1104.25377
1333.63158,1103.47285
1333.63158,1104.25377
1335.84382,1104.25377
1335.84382,1103.47285
1338.05605,1103.47285
1338.05605,1104.25377
1340.26829,1103.47285
1340.26829,1104.25377
1342.48052,1103.47285
1342.48052,1104.25377
1344.69276,1104.25377
1344.69276,1102.69194
1346.905,1101.91103
1346.905,1104.25377
1349.11723,1104.25377
1349.11723,1101.13011
1351.32947,1104.25377
1351.32947,1101.13011
1353.5417,1104.25377
1353.5417,1101.13011
1355.75394,1104.25377
1355.75394,1101.13011
1357.96617,1103.47285
1357.96617,1101.13011
1360.17841,1100.3492
1360.17841,1102.69194
1362.39065,1102.69194
1362.39065,1099.56829
1364.60288,1099.56829
1364.60288,1102.69194
1366.81512,1102.69194
1366.81512,1099.56829
1369.02735,1099.56829
1369.02735,1102.69194
1371.23959,1099.56829
1371.23959,1102.69194
1373.45182,1102.69194
1373.45182,1099.56829
1375.66406,1102.69194
1375.66406,1099.56829
1377.8763,1102.69194
1377.8763,1099.56829
1380.08853,1099.56829
1380.08853,1102.69194
1382.30077,1099.56829
1382.30077,1102.69194
1384.513,1102.69194
1384.513,1099.56829
1386.72524,1102.69194
1386.72524,1099.56829
1388.93747,1099.56829
1388.93747,1102.69194
1391.14971,1099.56829
1391.14971,1102.69194
1393.36194,1099.56829
1393.36194,1102.69194
1395.57418,1102.69194
1395.57418,1099.56829
1397.78642,1102.69194
1397.78642,1099.56829
1399.99865,1102.69194
1399.99865,1099.56829
1402.21089,1102.69194
1402.21089,1099.56829
1404.42312,1099.56829
1404.42312,1102.69194
1406.63536,1102.69194
1406.63536,1099.56829
1408.84759,1102.69194
1408.84759,1099.56829
1411.05983,1099.56829
1411.05983,1102.69194
1413.27207,1102.69194
1413.27207,1099.56829
1415.4843,1102.69194
1415.4843,1099.56829
1417.69654,1099.56829
1417.69654,1102.69194
1419.90877,1102.69194
1419.90877,1099.56829
1422.12101,1102.69194
1422.12101,1099.56829
1424.33324,1099.56829
1424.33324,1102.69194
1426.54548,1099.56829
1426.54548,1102.69194
1428.75772,1099.56829
1428.75772,1102.69194
1430.96995,1102.69194
1430.96995,1099.56829
1433.18219,1099.56829
1433.18219,1102.69194
1435.39442,1102.69194
1435.39442,1099.56829
1437.60666,1101.91103
1437.60666,1099.56829
1439.81889,1099.56829
1439.81889,1101.13011
1442.03113,1099.56829
1442.03113,1100.3492
1444.24336,1099.56829
1444.24336,1100.3492
1446.4556,1100.3492
1446.4556,1099.56829
1448.66784,1100.3492
1448.66784,1099.56829
1450.88007,1099.56829
1450.88007,1101.13011
1453.09231,1099.56829
1453.09231,1101.91103
1455.30454,1099.56829
1455.30454,1102.69194
1457.51678,1100.3492
1457.51678,1103.47285
1459.72901,1101.13011
1459.72901,1103.47285
1461.94125,1103.47285
1461.94125,1101.91103
1464.15349,1103.47285
1464.15349,1102.69194
1466.36572,1103.47285
1466.36572,1102.69194
1468.57796,1103.47285
1468.57796,1101.91103
1470.79019,1101.13011
1470.79019,1103.47285
1473.00243,1103.47285
1473.00243,1100.3492
1475.21466,1099.56829
1475.21466,1103.47285
1477.4269,1099.56829
1477.4269,1103.47285
1479.63913,1103.47285
1479.63913,1099.56829
1481.85137,1103.47285
1481.85137,1099.56829
1484.06361,1103.47285
1484.06361,1099.56829
1486.27584,1103.47285
1486.27584,1099.56829
1488.48808,1099.56829
1488.48808,1103.47285
1490.70031,1103.47285
1490.70031,1099.56829
1492.91255,1099.56829
1492.91255,1102.69194
1495.12478,1101.91103
1495.12478,1099.56829
1497.33702,1099.56829
1497.33702,1101.91103
1499.54926,1100.3492
1499.54926,1102.69194
1501.76149,1103.47285
1501.76149,1101.13011
1503.97373,1101.91103
1503.97373,1102.69194
1506.18596,1101.91103
1506.18596,1102.69194
1508.3982,1101.91103
1508.3982,1102.69194
1510.61043,1102.69194
1510.61043,1101.91103
1512.82267,1101.91103
1512.82267,1102.69194
1515.03491,1102.69194
1515.03491,1101.91103
1517.24714,1101.13011
1517.24714,1101.91103
1519.45938,1100.3492
1519.45938,1101.13011
1521.67161,1100.3492
1521.67161,1099.56829
1523.88385,1100.3492
1523.88385,1099.56829
1526.09608,1100.3492
1526.09608,1099.56829
1528.30832,1099.56829
1528.30832,1100.3492
1530.52055,1099.56829
1530.52055,1100.3492
1532.73279,1101.13011
1532.73279,1100.3492
1534.94503,1101.13011
1534.94503,1101.91103
1537.15726,1102.69194
1537.15726,1101.91103
1539.3695,1102.69194
1539.3695,1103.47285
1541.58173,1102.69194
1541.58173,1103.47285
1543.79397,1102.69194
1543.79397,1103.47285
1546.0062,1103.47285
1546.0062,1102.69194
1548.21844,1103.47285
1548.21844,1102.69194
1550.43068,1103.47285
1550.43068,1102.69194
1552.64291,1103.47285
1552.64291,1102.69194
1554.85515,1102.69194
1554.85515,1103.47285
1557.06738,1103.47285
1557.06738,1104.25377
1559.27962,1102.69194
1559.27962,1103.47285
1561.49185,1102.69194
1561.49185,1101.91103
1563.70409,1102.69194
1563.70409,1101.91103
1565.91633,1101.91103
1565.91633,1101.13011
1568.12856,1101.13011
1568.12856,1101.91103
1570.3408,1101.13011
1570.3408,1100.3492
1572.55303,1099.56829
1572.55303,1100.3492
1574.76527,1099.56829
1574.76527,1100.3492
1576.9775,1100.3492
1576.9775,1099.56829
1579.18974,1100.3492
1579.18974,1099.56829
1581.40197,1099.56829
1581.40197,1101.13011
1583.61421,1100.3492
1583.61421,1101.13011
1585.82645,1100.3492
1585.82645,1101.13011
1588.03868,1101.13011
1588.03868,1100.3492
1590.25092,1101.13011
1590.25092,1100.3492
1592.46315,1100.3492
1592.46315,1101.91103
1594.67539,1101.91103
1594.67539,1101.13011
1596.88762,1101.91103
1596.88762,1101.13011
1599.09986,1101.13011
1599.09986,1101.91103
1601.3121,1101.91103
1601.3121,1101.13011
1603.52433,1101.13011
1603.52433,1101.91103
1605.73657,1101.13011
1605.73657,1101.91103
1607.9488,1101.91103
1607.9488,1101.13011
1610.16104,1101.13011
1610.16104,1101.91103
1612.37327,1101.13011
1612.37327,1101.91103
1614.58551,1101.91103
1614.58551,1101.13011
1616.79774,1101.13011
1616.79774,1101.91103
1619.00998,1101.91103
1619.00998,1102.69194
1621.22222,1103.47285
1621.22222,1102.69194
1623.43445,1104.25377
1623.43445,1103.47285
1625.64669,1104.25377
1625.64669,1105.03468
1627.85892,1104.25377
1627.85892,1105.03468
1630.07116,1104.25377
1630.07116,1103.47285
1632.28339,1102.69194
1632.28339,1103.47285
1634.49563,1101.91103
1634.49563,1102.69194
1636.70787,1101.13011
1636.70787,1101.91103
1638.9201,1100.3492
1638.9201,1101.13011
1641.13234,1100.3492
1641.13234,1101.13011
1643.34457,1101.13011
1643.34457,1100.3492
1645.55681,1100.3492
1645.55681,1101.13011
1647.76904,1101.13011
1647.76904,1100.3492
1649.98128,1101.13011
1649.98128,1100.3492
1652.19352,1100.3492
1652.19352,1101.13011
1654.40575,1100.3492
1654.40575,1101.13011
1656.61799,1100.3492
1656.61799,1101.13011
1658.83022,1101.13011
1658.83022,1100.3492
1661.04246,1101.13011
1661.04246,1100.3492
1663.25469,1100.3492
1663.25469,1101.13011
1665.46693,1101.13011
1665.46693,1100.3492
1667.67916,1101.13011
1667.67916,1100.3492
1669.8914,1100.3492
1669.8914,1101.13011
1672.10364,1100.3492
1672.10364,1101.13011
1674.31587,1100.3492
1674.31587,1101.13011
1676.52811,1100.3492
1676.52811,1101.13011
1678.74034,1101.13011
1678.74034,1100.3492
1680.95258,1100.3492
1680.95258,1101.13011
1683.16481,1100.3492
1683.16481,1101.13011
1685.37705,1101.13011
1685.37705,1100.3492
1687.58929,1100.3492
1687.58929,1101.13011
1689.80152,1100.3492
1689.80152,1101.13011
1692.01376,1100.3492
1692.01376,1101.13011
1694.22599,1101.13011
1694.22599,1100.3492
1696.43823,1101.91103
1696.43823,1101.13011
1698.65046,1101.91103
1698.65046,1102.69194
1700.8627,1101.91103
1700.8627,1102.69194
1703.07493,1102.69194
1703.07493,1101.91103
1705.28717,1103.47285
1705.28717,1101.13011
1707.49941,1102.69194
1707.49941,1101.91103
1709.71164,1102.69194
1709.71164,1101.91103
1711.92388,1103.47285
1711.92388,1102.69194
1714.13611,1104.25377
1714.13611,1103.47285
1716.34835,1104.25377
1716.34835,1103.47285
1718.56058,1103.47285
1718.56058,1104.25377
1720.77282,1103.47285
1720.77282,1102.69194
1722.98506,1102.69194
1722.98506,1101.91103
1725.19729,1101.13011
1725.19729,1101.91103
1727.40953,1101.13011
1727.40953,1101.91103
1729.62176,1101.91103
1729.62176,1102.69194
1731.834,1102.69194
1731.834,1103.47285
1734.04623,1102.69194
1734.04623,1103.47285
1736.25847,1103.47285
1736.25847,1101.91103
1738.47071,1101.91103
1738.47071,1102.69194
1740.68294,1102.69194
1740.68294,1103.47285
1742.89518,1102.69194
1742.89518,1103.47285
1745.10741,1102.69194
1745.10741,1103.47285
1747.31965,1103.47285
1747.31965,1101.91103
1749.53188,1102.69194
1749.53188,1101.91103
1751.74412,1101.91103
1751.74412,1102.69194
1753.95635,1101.91103
1753.95635,1102.69194
1756.16859,1101.91103
1756.16859,1102.69194
1758.38083,1102.69194
1758.38083,1101.91103
1760.59306,1101.91103
1760.59306,1102.69194
1762.8053,1102.69194
1762.8053,1101.91103
1765.01753,1101.91103
1765.01753,1102.69194
1767.22977,1101.91103
1767.22977,1102.69194
1769.442,1101.91103
1769.442,1101.13011
1771.65424,1100.3492
1771.65424,1101.13011
1773.86648,1099.56829
1773.86648,1100.3492
1776.07871,1099.56829
1776.07871,1098.78738
1778.29095,1099.56829
1778.29095,1098.78738
1780.50318,1099.56829
1780.50318,1098.78738
1782.71542,1098.78738
1782.71542,1099.56829
1784.92765,1099.56829
1784.92765,1098.78738
1787.13989,1099.56829
1787.13989,1098.78738
1789.35213,1098.78738
1789.35213,1099.56829
1791.56436,1098.78738
1791.56436,1099.56829
1793.7766,1099.56829
1793.7766,1098.78738
1795.98883,1099.56829
1795.98883,1100.3492
1798.20107,1100.3492
1798.20107,1101.13011
1800.4133,1101.13011
1800.4133,1101.91103
1802.62554,1101.91103
1802.62554,1101.13011
1804.83777,1101.13011
1804.83777,1101.91103
1807.05001,1101.91103
1807.05001,1101.13011
1809.26225,1101.13011
1809.26225,1101.91103
1811.47448,1101.13011
1811.47448,1101.91103
1813.68672,1101.13011
1813.68672,1101.91103
1815.89895,1101.13011
1815.89895,1101.91103
1818.11119,1101.13011
1818.11119,1101.91103
1820.32342,1101.91103
1820.32342,1100.3492
1822.53566,1099.56829
1822.53566,1101.91103
1824.7479,1099.56829
1824.7479,1101.91103
1826.96013,1101.91103
1826.96013,1099.56829
1829.17237,1099.56829
1829.17237,1101.91103
1831.3846,1099.56829
1831.3846,1101.91103
1833.59684,1099.56829
1833.59684,1101.91103
1835.80907,1099.56829
1835.80907,1101.91103
1838.02131,1101.13011
1838.02131,1098.78738
1840.23354,1098.00646
1840.23354,1100.3492
1842.44578,1099.56829
1842.44578,1098.00646
1844.65802,1098.78738
1844.65802,1098.00646
1846.87025,1098.00646
1846.87025,1098.78738
1849.08249,1098.00646
1849.08249,1098.78738
1851.29472,1098.78738
1851.29472,1098.00646
1853.50696,1098.00646
1853.50696,1098.78738
1855.71919,1098.78738
1855.71919,1098.00646
1857.93143,1098.78738
1857.93143,1098.00646
1860.14367,1098.00646
1860.14367,1098.78738
1862.3559,1098.00646
1862.3559,1098.78738
1864.56814,1098.00646
1864.56814,1098.78738
1866.78037,1098.78738
1866.78037,1098.00646
1868.99261,1098.00646
1868.99261,1098.78738
1871.20484,1098.78738
1871.20484,1098.00646
1873.41708,1098.00646
1873.41708,1098.78738
1875.62932,1098.78738
1875.62932,1098.00646
1877.84155,1098.00646
1877.84155,1098.78738
1880.05379,1098.78738
1880.05379,1098.00646
1882.26602,1098.78738
1882.26602,1098.00646
1884.47826,1098.00646
1884.47826,1098.78738
1886.69049,1098.00646
1886.69049,1098.78738
1888.90273,1098.78738
1888.90273,1098.00646
1891.11496,1098.78738
1891.11496,1098.00646
1893.3272,1098.78738
1893.3272,1098.00646
1895.53944,1098.78738
1895.53944,1098.00646
1897.75167,1098.00646
1897.75167,1098.78738
1899.96391,1098.00646
1899.96391,1098.78738
1902.17614,1098.78738
1902.17614,1098.00646
1904.38838,1098.78738
1904.38838,1098.00646
1906.60061,1098.00646
1906.60061,1098.78738
1908.81285,1098.78738
1908.81285,1098.00646
1911.02509,1098.78738
1911.02509,1098.00646
1913.23732,1098.78738
1913.23732,1098.00646
1915.44956,1098.78738
1915.44956,1098.00646
1917.66179,1098.78738
1917.66179,1098.00646
1919.87403,1098.00646
1919.87403,1098.78738
1922.08626,1098.78738
1922.08626,1098.00646
1924.2985,1098.78738
1924.2985,1098.00646
1926.51073,1098.78738
1926.51073,1098.00646
1928.72297,1098.00646
1928.72297,1098.78738
1930.93521,1098.00646
1930.93521,1098.78738
1933.14744,1098.78738
1933.14744,1098.00646
1935.35968,1098.78738
1935.35968,1098.00646
1937.57191,1098.00646
1937.57191,1098.78738
1939.78415,1098.00646
1939.78415,1098.78738
1941.99638,1098.00646
1941.99638,1098.78738
1944.20862,1098.00646
1944.20862,1098.78738
1946.42086,1098.78738
1946.42086,1098.00646
1948.63309,1098.00646
1948.63309,1098.78738
1950.84533,1098.78738
1950.84533,1098.00646
1953.05756,1098.00646
1953.05756,1098.78738
1955.2698,1098.78738
1955.2698,1098.00646
1957.48203,1098.78738
1957.48203,1098.00646
1959.69427,1098.78738
1959.69427,1098.00646
1961.90651,1098.00646
1961.90651,1098.78738
1964.11874,1098.78738
1964.11874,1098.00646
1966.33098,1098.00646
1966.33098,1098.78738
1968.54321,1098.78738
1968.54321,1098.00646
1970.75545,1098.78738
1970.75545,1098.00646
1972.96768,1098.00646
1972.96768,1098.78738
1975.17992,1098.78738
1975.17992,1098.00646
1977.39215,1098.00646
1977.39215,1098.78738
1979.60439,1098.78738
1979.60439,1098.00646
1981.81663,1098.78738
1981.81663,1098.00646
1984.02886,1098.00646
1984.02886,1098.78738
1986.2411,1098.00646
1986.2411,1098.78738
1988.45333,1098.78738
1988.45333,1098.00646
1990.66557,1098.00646
1990.66557,1098.78738
1992.8778,1098.78738
1992.8778,1098.00646
1995.09004,1098.00646
1995.09004,1098.78738
1997.30228,1098.00646
1997.30228,1098.78738
1999.51451,1098.00646
1999.51451,1098.78738
2001.72675,1098.00646
2001.72675,1098.78738
2003.93898,1098.00646
2003.93898,1098.78738
2006.15122,1098.78738
2006.15122,1098.00646
2008.36345,1098.00646
2008.36345,1098.78738
2010.57569,1098.78738
2010.57569,1098.00646
2012.78793,1098.00646
2012.78793,1098.78738
2015.00016,1098.78738
2015.00016,1098.00646
2017.2124,1098.78738
2017.2124,1098.00646
2019.42463,1098.00646
2019.42463,1098.78738
2021.63687,1098.00646
2021.63687,1098.78738
2023.8491,1098.78738
2023.8491,1098.00646
2026.06134,1098.78738
2026.06134,1098.00646
2028.27357,1098.00646
2028.27357,1098.78738
2030.48581,1098.78738
2030.48581,1098.00646
2032.69805,1098.00646
2032.69805,1098.78738
2034.91028,1098.00646
2034.91028,1098.78738
2037.12252,1098.78738
2037.12252,1098.00646
2039.33475,1098.00646
2039.33475,1098.78738
2041.54699,1098.00646
2041.54699,1098.78738
2043.75922,1098.78738
2043.75922,1098.00646
2045.97146,1098.00646
2045.97146,1098.78738
2048.1837,1098.00646
2048.1837,1098.78738
2050.39593,1098.78738
2050.39593,1098.00646
2052.60817,1098.00646
2052.60817,1098.78738
2054.8204,1098.00646
2054.8204,1098.78738
2057.03264,1098.78738
2057.03264,1098.00646
2059.24487,1098.78738
2059.24487,1098.00646
2061.45711,1098.00646
2061.45711,1098.78738
2063.66934,1098.78738
2063.66934,1098.00646
2065.88158,1098.00646
2065.88158,1098.78738
2068.09382,1098.78738
2068.09382,1098.00646
2070.30605,1098.00646
2070.30605,1098.78738
2072.51829,1098.00646
2072.51829,1098.78738
2074.73052,1098.78738
2074.73052,1098.00646
2076.94276,1098.78738
2076.94276,1098.00646
2079.15499,1098.00646
2079.15499,1098.78738
2081.36723,1098.00646
2081.36723,1098.78738
2083.57947,1098.00646
2083.57947,1098.78738
2085.7917,1098.78738
2085.7917,1098.00646
2088.00394,1098.78738
2088.00394,1098.00646
2090.21617,1098.00646
2090.21617,1098.78738
2092.42841,1098.78738
2092.42841,1098.00646
2094.64064,1098.78738
2094.64064,1098.00646
2096.85288,1098.00646
2096.85288,1098.78738
2099.06512,1098.00646
2099.06512,1098.78738
2101.27735,1098.78738
2101.27735,1098.00646
2103.48959,1098.78738
2103.48959,1098.00646
2105.70182,1098.78738
2105.70182,1098.00646
2107.91406,1098.78738
2107.91406,1098.00646
2110.12629,1098.00646
2110.12629,1098.78738
2112.33853,1098.78738
2112.33853,1098.00646
2114.55076,1098.78738
2114.55076,1098.00646
2116.763,1098.78738
2116.763,1098.00646
2118.97524,1098.00646
2118.97524,1098.78738
2121.18747,1098.00646
2121.18747,1098.78738
2123.39971,1098.00646
2123.39971,1098.78738
2125.61194,1098.78738
2125.61194,1098.00646
2127.82418,1098.78738
2127.82418,1098.00646
2130.03641,1098.00646
2130.03641,1098.78738
2132.24865,1098.00646
2132.24865,1098.78738
2134.46089,1098.78738
2134.46089,1098.00646
2136.67312,1098.00646
2136.67312,1098.78738
2138.88536,1098.78738
2138.88536,1098.00646
2141.09759,1098.78738
2141.09759,1098.00646
2143.30983,1098.00646
2143.30983,1098.78738
2145.52206,1098.00646
2145.52206,1098.78738
2147.7343,1098.00646
2147.7343,1098.78738
2149.94654,1098.78738
2149.94654,1098.00646
2152.15877,1098.78738
2152.15877,1098.00646
2154.37101,1098.00646
2154.37101,1098.78738
2156.58324,1098.00646
2156.58324,1098.78738
2158.79548,1098.00646
2158.79548,1098.78738
2161.00771,1098.78738
2161.00771,1098.00646
2163.21995,1098.00646
2163.21995,1098.78738
2165.43218,1098.78738
2165.43218,1098.00646
2167.64442,1098.00646
2167.64442,1099.56829
2169.85666,1098.00646
2169.85666,1100.3492
2172.06889,1098.00646
2172.06889,1101.13011
2174.28113,1101.13011
2174.28113,1098.78738
2176.49336,1100.3492
2176.49336,1098.78738
2178.7056,1098.78738
2178.7056,1099.56829
2180.91783,1098.78738
2180.91783,1099.56829
2183.13007,1098.78738
2183.13007,1099.56829
2185.34231,1098.78738
2185.34231,1099.56829
2187.55454,1098.78738
2187.55454,1099.56829
2189.76678,1099.56829
2189.76678,1098.78738
2191.97901,1098.78738
2191.97901,1099.56829
2194.19125,1098.78738
2194.19125,1099.56829
2196.40348,1099.56829
2196.40348,1098.78738
2198.61572,1098.78738
2198.61572,1099.56829
2200.82795,1099.56829
2200.82795,1098.78738
2203.04019,1099.56829
2203.04019,1098.78738
2205.25243,1099.56829
2205.25243,1098.78738
2207.46466,1099.56829
2207.46466,1098.78738
2209.6769,1098.78738
2209.6769,1099.56829
2211.88913,1098.78738
2211.88913,1099.56829
2214.10137,1099.56829
2214.10137,1098.78738
2216.3136,1098.78738
2216.3136,1099.56829
2218.52584,1098.78738
2218.52584,1099.56829
2220.73808,1098.78738
2220.73808,1099.56829
2222.95031,1098.78738
2222.95031,1099.56829
2225.16255,1099.56829
2225.16255,1098.78738
2227.37478,1098.78738
2227.37478,1099.56829
2229.58702,1099.56829
2229.58702,1098.78738
2231.79925,1098.78738
2231.79925,1099.56829
2234.01149,1099.56829
2234.01149,1098.78738
2236.22373,1099.56829
2236.22373,1098.78738
2238.43596,1098.78738
2238.43596,1099.56829
2240.6482,1099.56829
2240.6482,1098.78738
2242.86043,1098.78738
2242.86043,1099.56829
2245.07267,1099.56829
2245.07267,1098.78738
2247.2849,1099.56829
2247.2849,1098.78738
2249.49714,1099.56829
2249.49714,1098.78738
2251.70937,1099.56829
2251.70937,1098.78738
2253.92161,1098.78738
2253.92161,1099.56829
2256.13385,1099.56829
2256.13385,1098.78738
2258.34608,1099.56829
2258.34608,1098.78738
2260.55832,1099.56829
2260.55832,1098.78738
2262.77055,1098.78738
2262.77055,1099.56829
2264.98279,1099.56829
2264.98279,1098.78738
2267.19502,1099.56829
2267.19502,1098.78738
2269.40726,1098.78738
2269.40726,1099.56829
2271.6195,1098.78738
2271.6195,1099.56829
2273.83173,1098.78738
2273.83173,1099.56829
2276.04397,1099.56829
2276.04397,1098.78738
2278.2562,1098.78738
2278.2562,1099.56829
2280.46844,1098.78738
2280.46844,1099.56829
2282.68067,1098.78738
2282.68067,1099.56829
2284.89291,1099.56829
2284.89291,1098.78738
2287.10514,1098.78738
2287.10514,1099.56829
2289.31738,1099.56829
2289.31738,1098.78738
2291.52962,1098.78738
2291.52962,1099.56829
2293.74185,1099.56829
2293.74185,1098.78738
2295.95409,1099.56829
2295.95409,1098.78738
2298.16632,1098.78738
2298.16632,1099.56829
2300.37856,1098.78738
2300.37856,1099.56829
2302.59079,1099.56829
2302.59079,1098.78738
2304.80303,1099.56829
2304.80303,1098.78738
2307.01527,1098.78738
2307.01527,1099.56829
2309.2275,1098.78738
2309.2275,1099.56829
2311.43974,1098.78738
2311.43974,1099.56829
2313.65197,1098.78738
2313.65197,1099.56829
2315.86421,1098.78738
2315.86421,1099.56829
2318.07644,1099.56829
2318.07644,1098.78738
2320.28868,1099.56829
2320.28868,1098.78738
2322.50092,1099.56829
2322.50092,1100.3492
2324.71315,1101.13011
2324.71315,1100.3492
2326.92539,1101.91103
2326.92539,1101.13011
2329.13762,1101.91103
2329.13762,1101.13011
2331.34986,1101.91103
2331.34986,1101.13011
2333.56209,1102.69194
2333.56209,1101.13011
2335.77433,1101.91103
2335.77433,1100.3492
2337.98656,1101.13011
2337.98656,1102.69194
2340.1988,1101.91103
2340.1988,1102.69194
2342.41104,1101.91103
2342.41104,1102.69194
2344.62327,1102.69194
2344.62327,1101.91103
2346.83551,1102.69194
2346.83551,1101.91103
2349.04774,1101.13011
2349.04774,1101.91103
2351.25998,1101.13011
2351.25998,1100.3492
2353.47221,1100.3492
2353.47221,1099.56829
2355.68445,1098.78738
2355.68445,1099.56829
2357.89669,1098.78738
2357.89669,1099.56829
2360.10892,1099.56829
2360.10892,1098.78738
2362.32116,1099.56829
2362.32116,1098.78738
2364.53339,1098.78738
2364.53339,1099.56829
2366.74563,1099.56829
2366.74563,1098.78738
2368.95786,1098.78738
2368.95786,1099.56829
2371.1701,1099.56829
2371.1701,1098.78738
2373.38234,1098.78738
2373.38234,1099.56829
2375.59457,1099.56829
2375.59457,1100.3492
2377.80681,1100.3492
2377.80681,1101.13011
2380.01904,1101.13011
2380.01904,1101.91103
2382.23128,1101.13011
2382.23128,1101.91103
2384.44351,1101.91103
2384.44351,1101.13011
2386.65575,1101.91103
2386.65575,1101.13011
2388.86798,1101.13011
2388.86798,1101.91103
2391.08022,1101.13011
2391.08022,1101.91103
2393.29246,1100.3492
2393.29246,1101.13011
2395.50469,1100.3492
2395.50469,1099.56829
2397.71693,1099.56829
2397.71693,1098.78738
2399.92916,1099.56829
2399.92916,1098.78738
2402.1414,1098.78738
2402.1414,1099.56829
2404.35363,1099.56829
2404.35363,1098.78738
2406.56587,1099.56829
2406.56587,1098.78738
2408.77811,1099.56829
2408.77811,1098.78738
2410.99034,1099.56829
2410.99034,1098.78738
2413.20258,1099.56829
2413.20258,1098.78738
2415.41481,1099.56829
2415.41481,1098.78738
2417.62705,1099.56829
2417.62705,1098.78738
2419.83928,1098.78738
2419.83928,1099.56829
2422.05152,1099.56829
2422.05152,1098.78738
2424.26375,1099.56829
2424.26375,1098.78738
2426.47599,1099.56829
2426.47599,1098.78738
2428.68823,1098.78738
2428.68823,1099.56829
2430.90046,1098.78738
2430.90046,1099.56829
2433.1127,1098.78738
2433.1127,1099.56829
2435.32493,1099.56829
2435.32493,1098.78738
2437.53717,1099.56829
2437.53717,1098.78738
2439.7494,1098.78738
2439.7494,1099.56829
2441.96164,1099.56829
2441.96164,1098.78738
2444.17388,1098.78738
2444.17388,1099.56829
2446.38611,1099.56829
2446.38611,1098.78738
2448.59835,1099.56829
2448.59835,1098.78738
2450.81058,1098.78738
2450.81058,1099.56829
2453.02282,1098.78738
2453.02282,1099.56829
2455.23505,1098.78738
2455.23505,1099.56829
2457.44729,1099.56829
2457.44729,1098.78738
2459.65953,1098.78738
2459.65953,1099.56829
2461.87176,1099.56829
2461.87176,1100.3492
2464.084,1101.13011
2464.084,1100.3492
2466.29623,1101.91103
2466.29623,1101.13011
2468.50847,1101.13011
2468.50847,1101.91103
2470.7207,1101.13011
2470.7207,1101.91103
2472.93294,1101.91103
2472.93294,1101.13011
2475.14517,1101.13011
2475.14517,1101.91103
2477.35741,1101.13011
2477.35741,1101.91103
2479.56965,1101.91103
2479.56965,1101.13011
2481.78188,1101.91103
2481.78188,1101.13011
2483.99412,1100.3492
2483.99412,1101.91103
2486.20635,1099.56829
2486.20635,1101.91103
2488.41859,1101.91103
2488.41859,1099.56829
2490.63082,1101.91103
2490.63082,1099.56829
2492.84306,1099.56829
2492.84306,1101.91103
2495.0553,1101.91103
2495.0553,1099.56829
2497.26753,1101.91103
2497.26753,1099.56829
2499.47977,1099.56829
2499.47977,1101.91103
2501.692,1101.13011
2501.692,1098.78738
2503.90424,1100.3492
2503.90424,1098.00646
2506.11647,1098.00646
2506.11647,1099.56829
2508.32871,1098.78738
2508.32871,1098.00646
2510.54095,1098.78738
2510.54095,1098.00646
2512.75318,1098.00646
2512.75318,1098.78738
2514.96542,1098.00646
2514.96542,1098.78738
2517.17765,1098.78738
2517.17765,1098.00646
2519.38989,1098.78738
2519.38989,1098.00646
2521.60212,1098.78738
2521.60212,1098.00646
2523.81436,1098.00646
2523.81436,1098.78738
2526.02659,1098.00646
2526.02659,1098.78738
2528.23883,1098.00646
2528.23883,1098.78738
2530.45107,1098.78738
2530.45107,1098.00646
2532.6633,1098.00646
2532.6633,1098.78738
2534.87554,1098.00646
2534.87554,1098.78738
2537.08777,1098.78738
2537.08777,1098.00646
2539.30001,1098.78738
2539.30001,1098.00646
2541.51224,1098.78738
2541.51224,1098.00646
2543.72448,1098.78738
2543.72448,1098.00646
2545.93672,1098.78738
2545.93672,1098.00646
2548.14895,1098.00646
2548.14895,1098.78738
2550.36119,1098.00646
2550.36119,1098.78738
2552.57342,1098.00646
2552.57342,1098.78738
2554.78566,1098.00646
2554.78566,1098.78738
2556.99789,1098.00646
2556.99789,1098.78738
2559.21013,1098.78738
2559.21013,1098.00646
2561.42236,1098.00646
2561.42236,1098.78738
2563.6346,1098.78738
2563.6346,1098.00646
2565.84684,1098.78738
2565.84684,1098.00646
2568.05907,1098.78738
2568.05907,1098.00646
2570.27131,1098.00646
2570.27131,1098.78738
2572.48354,1098.78738
2572.48354,1098.00646
2574.69578,1098.00646
2574.69578,1098.78738
2576.90801,1098.78738
2576.90801,1098.00646
2579.12025,1098.78738
2579.12025,1098.00646
2581.33249,1098.00646
2581.33249,1098.78738
2583.54472,1098.78738
2583.54472,1098.00646
2585.75696,1098.78738
2585.75696,1098.00646
2587.96919,1098.00646
2587.96919,1098.78738
2590.18143,1098.00646
2590.18143,1098.78738
2592.39366,1098.00646
2592.39366,1098.78738
2594.6059,1098.78738
2594.6059,1098.00646
2596.81814,1098.78738
2596.81814,1098.00646
2599.03037,1098.00646
2599.03037,1098.78738
2601.24261,1098.00646
2601.24261,1098.78738
2603.45484,1098.78738
2603.45484,1098.00646
2605.66708,1098.00646
2605.66708,1098.78738
2607.87931,1098.78738
2607.87931,1098.00646
2610.09155,1098.78738
2610.09155,1098.00646
2612.30378,1098.00646
2612.30378,1098.78738
2614.51602,1098.78738
2614.51602,1098.00646
2616.72826,1098.00646
2616.72826,1098.78738
2618.94049,1098.78738
2618.94049,1098.00646
2621.15273,1098.00646
2621.15273,1098.78738
2623.36496,1098.78738
2623.36496,1098.00646
2625.5772,1098.00646
2625.5772,1098.78738
2627.78943,1098.00646
2627.78943,1098.78738
2630.00167,1098.78738
2630.00167,1098.00646
2632.21391,1098.00646
2632.21391,1098.78738
2634.42614,1098.00646
2634.42614,1098.78738
2636.63838,1098.78738
2636.63838,1098.00646
2638.85061,1098.00646
2638.85061,1098.78738
2641.06285,1098.00646
2641.06285,1098.78738
2643.27508,1098.78738
2643.27508,1098.00646
2645.48732,1098.78738
2645.48732,1098.00646
2647.69955,1098.00646
2647.69955,1098.78738
2649.91179,1098.00646
2649.91179,1098.78738
2652.12403,1098.00646
2652.12403,1098.78738
2654.33626,1098.00646
2654.33626,1098.78738
2656.5485,1098.78738
2656.5485,1098.00646
2658.76073,1098.78738
2658.76073,1098.00646
2660.97297,1098.00646
2660.97297,1098.78738
2663.1852,1098.78738
2663.1852,1098.00646
2665.39744,1098.78738
2665.39744,1098.00646
2667.60968,1098.78738
2667.60968,1098.00646
2669.82191,1098.00646
2669.82191,1098.78738
2672.03415,1098.78738
2672.03415,1098.00646
2674.24638,1098.78738
2674.24638,1098.00646
2676.45862,1098.78738
2676.45862,1098.00646
2678.67085,1098.78738
2678.67085,1098.00646
2680.88309,1098.78738
2680.88309,1098.00646
2683.09533,1098.78738
2683.09533,1098.00646
2685.30756,1098.00646
2685.30756,1098.78738
2687.5198,1098.78738
2687.5198,1098.00646
2689.73203,1098.78738
2689.73203,1098.00646
2691.94427,1098.78738
2691.94427,1098.00646
2694.1565,1098.78738
2694.1565,1098.00646
2696.36874,1098.78738
2696.36874,1098.00646
2698.58097,1098.78738
2698.58097,1098.00646
2700.79321,1098.78738
2700.79321,1098.00646
2703.00545,1098.00646
2703.00545,1098.78738
2705.21768,1098.78738
2705.21768,1098.00646
2707.42992,1098.78738
2707.42992,1098.00646
2709.64215,1098.78738
2709.64215,1098.00646
2711.85439,1098.00646
2711.85439,1098.78738
2714.06662,1098.78738
2714.06662,1098.00646
2716.27886,1098.00646
2716.27886,1098.78738
2718.4911,1098.00646
2718.4911,1098.78738
2720.70333,1098.00646
2720.70333,1098.78738
2722.91557,1098.00646
2722.91557,1098.78738
2725.1278,1098.78738
2725.1278,1098.00646
2727.34004,1098.00646
2727.34004,1098.78738
2729.55227,1098.78738
2729.55227,1098.00646
2731.76451,1098.78738
2731.76451,1098.00646
2733.97675,1098.78738
2733.97675,1098.00646
2736.18898,1098.78738
2736.18898,1098.00646
2738.40122,1098.78738
2738.40122,1098.00646
2740.61345,1098.00646
2740.61345,1098.78738
2742.82569,1098.78738
2742.82569,1098.00646
2745.03792,1098.78738
2745.03792,1098.00646
2747.25016,1098.78738
2747.25016,1098.00646
2749.46239,1098.00646
2749.46239,1098.78738
2751.67463,1098.00646
2751.67463,1098.78738
2753.88687,1098.78738
2753.88687,1098.00646
2756.0991,1098.00646
2756.0991,1098.78738
2758.31134,1099.56829
2758.31134,1098.78738
2760.52357,1099.56829
2760.52357,1100.3492
2762.73581,1100.3492
2762.73581,1101.13011
2764.94804,1100.3492
2764.94804,1101.13011
2767.16028,1100.3492
2767.16028,1101.13011
2769.37252,1100.3492
2769.37252,1101.13011
2771.58475,1100.3492
2771.58475,1101.13011
2773.79699,1100.3492
2773.79699,1099.56829
2776.00922,1099.56829
2776.00922,1098.78738
2778.22146,1098.78738
2778.22146,1098.00646
2780.43369,1098.78738
2780.43369,1098.00646
2782.64593,1098.78738
2782.64593,1098.00646
2784.85816,1098.00646
2784.85816,1098.78738
2787.0704,1098.78738
2787.0704,1098.00646
2789.28264,1098.00646
2789.28264,1098.78738
2791.49487,1098.78738
2791.49487,1098.00646
2793.70711,1098.00646
2793.70711,1098.78738
2795.91934,1098.00646
2795.91934,1098.78738
2798.13158,1099.56829
2798.13158,1098.00646
2800.34381,1098.00646
2800.34381,1100.3492
2802.55605,1100.3492
2802.55605,1098.00646
2804.76829,1100.3492
2804.76829,1098.78738
2806.98052,1098.78738
2806.98052,1099.56829
2809.19276,1099.56829
2809.19276,1098.78738
2811.40499,1099.56829
2811.40499,1098.78738
2813.61723,1099.56829
2813.61723,1098.78738
2815.82946,1098.78738
2815.82946,1099.56829
2818.0417,1098.78738
2818.0417,1099.56829
2820.25394,1099.56829
2820.25394,1098.78738
2822.46617,1099.56829
2822.46617,1098.78738
2824.67841,1098.78738
2824.67841,1099.56829
2826.89064,1099.56829
2826.89064,1098.78738
2829.10288,1099.56829
2829.10288,1098.78738
2831.31511,1099.56829
2831.31511,1098.78738
2833.52735,1098.78738
2833.52735,1099.56829
2835.73958,1098.78738
2835.73958,1099.56829
2837.95182,1099.56829
2837.95182,1098.78738
2840.16406,1098.78738
2840.16406,1099.56829
2842.37629,1099.56829
2842.37629,1098.78738
2844.58853,1098.78738
2844.58853,1099.56829
2846.80076,1099.56829
2846.80076,1098.78738
2849.013,1098.78738
2849.013,1099.56829
2851.22523,1098.78738
2851.22523,1099.56829
2853.43747,1098.78738
2853.43747,1099.56829
2855.64971,1099.56829
2855.64971,1098.78738
2857.86194,1098.78738
2857.86194,1099.56829
2860.07418,1098.78738
2860.07418,1099.56829
2862.28641,1098.78738
2862.28641,1099.56829
2864.49865,1099.56829
2864.49865,1098.78738
2866.71088,1099.56829
2866.71088,1098.78738
2868.92312,1098.78738
2868.92312,1099.56829
2871.13536,1098.78738
2871.13536,1099.56829
2873.34759,1099.56829
2873.34759,1098.78738
2875.55983,1098.78738
2875.55983,1099.56829
2877.77206,1098.78738
2877.77206,1099.56829
2879.9843,1099.56829
2879.9843,1098.78738
2882.19653,1099.56829
2882.19653,1098.78738
2884.40877,1098.78738
2884.40877,1099.56829
2886.621,1098.78738
2886.621,1100.3492
2888.83324,1099.56829
2888.83324,1100.3492
2891.04548,1099.56829
2891.04548,1100.3492
2893.25771,1100.3492
2893.25771,1099.56829
2895.46995,1100.3492
2895.46995,1099.56829
2897.68218,1099.56829
2897.68218,1100.3492
2899.89442,1099.56829
2899.89442,1100.3492
2902.10665,1100.3492
2902.10665,1099.56829
2904.31889,1100.3492
2904.31889,1099.56829
2906.53113,1100.3492
2906.53113,1101.13011
2908.74336,1099.56829
2908.74336,1101.91103
2910.9556,1102.69194
2910.9556,1099.56829
2913.16783,1099.56829
2913.16783,1102.69194
2915.38007,1102.69194
2915.38007,1099.56829
2917.5923,1099.56829
2917.5923,1102.69194
2919.80454,1102.69194
2919.80454,1099.56829
2922.01677,1102.69194
2922.01677,1099.56829
2924.22901,1102.69194
2924.22901,1100.3492
2926.44125,1101.91103
2926.44125,1100.3492
2928.65348,1100.3492
2928.65348,1101.13011
2930.86572,1101.91103
2930.86572,1100.3492
2933.07795,1100.3492
2933.07795,1101.13011
2935.29019,1100.3492
2935.29019,1101.13011
2937.50242,1101.13011
2937.50242,1100.3492
2939.71466,1101.91103
2939.71466,1100.3492
2941.9269,1100.3492
2941.9269,1102.69194
2944.13913,1102.69194
2944.13913,1100.3492
2946.35137,1100.3492
2946.35137,1102.69194
2948.5636,1102.69194
2948.5636,1100.3492
2950.77584,1100.3492
2950.77584,1102.69194
2952.98807,1101.13011
2952.98807,1101.91103
2955.20031,1100.3492
2955.20031,1102.69194
2957.41255,1100.3492
2957.41255,1103.47285
2959.62478,1100.3492
2959.62478,1103.47285
2961.83702,1100.3492
2961.83702,1103.47285
2964.04925,1100.3492
2964.04925,1103.47285
2966.26149,1100.3492
2966.26149,1103.47285
2968.47372,1100.3492
2968.47372,1103.47285
2970.68596,1101.13011
2970.68596,1103.47285
2972.89819,1102.69194
2972.89819,1101.13011
2975.11043,1101.13011
2975.11043,1102.69194
2977.32267,1103.47285
2977.32267,1101.13011
2979.5349,1101.13011
2979.5349,1104.25377
2981.74714,1101.13011
2981.74714,1104.25377
2983.95937,1103.47285
2983.95937,1101.13011
2986.17161,1101.13011
2986.17161,1103.47285
2988.38384,1101.13011
2988.38384,1103.47285
2990.59608,1101.13011
2990.59608,1103.47285
2992.80832,1104.25377
2992.80832,1101.91103
2995.02055,1101.13011
2995.02055,1103.47285
2997.23279,1102.69194
2997.23279,1101.13011
2999.44502,1101.91103
2999.44502,1101.13011
3001.65726,1101.91103
3001.65726,1101.13011
3003.86949,1101.13011
3003.86949,1101.91103
3006.08173,1101.13011
3006.08173,1101.91103
3008.29396,1102.69194
3008.29396,1101.13011
3010.5062,1103.47285
3010.5062,1101.91103
3012.71844,1101.91103
3012.71844,1102.69194
3014.93067,1102.69194
3014.93067,1101.91103
3017.14291,1101.91103
3017.14291,1102.69194
3019.35514,1101.91103
3019.35514,1103.47285
3021.56738,1102.69194
3021.56738,1103.47285
3023.77961,1101.91103
3023.77961,1102.69194
3025.99185,1102.69194
3025.99185,1101.91103
3028.20409,1102.69194
3028.20409,1101.91103
3030.41632,1101.91103
3030.41632,1102.69194
3032.62856,1103.47285
3032.62856,1101.91103
3034.84079,1103.47285
3034.84079,1102.69194
3037.05303,1102.69194
3037.05303,1103.47285
3039.26526,1102.69194
3039.26526,1103.47285
3041.4775,1104.25377
3041.4775,1102.69194
3043.68974,1103.47285
3043.68974,1104.25377
3045.90197,1103.47285
3045.90197,1102.69194
3048.11421,1103.47285
3048.11421,1102.69194
3050.32644,1102.69194
3050.32644,1104.25377
3052.53868,1104.25377
3052.53868,1103.47285
3054.75091,1103.47285
3054.75091,1104.25377
3056.96315,1105.03468
3056.96315,1103.47285
3059.17538,1104.25377
3059.17538,1105.03468
3061.38762,1103.47285
3061.38762,1104.25377
3063.59986,1104.25377
3063.59986,1103.47285
3065.81209,1105.03468
3065.81209,1103.47285
3068.02433,1104.25377
3068.02433,1105.03468
3070.23656,1105.03468
3070.23656,1104.25377
3072.4488,1104.25377
3072.4488,1105.03468
3074.66103,1104.25377
3074.66103,1105.03468
3076.87327,1105.03468
3076.87327,1104.25377
3079.08551,1105.03468
3079.08551,1105.81559
3081.29774,1105.81559
3081.29774,1105.03468
3083.50998,1105.81559
3083.50998,1105.03468
3085.72221,1106.5965
3085.72221,1105.81559
3087.93445,1105.81559
3087.93445,1106.5965
3090.14668,1106.5965
3090.14668,1105.81559
3092.35892,1106.5965
3092.35892,1107.37742
3094.57116,1107.37742
3094.57116,1106.5965
3096.78339,1107.37742
3096.78339,1106.5965
3098.99563,1107.37742
3098.99563,1106.5965
3101.20786,1107.37742
3101.20786,1106.5965
3103.4201,1106.5965
3103.4201,1107.37742
3105.63233,1108.15833
3105.63233,1107.37742
3107.84457,1107.37742
3107.84457,1108.15833
3110.0568,1108.15833
3110.0568,1107.37742
3112.26904,1108.15833
3112.26904,1107.37742
3114.48128,1108.15833
3114.48128,1108.93924
3116.69351,1108.15833
3116.69351,1108.93924
3118.90575,1108.93924
3118.90575,1108.15833
3121.11798,1108.93924
3121.11798,1109.72016
3123.33022,1109.72016
3123.33022,1110.50107
3125.54245,1108.93924
3125.54245,1111.28198
3127.75469,1112.06289
3127.75469,1109.72016
3129.96693,1112.06289
3129.96693,1110.50107
3132.17916,1112.06289
3132.17916,1109.72016
3134.3914,1110.50107
3134.3914,1112.06289
3136.60363,1110.50107
3136.60363,1112.06289
3138.81587,1111.28198
3138.81587,1112.06289
3141.0281,1112.84381
3141.0281,1111.28198
3143.24034,1113.62472
3143.24034,1111.28198
3145.45257,1114.40563
3145.45257,1111.28198
3147.66481,1111.28198
3147.66481,1114.40563
3149.87705,1114.40563
3149.87705,1112.06289
3152.08928,1112.06289
3152.08928,1114.40563
3154.30152,1114.40563
3154.30152,1112.84381
3156.51375,1115.18655
3156.51375,1112.84381
3158.72599,1112.84381
3158.72599,1115.96746
3160.93822,1113.62472
3160.93822,1116.74837
3163.15046,1116.74837
3163.15046,1113.62472
3165.3627,1113.62472
3165.3627,1116.74837
3167.57493,1115.96746
3167.57493,1113.62472
3169.78717,1115.96746
3169.78717,1114.40563
3171.9994,1115.18655
3171.9994,1115.96746
3174.21164,1115.96746
3174.21164,1115.18655
3176.42387,1115.18655
3176.42387,1115.96746
3178.63611,1115.96746
3178.63611,1115.18655
3180.84835,1115.96746
3180.84835,1116.74837
3183.06058,1117.52928
3183.06058,1116.74837
3185.27282,1115.96746
3185.27282,1118.3102
3187.48505,1119.09111
3187.48505,1116.74837
3189.69729,1116.74837
3189.69729,1119.87202
3191.90952,1119.87202
3191.90952,1116.74837
3194.12176,1119.87202
3194.12176,1117.52928
3196.33399,1119.87202
3196.33399,1119.09111
3196.33399,1118.3102
3198.54623,1118.3102
3198.54623,1119.87202
3200.75847,1119.09111
3200.75847,1119.87202
3202.9707,1119.87202
3202.9707,1120.65293
3202.9707,1119.09111
3205.18294,1120.65293
3205.18294,1121.43385
3207.39517,1121.43385
3209.60741,1122.21476
3211.81964,1121.43385
3211.81964,1122.99567
3211.81964,1123.77659
3211.81964,1122.21476
3214.03188,1123.77659
3216.24412,1123.77659
3218.45635,1124.5575
3218.45635,1123.77659
3220.66859,1124.5575
3222.88082,1124.5575
3225.09306,1123.77659
3227.30529,1122.99567
3229.51753,1122.99567
3231.72976,1122.99567
3233.942,1122.99567
3236.15424,1124.5575
3236.15424,1125.33841
3236.15424,1126.11932
3236.15424,1126.90024
3236.15424,1123.77659
3238.36647,1127.68115
3240.57871,1127.68115
3242.79094,1127.68115
3245.00318,1128.46206
3245.00318,1127.68115
3247.21541,1128.46206
3249.42765,1128.46206
3251.63989,1128.46206
3253.85212,1128.46206
3253.85212,1127.68115
3253.85212,1130.02389
3253.85212,1129.24298
3256.06436,1130.02389
3258.27659,1130.8048
3260.48883,1130.8048
3262.70106,1130.8048
3264.9133,1130.02389
3267.12554,1129.24298
3269.33777,1128.46206
3271.55001,1129.24298
3273.76224,1129.24298
3275.97448,1129.24298
3278.18671,1129.24298
3280.39895,1129.24298
3282.61118,1130.02389
3284.82342,1130.8048
3287.03566,1130.8048
3289.24789,1130.8048
3291.46013,1130.8048
3293.67236,1131.58571
3295.8846,1131.58571
3298.09683,1131.58571
3300.30907,1132.36663
3302.52131,1131.58571
3304.73354,1131.58571
3306.94578,1132.36663
3309.15801,1133.14754
3311.37025,1133.14754
3313.58248,1133.14754
3315.79472,1133.14754
3318.00696,1133.92845
3320.21919,1133.14754
3322.43143,1133.14754
3324.64366,1133.92845
3326.8559,1133.92845
3329.06813,1134.70936
3331.28037,1135.49028
3333.4926,1134.70936
3335.70484,1135.49028
3337.91708,1135.49028
3340.12931,1135.49028
3342.34155,1135.49028
3344.55378,1135.49028
3346.76602,1135.49028
3348.97825,1136.27119
3351.19049,1136.27119
3353.40273,1137.0521
3355.61496,1137.0521
3357.8272,1137.83302
3360.03943,1137.83302
3362.25167,1138.61393
3364.4639,1138.61393
3366.67614,1137.83302
3368.88837,1137.83302
3371.10061,1138.61393
3373.31285,1138.61393
3375.52508,1139.39484
3377.73732,1139.39484
3379.94955,1140.17575
3382.16179,1140.95667
3384.37402,1140.95667
3386.58626,1140.95667
3388.7985,1140.95667
3391.01073,1141.73758
3393.22297,1141.73758
3395.4352,1141.73758
3397.64744,1142.51849
3399.85967,1142.51849
3402.07191,1142.51849
3404.28415,1142.51849
3406.49638,1143.29941
3408.70862,1143.29941
3410.92085,1143.29941
3413.13309,1143.29941
3415.34532,1144.08032
3417.55756,1144.08032
3419.76979,1144.08032
3421.98203,1144.08032
3424.19427,1144.08032
3426.4065,1144.08032
3428.61874,1144.08032
3430.83097,1144.08032
3433.04321,1144.08032
3435.25544,1144.86123
3437.46768,1144.86123
3439.67992,1144.86123
3441.89215,1144.86123
3444.10439,1144.86123
3446.31662,1144.86123
3448.52886,1145.64214
3450.74109,1146.42306
3452.95333,1146.42306
3455.16557,1146.42306
3457.3778,1146.42306
3459.59004,1146.42306
3461.80227,1145.64214
3464.01451,1145.64214
3466.22674,1144.86123
3466.22674,1144.08032
3466.22674,1143.29941
3466.22674,1142.51849
3466.22674,1141.73758
3466.22674,1145.64214
3468.43898,1140.95667
3470.65121,1140.95667
3472.86345,1140.17575
3472.86345,1140.95667
3475.07569,1140.17575
3477.28792,1139.39484
3479.50016,1139.39484
3481.71239,1139.39484
3483.92463,1139.39484
3486.13686,1139.39484
3488.3491,1139.39484
3488.3491,1138.61393
3490.56134,1138.61393
3492.77357,1137.83302
3492.77357,1137.0521
3492.77357,1136.27119
3494.98581,1136.27119
3497.19804,1136.27119
3497.19804,1135.49028
3497.19804,1134.70936
3499.41028,1134.70936
3501.62251,1133.92845
3501.62251,1134.70936
3503.83475,1133.14754
3506.04698,1133.14754
3508.25922,1133.14754
3510.47146,1133.14754
3512.68369,1132.36663
3512.68369,1133.14754
3512.68369,1131.58571
3514.89593,1131.58571
3514.89593,1130.8048
3517.10816,1130.02389
3519.3204,1130.02389
3521.53263,1129.24298
3523.74487,1129.24298
3525.95711,1129.24298
3528.16934,1129.24298
3528.16934,1128.46206
3530.38158,1127.68115
3530.38158,1128.46206
3532.59381,1127.68115
3534.80605,1126.90024
3537.01828,1126.11932
3537.01828,1126.90024
3539.23052,1126.11932
3541.44276,1126.11932
3543.65499,1124.5575
3543.65499,1125.33841
3545.86723,1124.5575
3548.07946,1124.5575
3548.07946,1123.77659
3550.2917,1122.99567
3550.2917,1123.77659
3552.50393,1122.99567
3554.71617,1122.99567
3556.9284,1122.99567
3559.14064,1122.99567
3561.35288,1122.99567
3563.56511,1122.99567
3565.77735,1122.99567
3567.98958,1122.99567
3570.20182,1122.99567
3570.20182,1121.43385
3570.20182,1122.21476
3572.41405,1120.65293
3574.62629,1120.65293
3576.83853,1119.87202
3576.83853,1120.65293
3579.05076,1119.87202
3581.263,1119.87202
3583.47523,1119.87202
3585.68747,1119.87202
3585.68747,1119.09111
3587.8997,1118.3102
3590.11194,1118.3102
3592.32417,1118.3102
3592.32417,1117.52928
3594.53641,1116.74837
3594.53641,1117.52928
3594.53641,1115.96746
3594.53641,1115.18655
3594.53641,1114.40563
3596.74865,1114.40563
3596.74865,1113.62472
3598.96088,1113.62472
3601.17312,1113.62472
3601.17312,1112.84381
3603.38535,1112.84381
3605.59759,1112.84381
3605.59759,1112.06289
3607.80982,1112.06289
3610.02206,1111.28198
3610.02206,1112.06289
3612.2343,1111.28198
3614.44653,1110.50107
3614.44653,1111.28198
3616.65877,1110.50107
3618.871,1110.50107
3618.871,1109.72016
3621.08324,1109.72016
3623.29547,1109.72016
3623.29547,1108.93924
3625.50771,1108.93924
3627.71995,1108.93924
3629.93218,1108.93924
3629.93218,1108.15833
3632.14442,1108.15833
3634.35665,1108.15833
3636.56889,1108.15833
3638.78112,1107.37742
3640.99336,1107.37742
3643.20559,1107.37742
3645.41783,1106.5965
3647.63007,1106.5965
3649.8423,1105.81559
3652.05454,1105.81559
3654.26677,1105.81559
3656.47901,1105.03468
3658.69124,1105.03468
3660.90348,1105.03468
3663.11572,1105.03468
3665.32795,1105.03468
3667.54019,1104.25377
3669.75242,1105.03468
3671.96466,1104.25377
3674.17689,1105.03468
3676.38913,1105.81559
3678.60137,1105.03468
3680.8136,1105.81559
3683.02584,1105.81559
3685.23807,1105.81559
3687.45031,1105.81559
3689.66254,1105.81559
3691.87478,1105.81559
3694.08701,1105.81559
3696.29925,1106.5965
3698.51149,1107.37742
3700.72372,1107.37742
3702.93596,1107.37742
3705.14819,1106.5965
3707.36043,1105.81559
3709.57266,1106.5965
3711.7849,1106.5965
3713.99714,1106.5965
3716.20937,1105.81559
3718.42161,1105.81559
3720.63384,1105.03468
3722.84608,1104.25377
3725.05831,1104.25377
3727.27055,1105.03468
3729.48278,1105.81559
3731.69502,1105.81559
3733.90726,1105.03468
3736.11949,1104.25377
3738.33173,1103.47285
3740.54396,1102.69194
3742.7562,1101.91103
3744.96843,1102.69194
3747.18067,1103.47285
3749.39291,1103.47285
3751.60514,1103.47285
3753.81738,1102.69194
3756.02961,1101.91103
3758.24185,1101.91103
3760.45408,1101.91103
3762.66632,1101.91103
3764.87856,1101.91103
3767.09079,1102.69194
3769.30303,1101.91103
3771.51526,1101.13011
3773.7275,1100.3492
3775.93973,1100.3492
3778.15197,1100.3492
3780.3642,1100.3492
3782.57644,1100.3492
3784.78868,1100.3492
3787.00091,1101.13011
3789.21315,1101.91103
3791.42538,1102.69194
3793.63762,1103.47285
3795.84985,1104.25377
3798.06209,1104.25377
3800.27433,1104.25377
3802.48656,1104.25377
3804.6988,1103.47285
3806.91103,1102.69194
3809.12327,1101.91103
3811.3355,1101.13011
3813.54774,1100.3492
3815.75998,1100.3492
3817.97221,1100.3492
3820.18445,1100.3492
3822.39668,1100.3492
3824.60892,1100.3492
3826.82115,1100.3492
3829.03339,1100.3492
3831.24562,1100.3492
3833.45786,1100.3492
3835.6701,1100.3492
3837.88233,1100.3492
3840.09457,1100.3492
3842.3068,1100.3492
3844.51904,1100.3492
3846.73127,1100.3492
3848.94351,1100.3492
3851.15575,1100.3492
3853.36798,1100.3492
3855.58022,1100.3492
3857.79245,1100.3492
3860.00469,1100.3492
3862.21692,1100.3492
3864.42916,1100.3492
3866.64139,1100.3492
3868.85363,1100.3492
3871.06587,1100.3492
3873.2781,1100.3492
3875.49034,1100.3492
3877.70257,1100.3492
3879.91481,1100.3492
3882.12704,1100.3492
3884.33928,1100.3492
3886.55152,1100.3492
3888.76375,1100.3492
3890.97599,1100.3492
3893.18822,1100.3492
3895.40046,1100.3492
3897.61269,1100.3492
3899.82493,1100.3492
3902.03717,1100.3492
3904.2494,1100.3492
3906.46164,1100.3492
3908.67387,1100.3492
3910.88611,1100.3492
3913.09834,1100.3492
3915.31058,1100.3492
3917.52281,1100.3492
3919.73505,1100.3492
3921.94729,1100.3492
3924.15952,1100.3492
3926.37176,1100.3492
3928.58399,1100.3492
3930.79623,1100.3492
3933.00846,1100.3492
3935.2207,1100.3492
3937.43294,1100.3492
3939.64517,1100.3492
3941.85741,1100.3492
3944.06964,1100.3492
3946.28188,1100.3492
3948.49411,1100.3492
3950.70635,1100.3492
3952.91858,1100.3492
3955.13082,1100.3492
3957.34306,1100.3492
3959.55529,1100.3492
3961.76753,1100.3492
3963.97976,1100.3492
3966.192,1100.3492
3968.40423,1100.3492
3970.61647,1100.3492
3972.82871,1100.3492
3975.04094,1100.3492
3977.25318,1100.3492
3979.46541,1100.3492
3981.67765,1101.13011
3983.88988,1101.91103
3986.10212,1101.91103
3988.31436,1101.91103
3990.52659,1101.91103
3992.73883,1101.91103
3994.95106,1101.91103
3997.1633,1101.91103
3999.37553,1101.91103
4001.58777,1101.91103
4001.58777,1101.13011
4001.58777,1100.3492
4001.58777,1099.56829
4001.58777,1098.78738
4001.58777,1098.00646
4001.58777,1097.22555
4001.58777,1096.44464
