Raman Shift,Intensity 
400,14.33567036
401,14.48815784
402,14.37855436
403,14.49935285
404,14.43418965
405,14.36140306
406,14.29129142
407,14.47537831
408,14.32055086
409,14.30018454
410,14.3621533
411,14.31152825
412,14.40798406
413,14.55670316
414,14.4017267
415,14.35209054
416,14.39539608
417,14.44760965
418,14.34888282
419,14.42368224
420,14.50913129
421,14.30875979
422,14.39102483
423,14.27825094
424,14.40917374
425,14.41607516
426,14.34511257
427,14.43687756
428,14.5150442
429,14.4420275
430,14.32868817
431,14.346179
432,14.49557331
433,14.46107281
434,14.39776353
435,14.47499378
436,14.39330528
437,14.42340996
438,14.39484224
439,14.40754213
440,14.30630058
441,14.41110583
442,14.32464487
443,14.36338137
444,14.52134823
445,14.36179418
446,14.30224469
447,14.32514115
448,14.41235697
449,14.36892778
450,14.48454358
451,14.37186101
452,14.32473556
453,14.49541435
454,14.35753221
455,14.39548246
456,14.31766885
457,14.40594457
458,14.36674625
459,14.42226404
460,14.4569249
461,14.25080401
462,14.47104623
463,14.51351779
464,14.3935684
465,14.36310447
466,14.36270471
467,14.26352315
468,14.4603665
469,14.41287017
470,14.40897392
471,14.4163974
472,14.43345836
473,14.44919574
474,14.47489122
475,14.3616538
476,14.38227999
477,14.39948307
478,14.31559074
479,14.52077966
480,14.46429202
481,14.37549674
482,14.39778386
483,14.3630055
484,14.46438352
485,14.41101662
486,14.39597458
487,14.48709113
488,14.50364309
489,14.33847613
490,14.33654355
491,14.31444816
492,14.32787885
493,14.45067525
494,14.39117058
495,14.3316857
496,14.27079882
497,14.35768982
498,14.53226723
499,14.3927425
500,14.29053597
501,14.3949982
502,14.46845881
503,14.34735196
504,14.43872283
505,14.28440271
506,14.4784495
507,14.35070746
508,14.38591982
509,14.46481174
510,14.44149249
511,14.48731071
512,14.46703926
513,14.46356313
514,14.57557444
515,14.29326375
516,14.33276753
517,14.41719487
518,14.38455092
519,14.41612557
520,14.25638786
521,14.42421326
522,14.41823173
523,14.3404592
524,14.34234812
525,14.38151826
526,14.42296078
527,14.39445032
528,14.35312461
529,14.35770247
530,14.32154115
531,14.3493234
532,14.42188807
533,14.42570571
534,14.37974643
535,14.33332819
536,14.44956622
537,14.42017821
538,14.44927225
539,14.30372052
540,14.41927827
541,14.35605821
542,14.39034646
543,14.37985497
544,14.40069763
545,14.39843842
546,14.39655069
547,14.33940552
548,14.48474434
549,14.40706973
550,14.45308471
551,14.43973679
552,14.39032598
553,14.32292168
554,14.43872748
555,14.37355861
556,14.44029783
557,14.47237068
558,14.39638927
559,14.4734347
560,14.33940293
561,14.44562767
562,14.53195612
563,14.39661185
564,14.2716695
565,14.38252355
566,14.4580616
567,14.39267354
568,14.47937508
569,14.40940868
570,14.46394868
571,14.34174813
572,14.39360481
573,14.49334318
574,14.43238382
575,14.47534674
576,14.27771588
577,14.36638825
578,14.44452735
579,14.38006937
580,14.48819205
581,14.28155211
582,14.48359492
583,14.35795496
584,14.39546163
585,14.48172225
586,14.3972593
587,14.38861129
588,14.39068821
589,14.48662562
590,14.39848435
591,14.3346583
592,14.39637126
593,14.3447032
594,14.44154961
595,14.49109059
596,14.47503637
597,14.41372912
598,14.33960623
599,14.36910591
600,14.30235752
601,14.32971978
602,14.42764997
603,14.29856172
604,14.35987401
605,14.3489512
606,14.52826988
607,14.31879779
608,14.41498985
609,14.526672
610,14.40966495
611,14.33470309
612,14.4409716
613,14.39081979
614,14.33080474
615,14.3877118
616,14.37750946
617,14.37734395
618,14.36729347
619,14.53332827
620,14.39436572
621,14.41469655
622,14.48630885
623,14.32140331
624,14.41050354
625,14.42961841
626,14.3410502
627,14.39379583
628,14.52900242
629,14.51623354
630,14.45768753
631,14.36282766
632,14.55330042
633,14.47673397
634,14.3796585
635,14.31382647
636,14.33065996
637,14.35490678
638,14.44288866
639,14.39145263
640,14.38227638
641,14.34690379
642,14.39378114
643,14.40507465
644,14.42727595
645,14.35693018
646,14.29437995
647,14.31798512
648,14.28245115
649,14.43935935
650,14.29116861
651,14.46351725
652,14.37193888
653,14.38339853
654,14.27111324
655,14.40454385
656,14.37633314
657,14.27199242
658,14.43112778
659,14.49859738
660,14.3064946
661,14.47313427
662,14.34445342
663,14.39033678
664,14.28954961
665,14.31583409
666,14.41427272
667,14.34369051
668,14.363188
669,14.50495265
670,14.41151054
671,14.44152157
672,14.4818507
673,14.47558623
674,14.42335876
675,14.4049043
676,14.45005913
677,14.32146073
678,14.41139339
679,14.37291808
680,14.46568744
681,14.31598755
682,14.40271662
683,14.44515073
684,14.54112708
685,14.30852197
686,14.52994106
687,14.36951711
688,14.3622252
689,14.38598455
690,14.47329571
691,14.41160686
692,14.37811029
693,14.382325
694,14.38084485
695,14.31018252
696,14.48726452
697,14.45355977
698,14.35814484
699,14.48989754
700,14.44384121
701,14.24001393
702,14.36576514
703,14.32406661
704,14.43389522
705,14.3775728
706,14.38739129
707,14.53768088
708,14.38147424
709,14.27864792
710,14.47815451
711,14.41045095
712,14.42611467
713,14.47535164
714,14.38747281
715,14.37365179
716,14.44761812
717,14.39125434
718,14.45116724
719,14.41508684
720,14.40796425
721,14.46061615
722,14.54853069
723,14.41525307
724,14.3889939
725,14.39828844
726,14.28779107
727,14.28266065
728,14.4191665
729,14.36276395
730,14.37751554
731,14.37416458
732,14.36563128
733,14.28017831
734,14.28738867
735,14.33539309
736,14.32506093
737,14.37896738
738,14.35138201
739,14.36820756
740,14.31552782
741,14.44406479
742,14.40596393
743,14.36545431
744,14.4267951
745,14.34407798
746,14.37081005
747,14.37754891
748,14.3086504
749,14.38251312
750,14.44331554
751,14.42868663
752,14.40140972
753,14.40242428
754,14.32689068
755,14.31433232
756,14.49278674
757,14.46308759
758,14.36760917
759,14.44607897
760,14.38414901
761,14.31814818
762,14.48177059
763,14.35748225
764,14.32097164
765,14.47956485
766,14.51007253
767,14.44606458
768,14.4521176
769,14.44488345
770,14.39103438
771,14.42607603
772,14.42335571
773,14.36023819
774,14.41686406
775,14.36122556
776,14.32020361
777,14.48639846
778,14.36524271
779,14.35724893
780,14.33163082
781,14.41295562
782,14.42579939
783,14.28284168
784,14.47286178
785,14.41796343
786,14.33771155
787,14.3880556
788,14.34586861
789,14.21165365
790,14.54244421
791,14.29224371
792,14.27912178
793,14.46377566
794,14.40138333
795,14.29931711
796,14.42480663
797,14.50762249
798,14.3054885
799,14.4713233
800,14.35089661
801,14.4561677
802,14.36873101
803,14.41472547
804,14.31635491
805,14.45515511
806,14.38972506
807,14.27863951
808,14.41698368
809,14.44488378
810,14.42910549
811,14.37571294
812,14.30673772
813,14.42431754
814,14.41888863
815,14.35931016
816,14.26828435
817,14.20361617
818,14.43554161
819,14.36365085
820,14.42196719
821,14.37688844
822,14.45858918
823,14.43335745
824,14.4489547
825,14.46195842
826,14.40124014
827,14.44712743
828,14.4122759
829,14.25167625
830,14.4200631
831,14.33411003
832,14.41994784
833,14.51467911
834,14.42666948
835,14.40429199
836,14.33209763
837,14.41739408
838,14.37829488
839,14.30705402
840,14.44453519
841,14.47072292
842,14.476115
843,14.42840709
844,14.33242905
845,14.40912521
846,14.36749515
847,14.47543669
848,14.3896735
849,14.4854666
850,14.43779178
851,14.47191531
852,14.46236734
853,14.46035227
854,14.3662586
855,14.29321569
856,14.37263747
857,14.53833756
858,14.41197194
859,14.3749802
860,14.38819374
861,14.35360486
862,14.3529617
863,14.45904761
864,14.30791672
865,14.40071515
866,14.42130719
867,14.47605002
868,14.35102707
869,14.34741447
870,14.54294249
871,14.46256859
872,14.23164414
873,14.33489208
874,14.47569018
875,14.38046657
876,14.40887376
877,14.30520578
878,14.33654984
879,14.44789872
880,14.41101388
881,14.44148644
882,14.34223247
883,14.42279126
884,14.30976036
885,14.40545894
886,14.40950869
887,14.40134623
888,14.39557908
889,14.32678909
890,14.29751166
891,14.40762738
892,14.42299103
893,14.42150064
894,14.43289317
895,14.4293589
896,14.37671367
897,14.42469775
898,14.41101437
899,14.36304797
900,14.32528787
901,14.35589951
902,14.35021159
903,14.32776115
904,14.38307086
905,14.32702067
906,14.35980573
907,14.40258124
908,14.39993088
909,14.38904836
910,14.39560821
911,14.39187255
912,14.44173279
913,14.36721634
914,14.52739522
915,14.38153328
916,14.51497406
917,14.27776764
918,14.33559842
919,14.37039371
920,14.30821358
921,14.48640761
922,14.48728539
923,14.32897588
924,14.25852723
925,14.23158144
926,14.38269593
927,14.33253199
928,14.37410196
929,14.44789672
930,14.41091731
931,14.29871799
932,14.48696487
933,14.45869896
934,14.45640231
935,14.31995116
936,14.38094553
937,14.43968994
938,14.39611848
939,14.41800342
940,14.33131215
941,14.51148047
942,14.41247147
943,14.3336281
944,14.44897343
945,14.38799109
946,14.28275638
947,14.43721573
948,14.40207083
949,14.39971255
950,14.46909851
951,14.23202003
952,14.45885823
953,14.53892415
954,14.32556294
955,14.45559037
956,14.37598649
957,14.31127714
958,14.35565139
959,14.39132482
960,14.2909091
961,14.35248922
962,14.40278978
963,14.57605835
964,14.41085791
965,14.44017358
966,14.4122303
967,14.3175684
968,14.38640921
969,14.55773405
970,14.37263475
971,14.49480866
972,14.35299636
973,14.43438366
974,14.37487174
975,14.41195541
976,14.45805277
977,14.49111746
978,14.38268615
979,14.39917805
980,14.37691932
981,14.44464387
982,14.41008897
983,14.31637564
984,14.39734911
985,14.42220981
986,14.29569854
987,14.40070433
988,14.42365592
989,14.2481091
990,14.41782213
991,14.41843969
992,14.37182579
993,14.41161124
994,14.39832032
995,14.33018528
996,14.36820797
997,14.39676427
998,14.45421707
999,14.33560991
1000,14.35571451
1001,14.46243689
1002,14.39674183
1003,14.42571092
1004,14.35625156
1005,14.47183454
1006,14.38798008
1007,14.33099935
1008,14.36025195
1009,14.51041272
1010,14.38737939
1011,14.43650216
1012,14.45380586
1013,14.37306283
1014,14.3595756
1015,14.40392571
1016,14.47828911
1017,14.32556076
1018,14.39153803
1019,14.32168127
1020,14.30304914
1021,14.32565159
1022,14.26835626
1023,14.47649798
1024,14.50455894
1025,14.29522216
1026,14.47966062
1027,14.36129559
1028,14.43130407
1029,14.38806658
1030,14.45353295
1031,14.27940113
1032,14.47370465
1033,14.49706682
1034,14.43112561
1035,14.53802917
1036,14.32889827
1037,14.39132894
1038,14.29506239
1039,14.32809181
1040,14.39210322
1041,14.48709364
1042,14.45211541
1043,14.35116326
1044,14.51721698
1045,14.40181742
1046,14.30574461
1047,14.3922488
1048,14.27652907
1049,14.42333506
1050,14.36819669
1051,14.38700896
1052,14.44165294
1053,14.40042597
1054,14.50010985
1055,14.3969034
1056,14.23944234
1057,14.3329157
1058,14.26490178
1059,14.52633116
1060,14.36946968
1061,14.47361801
1062,14.34200663
1063,14.4195864
1064,14.46278232
1065,14.39340218
1066,14.48853744
1067,14.45252456
1068,14.34244571
1069,14.30822433
1070,14.3105856
1071,14.48796021
1072,14.492398
1073,14.42742241
1074,14.42601811
1075,14.40358583
1076,14.33735466
1077,14.30158815
1078,14.42291492
1079,14.29855731
1080,14.41040775
1081,14.37505466
1082,14.29074618
1083,14.37148917
1084,14.25775022
1085,14.43611307
1086,14.25547802
1087,14.43710651
1088,14.25541201
1089,14.34338619
1090,14.36746602
1091,14.45460725
1092,14.54630656
1093,14.37603671
1094,14.3324293
1095,14.41421449
1096,14.49873658
1097,14.4228756
1098,14.47858518
1099,14.39567601
1100,14.36615126
1101,14.34948255
1102,14.34380806
1103,14.51094275
1104,14.43572485
1105,14.46595418
1106,14.38260616
1107,14.41364185
1108,14.35724091
1109,14.36268862
1110,14.54851283
1111,14.37405658
1112,14.31521685
1113,14.34953362
1114,14.42917892
1115,14.40352196
1116,14.39968842
1117,14.345657
1118,14.39535783
1119,14.44040778
1120,14.40439442
1121,14.2652872
1122,14.33086387
1123,14.44054494
1124,14.42597333
1125,14.48728876
1126,14.30950032
1127,14.29852454
1128,14.31293922
1129,14.45770716
1130,14.48717793
1131,14.43097464
1132,14.34281669
1133,14.38732271
1134,14.35203446
1135,14.44507962
1136,14.36999209
1137,14.37814102
1138,14.47866821
1139,14.35277859
1140,14.43512074
1141,14.52508638
1142,14.44113576
1143,14.4085079
1144,14.36116561
1145,14.3402269
1146,14.36319537
1147,14.36926131
1148,14.35993834
1149,14.43692087
1150,14.31253143
1151,14.37676528
1152,14.43640549
1153,14.45754378
1154,14.29175276
1155,14.41436679
1156,14.50537537
1157,14.39641628
1158,14.46186274
1159,14.40047308
1160,14.37812553
1161,14.44189842
1162,14.47010081
1163,14.43169722
1164,14.32753784
1165,14.30729734
1166,14.40178703
1167,14.34260663
1168,14.45609156
1169,14.40191202
1170,14.38912364
1171,14.49389525
1172,14.41230386
1173,14.39026562
1174,14.47070033
1175,14.46374023
1176,14.44203104
1177,14.51550622
1178,14.4461374
1179,14.51918504
1180,14.38828727
1181,14.35826049
1182,14.32518798
1183,14.42780213
1184,14.35160986
1185,14.45687468
1186,14.44700308
1187,14.36639871
1188,14.42223368
1189,14.52495306
1190,14.39082574
1191,14.45037059
1192,14.33506262
1193,14.37191669
1194,14.43196476
1195,14.35338091
1196,14.46286849
1197,14.42003313
1198,14.33710454
1199,14.35151429
1200,14.36303974
1201,14.31725256
1202,14.25840983
1203,14.34696642
1204,14.30583282
1205,14.46980035
1206,14.51021128
1207,14.3156435
1208,14.39385797
1209,14.36099198
1210,14.46997738
1211,14.39456214
1212,14.34563101
1213,14.4433216
1214,14.45383144
1215,14.37573336
1216,14.51207154
1217,14.33024487
1218,14.41765112
1219,14.31973706
1220,14.46976617
1221,14.45951378
1222,14.49381158
1223,14.46814553
1224,14.49947617
1225,14.35964133
1226,14.54526595
1227,14.37181168
1228,14.46605676
1229,14.33701639
1230,14.48027936
1231,14.41221612
1232,14.38425143
1233,14.37597027
1234,14.31832019
1235,14.3331725
1236,14.34302995
1237,14.35078333
1238,14.47116258
1239,14.38948064
1240,14.41521221
1241,14.35885807
1242,14.33380699
1243,14.27144352
1244,14.39126955
1245,14.51941801
1246,14.54975238
1247,14.36535713
1248,14.50204436
1249,14.36858204
1250,14.28912525
1251,14.42409666
1252,14.43076761
1253,14.33676025
1254,14.39133594
1255,14.47397451
1256,14.3756731
1257,14.49311631
1258,14.42773628
1259,14.37706118
1260,14.47034274
1261,14.37978727
1262,14.37311892
1263,14.37085174
1264,14.32515281
1265,14.4251168
1266,14.60911268
1267,14.45792755
1268,14.33455406
1269,14.34640296
1270,14.55990126
1271,14.25302142
1272,14.27923215
1273,14.45605285
1274,14.33210749
1275,14.46226039
1276,14.43324888
1277,14.48538042
1278,14.55366464
1279,14.32334478
1280,14.30419675
1281,14.21972121
1282,14.35877402
1283,14.6242115
1284,14.38938036
1285,14.42671595
1286,14.42814792
1287,14.43593136
1288,14.45018071
1289,14.3491669
1290,14.43958146
1291,14.32939569
1292,14.42835335
1293,14.45202156
1294,14.38194158
1295,14.39966684
1296,14.4453429
1297,14.45888782
1298,14.50142889
1299,14.29681595
1300,14.45753189
1301,14.34547303
1302,14.31484779
1303,14.41611003
1304,14.47469292
1305,14.48435316
1306,14.37651312
1307,14.33402609
1308,14.40511974
1309,14.40247854
1310,14.47185953
1311,14.51698187
1312,14.49263751
1313,14.43853066
1314,14.51103284
1315,14.42535842
1316,14.37356691
1317,14.42169218
1318,14.30853723
1319,14.30629175
1320,14.50591266
1321,14.36796966
1322,14.42517113
1323,14.39998438
1324,14.4770472
1325,14.41247927
1326,14.49865239
1327,14.33968604
1328,14.35443902
1329,14.3787248
1330,14.38559282
1331,14.41810607
1332,14.49541599
1333,14.49436835
1334,14.36078521
1335,14.51331801
1336,14.44388437
1337,14.37461383
1338,14.26180056
1339,14.45334036
1340,14.43371253
1341,14.45467036
1342,14.32352411
1343,14.44884456
1344,14.51262216
1345,14.3910127
1346,14.36992725
1347,14.44191175
1348,14.27589259
1349,14.52020623
1350,14.35350685
1351,14.44132077
1352,14.37380005
1353,14.21224948
1354,14.38951545
1355,14.28884556
1356,14.46513601
1357,14.41778474
1358,14.41798671
1359,14.44599663
1360,14.41972558
1361,14.44988472
1362,14.42589242
1363,14.45117791
1364,14.39426863
1365,14.48262977
1366,14.35391794
1367,14.52728845
1368,14.47707604
1369,14.42172869
1370,14.33448952
1371,14.36191597
1372,14.30504076
1373,14.37568609
1374,14.36931007
1375,14.38951974
1376,14.33892048
1377,14.32890359
1378,14.31546369
1379,14.34581987
1380,14.46132919
1381,14.30954238
1382,14.40154829
1383,14.45141106
1384,14.49693255
1385,14.35425923
1386,14.39766173
1387,14.42537578
1388,14.40985373
1389,14.4249144
1390,14.1936625
1391,14.48247154
1392,14.42761904
1393,14.45057866
1394,14.35468679
1395,14.22358812
1396,14.44677545
1397,14.34926836
1398,14.27272891
1399,14.37505525
1400,14.44262752
1401,14.3613506
1402,14.44518657
1403,14.39065864
1404,14.45581679
1405,14.34341183
1406,14.49265925
1407,14.47861187
1408,14.44076014
1409,14.34441336
1410,14.48688163
1411,14.43671827
1412,14.45600105
1413,14.2978667
1414,14.42741413
1415,14.41992895
1416,14.44409738
1417,14.48364727
1418,14.46190072
1419,14.2993749
1420,14.403986
1421,14.35962712
1422,14.4406865
1423,14.47384556
1424,14.33089625
1425,14.36420776
1426,14.38328105
1427,14.37511547
1428,14.28310249
1429,14.35166432
1430,14.42214176
1431,14.31371438
1432,14.49157039
1433,14.41552541
1434,14.44855387
1435,14.46795213
1436,14.25318051
1437,14.48879091
1438,14.41697862
1439,14.44337672
1440,14.36943266
1441,14.35340357
1442,14.42034392
1443,14.33880062
1444,14.31819777
1445,14.36082676
1446,14.34051763
1447,14.26953928
1448,14.39004328
1449,14.28751784
1450,14.4069471
1451,14.40694737
1452,14.37664216
1453,14.43147471
1454,14.37801007
1455,14.39170938
1456,14.32166394
1457,14.39067442
1458,14.46133389
1459,14.32492505
1460,14.48542489
1461,14.44759003
1462,14.39774585
1463,14.43604428
1464,14.40245838
1465,14.37375811
1466,14.39438857
1467,14.34016695
1468,14.4151111
1469,14.34214876
1470,14.34871527
1471,14.36408553
1472,14.48456023
1473,14.50799593
1474,14.38053935
1475,14.43597915
1476,14.45336598
1477,14.31885243
1478,14.45409648
1479,14.38673639
1480,14.39877727
1481,14.32795977
1482,14.31367019
1483,14.36779391
1484,14.47773014
1485,14.34926888
1486,14.46054044
1487,14.59094043
1488,14.46314274
1489,14.47632125
1490,14.3842992
1491,14.36270967
1492,14.32133346
1493,14.32070584
1494,14.31718508
1495,14.50730842
1496,14.34709179
1497,14.37224818
1498,14.389733
1499,14.49187364
1500,14.57887436
1501,14.54173318
1502,14.38244739
1503,14.35572199
1504,14.29441813
1505,14.39805878
1506,14.49361704
1507,14.20133003
1508,14.41099345
1509,14.40778888
1510,14.42750198
1511,14.42685405
1512,14.31768191
1513,14.43500629
1514,14.31043335
1515,14.36589426
1516,14.31213456
1517,14.32043396
1518,14.32410847
1519,14.34653068
1520,14.30930184
1521,14.47535529
1522,14.33041455
1523,14.34061717
1524,14.35882116
1525,14.36001912
1526,14.29762487
1527,14.40767855
1528,14.38071277
1529,14.47107565
1530,14.42821802
1531,14.3243397
1532,14.44435764
1533,14.49146618
1534,14.43021706
1535,14.30143753
1536,14.48607397
1537,14.32992869
1538,14.33769046
1539,14.3204731
1540,14.55177911
1541,14.45728997
1542,14.41246404
1543,14.37262347
1544,14.32261049
1545,14.46250351
1546,14.48914076
1547,14.28821852
1548,14.44822495
1549,14.39416077
1550,14.42372839
1551,14.254632
1552,14.45652611
1553,14.52855763
1554,14.36753986
1555,14.51419142
1556,14.40389478
1557,14.54819388
1558,14.42421289
1559,14.51027063
1560,14.29017744
1561,14.26472901
1562,14.23606894
1563,14.40052526
1564,14.28290447
1565,14.44212641
1566,14.36514191
1567,14.40412113
1568,14.36824451
1569,14.48137807
1570,14.29338336
1571,14.42863497
1572,14.24940458
1573,14.42561488
1574,14.43440527
1575,14.3858452
1576,14.27910398
1577,14.46961027
1578,14.31306745
1579,14.38212942
1580,14.3086434
1581,14.40136356
1582,14.3985886
1583,14.39933941
1584,14.48703815
1585,14.41769825
1586,14.38825463
1587,14.55643278
1588,14.47634599
1589,14.38906858
1590,14.37148434
1591,14.36400355
1592,14.42436217
1593,14.29585713
1594,14.34109349
1595,14.38260144
1596,14.49406019
1597,14.3640151
1598,14.37895962
1599,14.29167299
1600,14.46104569
1601,14.25301765
1602,14.4103812
1603,14.38660655
1604,14.43715011
1605,14.44553327
1606,14.54770081
1607,14.54164613
1608,14.31583556
1609,14.51789868
1610,14.39743452
1611,14.41747309
1612,14.50560561
1613,14.30097238
1614,14.51354798
1615,14.37940111
1616,14.48099076
1617,14.28163973
1618,14.38640718
1619,14.41579152
1620,14.3802093
1621,14.25375368
1622,14.40422082
1623,14.38470667
1624,14.39475045
1625,14.40982831
1626,14.27384362
1627,14.35282338
1628,14.41697553
1629,14.40422648
1630,14.43388404
1631,14.48334478
1632,14.39300069
1633,14.41493051
1634,14.56572183
1635,14.30238809
1636,14.39993078
1637,14.45360506
1638,14.44619616
1639,14.37162106
1640,14.48286239
1641,14.43845135
1642,14.25894347
1643,14.35141759
1644,14.45629452
1645,14.35703362
1646,14.38655383
1647,14.42491107
1648,14.41912498
1649,14.36557986
1650,14.30449351
1651,14.31927301
1652,14.39201141
1653,14.48426111
1654,14.33411127
1655,14.3431471
1656,14.30445956
1657,14.43135657
1658,14.40532783
1659,14.39960453
1660,14.43568408
1661,14.46680133
1662,14.52488047
1663,14.33433189
1664,14.48896075
1665,14.37123523
1666,14.38454002
1667,14.43317302
1668,14.41976154
1669,14.43834435
1670,14.2754014
1671,14.36296419
1672,14.35040735
1673,14.33510402
1674,14.31934136
1675,14.48205879
1676,14.47947518
1677,14.45589857
1678,14.41598457
1679,14.37854558
1680,14.40515539
1681,14.37262555
1682,14.50698398
1683,14.36630973
1684,14.37182833
1685,14.36335066
1686,14.36194489
1687,14.37538852
1688,14.45829689
1689,14.27683984
1690,14.25978885
1691,14.35440471
1692,14.45703162
1693,14.39273816
1694,14.4512718
1695,14.48324523
1696,14.35309685
1697,14.36420903
1698,14.40102583
1699,14.33794677
1700,14.33961044
1701,14.28032815
1702,14.39203621
1703,14.41804942
1704,14.34530713
1705,14.30509044
1706,14.4327671
1707,14.33198193
1708,14.46135952
1709,14.45841282
1710,14.36874707
1711,14.38902579
1712,14.32231854
1713,14.33789005
1714,14.31331427
1715,14.55081973
1716,14.3437828
1717,14.34750865
1718,14.47786218
1719,14.51466525
1720,14.33037325
1721,14.48857578
1722,14.31927081
1723,14.45988658
1724,14.50926037
1725,14.39070611
1726,14.36975718
1727,14.43482453
1728,14.35315478
1729,14.40404201
1730,14.37579543
1731,14.35111241
1732,14.31895464
1733,14.4923559
1734,14.41173739
1735,14.4844883
1736,14.50757806
1737,14.4157423
1738,14.33591787
1739,14.30302436
1740,14.37840803
1741,14.37626032
1742,14.432643
1743,14.37606148
1744,14.37042877
1745,14.37048941
1746,14.43787764
1747,14.30372005
1748,14.38572235
1749,14.40513428
1750,14.37258756
1751,14.37370794
1752,14.34550225
1753,14.42233558
1754,14.49297796
1755,14.43689497
1756,14.49036021
1757,14.45445466
1758,14.34746234
1759,14.44440169
1760,14.5090223
1761,14.33182585
1762,14.43964798
1763,14.33629942
1764,14.45159063
1765,14.30684324
1766,14.46067196
1767,14.35667472
1768,14.38402254
1769,14.37850588
1770,14.37211074
1771,14.38388543
1772,14.50673195
1773,14.52673885
1774,14.37605718
1775,14.33375523
1776,14.34146331
1777,14.38941806
1778,14.46071721
1779,14.32353472
1780,14.35773158
1781,14.48414944
1782,14.32348269
1783,14.3825629
1784,14.42477688
1785,14.36074331
1786,14.39684547
1787,14.45382507
1788,14.43237278
1789,14.4497282
1790,14.45340142
1791,14.34486926
1792,14.51853659
1793,14.45427983
1794,14.35958924
1795,14.47228745
1796,14.32854925
1797,14.30569099
1798,14.35271691
1799,14.45297456
1800,14.3587388
1801,14.29687578
1802,14.29987877
1803,14.40639655
1804,14.54628698
1805,14.47499118
1806,14.44543809
1807,14.37290223
1808,14.47401567
1809,14.38440423
1810,14.37598976
1811,14.29761309
1812,14.43811967
1813,14.36813479
1814,14.49812922
1815,14.46428167
1816,14.39183503
1817,14.34678225
1818,14.39291855
1819,14.30808605
1820,14.26726251
1821,14.47244524
1822,14.38327409
1823,14.44046111
1824,14.30099459
1825,14.29980484
1826,14.29682074
1827,14.44874141
1828,14.47386383
1829,14.32438399
1830,14.5017936
1831,14.40971048
1832,14.43464675
1833,14.38001238
1834,14.26602794
1835,14.28119164
1836,14.44385871
1837,14.27627028
1838,14.34534751
1839,14.42815719
1840,14.40824871
1841,14.51022254
1842,14.5382697
1843,14.29064006
1844,14.39688139
1845,14.47163623
1846,14.39099304
1847,14.38210298
1848,14.48564072
1849,14.43637744
1850,14.31072101
1851,14.35588613
1852,14.43709515
1853,14.42654446
1854,14.4482464
1855,14.61623997
1856,14.43608336
1857,14.49112708
1858,14.3577508
1859,14.36462165
1860,14.44047145
1861,14.35932959
1862,14.32469447
1863,14.4162755
1864,14.40614576
1865,14.32968414
1866,14.34173533
1867,14.41718579
1868,14.3878627
1869,14.50605908
1870,14.497642
1871,14.37567256
1872,14.47286339
1873,14.4247241
1874,14.40777904
1875,14.34765044
1876,14.39240747
1877,14.36885759
1878,14.35918355
1879,14.55768347
1880,14.41206973
1881,14.39607163
1882,14.41408786
1883,14.29112378
1884,14.38931306
1885,14.45649114
1886,14.50342407
1887,14.3810324
1888,14.39742271
1889,14.47447818
1890,14.41755396
1891,14.5543598
1892,14.49008041
1893,14.34755462
1894,14.38650101
1895,14.406124
1896,14.51447342
1897,14.37787493
1898,14.4113037
1899,14.34550703
1900,14.49644105
1901,14.31227495
1902,14.46681936
1903,14.38892319
1904,14.47937618
1905,14.38820716
1906,14.34156813
1907,14.22356767
1908,14.54555207
1909,14.31883602
1910,14.33386499
1911,14.46553772
1912,14.35949643
1913,14.3792403
1914,14.38635305
1915,14.55285497
1916,14.29019023
1917,14.33512225
1918,14.4750893
1919,14.48747257
1920,14.43402726
1921,14.41199262
1922,14.41011317
1923,14.45846114
1924,14.4263594
1925,14.5265142
1926,14.39436646
1927,14.39004302
1928,14.42765652
1929,14.28534393
1930,14.28477738
1931,14.4695023
1932,14.46151435
1933,14.38723306
1934,14.4834728
1935,14.36713201
1936,14.25455284
1937,14.30239102
1938,14.46375665
1939,14.3899803
1940,14.31829911
1941,14.47495007
1942,14.41509193
1943,14.34366524
1944,14.50466186
1945,14.35374748
1946,14.38838901
1947,14.2959082
1948,14.40350255
1949,14.52203654
1950,14.41973857
1951,14.41748174
1952,14.43915452
1953,14.43860948
1954,14.32153355
1955,14.52496832
1956,14.42036077
1957,14.39264712
1958,14.52182696
1959,14.48235334
1960,14.41197058
1961,14.38173155
1962,14.43264348
1963,14.32443588
1964,14.33134696
1965,14.28575137
1966,14.33523201
1967,14.446887
1968,14.47962818
1969,14.33758608
1970,14.48895236
1971,14.49336214
1972,14.39634867
1973,14.45404195
1974,14.44737136
1975,14.41502678
1976,14.40323984
1977,14.31387878
1978,14.35252942
1979,14.2497415
1980,14.62847504
1981,14.48619119
1982,14.39376133
1983,14.33632935
1984,14.28273356
1985,14.35715585
1986,14.41372762
1987,14.50972748
1988,14.46835114
1989,14.430311
1990,14.42504322
1991,14.34771781
1992,14.42839706
1993,14.43843627
1994,14.47364863
1995,14.42676918
1996,14.52058688
1997,14.33894876
1998,14.47227802
1999,14.36031211
2000,14.39823851
2001,14.42521773
2002,14.40931058
2003,14.47949894
2004,14.38311051
2005,14.46178263
2006,14.46624666
2007,14.3612808
2008,14.3730914
2009,14.4410326
2010,14.49496042
2011,14.32449129
2012,14.43039011
2013,14.38583873
2014,14.44134393
2015,14.29866076
2016,14.46861675
2017,14.30672691
2018,14.42935861
2019,14.46718125
2020,14.52476092
2021,14.29365251
2022,14.37598167
2023,14.34531238
2024,14.33425384
2025,14.36514316
2026,14.51257108
2027,14.31997558
2028,14.43685102
2029,14.4274374
2030,14.33902548
2031,14.39305035
2032,14.33389401
2033,14.37397925
2034,14.43884263
2035,14.31752559
2036,14.31542531
2037,14.38624004
2038,14.53130621
2039,14.3708756
2040,14.42499581
2041,14.48781131
2042,14.33081764
2043,14.48533539
2044,14.23771908
2045,14.36638586
2046,14.42161245
2047,14.4453123
2048,14.47951649
2049,14.50677613
2050,14.26482864
2051,14.39946257
2052,14.39085834
2053,14.49661328
2054,14.34830254
2055,14.26484355
2056,14.37643299
2057,14.37554695
2058,14.29967968
2059,14.24623681
2060,14.51543375
2061,14.47828397
2062,14.3784033
2063,14.39109035
2064,14.33662418
2065,14.31856477
2066,14.49629766
2067,14.41530588
2068,14.47764968
2069,14.44393796
2070,14.49386995
2071,14.37307254
2072,14.48557811
2073,14.35830246
2074,14.50962974
2075,14.31897014
2076,14.44338365
2077,14.4298375
2078,14.51601761
2079,14.42252775
2080,14.41515198
2081,14.32658877
2082,14.37978057
2083,14.36839672
2084,14.46664301
2085,14.38972405
2086,14.41615177
2087,14.33879586
2088,14.43626539
2089,14.42012651
2090,14.28045243
2091,14.28014211
2092,14.34514047
2093,14.42456158
2094,14.34675835
2095,14.4728079
2096,14.40649213
2097,14.36968033
2098,14.50891634
2099,14.49015993
2100,14.30693912
2101,14.39180377
2102,14.44262089
2103,14.35044434
2104,14.39291003
2105,14.41326328
2106,14.4836549
2107,14.40098308
2108,14.30228473
2109,14.45691963
2110,14.36985583
2111,14.33375169
2112,14.44005997
2113,14.34838666
2114,14.43931509
2115,14.52247576
2116,14.38783086
2117,14.45409876
2118,14.47717431
2119,14.35122556
2120,14.4573196
2121,14.37037971
2122,14.47341252
2123,14.43639165
2124,14.42899697
2125,14.43850746
2126,14.44847011
2127,14.55469142
2128,14.3309786
2129,14.4045967
2130,14.3486177
2131,14.50669323
2132,14.44364934
2133,14.48736961
2134,14.39672932
2135,14.41146532
2136,14.41530742
2137,14.26994884
2138,14.41959412
2139,14.4498307
2140,14.50713173
2141,14.47109283
2142,14.40256783
2143,14.37253064
2144,14.42230932
2145,14.46410533
2146,14.39507588
2147,14.45100482
2148,14.39738717
2149,14.39478643
2150,14.33784739
2151,14.43544477
2152,14.53195766
2153,14.42359208
2154,14.34306766
2155,14.46815685
2156,14.47918567
2157,14.36128625
2158,14.46140164
2159,14.42453752
2160,14.32170351
2161,14.4758983
2162,14.45550627
2163,14.41068892
2164,14.4857552
2165,14.45232542
2166,14.2307167
2167,14.47934966
2168,14.26753142
2169,14.45302989
2170,14.48304826
2171,14.29674212
2172,14.38346095
2173,14.34644452
2174,14.37949804
2175,14.45040796
2176,14.39670944
2177,14.449714
2178,14.38322634
2179,14.30793163
2180,14.42149688
2181,14.49343938
2182,14.266612
2183,14.41300338
2184,14.2513141
2185,14.5338123
2186,14.43528796
2187,14.34792141
2188,14.40811936
2189,14.29109833
2190,14.45333546
2191,14.40992985
2192,14.32442996
2193,14.43800978
2194,14.41848303
2195,14.38093756
2196,14.48528096
2197,14.5059556
2198,14.37715078
2199,14.20592067
2200,14.34285609
2201,14.28152329
2202,14.41881067
2203,14.38029758
2204,14.346826
2205,14.48693029
2206,14.27269247
2207,14.31149646
2208,14.38996063
2209,14.43365554
2210,14.42773162
2211,14.46340787
2212,14.46077336
2213,14.38059857
2214,14.49797673
2215,14.28275061
2216,14.48876189
2217,14.42823492
2218,14.49745155
2219,14.36661705
2220,14.41625175
2221,14.22831236
2222,14.28325713
2223,14.40296463
2224,14.36835576
2225,14.41546432
2226,14.38238434
2227,14.29021706
2228,14.37269054
2229,14.4263765
2230,14.42057274
2231,14.46211336
2232,14.30513686
2233,14.25221474
2234,14.51012955
2235,14.38097638
2236,14.34838287
2237,14.31062512
2238,14.54438003
2239,14.31634659
2240,14.49771238
2241,14.41325588
2242,14.38752516
2243,14.43939794
2244,14.35295018
2245,14.45499306
2246,14.39605677
2247,14.32812798
2248,14.39234601
2249,14.3314735
2250,14.40837888
2251,14.43034054
2252,14.34887426
2253,14.35063239
2254,14.46314534
2255,14.29068806
2256,14.39054759
2257,14.42483052
2258,14.3109409
2259,14.40252834
2260,14.29398275
2261,14.40937274
2262,14.42297165
2263,14.38630711
2264,14.39399814
2265,14.52370224
2266,14.39037679
2267,14.43875916
2268,14.36158407
2269,14.49617272
2270,14.49841541
2271,14.47955187
2272,14.42988601
2273,14.39281904
2274,14.39557116
2275,14.43005674
2276,14.38909152
2277,14.46008968
2278,14.37284112
2279,14.46798892
2280,14.37199844
2281,14.49426222
2282,14.36605025
2283,14.37157663
2284,14.51527027
2285,14.33081722
2286,14.38127902
2287,14.46622905
2288,14.43025904
2289,14.46220212
2290,14.32652575
2291,14.29371277
2292,14.33068212
2293,14.42670651
2294,14.49962625
2295,14.43831239
2296,14.41178242
2297,14.35208365
2298,14.4640576
2299,14.43635826
2300,14.53134699
2301,14.49909949
2302,14.41586961
2303,14.40137346
2304,14.35453685
2305,14.32511163
2306,14.53462422
2307,14.45426641
2308,14.37832398
2309,14.49429319
2310,14.41651193
2311,14.24184893
2312,14.51292633
2313,14.38324379
2314,14.30443719
2315,14.48817186
2316,14.38591392
2317,14.32509978
2318,14.43946929
2319,14.44910446
2320,14.39032701
2321,14.42903765
2322,14.44675127
2323,14.36928054
2324,14.46738465
2325,14.41749824
2326,14.44024863
2327,14.39547238
2328,14.34209439
2329,14.5505899
2330,14.51970463
2331,14.44644561
2332,14.39520448
2333,14.40418672
2334,14.25530675
2335,14.40453233
2336,14.43878739
2337,14.36548038
2338,14.42843739
2339,14.39266386
2340,14.33338784
2341,14.42136061
2342,14.42120125
2343,14.4040293
2344,14.33993985
2345,14.39362811
2346,14.41149449
2347,14.29291831
2348,14.32676226
2349,14.39138491
2350,14.43252378
2351,14.47918484
2352,14.48537376
2353,14.36974208
2354,14.37367079
2355,14.30469762
2356,14.52252889
2357,14.26951243
2358,14.42074189
2359,14.28895356
2360,14.3446666
2361,14.46834483
2362,14.50098935
2363,14.34305677
2364,14.43621927
2365,14.44863316
2366,14.36581781
2367,14.39668789
2368,14.5546412
2369,14.30028357
2370,14.40941882
2371,14.54988865
2372,14.48868153
2373,14.3694468
2374,14.43269252
2375,14.37397708
2376,14.45473875
2377,14.42887227
2378,14.61351071
2379,14.44174944
2380,14.36487238
2381,14.41811061
2382,14.35491637
2383,14.41037714
2384,14.50573717
2385,14.4497746
2386,14.55218975
2387,14.45731102
2388,14.36201842
2389,14.40034114
2390,14.33773955
2391,14.54543106
2392,14.48478619
2393,14.3879753
2394,14.34315762
2395,14.36684504
2396,14.3764137
2397,14.50115498
2398,14.55436149
2399,14.39126767
2400,14.42552664
2401,14.33985367
2402,14.27358157
2403,14.36146667
2404,14.35296147
2405,14.25598297
2406,14.3452638
2407,14.40975969
2408,14.51113581
2409,14.48613131
2410,14.34703017
2411,14.39975414
2412,14.44642732
2413,14.5079197
2414,14.48836931
2415,14.29813126
2416,14.41699692
2417,14.52683739
2418,14.41727743
2419,14.3540786
2420,14.40313034
2421,14.36904707
2422,14.48912946
2423,14.49494962
2424,14.35954661
2425,14.24125988
2426,14.34574373
2427,14.25868006
2428,14.43638832
2429,14.34909216
2430,14.45346905
2431,14.38287152
2432,14.43224261
2433,14.32190939
2434,14.36821367
2435,14.39877271
2436,14.36223477
2437,14.29891034
2438,14.42093236
2439,14.35611695
2440,14.45438427
2441,14.42945042
2442,14.31706124
2443,14.45169829
2444,14.42248547
2445,14.38876926
2446,14.40899805
2447,14.39554112
2448,14.50810015
2449,14.34525188
2450,14.34281365
2451,14.36651937
2452,14.35740276
2453,14.49603978
2454,14.36735592
2455,14.3571007
2456,14.41434457
2457,14.39012688
2458,14.27619692
2459,14.44460066
2460,14.42922604
2461,14.44903339
2462,14.43265124
2463,14.33985842
2464,14.41167756
2465,14.30918471
2466,14.3545665
2467,14.39941671
2468,14.38357842
2469,14.45035029
2470,14.5159543
2471,14.42440645
2472,14.46257272
2473,14.27764766
2474,14.42103799
2475,14.4398004
2476,14.29938025
2477,14.33054204
2478,14.48215769
2479,14.38775218
2480,14.39598205
2481,14.40059906
2482,14.45092485
2483,14.52749446
2484,14.35829652
2485,14.40713071
2486,14.45879075
2487,14.3109667
2488,14.39941452
2489,14.419001
2490,14.43060046
2491,14.52513221
2492,14.45150162
2493,14.38979913
2494,14.3380786
2495,14.44774971
2496,14.40037342
2497,14.35244632
2498,14.61377676
2499,14.42400961
2500,14.39457091
2501,14.35359932
2502,14.44933737
2503,14.27120177
2504,14.33199584
2505,14.42464574
2506,14.43086104
2507,14.34038256
2508,14.39456069
2509,14.3921683
2510,14.25778013
2511,14.3942605
2512,14.37847181
2513,14.40146973
2514,14.38953709
2515,14.30541068
2516,14.32949389
2517,14.42073128
2518,14.52374751
2519,14.44933412
2520,14.29971133
2521,14.49727495
2522,14.29881481
2523,14.46540973
2524,14.40288273
2525,14.42451789
2526,14.38543075
2527,14.40254516
2528,14.37061747
2529,14.43095517
2530,14.39055128
2531,14.39126951
2532,14.39527761
2533,14.54199502
2534,14.33832549
2535,14.49966292
2536,14.32684174
2537,14.30374838
2538,14.52662349
2539,14.33105265
2540,14.44700185
2541,14.34115129
2542,14.4494993
2543,14.45794274
2544,14.44306715
2545,14.44252377
2546,14.47348854
2547,14.39156826
2548,14.3806088
2549,14.40981071
2550,14.3110072
2551,14.35846729
2552,14.47040783
2553,14.39152396
2554,14.26349869
2555,14.40372146
2556,14.32400621
2557,14.30475474
2558,14.37350023
2559,14.32715582
2560,14.43562705
2561,14.48807752
2562,14.44514591
2563,14.47255787
2564,14.45133791
2565,14.44078504
2566,14.40975327
2567,14.26634858
2568,14.36205427
2569,14.27588042
2570,14.42679387
2571,14.40301996
2572,14.35460133
2573,14.24922749
2574,14.29409494
2575,14.42841631
2576,14.36221423
2577,14.46453774
2578,14.46509932
2579,14.34510499
2580,14.44115765
2581,14.40644941
2582,14.37042209
2583,14.46998389
2584,14.24951226
2585,14.38258024
2586,14.51535363
2587,14.28755479
2588,14.41359453
2589,14.47686252
2590,14.4835085
2591,14.26022193
2592,14.38474924
2593,14.42961221
2594,14.47784178
2595,14.35001261
2596,14.49890254
2597,14.37412948
2598,14.3487509
2599,14.37557423
2600,14.57739656
2601,14.3575691
2602,14.2540768
2603,14.35321768
2604,14.41635759
2605,14.49238503
2606,14.3501006
2607,14.30829333
2608,14.48027574
2609,14.29722047
2610,14.44436592
2611,14.42774462
2612,14.3450947
2613,14.47456897
2614,14.25204301
2615,14.52203872
2616,14.37017861
2617,14.37502122
2618,14.45839354
2619,14.39318609
2620,14.48969901
2621,14.4210597
2622,14.3336062
2623,14.56467874
2624,14.32369982
2625,14.43741567
2626,14.35948379
2627,14.24397977
2628,14.39733294
2629,14.33586607
2630,14.42802799
2631,14.40329637
2632,14.47485749
2633,14.35136658
2634,14.42865777
2635,14.39968568
2636,14.36900215
2637,14.48278291
2638,14.44308073
2639,14.33979579
2640,14.36111088
2641,14.39395345
2642,14.37578096
2643,14.41188916
2644,14.42946367
2645,14.43561979
2646,14.43333355
2647,14.33522611
2648,14.34651033
2649,14.39609719
2650,14.39517128
2651,14.31209958
2652,14.38879175
2653,14.40850359
2654,14.44794063
2655,14.36592113
2656,14.48831716
2657,14.45574073
2658,14.34854377
2659,14.47303366
2660,14.42861991
2661,14.21649339
2662,14.3692363
2663,14.37955305
2664,14.336157
2665,14.41739574
2666,14.37462553
2667,14.30331884
2668,14.38758176
2669,14.49222029
2670,14.31585134
2671,14.12166595
2672,14.36335212
2673,14.42384047
2674,14.38284926
2675,14.25748384
2676,14.5151479
2677,14.43977783
2678,14.35038586
2679,14.47088151
2680,14.39150256
2681,14.52247233
2682,14.44232752
2683,14.36235838
2684,14.26536113
2685,14.48795172
2686,14.42158848
2687,14.3232956
2688,14.3124604
2689,14.40387074
2690,14.49756575
2691,14.27781557
2692,14.29845644
2693,14.31445171
2694,14.54612987
2695,14.46747123
2696,14.22605908
2697,14.46485098
2698,14.3870803
2699,14.38184809
2700,14.36315757
2701,14.41067058
2702,14.40318839
2703,14.40403144
2704,14.32823688
2705,14.41841797
2706,14.45478847
2707,14.46388347
2708,14.29663261
2709,14.26322456
2710,14.40597715
2711,14.28149054
2712,14.48086864
2713,14.3881048
2714,14.41119444
2715,14.41224198
2716,14.27215064
2717,14.37174222
2718,14.38592272
2719,14.40470484
2720,14.38957244
2721,14.35116007
2722,14.44231298
2723,14.38690177
2724,14.34720808
2725,14.49585709
2726,14.37625689
2727,14.40377316
2728,14.38787515
2729,14.26977889
2730,14.31350753
2731,14.39372151
2732,14.32964697
2733,14.34348871
2734,14.35733273
2735,14.23848821
2736,14.3857337
2737,14.41616022
2738,14.24459961
2739,14.39600505
2740,14.43673601
2741,14.29846481
2742,14.44881176
2743,14.40523059
2744,14.42286338
2745,14.34865318
2746,14.42864295
2747,14.37413749
2748,14.46809136
2749,14.34851578
2750,14.34424323
2751,14.3295983
2752,14.231313
2753,14.30752303
2754,14.3025084
2755,14.37447679
2756,14.40767806
2757,14.3720684
2758,14.39397345
2759,14.54255733
2760,14.35216101
2761,14.38132139
2762,14.40620698
2763,14.4098211
2764,14.38661863
2765,14.43427285
2766,14.46380007
2767,14.39507529
2768,14.34635591
2769,14.48137785
2770,14.32292163
2771,14.42100105
2772,14.31309816
2773,14.41524192
2774,14.4183139
2775,14.43600249
2776,14.42690379
2777,14.39309377
2778,14.3421968
2779,14.3239029
2780,14.39425856
2781,14.52106187
2782,14.35984349
2783,14.31043157
2784,14.37699378
2785,14.42871045
2786,14.44547698
2787,14.45693102
2788,14.55545301
2789,14.37385929
2790,14.47501014
2791,14.34353752
2792,14.36258812
2793,14.39557304
2794,14.28374547
2795,14.38080417
2796,14.47121258
2797,14.32988287
2798,14.37635226
2799,14.60028415
2800,14.45604235
2801,14.31780894
2802,14.36171852
2803,14.40054905
2804,14.48542419
2805,14.45986712
2806,14.36964825
2807,14.30836016
2808,14.45464937
2809,14.30267716
2810,14.41314284
2811,14.37799301
2812,14.43124119
2813,14.33673639
2814,14.50828649
2815,14.31644119
2816,14.45767272
2817,14.47396662
2818,14.31549177
2819,14.30096876
2820,14.33595135
2821,14.41879497
2822,14.38232788
2823,14.33607503
2824,14.32462794
2825,14.41719034
2826,14.37930841
2827,14.49956452
2828,14.31153104
2829,14.46556453
2830,14.420578
2831,14.41735466
2832,14.39794521
2833,14.27428721
2834,14.40252623
2835,14.34117089
2836,14.26909049
2837,14.41446693
2838,14.41969011
2839,14.29922527
2840,14.31913057
2841,14.40513576
2842,14.37471369
2843,14.43842375
2844,14.45247926
2845,14.43495732
2846,14.32041236
2847,14.35548522
2848,14.37597409
2849,14.4907784
2850,14.28574945
2851,14.31403143
2852,14.36332796
2853,14.30998907
2854,14.4918729
2855,14.40021801
2856,14.45188575
2857,14.46981294
2858,14.4042513
2859,14.44081344
2860,14.27368871
2861,14.44770154
2862,14.38463437
2863,14.33482478
2864,14.41768013
2865,14.32506654
2866,14.42235752
2867,14.46612482
2868,14.35414531
2869,14.32853473
2870,14.44422255
2871,14.3612306
2872,14.45324788
2873,14.36324979
2874,14.39250789
2875,14.44925471
2876,14.40901189
2877,14.30247904
2878,14.34391434
2879,14.49332421
2880,14.43718195
2881,14.50948536
2882,14.34878408
2883,14.50454077
2884,14.52345621
2885,14.31658702
2886,14.33695203
2887,14.3983122
2888,14.49589241
2889,14.44586946
2890,14.53236006
2891,14.38725282
2892,14.522491
2893,14.34887918
2894,14.39768502
2895,14.29512276
2896,14.34498373
2897,14.37975097
2898,14.46827402
2899,14.46862757
2900,14.35812357
2901,14.45391995
2902,14.31283799
2903,14.4847402
2904,14.42018101
2905,14.34244064
2906,14.38161765
2907,14.38089442
2908,14.42068892
2909,14.25846727
2910,14.42908909
2911,14.50183852
2912,14.44256255
2913,14.38244387
2914,14.34178753
2915,14.33117924
2916,14.50301344
2917,14.4430334
2918,14.43696963
2919,14.46377359
2920,14.38106671
2921,14.31568513
2922,14.44893377
2923,14.350789
2924,14.41322537
2925,14.46633177
2926,14.30814232
2927,14.31018256
2928,14.30228663
2929,14.31109684
2930,14.33846297
2931,14.45336272
2932,14.46878564
2933,14.302041
2934,14.2744633
2935,14.32230582
2936,14.36129807
2937,14.4542321
2938,14.36935855
2939,14.30740483
2940,14.44952552
2941,14.29770437
2942,14.24121352
2943,14.50220831
2944,14.42911115
2945,14.36219228
2946,14.36826914
2947,14.35624451
2948,14.40448837
2949,14.29039791
2950,14.39507461
2951,14.33920844
2952,14.34732555
2953,14.30258894
2954,14.50248051
2955,14.42571881
2956,14.32714566
2957,14.36946525
2958,14.3845106
2959,14.44005478
2960,14.28972383
2961,14.37224373
2962,14.50886334
2963,14.38182304
2964,14.43227539
2965,14.45817509
2966,14.38395425
2967,14.29283548
2968,14.47138367
2969,14.35727225
2970,14.26777027
2971,14.35808925
2972,14.37915762
2973,14.33456908
2974,14.43564502
2975,14.38114182
2976,14.3797912
2977,14.45468704
2978,14.36770689
2979,14.39252215
2980,14.38902508
2981,14.45396718
2982,14.48772547
2983,14.33761141
2984,14.48618135
2985,14.49543986
2986,14.42719614
2987,14.37149275
2988,14.37476818
2989,14.43373547
2990,14.27177576
2991,14.39414068
2992,14.2770084
2993,14.45309493
2994,14.48968789
2995,14.41300466
2996,14.38487852
2997,14.65039813
2998,14.40564092
2999,14.32868556
3000,14.34168558
3001,14.46492476
3002,14.44251508
3003,14.48802586
3004,14.32588592
3005,14.37769936
3006,14.38684281
3007,14.42161112
3008,14.23571317
3009,14.36649157
3010,14.45928856
3011,14.45988534
3012,14.42086885
3013,14.47393554
3014,14.44855122
3015,14.44259949
3016,14.35679755
3017,14.41587837
3018,14.47914284
3019,14.32079466
3020,14.43983891
3021,14.52822961
3022,14.25186268
3023,14.45967937
3024,14.44345924
3025,14.42992687
3026,14.34421635
3027,14.3810878
3028,14.41028453
3029,14.38653904
3030,14.4903043
3031,14.41986374
3032,14.45013401
3033,14.37107803
3034,14.45627873
3035,14.38021459
3036,14.50220578
3037,14.42260427
3038,14.35778008
3039,14.36867183
3040,14.38009237
3041,14.48843079
3042,14.45032616
3043,14.27593791
3044,14.44965937
3045,14.43903009
3046,14.21582531
3047,14.453062
3048,14.34476465
3049,14.26872845
3050,14.49849469
3051,14.47883613
3052,14.32692207
3053,14.54453653
3054,14.40500871
3055,14.35300076
3056,14.49145911
3057,14.4188643
3058,14.41699094
3059,14.35685411
3060,14.39783076
3061,14.39570608
3062,14.52179858
3063,14.42212964
3064,14.39100216
3065,14.49393294
3066,14.44944389
3067,14.3918059
3068,14.50826121
3069,14.47026714
3070,14.48146032
3071,14.44768195
3072,14.42593843
3073,14.48359884
3074,14.37818117
3075,14.46447438
3076,14.46208815
3077,14.39248595
3078,14.36066487
3079,14.50769711
3080,14.39676912
3081,14.32174552
3082,14.37113809
3083,14.33217791
3084,14.33473501
3085,14.50140853
3086,14.45707542
3087,14.43945974
3088,14.35988621
3089,14.26667316
3090,14.49387621
3091,14.44081196
3092,14.39107272
3093,14.3594168
3094,14.54640458
3095,14.49776197
3096,14.31031127
3097,14.32015765
3098,14.32612346
3099,14.43306477
3100,14.34821163
3101,14.39517928
3102,14.35790391
3103,14.46975012
3104,14.3067336
3105,14.35662612
3106,14.35648728
3107,14.41244761
3108,14.42525657
3109,14.41946873
3110,14.42781908
3111,14.30589754
3112,14.28594995
3113,14.45151665
3114,14.38418767
3115,14.50500007
3116,14.36523116
3117,14.36266868
3118,14.3755354
3119,14.37933972
3120,14.38848806
3121,14.38326849
3122,14.33026912
3123,14.38073964
3124,14.38556086
3125,14.48107511
3126,14.43028298
3127,14.41176634
3128,14.44824312
3129,14.41662951
3130,14.45016732
3131,14.39672611
3132,14.37288478
3133,14.49108783
3134,14.35547963
3135,14.36711861
3136,14.32468614
3137,14.42505436
3138,14.46330816
3139,14.49874648
3140,14.37314042
3141,14.41603401
3142,14.36588694
3143,14.34329177
3144,14.45796328
3145,14.3151665
3146,14.39128292
3147,14.48244846
3148,14.33425935
3149,14.37710733
3150,14.34890812
3151,14.46372582
3152,14.41311365
3153,14.33060824
3154,14.40684447
3155,14.47632346
3156,14.31329633
3157,14.39033825
3158,14.4424957
3159,14.4480551
3160,14.38155134
3161,14.3633889
3162,14.3233425
3163,14.40650802
3164,14.3719956
3165,14.27207409
3166,14.3622493
3167,14.46359084
3168,14.50401451
3169,14.45108124
3170,14.55052726
3171,14.38749261
3172,14.41041162
3173,14.35866653
3174,14.49694587
3175,14.39061109
3176,14.33120585
3177,14.35839655
3178,14.32928407
3179,14.33736656
3180,14.39829254
3181,14.51072051
3182,14.38019261
3183,14.38208932
3184,14.46055958
3185,14.40905533
3186,14.30809625
3187,14.50622295
3188,14.4178759
3189,14.37447531
3190,14.4427721
3191,14.44339986
3192,14.37694971
3193,14.30755802
3194,14.45187951
3195,14.29429021
3196,14.36885403
3197,14.55369007
3198,14.48801965
3199,14.36374054
3200,14.34426785
3201,14.40432882
3202,14.2925861
3203,14.39796916
3204,14.4533569
3205,14.40390265
3206,14.51972494
3207,14.30440071
3208,14.37231819
3209,14.30844844
3210,14.28194316
3211,14.48199404
3212,14.43508127
3213,14.25999525
3214,14.35726859
3215,14.43079671
3216,14.40108462
3217,14.34533478
3218,14.4809968
3219,14.46916308
3220,14.44741494
3221,14.38366182
3222,14.31359778
3223,14.47005743
3224,14.45416403
3225,14.37060368
3226,14.41533769
3227,14.38712774
3228,14.39808814
3229,14.41526148
3230,14.44000794
3231,14.36261469
3232,14.39554287
3233,14.29588191
3234,14.29692541
3235,14.47747744
3236,14.48762213
3237,14.49210637
3238,14.46107925
3239,14.46363528
3240,14.47079924
3241,14.34492607
3242,14.42841362
3243,14.46231628
3244,14.34659003
3245,14.362195
3246,14.4594288
3247,14.37636594
3248,14.35617578
3249,14.42445883
3250,14.46362259
3251,14.27647854
3252,14.38729001
3253,14.45140908
3254,14.24831825
3255,14.36010707
3256,14.35927511
3257,14.33986384
3258,14.30418626
3259,14.39049921
3260,14.45098698
3261,14.38802566
3262,14.4107178
3263,14.48032724
3264,14.42999465
3265,14.51337385
3266,14.42164917
3267,14.48958805
3268,14.47349941
3269,14.32993688
3270,14.63531541
3271,14.38803031
3272,14.49994998
3273,14.32550373
3274,14.37692485
3275,14.47356795
3276,14.39899541
3277,14.25227653
3278,14.37909916
3279,14.40465861
3280,14.41089979
3281,14.46790074
3282,14.22417053
3283,14.40431215
3284,14.44237214
3285,14.42968265
3286,14.4508313
3287,14.52272886
3288,14.51655971
3289,14.2902463
3290,14.27501097
3291,14.46384917
3292,14.33686669
3293,14.47160914
3294,14.48274977
3295,14.37237941
3296,14.451477
3297,14.43409594
3298,14.52399002
3299,14.45090794
3300,14.34699001
3301,14.4563623
3302,14.36723515
3303,14.37023813
3304,14.47246942
3305,14.44370106
3306,14.42458427
3307,14.53974327
3308,14.47103437
3309,14.33043667
3310,14.35833366
3311,14.43672275
3312,14.44317947
3313,14.32437409
3314,14.29580759
3315,14.48275448
3316,14.46966252
3317,14.41688829
3318,14.43245112
3319,14.3981011
3320,14.34915055
3321,14.42742091
3322,14.39840435
3323,14.35316252
3324,14.34816032
3325,14.46291132
3326,14.45867794
3327,14.33643755
3328,14.39242189
3329,14.37805296
3330,14.47246898
3331,14.35807559
3332,14.36443947
3333,14.33271575
3334,14.3603133
3335,14.42998456
3336,14.4368075
3337,14.35592019
3338,14.39405997
3339,14.4919245
3340,14.52715697
3341,14.4010566
3342,14.28458312
3343,14.305661
3344,14.45407415
3345,14.48151543
3346,14.49358925
3347,14.49155481
3348,14.51461395
3349,14.57331727
3350,14.34368186
3351,14.44135652
3352,14.42161564
3353,14.34021722
3354,14.35034467
3355,14.33337277
3356,14.45879754
3357,14.2958901
3358,14.43453892
3359,14.48036526
3360,14.40427172
3361,14.37111566
3362,14.37070175
3363,14.39716859
3364,14.34930296
3365,14.50190982
3366,14.24598617
3367,14.48496375
3368,14.44759245
3369,14.27119954
3370,14.35973635
3371,14.40773107
3372,14.53459124
3373,14.41126927
3374,14.57609095
3375,14.43178698
3376,14.48245027
3377,14.42089487
3378,14.38518801
3379,14.34328372
3380,14.46082721
3381,14.41784933
3382,14.38994325
3383,14.42057569
3384,14.39021391
3385,14.38275989
3386,14.34886362
3387,14.4614445
3388,14.58642546
3389,14.37404202
3390,14.41079862
3391,14.32390723
3392,14.31374659
3393,14.35111298
3394,14.3794726
3395,14.57889794
3396,14.39843157
3397,14.44200139
3398,14.32823494
3399,14.36489664
3400,14.35730324
3401,14.48814414
3402,14.42252454
3403,14.42603946
3404,14.39182732
3405,14.48965076
3406,14.46453766
3407,14.37651709
3408,14.36723815
3409,14.47846099
3410,14.31974975
3411,14.39014643
3412,14.32189308
3413,14.36719155
3414,14.41708302
3415,14.39074665
3416,14.36433778
3417,14.476521
3418,14.47302451
3419,14.28750444
3420,14.41599703
3421,14.35115756
3422,14.29316976
3423,14.41810638
3424,14.37495717
3425,14.39306454
3426,14.2760001
3427,14.49195422
3428,14.28407983
3429,14.47443119
3430,14.22110818
3431,14.45317179
3432,14.35176893
3433,14.27334951
3434,14.45127265
3435,14.34211155
3436,14.35495541
3437,14.43534657
3438,14.43440332
3439,14.39789301
3440,14.26927774
3441,14.31276722
3442,14.38292863
3443,14.35915765
3444,14.37794837
3445,14.4741601
3446,14.37442951
3447,14.29689494
3448,14.43026211
3449,14.47909864
3450,14.23990008
3451,14.54189108
3452,14.45717922
3453,14.54062177
3454,14.3792056
3455,14.52292908
3456,14.28823854
3457,14.50115847
3458,14.48057254
3459,14.41295651
3460,14.4656684
3461,14.34484556
3462,14.37052463
3463,14.46224147
3464,14.40694756
3465,14.46004109
3466,14.3891287
3467,14.44797562
3468,14.43470692
3469,14.41729266
3470,14.34617113
3471,14.39842961
3472,14.43231289
3473,14.26923299
3474,14.34209896
3475,14.43930836
3476,14.54043084
3477,14.30422205
3478,14.33904312
3479,14.40241443
3480,14.23047715
3481,14.52943137
3482,14.49258785
3483,14.37206177
3484,14.35633118
3485,14.35258065
3486,14.36284691
3487,14.32358185
3488,14.45136883
3489,14.50006201
3490,14.33883326
3491,14.37166947
3492,14.36088881
3493,14.37080607
3494,14.3667133
3495,14.50512262
3496,14.46889389
3497,14.24450983
3498,14.31305133
3499,14.28826254
3500,14.30897218
3501,14.40347608
3502,14.33465258
3503,14.35703501
3504,14.30998925
3505,14.35069712
3506,14.39255955
3507,14.43594279
3508,14.46315739
3509,14.43029834
3510,14.37981985
3511,14.34468167
3512,14.34161185
3513,14.33945268
3514,14.36849083
3515,14.41959824
3516,14.38251631
3517,14.40757595
3518,14.37580905
3519,14.36781418
3520,14.37959036
3521,14.29512364
3522,14.30891662
3523,14.29388222
3524,14.38593659
3525,14.38258401
3526,14.38320246
3527,14.43246314
3528,14.37498181
3529,14.33543351
3530,14.39301481
3531,14.30430415
3532,14.41847789
3533,14.31097854
3534,14.49900605
3535,14.34546352
3536,14.43350985
3537,14.45934877
3538,14.38813984
3539,14.4009215
3540,14.37163529
3541,14.42316052
3542,14.42982006
3543,14.46105535
3544,14.44651066
3545,14.41223945
3546,14.41424129
3547,14.40460577
3548,14.32968238
3549,14.3940491
3550,14.357371
3551,14.37422401
3552,14.39289522
3553,14.33555744
3554,14.21072514
3555,14.47755953
3556,14.21657776
3557,14.35882762
3558,14.49657326
3559,14.30595735
3560,14.40570305
3561,14.36249458
3562,14.34496757
3563,14.4111956
3564,14.42937357
3565,14.45543309
3566,14.473638
3567,14.41749143
3568,14.29553295
3569,14.39032456
3570,14.28404229
3571,14.41836467
3572,14.41375248
3573,14.40745962
3574,14.40790211
3575,14.39611333
3576,14.47650934
3577,14.39525859
3578,14.46255913
3579,14.39746783
3580,14.45707628
3581,14.41496398
3582,14.33081453
3583,14.31257477
3584,14.3216929
3585,14.33780067
3586,14.44583452
3587,14.36324996
3588,14.37938133
3589,14.46985035
3590,14.44298317
3591,14.44041929
3592,14.4501038
3593,14.3360455
3594,14.55747579
3595,14.38267005
3596,14.5629829
3597,14.43174549
3598,14.46021324
3599,14.27790809
3600,14.3690358
3601,14.46965217
3602,14.30964581
3603,14.38835083
3604,14.50216636
3605,14.30901265
3606,14.37485947
3607,14.34530658
3608,14.4554808
3609,14.37115232
3610,14.41098025
3611,14.44112729
3612,14.43506737
3613,14.26363873
3614,14.3860259
3615,14.46044699
3616,14.24893306
3617,14.26104347
3618,14.36232075
3619,14.50216805
3620,14.35843942
3621,14.3514129
3622,14.47504127
3623,14.53298564
3624,14.2926387
3625,14.38208187
3626,14.41210053
3627,14.42385068
3628,14.39683565
3629,14.46298891
3630,14.55376029
3631,14.34770602
3632,14.41670091
3633,14.49605168
3634,14.29256878
3635,14.34511079
3636,14.42274093
3637,14.45362994
3638,14.4874449
3639,14.41213346
3640,14.40080519
3641,14.49042644
3642,14.31708369
3643,14.3752056
3644,14.43381446
3645,14.37164174
3646,14.41893336
3647,14.44931509
3648,14.4884566
3649,14.30679832
3650,14.37003278
3651,14.49320369
3652,14.46732792
3653,14.37966742
3654,14.26746398
3655,14.27177398
3656,14.36980479
3657,14.50680777
3658,14.29719105
3659,14.40825057
3660,14.38259342
3661,14.49097157
3662,14.3214568
3663,14.285654
3664,14.53766035
3665,14.42178268
3666,14.33530817
3667,14.44728787
3668,14.36482093
3669,14.48461001
3670,14.30730284
3671,14.45770776
3672,14.25392417
3673,14.31794875
3674,14.38198373
3675,14.35671192
3676,14.23418912
3677,14.31985148
3678,14.36576803
3679,14.42438795
3680,14.39164729
3681,14.22850309
3682,14.42375699
3683,14.49541474
3684,14.31580058
3685,14.41883312
3686,14.53862559
3687,14.35570482
3688,14.4639948
3689,14.38041808
3690,14.39868013
3691,14.4418339
3692,14.28050664
3693,14.48026581
3694,14.41609635
3695,14.32734585
3696,14.35202463
3697,14.36250318
3698,14.50202292
3699,14.44438022
3700,14.3789204
3701,14.45624243
3702,14.30742812
3703,14.41099493
3704,14.27008048
3705,14.18057255
3706,14.34451373
3707,14.4054508
3708,14.30423353
3709,14.30436276
3710,14.40729876
3711,14.51688091
3712,14.24059748
3713,14.23686409
3714,14.40148072
3715,14.37531686
3716,14.32069482
3717,14.4832265
3718,14.43391862
3719,14.40394671
3720,14.27180208
3721,14.45126783
3722,14.46258929
3723,14.30786043
3724,14.29978959
3725,14.31076136
3726,14.35215371
3727,14.47097066
3728,14.41963715
3729,14.46590622
3730,14.53131638
3731,14.41774508
3732,14.48212741
3733,14.42169403
3734,14.3656142
3735,14.41654397
3736,14.32911601
3737,14.43557456
3738,14.39152519
3739,14.28503515
3740,14.363235
3741,14.353521
3742,14.37266542
3743,14.40205611
3744,14.38001766
3745,14.4059825
3746,14.32647857
3747,14.35542026
3748,14.3199392
3749,14.41777143
3750,14.31969446
3751,14.26497603
3752,14.33363778
3753,14.28930132
3754,14.44652307
3755,14.29092139
3756,14.33436426
3757,14.43655581
3758,14.42012322
3759,14.38260235
3760,14.48773184
3761,14.36934038
3762,14.42873794
3763,14.57376951
3764,14.42187047
3765,14.32103383
3766,14.44304762
3767,14.30192504
3768,14.27281351
3769,14.37174986
3770,14.43273263
3771,14.41200247
3772,14.42019767
3773,14.37082442
3774,14.358124
3775,14.52913265
3776,14.3188543
3777,14.39532876
3778,14.27390726
3779,14.34530273
3780,14.37732827
3781,14.38991842
3782,14.36649831
3783,14.24872088
3784,14.36421551
3785,14.42520356
3786,14.30355117
3787,14.38935858
3788,14.31526971
3789,14.40215698
3790,14.4025486
3791,14.38426073
3792,14.33608946
3793,14.28597915
3794,14.36804351
3795,14.42114132
3796,14.37534547
3797,14.43264245
3798,14.3415745
3799,14.51482923
3800,14.37962068
3801,14.44807068
3802,14.33623391
3803,14.42904797
3804,14.47348803
3805,14.29593941
3806,14.26737289
3807,14.46189312
3808,14.38459704
3809,14.39610936
3810,14.37549293
3811,14.58621305
3812,14.25204203
3813,14.35242977
3814,14.41465269
3815,14.39265562
3816,14.41778332
3817,14.59590526
3818,14.39903992
3819,14.49856505
3820,14.34175604
3821,14.43951398
3822,14.37236587
3823,14.3409962
3824,14.34248737
3825,14.31309482
3826,14.47197899
3827,14.29788276
3828,14.34960349
3829,14.38047897
3830,14.30965733
3831,14.37173934
3832,14.39990077
3833,14.41064564
3834,14.29512446
3835,14.3903877
3836,14.3875711
3837,14.43196505
3838,14.48272487
3839,14.37429718
3840,14.36507942
3841,14.57297347
3842,14.37197565
3843,14.45883522
3844,14.52765125
3845,14.44167479
3846,14.36857494
3847,14.46327337
3848,14.38629493
3849,14.36473351
3850,14.4966219
3851,14.48749584
3852,14.27140353
3853,14.37871837
3854,14.37306288
3855,14.28828911
3856,14.36232528
3857,14.43981577
3858,14.47020187
3859,14.45331392
3860,14.40592041
3861,14.33951357
3862,14.44801134
3863,14.27826736
3864,14.3560574
3865,14.31782611
3866,14.43959188
3867,14.35774413
3868,14.38739884
3869,14.3795753
3870,14.36084533
3871,14.41320007
3872,14.34373013
3873,14.39296993
3874,14.38511885
3875,14.38138723
3876,14.42877027
3877,14.37571288
3878,14.44151555
3879,14.43356795
3880,14.38848199
3881,14.4746412
3882,14.41096754
3883,14.37043176
3884,14.43670495
3885,14.32807767
3886,14.43785788
3887,14.33635678
3888,14.43571479
3889,14.30962556
3890,14.34977465
3891,14.45595457
3892,14.36555207
3893,14.30846151
3894,14.47534127
3895,14.26686281
3896,14.38144984
3897,14.35730016
3898,14.50019436
3899,14.32965365
3900,14.53227777
3901,14.3861832
3902,14.52221644
3903,14.46996385
3904,14.40638117
3905,14.45506092
3906,14.43506201
3907,14.37429353
3908,14.36510834
3909,14.37245351
3910,14.36992524
3911,14.3758861
3912,14.30677821
3913,14.37656951
3914,14.47999106
3915,14.36713379
3916,14.33883939
3917,14.27844836
3918,14.33667247
3919,14.39132479
3920,14.41143472
3921,14.35406958
3922,14.30659429
3923,14.49766083
3924,14.43939577
3925,14.44028127
3926,14.37746862
3927,14.23585324
3928,14.28043737
3929,14.29197767
3930,14.4653096
3931,14.44374537
3932,14.43447305
3933,14.39834053
3934,14.40792021
3935,14.34073657
3936,14.29986543
3937,14.3968101
3938,14.2966231
3939,14.30225901
3940,14.29312346
3941,14.45839471
3942,14.51149243
3943,14.4441301
3944,14.34029341
3945,14.53187142
3946,14.31169269
3947,14.29554879
3948,14.24325738
3949,14.4153839
3950,14.52302101
3951,14.51199293
3952,14.25787008
3953,14.42294964
3954,14.43206494
3955,14.30780594
3956,14.50535045
3957,14.38310178
3958,14.42210132
3959,14.45215275
3960,14.33378295
3961,14.2889664
3962,14.47228742
3963,14.35417169
3964,14.35452016
3965,14.29998403
3966,14.39479388
3967,14.19494345
3968,14.25739369
3969,14.34771301
3970,14.39941592
3971,14.48416913
3972,14.38300615
3973,14.50412369
3974,14.3329802
3975,14.38423672
3976,14.3668466
3977,14.44112338
3978,14.42567797
3979,14.45298163
3980,14.24269643
3981,14.36807878
3982,14.32000139
3983,14.4262331
3984,14.34822982
3985,14.45919349
3986,14.41001487
3987,14.44800395
3988,14.41309794
3989,14.57150123
3990,14.29406233
3991,14.35592707
3992,14.37004621
3993,14.42880782
3994,14.39223236
3995,14.19063953
3996,14.3787773
3997,14.33006926
3998,14.37465509
3999,14.50366235
4000,14.49251809
