Raman Shift,Intensity
55.666,3145.0
57.065,3040.0
58.464,3201.0
59.863,3123.0
61.262,3049.0
62.661,3033.0
64.059,3064.0
65.458,3048.0
66.856,3092.0
68.253,3185.0
69.651,3244.0
71.048,3387.0
72.445,3377.0
73.842,3534.0
75.239,3675.0
76.635,3662.0
78.031,3812.0
79.427,3905.0
80.823,4035.0
82.218,4245.0
83.614,4157.0
85.009,4089.0
86.404,4122.0
87.798,4291.0
89.193,4460.0
90.587,4459.0
91.981,4378.0
93.375,4406.0
94.768,4388.0
96.161,4252.0
97.554,4322.0
98.947,4388.0
100.34,4243.0
101.732,4289.0
103.124,4307.0
104.516,4435.0
105.908,4498.0
107.3,4438.0
108.691,4343.0
110.082,4336.0
111.473,4266.0
112.864,4341.0
114.254,4422.0
115.644,4476.0
117.034,4449.0
118.424,4368.0
119.813,4367.598
121.203,4292.0
122.592,4289.0
123.981,4163.0
125.369,4137.0
126.758,4130.0
128.146,4144.0
129.534,4066.0
130.922,4107.0
132.309,4049.0
133.696,4034.0
135.083,3954.0
136.47,4150.0
137.857,4088.0
139.243,4132.0
140.63,4071.0
142.016,4089.0
143.401,4039.0
144.787,4118.0
146.172,4193.0
147.557,4375.0
148.942,4643.0
150.327,5391.0
151.711,6883.0
153.096,8855.0
154.48,9426.0
155.863,7429.0
157.247,5586.0
158.63,4654.0
160.013,4251.0
161.396,4276.0
162.779,4238.0
164.161,4279.0
165.544,4191.0
166.926,4187.0
168.308,4006.0
169.689,4026.0
171.07,3966.0
172.452,3918.0
173.833,3994.0
175.213,3962.0
176.594,3977.0
177.974,3953.0
179.354,3954.0
180.734,3942.0
182.114,4004.0
183.493,4014.0
184.872,4025.0
186.251,4101.0
187.63,4101.0
189.008,4117.0
190.387,4160.0
191.765,4161.0
193.143,4146.0
194.52,4200.0
195.898,4204.0
197.275,4209.0
198.652,4252.0
200.029,4186.0
201.405,4211.0
202.782,4236.0
204.158,4195.0
205.534,4303.0
206.909,4374.0
208.285,4280.0
209.66,4268.0
211.035,4222.0
212.41,4222.0
213.784,4210.0
215.159,4281.0
216.533,4380.0
217.907,4429.0
219.281,4447.0
220.654,4480.0
222.027,4532.0
223.4,4707.0
224.773,4913.0
226.146,5144.0
227.518,5529.0
228.891,6101.0
230.263,7119.0
231.634,8891.0
233.006,11996.0
234.377,17456.0
235.748,27552.0
237.119,41688.0
238.49,53153.0
239.86,49749.0
241.231,34034.0
242.601,20925.0
243.97,13672.0
245.34,10100.0
246.709,8174.0
248.079,7217.0
249.448,6707.0
250.816,6270.0
252.185,6184.0
253.553,6075.0
254.921,6090.0
256.289,6261.0
257.657,6582.0
259.024,7342.0
260.391,9167.0
261.758,12659.0
263.125,19892.0
264.492,35866.0
265.858,59844.0
267.224,65535.0
268.59,58075.0
269.956,32111.0
271.321,18556.0
272.687,12508.0
274.052,10116.0
275.416,9290.0
276.781,9700.0
278.146,11116.0
279.51,13987.0
280.874,19592.0
282.237,28827.0
283.601,40764.0
284.964,46778.0
286.327,41888.0
287.69,30626.0
289.053,20582.0
290.416,14489.0
291.778,11292.0
293.14,9333.0
294.502,8294.0
295.863,7489.0
297.225,7114.0
298.586,6749.0
299.947,6400.0
301.308,6258.0
302.668,6050.0
304.029,5844.0
305.389,5801.0
306.749,5703.0
308.108,5606.0
309.468,5576.0
310.827,5481.0
312.186,5466.0
313.545,5482.0
314.903,5508.0
316.262,5455.0
317.62,5450.0
318.978,5390.0
320.336,5352.0
321.693,5368.0
323.051,5345.0
324.408,5406.0
325.765,5597.0
327.121,5930.0
328.478,6483.0
329.834,7371.0
331.19,7963.0
332.546,7843.0
333.902,7117.0
335.257,6445.0
336.612,5890.0
337.967,5499.0
339.322,5438.0
340.677,5321.0
342.031,5180.0
343.385,5148.0
344.739,5122.0
346.093,5081.0
347.446,5079.0
348.799,5026.0
350.153,5070.0
351.505,5028.0
352.858,4921.0
354.21,4892.0
355.563,4959.0
356.915,4870.0
358.267,4884.0
359.618,4828.0
360.969,4842.0
362.321,4956.0
363.672,4901.0
365.022,5057.0
366.373,5169.0
367.723,5347.0
369.073,5616.0
370.423,5790.0
371.773,5890.0
373.122,5760.0
374.471,5466.0
375.821,5300.0
377.169,4986.0
378.518,4917.0
379.866,5102.0
381.215,4864.0
382.563,4839.0
383.91,4704.0
385.258,4755.0
386.605,4830.0
387.952,4864.0
389.299,4892.0
390.646,4998.0
391.992,5134.0
393.339,5242.0
394.685,5484.0
396.031,5740.0
397.376,6368.0
398.722,6854.0
400.067,7665.0
401.412,8296.0
402.757,8463.0
404.101,8164.0
405.446,7520.0
406.79,6632.0
408.134,6068.0
409.478,5760.0
410.821,5369.0
412.165,5215.0
413.508,5073.0
414.851,4996.0
416.193,4902.0
417.536,4849.0
418.878,4859.0
420.22,4815.0
421.562,4807.0
422.904,4806.556
424.245,4791.0
425.586,4783.0
426.927,4782.0
428.268,4718.0
429.609,4704.0
430.949,4725.0
432.289,4801.0
433.629,4749.0
434.969,4878.0
436.309,4895.0
437.648,4967.0
438.987,5004.402
440.326,5009.248
441.665,5034.0
443.003,4978.0
444.342,4951.0
445.68,4858.0
447.018,4851.0
448.355,4981.0
449.693,4929.0
451.03,5116.0
452.367,5330.0
453.704,5628.0
455.041,5785.0
456.377,6007.0
457.713,6074.0
459.049,5948.0
460.385,5673.0
461.721,5475.0
463.056,5404.0
464.391,5226.0
465.726,5157.0
467.061,5224.0
468.395,5279.0
469.73,5200.0
471.064,5179.0
472.398,5133.0
473.731,5154.423
475.065,5236.0
476.398,5281.0
477.731,5384.0
479.064,5566.0
480.397,5815.0
481.729,5943.0
483.062,6092.0
484.394,6682.0
485.725,6744.948
487.057,6854.0
488.389,6942.0
489.72,6623.0
491.051,6146.0
492.382,5857.0
493.712,5508.0
495.043,5384.0
496.373,5240.0
497.703,5124.0
499.032,5170.0
500.362,5114.0
501.691,5103.0
503.02,5037.0
504.349,5035.0
505.678,5084.0
507.007,5059.0
508.335,5139.0
509.663,5086.0
510.991,5159.0
512.319,5095.0
513.646,5052.0
514.973,5128.0
516.3,5082.0
517.627,5228.0
518.954,5174.0
520.28,5117.0
521.607,5207.0
522.933,5188.0
524.259,5203.0
525.584,5237.0
526.91,5215.0
528.235,5224.0
529.56,5230.0
530.885,5220.0
532.209,5212.0
533.534,5290.0
534.858,5366.0
536.182,5354.0
537.506,5332.0
538.829,5386.0
540.152,5493.0
541.476,5534.0
542.799,5650.0
544.121,5625.0
545.444,5851.0
546.766,6031.0
548.088,6302.0
549.41,6461.0
550.732,6934.0
552.053,7508.0
553.375,8146.0
554.696,9052.0
556.017,9732.0
557.337,10558.0
558.658,10690.0
559.978,10336.0
561.298,9548.0
562.618,8762.0
563.938,7910.0
565.257,7297.0
566.576,6863.0
567.895,6464.0
569.214,6200.0
570.533,6086.0
571.851,5846.0
573.17,5796.0
574.488,5732.0
575.805,5690.0
577.123,5590.0
578.44,5556.0
579.758,5479.0
581.075,5509.0
582.391,5568.0
583.708,5508.0
585.024,5469.0
586.341,5416.0
587.657,5518.0
588.972,5417.0
590.288,5465.0
591.603,5440.0
592.918,5418.0
594.233,5423.0
595.548,5409.83
596.863,5434.0
598.177,5406.0
599.491,5459.0
600.805,5458.0
602.119,5441.0
603.432,5481.0
604.746,5466.0
606.059,5496.0
607.372,5524.0
608.685,5534.0
609.997,5521.451
611.309,5520.0
612.621,5487.0
613.933,5508.0
615.245,5528.0
616.557,5547.0
617.868,5476.0
619.179,5456.0
620.49,5520.0
621.801,5477.0
623.111,5556.0
624.421,5477.0
625.731,5608.0
627.041,5504.0
628.351,5575.0
629.66,5582.0
630.97,5542.0
632.279,5667.0
633.588,5713.0
634.896,5792.0
636.205,5912.0
637.513,6124.0
638.821,6213.0
640.129,6469.0
641.437,6623.0
642.744,6565.0
644.051,6537.0
645.358,6420.0
646.665,6232.0
647.972,6151.0
649.278,5988.0
650.584,5962.0
651.89,5866.0
653.196,5888.0
654.502,5848.0
655.807,5838.0
657.113,5847.105
658.418,5771.0
659.722,5854.0
661.027,5770.0
662.331,5756.0
663.636,5698.0
664.94,5791.0
666.244,5666.0
667.547,5735.0
668.851,5760.0
670.154,5743.0
671.457,5795.0
672.76,5765.0
674.062,5825.0
675.365,5783.0
676.667,5820.0
677.969,5948.0
679.271,5864.0
680.572,5975.0
681.874,5959.0
683.175,5956.0
684.476,6026.0
685.777,5928.0
687.077,5892.0
688.378,5851.0
689.678,5874.0
690.978,5850.0
692.278,5857.0
693.577,5832.927
694.877,5830.514
696.176,5789.0
697.475,5819.0
698.774,5829.0
700.072,5820.278
701.371,5856.0
702.669,5882.0
703.967,5849.0
705.265,5906.0
706.562,5946.0
707.86,5935.0
709.157,5904.0
710.454,5945.0
711.751,5979.0
713.047,5844.0
714.344,5866.0
715.64,5923.0
716.936,5860.0
718.232,5952.0
719.527,5959.0
720.823,5954.0
722.118,5829.0
723.413,5953.0
724.708,5963.0
726.002,5906.0
727.297,5994.0
728.591,5945.0
729.885,5911.0
731.179,6012.0
732.472,6011.0
733.766,5936.0
735.059,5927.0
736.352,6011.0
737.645,5978.0
738.937,6063.0
740.23,6043.0
741.522,6013.0
742.814,6137.0
744.106,6036.0
745.397,6141.0
746.689,6102.0
747.98,6068.0
749.271,6116.0
750.562,6065.0
751.853,6153.0
753.143,6063.0
754.433,6114.0
755.723,6093.0
757.013,6124.0
758.303,6141.323
759.592,6094.0
760.881,6205.0
762.17,6144.0
763.459,6231.0
764.748,6222.0
766.036,6180.0
767.325,6344.0
768.613,6216.0
769.901,6293.0
771.188,6300.0
772.476,6250.0
773.763,6300.0
775.05,6268.0
776.337,6282.0
777.624,6311.0
778.91,6335.0
780.196,6298.0
781.482,6318.0
782.768,6247.0
784.054,6294.0
785.339,6371.0
786.625,6393.0
787.91,6308.0
789.195,6352.0
790.479,6353.0
791.764,6339.0
793.048,6407.0
794.332,6319.0
795.616,6424.0
796.9,6386.0
798.183,6485.0
799.467,6422.0
800.75,6431.0
802.033,6404.0
803.316,6366.0
804.598,6464.0
805.88,6353.0
807.163,6525.0
808.445,6459.0
809.726,6466.0
811.008,6460.0
812.289,6479.0
813.57,6533.0
814.851,6580.0
816.132,6542.0
817.413,6529.0
818.693,6538.0
819.973,6569.0
821.253,6623.0
822.533,6634.0
823.813,6633.0
825.092,6634.0
826.371,6706.0
827.65,6619.0
828.929,6610.0
830.208,6731.0
831.486,6727.0
832.764,6677.0
834.042,6673.0
835.32,6818.0
836.598,6735.0
837.875,6839.0
839.152,6782.0
840.429,6900.0
841.706,6996.0
842.983,6998.0
844.259,7026.0
845.536,7076.0
846.812,7066.462
848.088,7123.0
849.363,7079.0
850.639,7113.0
851.914,7138.0
853.189,7114.0
854.464,7137.0
855.739,7183.0
857.013,7232.0
858.288,7212.0
859.562,7176.0
860.836,7205.0
862.11,7209.0
863.383,7174.0
864.656,7314.0
865.93,7298.0
867.203,7233.0
868.475,7308.0
869.748,7286.0
871.02,7343.0
872.292,7391.0
873.564,7401.0
874.836,7382.0
876.108,7395.0
877.379,7482.0
878.65,7443.0
879.922,7588.0
881.192,7640.0
882.463,7672.0
883.733,7543.0
885.004,7589.0
886.274,7643.0
887.544,7782.0
888.813,7801.0
890.083,7865.0
891.352,7954.0
892.621,8064.0
893.89,8142.0
895.159,8133.0
896.427,8242.0
897.695,8311.0
898.964,8487.0
900.232,8625.0
901.499,8804.0
902.767,8902.0
904.034,9207.0
905.301,9362.0
906.568,9652.0
907.835,9936.0
909.102,10203.0
910.368,10601.0
911.634,10976.0
912.9,11582.0
914.166,12197.0
915.432,13113.0
916.697,13771.0
917.962,14488.0
919.227,15601.0
920.492,16418.0
921.757,16987.0
923.021,17495.0
924.285,18378.0
925.55,18822.0
926.813,19865.0
928.077,21123.0
929.341,23192.0
930.604,26022.0
931.867,29440.0
933.13,31742.0
934.393,33426.0
935.655,32968.0
936.918,29504.0
938.18,26220.0
939.442,22298.0
940.703,19354.0
941.965,17156.0
943.226,15309.0
944.488,13808.0
945.749,12788.0
947.009,12160.0
948.27,11426.0
949.53,10914.0
950.791,10505.0
952.051,10306.0
953.311,9856.0
954.57,9686.0
955.83,9649.0
957.089,9438.0
958.348,9363.0
959.607,9235.0
960.866,9208.0
962.124,9154.06
963.383,9130.754
964.641,9135.0
965.899,9156.0
967.156,9216.0
968.414,9284.0
969.671,9312.0
970.928,9480.0
972.185,9634.0
973.442,10022.0
974.699,10348.0
975.955,11038.0
977.211,11966.0
978.468,12992.0
979.723,14402.0
980.979,15624.0
982.234,16385.0
983.49,16732.0
984.745,15184.0
986.0,14054.0
987.254,12675.0
988.509,11409.0
989.763,10671.0
991.017,9979.0
992.271,9508.0
993.525,9336.0
994.779,9035.0
996.032,8878.0
997.285,8803.0
998.538,8668.0
999.791,8584.0
1001.044,8709.0
1002.296,8619.0
1003.548,8713.0
1004.8,8734.0
1006.052,8752.0
1007.304,8762.0
1008.555,8585.0
1009.807,8534.0
1011.058,8498.0
1012.309,8522.0
1013.559,8268.0
1014.81,8285.0
1016.06,8121.0
1017.31,8206.0
1018.56,8135.0
1019.81,7988.0
1021.06,8109.0
1022.309,8129.0
1023.558,8079.0
1024.807,8077.0
1026.056,8020.0
1027.305,8029.0
1028.553,8009.0
1029.801,7994.326
1031.049,8052.0
1032.297,7963.0
1033.545,8039.0
1034.793,7990.63
1036.04,8025.0
1037.287,8035.0
1038.534,8034.0
1039.781,8098.0
1041.027,8119.0
1042.274,8139.315
1043.52,8052.0
1044.766,8164.0
1046.012,8075.0
1047.257,8043.0
1048.503,8058.0
1049.748,8031.579
1050.993,8054.0
1052.238,8052.0
1053.483,8060.0
1054.727,8068.0
1055.971,8039.0
1057.216,8068.548
1058.459,8065.946
1059.703,8100.0
1060.947,8089.0
1062.19,8090.0
1063.433,8107.0
1064.676,8084.577
1065.919,8038.0
1067.162,8066.0
1068.404,8072.012
1069.646,8091.0
1070.888,8119.0
1072.13,8137.0
1073.372,8175.0
1074.613,8224.0
1075.855,8122.0
1077.096,8098.0
1078.337,8137.0
1079.578,8198.0
1080.818,8199.0
1082.059,8225.0
1083.299,8126.0
1084.539,8163.0
1085.779,8118.0
1087.018,8187.0
1088.258,8213.0
1089.497,8280.0
1090.736,8236.286
1091.975,8204.27
1093.213,8171.0
1094.452,8151.355
1095.69,8130.0
1096.928,8130.0
1098.166,8159.0
1099.404,8169.0
1100.642,8238.0
1101.879,8183.0
1103.116,8078.0
1104.353,8169.0
1105.59,8220.0
1106.827,8143.0
1108.063,8238.0
1109.299,8153.0
1110.536,8192.0
1111.771,8208.0
1113.007,8080.0
1114.243,8230.0
1115.478,8175.0
1116.713,8262.0
1117.948,8264.0
1119.183,8317.0
1120.418,8285.0
1121.652,8471.0
1122.886,8509.0
1124.12,8475.0
1125.354,8425.0
1126.588,8242.0
1127.821,8411.0
1129.055,8334.0
1130.288,8422.0
1131.521,8452.0
1132.753,8350.0
1133.986,8329.0
1135.218,8384.0
1136.45,8428.0
1137.682,8378.0
1138.914,8522.0
1140.146,8380.0
1141.377,8412.0
1142.609,8413.0
1143.84,8482.0
1145.071,8497.0
1146.301,8564.0
1147.532,8560.0
1148.762,8614.0
1149.992,8593.0
1151.222,8688.0
1152.452,8789.0
1153.682,8861.0
1154.911,8798.0
1156.14,9034.0
1157.369,9069.0
1158.598,9090.0
1159.827,9314.0
1161.055,9397.0
1162.284,9388.0
1163.512,9668.0
1164.74,9600.0
1165.967,9581.0
1167.195,9417.0
1168.422,9409.0
1169.65,9399.0
1170.877,9217.0
1172.103,9065.0
1173.33,9115.0
1174.557,9020.0
1175.783,8993.0
1177.009,8956.265
1178.235,8874.24
1179.461,8843.0
1180.686,8769.0
1181.912,8693.0
1183.137,8714.0
1184.362,8704.0
1185.587,8766.0
1186.811,8727.0
1188.036,8712.0
1189.26,8747.0
1190.484,8862.0
1191.708,8708.0
1192.932,8827.0
1194.155,8677.0
1195.378,8790.0
1196.602,8766.0
1197.825,8898.0
1199.047,8878.829
1200.27,8828.0
1201.492,8868.0
1202.715,8920.0
1203.937,8924.18
1205.159,8896.0
1206.38,8870.0
1207.602,8854.0
1208.823,8830.0
1210.044,8811.0
1211.265,8885.0
1212.486,8848.0
1213.707,8894.0
1214.927,8845.0
1216.147,8912.0
1217.367,8965.0
1218.587,8936.0
1219.807,9020.0
1221.027,9014.0
1222.246,8877.0
1223.465,8944.0
1224.684,8980.0
1225.903,8990.0
1227.121,9026.0
1228.34,9036.942
1229.558,9045.0
1230.776,9041.0
1231.994,9038.0
1233.212,8996.0
1234.429,9025.0
1235.646,9029.0
1236.864,8993.0
1238.081,9129.0
1239.297,9059.0
1240.514,9149.0
1241.73,9116.0
1242.947,9108.0
1244.163,9177.0
1245.378,9139.0
1246.594,9180.0
1247.81,9218.0
1249.025,9198.462
1250.24,9157.0
1251.455,9197.0
1252.67,9164.0
1253.885,9166.0
1255.099,9153.0
1256.313,9192.0
1257.527,9195.706
1258.741,9212.01
1259.955,9229.0
1261.168,9225.0
1262.382,9225.0
1263.595,9182.0
1264.808,9164.0
1266.021,9231.0
1267.233,9239.0
1268.446,9325.0
1269.658,9263.0
1270.87,9314.0
1272.082,9260.0
1273.294,9345.0
1274.505,9352.0
1275.716,9369.0
1276.928,9348.0
1278.139,9446.0
1279.349,9377.0
1280.56,9326.0
1281.77,9346.0
1282.981,9453.0
1284.191,9387.0
1285.401,9516.0
1286.61,9500.0
1287.82,9451.0
1289.029,9484.0
1290.239,9446.0
1291.448,9511.0
1292.656,9518.0
1293.865,9587.0
1295.073,9536.0
1296.282,9564.0
1297.49,9568.0
1298.698,9523.0
1299.906,9562.0
1301.113,9591.0
1302.32,9528.0
1303.528,9557.0
1304.735,9592.0
1305.942,9539.0
1307.148,9579.0
1308.355,9668.0
1309.561,9625.0
1310.767,9706.0
1311.973,9642.0
1313.179,9694.0
1314.384,9583.0
1315.59,9764.0
1316.795,9736.0
1318.0,9661.0
1319.205,9738.0
1320.41,9738.0
1321.614,9808.0
1322.819,9809.376
1324.023,9823.93
1325.227,9814.0
1326.431,9809.0
1327.634,9813.0
1328.838,9817.726
1330.041,9832.812
1331.244,9836.0
1332.447,9865.0
1333.65,9868.0
1334.852,9867.0
1336.055,9850.0
1337.257,9787.0
1338.459,9930.0
1339.661,10015.0
1340.862,9992.0
1342.064,9951.0
1343.265,10019.0
1344.466,9937.0
1345.667,10078.0
1346.868,10016.0
1348.068,10030.0
1349.269,10094.0
1350.469,10045.0
1351.669,10058.0
1352.869,10166.0
1354.069,10121.0
1355.268,10208.0
1356.468,10106.0
1357.667,10173.0
1358.866,10232.0
1360.065,10104.0
1361.263,10263.0
1362.462,10187.0
1363.66,10212.0
1364.858,10330.0
1366.056,10232.0
1367.254,10242.0
1368.451,10390.0
1369.649,10347.0
1370.846,10260.0
1372.043,10364.0
1373.24,10276.0
1374.436,10368.0
1375.633,10368.0
1376.829,10346.0
1378.025,10360.0
1379.221,10299.0
1380.417,10364.0
1381.613,10428.0
1382.808,10344.0
1384.003,10410.0
1385.199,10510.0
1386.393,10409.0
1387.588,10480.0
1388.783,10528.0
1389.977,10513.0
1391.171,10619.0
1392.365,10454.0
1393.559,10606.0
1394.753,10620.0
1395.946,10439.0
1397.14,10583.0
1398.333,10574.0
1399.526,10643.0
1400.719,10609.0
1401.911,10614.0
1403.104,10711.0
1404.296,10622.0
1405.488,10740.0
1406.68,10691.0
1407.872,10635.0
1409.063,10716.0
1410.255,10783.0
1411.446,10671.0
1412.637,10724.0
1413.828,10821.0
1415.018,10785.0
1416.209,10834.0
1417.399,10946.0
1418.589,10831.0
1419.779,10810.0
1420.969,10844.0
1422.159,10858.0
1423.348,10852.0
1424.537,10970.0
1425.726,10908.0
1426.915,10954.0
1428.104,10894.0
1429.293,10918.0
1430.481,10926.0
1431.669,10888.0
1432.857,10941.499
1434.045,10925.0
1435.233,11043.0
1436.42,11079.0
1437.608,11189.0
1438.795,11104.0
1439.982,11120.0
1441.169,11057.0
1442.355,11095.0
1443.542,11117.0
1444.728,11158.0
1445.914,11169.492
1447.1,11166.0
1448.286,11204.0
1449.472,11207.0
1450.657,11246.637
1451.842,11238.0
1453.027,11287.0
1454.212,11250.0
1455.397,11271.0
1456.581,11238.0
1457.766,11266.0
1458.95,11402.0
1460.134,11290.0
1461.318,11409.0
1462.501,11390.0
1463.685,11293.0
1464.868,11403.0
1466.051,11409.0
1467.234,11462.0
1468.417,11495.35
1469.6,11385.0
1470.782,11491.0
1471.965,11453.0
1473.147,11353.0
1474.329,11556.0
1475.51,11483.0
1476.692,11427.0
1477.873,11513.0
1479.055,11501.0
1480.236,11441.0
1481.416,11584.0
1482.597,11508.0
1483.778,11596.0
1484.958,11568.0
1486.138,11518.0
1487.318,11528.0
1488.498,11704.0
1489.678,11594.0
1490.857,11710.0
1492.037,11552.0
1493.216,11679.0
1494.395,11673.0
1495.574,11620.0
1496.752,11671.0
1497.931,11648.0
1499.109,11736.0
1500.287,11603.0
1501.465,11695.0
1502.643,11549.0
1503.82,11513.0
1504.998,11639.0
1506.175,11621.0
1507.352,11665.0
1508.529,11730.0
1509.706,11730.0
1510.882,11825.0
1512.059,11664.0
1513.235,11705.0
1514.411,11809.0
1515.587,11737.0
1516.762,11936.0
1517.938,11702.0
1519.113,11838.0
1520.288,11899.0
1521.463,11921.0
1522.638,11937.0
1523.813,11905.0
