Raman Shift,Intensity
214.3785040343428,21.348
224.78145843945092,277.528
235.01908334044856,-26.685
245.41130867789616,-499.017
255.63837774522108,648.455
265.8602158678186,-117.416
276.23642015571386,354.916
286.44772684514464,266.854
296.8132434111685,-61.376
307.0140349346475,226.826
317.209615658554,170.787
327.399989574551,-106.742
337.7442627077253,26.685
347.9241537664129,264.186
358.09885002992814,-101.405
368.2683554736213,162.781
378.5914504125685,-338.905
388.7505051753542,-40.028
398.90438108190574,253.511
409.0530820913264,205.478
419.196612158652,-40.028
429.3349752349313,-309.551
439.626465572117,-90.73
449.75442592354375,-154.775
459.8772311743669,114.747
469.994885259468,-664.467
480.1073921097559,392.276
490.2147556521086,-445.646
500.31697980943136,-186.798
510.41406850063504,-360.253
520.5060256406359,24.017
530.5928551403995,146.77
540.6745609068894,274.86
550.7511468431039,56.039
560.8226168481124,-317.556
570.888974816975,-274.86
580.9502246408374,384.27
590.8492821665859,80.056
600.9004070215597,405.618
610.9464353206786,-173.455
620.9873709393651,-154.775
631.0232177491416,85.393
641.0539796175653,69.382
650.9230482019848,258.848
660.9437310766662,491.012
670.9593405290361,317.556
680.9698804110958,536.377
690.8190579752118,-149.438
700.8195493193562,317.556
710.8149825658329,128.09
720.805361551138,-168.118
730.6347081696804,-80.056
740.6150689503047,-106.742
750.4345613154874,330.899
760.404918953056,45.365
770.3702413346182,-979.355
780.174941402227,-5798.74
790.1302832356378,-667.135
799.925166080895,29.354
809.8705423523497,-258.848
819.6556227125038,-200.141
829.5910483782136,-77.388
839.3663409610526,418.961
849.2918309472952,-34.691
859.0573504311833,-317.556
868.972919634427,397.613
878.7286806683987,114.747
888.6343439553166,136.096
898.3803611591502,792.557
908.12155022542,-42.697
918.0124213310264,466.995
927.743888384779,96.067
937.4705381077074,-360.253
947.3466501411676,-531.04
957.0635996041163,450.983
966.7757425107702,298.877
976.6371284824854,-61.376
986.3395928168538,-146.77
996.0372613373548,587.079
1005.7301375988682,-93.399
1015.5719657306544,683.147
1025.255192198514,370.927
1034.9336371072422,640.45
1044.6073039976543,250.843
1054.2761964070742,218.82
1063.9403178693246,-226.826
1073.5996719147442,-245.506
1083.4074711432768,-344.242
1093.057225399156,-277.528
1102.70222286418,21.348
1112.3424670547538,-109.41
1121.9779614837898,453.652
1131.6087096607444,-277.528
1141.2347150916105,18.68
1150.855981278939,-229.495
1160.4725117218331,98.736
1170.0843099159465,277.528
1179.6913793534914,205.478
1189.293723523253,274.86
1198.739039559725,-258.848
1208.3320185130287,306.882
1217.9202825891407,85.393
1227.5038352631818,18.68
1237.0826800068826,-533.708
1246.6568202885535,-173.455
1256.226259573108,328.231
1265.639216696829,88.062
1275.1993388504195,-354.916
1284.7547703264208,258.848
1294.3055145761757,-117.416
1303.7000868433097,421.629
1313.241541245312,-141.433
1322.778318700337,146.77
1332.310422646282,517.697
1341.686663866676,-210.815
1351.2095051416618,-48.034
1360.727683146746,-491.012
1370.0902294598782,328.231
1379.5991650801443,-104.073
1388.9526223370776,117.416
1398.4523290278594,-56.039
1407.7967104575073,290.871
1417.287201648047,-152.107
1426.7730533080105,-112.079
1436.1038095471376,-26.685
1445.5804658554116,488.343
1454.9021792800197,851.265
1464.369653600741,234.832
1473.6823373500883,-568.399
1482.9905472474493,-523.034
1492.444310209452,-58.708
1501.7435100404182,792.557
1511.1881242589734,-346.91
1520.4783270994303,-90.73
1529.764072276041,-128.09
1539.1950247490097,-58.708
1548.4717924494323,541.714
1557.7441121511074,426.967
1567.1614324998736,-13.343
1576.4247941832873,58.708
1585.6837175051332,-144.101
1594.9382056544855,-85.393
1604.3374199708342,-675.141
1613.5829759239496,-325.562
1622.8241063047317,-170.787
1632.0608142900164,170.787
1641.2931030535765,-381.601
1650.6697762525291,539.045
1659.8931649322622,-66.714
1669.1121439444323,-248.174
1678.3267164506542,120.084
1687.53688560953,-306.882
1696.7426545766284,-2.669
1705.9440265045123,64.045
1715.1410045427183,373.596
1724.3335918377925,66.714
1733.5217915332687,32.022
1742.705606769683,181.461
1751.8850406845886,-69.382
1761.0600964125188,-141.433
1770.230777085024,154.775
1779.397085830693,-277.528
1788.55902577511,539.045
1797.7166000408906,80.056
1806.8698117476447,146.77
1816.0186640120735,-141.433
1825.163159947857,-8.006
1834.1559155330324,-200.141
1843.29177827917,-42.697
1852.4232939699289,-226.826
1861.550465707216,-8.006
1870.673296589972,-386.938
1879.644751645923,-469.663
1888.758979994156,-114.747
1897.8688767172423,261.517
1906.974444902422,-322.893
1915.9289277003045,-32.022
1925.025917750907,93.399
1934.118588458099,181.461
1943.060390766601,-258.848
1952.144501554074,317.556
1961.2243021666216,-346.91
1970.153450902042,210.815
1979.224709758193,-298.877
1988.1454604369865,-160.112
1997.208189584475,525.703
2006.120554048888,37.36
2015.1747655127983,45.365
2024.0787555828572,0.0
2033.12446136566,40.484
2042.0200888391555,194.38
2051.057300920809,413.538
2059.9445775734057,649.82
2068.9733079113576,855.073
2077.852245496608,981.158
2086.8725060258803,979.931
2095.743116275291,803.242
2104.6096010526526,402.95
2113.6172135316083,-88.062
2122.4753884816528,-120.084
2131.329446630596,-5.337
2140.324437642892,381.601
2149.170203423979,-13.343
2158.011861050589,-16.011
2166.994257105456,-53.371
2175.8276397748195,-98.736
2184.656922912145,-189.466
2193.48210937062,-112.079
2202.303202000803,269.523
2211.2647105948345,-557.725
2220.077557114586,-464.326
2228.886318388424,282.865
2237.6909972563008,-288.202
2246.4915965555265,26.685
2255.2881191208,165.45
2264.0805677841927,-472.332
2272.8689453751285,240.169
2281.6532547204406,362.922
2290.5774032157133,-466.995
2299.353517963282,346.91
2308.125572976198,-85.393
2316.893571070781,250.843
2325.6575150607823,373.596
2334.273835606975,-410.955
2343.029746164546,-8.006
2351.781610997117,178.792
2360.5294329081007,-208.146
2369.273214698267,-226.826
2378.0129591658333,112.079
2386.7486691064114,372.379
2395.48034731306,491.657
2404.2079965762314,500.944
2412.788641914361,431.263
2421.5083075861257,313.644
2430.2239526247795,179.118
2438.9355798105607,58.708
2447.64319192111,72.051
2456.204142101211,418.961
2464.9037980916983,290.871
2473.5994472792227,136.096
2482.148638712344,-432.304
2490.836348166158,608.427
2499.5200590665554,-346.91
2508.0575159626023,-373.596
2516.7333034706826,85.393
2525.405100652257,-144.101
2533.930847154741,120.084
2542.5947372405863,-104.073
2551.112711590584,-408.287
2559.768705390503,82.725
2568.2789182109263,170.787
2576.927026515033,-66.714
2585.5711635713087,392.276
2594.069721988235,-637.781
2602.5644435408976,402.95
2611.196813145194,-216.152
2619.683804921093,-208.146
2628.3083212822166,-34.691
2636.7875938271245,-109.41
2645.404267656864,-480.337
2653.875831497382,-466.995
2662.343576738021,-651.124
2670.948539131641,32.022
2679.408591378582,216.152
2687.8648328054915,410.955
2696.4581076233444,-269.523
2704.906671724595,93.399
2713.351432764532,461.658
2721.792393310454,242.837
2730.370143142005,-282.865
2738.8034471581705,-149.438
2747.232958411034,-21.348
2755.658679458633,322.893
2764.220946338093,120.084
2772.639031576786,-189.466
2781.053334313052,504.354
2789.463857095703,1014.046
2797.8706024712737,-477.669
2806.2735729839987,568.399
2814.672771175843,-194.803
2823.0681995864725,165.45
2831.459860753297,77.388
2839.847757211428,-224.157
2848.231891493713,-242.837
2856.612266130724,50.702
2864.988883650767,1545.085
2873.3617465798743,-154.775
2881.7308574418275,322.893
2890.096218758139,-162.781
2898.457833048058,-381.601
2906.815702828586,-170.787
2915.169830614461,-77.388
2923.5202189181878,-82.725
2931.8668702499926,90.73
2940.209787117892,272.191
2948.41001618022,-274.86
2956.7455337723804,229.495
2965.077324369493,-170.787
2973.405390470638,178.792
2981.7297345726547,109.41
2989.9117125592966,-50.702
2998.2286820744484,-221.489
3006.5419370261297,709.832
3014.8514799023105,352.247
3023.0189130185245,21.348
3031.3211009634906,229.495
3039.619584242202,373.596
3047.776149306213,-90.73
3056.067292329164,483.006
3064.2166442633534,-683.147
3072.500456765243,-402.95
3080.780576892153,181.461
3088.919096831967,-106.742
3097.1919010483834,-29.354
3105.3232317767324,-285.534
3113.588729774354,130.759
3121.712880813,-176.124
3129.9710822664056,322.893
3138.0880631202745,-248.174
3146.338977686973,466.995
3154.448797844241,466.995
3162.692435164703,-162.781
3170.7951040967964,56.039
3178.894230970407,-114.747
3187.127000956163,-10.674
3195.218990740796,344.242
3203.3074454664093,229.495
3211.5293695924192,32.022
3219.610701328027,-320.225
3227.688504985643,50.702
3235.899604670318,344.242
3243.9702993997853,413.624
3252.03747301393,-162.781
3260.1011278165533,-248.174
3268.297848330192,157.444
3276.354412870096,-85.393
3284.407465536773,-277.528
3292.4570086259846,370.927
3300.5030444314834,66.714
3308.545575245,34.691
3316.720827896272,-64.045
3324.756296283769,-120.084
3332.788266581294,-995.366
3340.816741072602,152.107
3348.8417220394404,18.68
3356.8632117615925,149.438
3364.8812125168406,-170.787
3372.895726580995,237.5
3380.906756227865,18.68
3388.91430372934,128.09
3396.918371355256,-32.022
3404.9189613735507,162.781
3412.9160760501472,-309.551
3420.909717649003,58.708
3428.8998884321263,197.472
3436.886590659553,45.365
3444.734546370892,224.157
3452.714376952972,-29.354
3460.690745709508,605.759
3468.663654892749,-125.421
3476.633106752961,80.056
3484.5991035384795,672.472
3492.4267178764712,-98.736
3500.385869715596,104.073
3508.341573175334,205.478
3516.293830496281,-200.141
3524.1079469444667,-128.09
3532.0533770164475,144.101
3539.9953676218797,-717.838
3547.7993978646555,-322.893
3555.734574435446,-266.854
3563.666318194715,-96.067
3571.460281747888,-50.702
3579.385224652753,-248.174
3587.30674138396,21.348
3595.090657713052,333.568
3603.00538673612,-354.916
3610.782634691175,555.057
3618.6905847266535,-445.646
3626.461172873067,216.152
3634.362352626544,-34.691
3642.1262895150494,-488.343
3650.020707677235,40.028
3657.778001843908,-21.348
3665.665667090652,61.376
3673.416327056992,-480.337
3681.163701429177,261.517
3689.041282322214,133.427
3696.782035212709,-24.017
3704.6528847781447,117.416
3712.3870246721344,72.051
3720.117889469839,26.685
3727.845481251112,-29.354
3735.702951367959,-85.393
3743.4239470074463,34.691
3751.141675895298,170.787
3758.989119491133,50.702
3766.700264858686,277.528
3774.408149723422,-197.472
3782.1127761528696,-24.017
3789.814146212797,10.674
3797.644959575024,-345.696
3805.339767031168,-345.696
3813.03132434014,-345.696
3820.7196335607214,-345.696
3828.404696749953,-345.696
3836.086515963114,-345.696
3843.76509325378,-345.696
3851.4404306737633,-345.696
3859.112530273167,-345.696
3866.7813941003615,-345.696
3874.4470242019815,-345.696
3882.109422622947,-345.696
3889.7685914064414,-345.696
3897.4245325939337,-345.696
3905.0772482251705,-345.696
3912.7267403381848,-345.696
3920.373010969284,-345.696
3928.016062153074,-345.696
3935.655895922435,-345.696
3943.292514308545,-345.696
3950.925919340858,-345.696
3958.424585178429,-341.491
3966.051624900327,-330.438
3973.675457311714,-310.602
3981.296084435249,-280.047
3988.913508291902,-236.831
3996.396478310664,-179.013
4004.007556831755,-104.662
4011.615438103967,-11.834
4019.220124141517,101.405
4026.690583777876,248.174
4034.288940385857,328.231
4041.8841077570687,-53.371
4049.3452186808136,-144.101
4056.934068499933,-277.528
4064.519735065173,389.607
4071.971514814119,138.764
4079.550875675057,-138.764
4086.996462302253,88.062
4094.5695253181984,-237.5
4102.008926541021,-90.73
4109.575699558212,-269.523
4117.008923081237,-194.803
4124.569413932906,53.371
4131.996467447912,-146.77
4139.550683954272,-408.287
4146.971575140262,128.09
4154.519525108568,-232.163
4161.93426163181,-389.607
4169.475952856366,-72.051
4228.011654085007,-2.669
4235.396210255021,-488.343
4242.907210725418,-154.775
4250.415076793586,64.045
4257.7904449892885,-285.534
4265.292102093408,-312.219
4272.790630641473,-90.73
4280.156827999919,338.905
4287.649159161061,8.006
4295.138367597785,-2.669
4302.4954112134365,106.742
4309.978433811593,202.809
4317.329402006981,-152.107
4324.8062464273535,915.31
4332.151146724958,74.719
4339.621820615692,-96.067
4346.960660525576,-298.877
4354.425171522191,-133.427
4361.757958542046,-160.112
4369.216314267462,800.562
4376.543055882612,368.259
4383.9952639471885,221.489
4391.315967630617,-133.427
4398.762035632179,-325.562
4406.07670884455,-69.382
4413.516644368407,317.556
4420.825294558097,-152.107
4428.130962180556,-42.697
4435.561739780205,-10.674
4442.861395497304,245.506
4450.1580741507205,32.022
4457.579710724684,-77.388
4464.870388562711,-18.68
4472.158094827057,34.691
4479.570607232323,165.45
4486.852323743988,160.112
4494.131074158497,104.073
4501.534479210626,55.933
4508.807250907994,55.933
4516.077061971264,55.933
4523.3439142079005,55.933
4530.735219799091,55.933
4537.996107969229,55.933
4545.254042757973,55.933
4552.509025966887,55.933
4559.888261734326,55.933
4567.13729547953,55.933
4574.383383072374,55.933
4581.626526308552,55.933
4588.866726982291,55.933
4596.103986886381,55.933
4603.338307812148,55.933
4610.69653172473,55.933
4617.92492857972,55.933
4625.150391852971,55.933
4632.372923329975,55.933
4639.592524794789,55.933
4646.809198030001,55.933
4654.022944816745,55.933
4661.233766934747,55.933
4668.441666162253,55.933
4675.646644276094,-85.393
4682.8487030516335,493.68
4690.047844262837,176.124
4697.244069682201,-381.601
4704.437381080781,739.186
4711.627780228235,208.146
4718.815268892759,-531.04
4725.999848841122,-221.489
4733.181521838655,-114.747
4740.3602896492885,397.613
4747.536154035501,-37.36
4754.583300303697,101.405
4761.753413983191,-104.073
4768.9206294863325,-405.618
4776.084948569973,-442.978
4783.246372989488,453.652
4790.404904498872,-10.674
4797.435032206777,-93.399
4804.5878338284165,296.208
4811.73774776268,-56.039
4818.884775757928,-133.427
4826.028919561082,80.056
4833.044920461813,12.211
4840.183351639585,-366.842
4847.3189038270575,-903.146
4854.451578765569,-1442.747
4861.456318765864,-1831.695
4868.58329482688,-1916.031
4875.707398824052,-1541.803
4882.703723295803,-555.057
4889.822138682386,-101.405
4896.937687177771,-3151.547
4903.925611277555,-483.006
4911.035481404608,-285.534
4918.142489800703,-256.18
4925.122028648751,237.5
4932.223368894192,120.084
4939.197342363797,170.787
4946.293021236786,-72.051
4953.385846941688,-248.174
4960.35146024984,-141.433
4967.43863475923,483.006
4974.398699333346,-619.102
4981.480229398396,10.674
4988.43475186592,-296.208
4995.510644227063,8.006
5002.459631204903,-136.096
5009.529892591847,346.91
5016.473350686378,370.927
5023.537987818112,122.753
5030.475923625207,-96.067
5037.534943210041,218.82
5044.467363315067,-213.483
5051.397052412052,37.36
5058.447683028528,32.022
5065.371866252855,-112.079
5072.416896017057,-37.36
5079.335579928018,-21.348
5086.251540943114,154.775
5093.288206657562,112.079
5100.198678149784,-64.045
5107.106431592307,322.893
5114.134748143202,573.736
5121.037021830118,104.073
5127.93658230202,394.944
5134.833431158368,-112.079
5141.85065500065,-676.046
5148.742037069234,-988.972
5155.630712341699,-1091.962
5162.516682412504,-1026.123
5169.522839786696,-832.56
5176.403355996677,-552.381
5183.281171809234,-226.685
5190.156288813778,103.417
5197.028708598496,396.82
5204.021081907653,612.423
5210.888063918697,709.111
5217.752353495271,645.787
5224.613952220541,-309.551
5231.472861676462,-2468.4
5238.329083443728,440.309
5245.182619101804,237.5
5252.033470228904,149.438
5258.881638402017,248.174
5265.727125196914,-32.022
5272.569932188097,338.905
5279.532181775125,-85.393
5286.369586094326,-117.416
5293.204315354014,509.691
5300.036371123795,152.107
5306.865754971979,-370.927
5313.692468465706,282.865
5320.516513170878,-512.36
5327.216103720151,-221.489
5334.034863128356,48.034
5340.850958410447,-154.775
5347.664391127459,408.287
5354.475162839211,-301.545
5361.283275104273,-274.86
5368.088729480027,306.882
5374.891527522632,608.427
5381.6916707870405,-507.023
5388.489160826968,186.798
5395.162686039381,213.483
5401.954921596684,61.376
5408.744508555763,106.742
5415.531448465517,1633.147
5422.31574287366,176.124
5428.976315601984,-1846.63
5435.7553708175255,-328.231
5442.531785139763,72.051
5449.305560111599,-138.764
5456.076697274744,298.877
5462.724355191152,144.101
5469.490268392445,168.118
5476.253548375513,298.877
5482.893493883399,-338.905
5489.651558992991,-285.534
5496.406995464167,285.534
5503.039241977291,325.562
5509.789472642318,333.568
5516.5370792381145,659.13
5523.161640139158,-146.77
5529.904049975114,-120.084
5536.643840300443,-176.124
5543.260728941095,-74.719
5549.995331531944,33.53
5556.607128017575,104.204
5563.336548861262,147.247
5569.943259067753,172.612
5576.667504142417,190.246
5583.269133936614,210.089
5589.988209211173,242.095
5596.58476445092,296.208
5603.298675885118,440.309
5609.890162419251,720.506
5616.598915963696,226.826
5623.185339632037,37.36
5629.888941228186,603.09
5636.470307861637,-61.376
5643.16876344182,216.152
5649.745078862296,13.343
5656.438394349752,146.77
5663.009664370256,-616.433
5669.578436568787,413.624
5676.264076103718,208.146
5682.827811578958,-253.511
5689.3890535265455,-138.764
5696.067030305661,-715.169
5702.623244186747,194.803
5709.176968824671,635.113
5715.847296014435,224.157
5722.39600122282,40.028
5728.942221462719,53.371
5735.4859581482815,531.04
5742.146121627004,-184.129
5748.684850350968,-69.382
5755.221099782248,357.585
5761.754871330697,-250.843
5768.404894310675,856.602
5774.933669330552,-72.051
5781.459970716278,56.039
5787.983799873429,-152.107
5794.505158206499,-440.309
5801.142549523138,-74.719
5807.658925557145,437.641
5814.172834999641,440.309
5820.684279250832,405.618
5827.193259709879,399.774
5833.699777774898,408.132
5840.203834842934,421.568
5846.7054323099655,430.957
5853.204571570954,427.169
5859.701254019747,401.085
5866.195481049195,343.573
5872.687254051074,245.506
5879.176574416102,141.433
5885.663443533944,186.798
5892.14786279323,365.59
5898.629833581537,354.916
5905.109357285379,-296.208
5911.586435290243,296.208
5918.061068980562,133.427
5924.533259739736,421.629
5931.003008950094,-194.803
5937.470317992949,282.865
5943.935188248557,-250.843
5950.397621096134,330.899
5956.857617913869,152.107
5963.315180078898,-194.803
5969.7703089673305,483.006
5976.105705888956,0.0
5982.556016527509,250.843
5989.003897986593,469.663
5995.449351638199,-221.489
6001.8923788532775,24.017
6008.215900781644,128.09
6014.654123287393,480.337
6021.089923438405,448.315
6027.523302601519,362.922
6033.954262142564,269.523
6040.265942433929,-109.41
6046.692110755517,-250.843
6053.115863521547,-2.669
6059.420472023492,-32.022
6065.839441620141,-144.101
6072.255999718647,269.523
6078.553548309683,232.163
6084.965331270854,-106.742
6091.374706782226,144.101
6097.665207314269,408.287
6104.06981570238,216.152
6110.472020679961,-202.809
6116.755484978421,893.961
6123.152930828903,13.343
6129.431725134898,-144.101
6135.824417162912,141.433
6142.098546680769,8.006
6148.486490183052,1062.079
6154.872039648391,-82.725
6161.139160374798,242.837
6167.519969269015,-136.096
6173.782438208022,330.899
6180.158511808193,104.073
6186.416334137088,-18.68
6192.787677712448,317.556
6199.040858600842,648.455
6205.291741972564,571.068
6211.656022022646,480.337
6217.902271670246,-29.354
6224.261834810408,72.051
6230.503455884398,-194.803
6236.742785809074,504.354
6243.095304999864,170.787
6249.330014038809,354.916
6255.677829386121,237.5
6261.907922670827,464.326
6268.1357311500615,-250.843
6274.476522051649,621.77
6280.699722436162,2.669
6286.920641805642,-114.747
6293.139281413962,133.427
6299.470738832184,306.882
6305.684780516531,314.888
6311.896546218988,277.528
6318.106037189755,5.337
6324.428181717434,448.315
6330.633084905065,192.135
6336.835717129172,152.107
6343.036079636258,517.697
6349.234173671932,53.371
6355.544716640681,266.854
6361.738235515753,90.73
6367.929489673777,597.753
6374.118480356665,544.382
6380.305208805476,397.613
6386.489676260331,96.067
6392.671883960451,357.585
6398.851833144166,-368.259
6405.143905470883,336.236
6411.319299566196,584.41
6417.492438877496,285.534
6423.663324639478,205.478
6429.831958085924,18.68
6435.998340449718,88.062
6442.162472962846,2.669
6448.324356856407,280.197
6454.483993360576,-48.034
6460.641383704664,-216.152
6466.79652911704,-93.399
6472.949430825232,216.152
6479.100090055821,549.719
6485.248508034543,466.995
6491.280888225534,5.337
6497.424868822251,242.837
6503.5666118162335,-160.112
6509.706118429633,397.613
6515.843389883739,170.787
6521.978427398899,-66.714
6528.111232194642,101.405
6534.241805489546,-277.528
6540.256680928833,547.051
6546.382836142315,237.5
6552.506763482961,-232.163
6558.628464165849,40.028
6564.747939405184,237.5
6570.751928194237,-42.697
6576.866997341494,-202.809
6582.979844660076,675.141
6589.090471360658,130.759
6595.0857801617385,456.321
6601.192010321647,-947.332
6607.296023467985,-37.36
6613.39782080795,346.91
6619.384468430493,160.112
6625.481878753591,58.708
6631.577076864334,288.202
6637.5572509579,80.056
6643.64806916556,346.91
6649.623946782151,26.685
6655.71038980603,-202.809
6661.794626582923,-304.911
6667.764048126817,-321.65
6673.843916808139,-273.307
6679.809053455574,-180.151
6685.884558743659,-62.458
6691.957863728712,59.496
6697.916561697035,165.436
6703.985510351609,235.086
6709.939934962422,248.174
6716.004531971987,80.056
6721.954687820689,-317.556
6728.014937863976,197.472
6733.960829539363,539.045
6739.904610751524,141.433
6745.95836937274,-162.781
6751.897893261092,-229.495
6757.947316561804,194.803
6763.8825876987685,136.096
6769.927680334353,58.708
6775.858703285812,32.022
6781.787623684751,370.927
6787.826249230238,496.349
6793.750928258974,512.36
6799.673508107371,-200.141
6805.705676935038,98.736
6811.624022213946,101.405
6817.540271677499,58.708
6823.5659941374615,-128.09
6829.478015817709,112.079
6835.387945040406,194.803
6841.407231460638,325.562
6847.312939671727,-34.691
6853.216558775894,194.803
6859.118089881435,333.568
6865.017534095896,-141.433
6871.026143398485,539.045
6876.921377827312,354.916
6882.814528703813,1120.787
6888.705597132364,-469.663
6894.594584216582,-277.528
6900.592544785228,128.09
6906.477333270021,29.354
6912.360043737404,-5.337
6918.240677287846,153.742
6924.119235021055,443.506
6929.995718035963,778.699
6935.870127430717,1074.061
6941.742464302697,1244.341
6947.6127297485,1204.281
6953.480924863958,868.621
6959.347050744116,152.107
6965.21110848328,-477.669
6971.073099174937,434.972
6976.93302391185,5.337
6982.79088378598,1008.709
6988.64667988853,496.349
6994.500413309928,-5.337
7000.35208513985,112.079
7006.201696467178,40.028
7012.049248380063,84.42
7017.894741965851,249.223
7023.738178311156,462.917
7029.579558501813,653.985
7035.418883622879,750.911
7041.2561547586665,682.177
7047.091372992727,376.264
7052.924539407839,-29.354
7058.645653010426,112.079
7064.474757695687,349.579
7070.301813785409,96.067
7076.126822359336,114.747
7081.949784496486,317.556
7087.660891581778,539.045
7093.479802640664,133.427
7099.296670474898,899.298
7105.111496160462,-186.798
7110.814624476749,-1097.553
7116.625407570507,-1294.76
7122.434151718757,-974.036
7128.2408579944895,-330.99
7133.936024250346,438.762
7139.73869639702,1139.611
7145.53933386541,1575.944
7151.22854892195,1552.148
7157.025158582874,872.613
7162.819736753059,-96.067
7168.503009933542,288.202
7174.293566604632,712.5
7180.082094965896,394.944
7185.759435574095,218.82
7191.54394873148,434.972
7197.2173519438,112.079
7202.997854073568,400.281
7208.667323984642,346.91
7214.443819257263,16.011
7220.109359956041,128.09
7225.881852536215,8.006
7231.54346810597,8.006
7237.311962152613,162.781
7242.969656670975,-21.348
7248.734156337254,437.641
7254.387933876205,186.798
7260.148443309525,-426.967
7265.798307935409,-88.062
7271.554831277448,301.545
7277.20078705097,-56.039
7282.953328437674,-80.056
7288.59537941395,736.517
7294.235498085545,-184.129
7299.982093204053,-536.377
7305.618313131272,568.399
7311.252603748333,109.41
7316.993261813666,-277.528
7322.623659726734,85.393
7328.252131317968,412.297
7333.9868615261075,572.297
7339.611446441268,598.246
7345.234108016753,523.005
7350.962919544712,379.424
7356.581700459581,200.365
7362.198561010817,18.68
7367.813502182726,8.006
7373.426524958988,531.04
7379.145517410223,595.085
7384.7546694986595,904.635
7390.361906157261,789.888
7395.967228366993,-117.416
7401.570637108154,699.158
7407.279835705631,1219.523
7412.879383697611,501.686
7418.477021176703,421.629
7424.072749120482,208.146
7429.666568505905,8.006
7435.258480309247,146.77
7440.848485506111,-45.365
7446.436585071431,635.113
7452.022779979503,362.922
7457.607071203925,-245.506
7463.296794702215,240.169
7468.877244915177,720.506
7474.455794380043,69.382
7480.032444067743,248.174
7485.607194948596,667.135
7491.18004799222,632.444
7496.751004167574,173.455
7502.2129850032,10.674
7507.7801867781745,250.843
7513.345494569261,581.742
7518.908909342786,448.315
7524.470432064445,146.77
7530.03006369928,-205.478
7535.587805211653,472.332
7541.1436575652915,950.001
7546.697621723266,405.618
7552.249698647978,357.585
7557.693172648,736.517
7563.241514237732,549.719
7568.787971459049,205.478
7574.332545271769,-301.545
7579.87523663506,40.028
7585.416046507413,266.854
7590.848475703144,61.376
7596.385561603231,34.691
7601.920768865631,-776.545
7607.454098446255,237.5
7612.879194899509,-378.933
7618.4088080453,592.416
7623.936546354853,218.82
7629.462410781522,360.253
7634.880189328982,-157.444
7640.402344837916,362.922
7645.9226293018255,125.421
7651.334937948188,368.259
7656.851519109852,104.073
7662.260197498763,133.427
7667.773079083498,483.006
7673.284094334183,-165.45
7678.687316594296,736.517
7684.194637864675,-1016.714
7689.7000956236625,880.619
7695.097870006797,-2.669
7700.599639370841,-149.438
7705.993798107356,88.062
7711.491882781789,376.264
7716.882429503323,-157.444
7722.376833188511,317.556
7727.763771521855,-42.697
7733.254497913214,1115.45
7738.637831480286,450.983
7744.124884268305,325.562
7749.504616686187,269.523
7754.987999556393,184.129
7760.364134437317,-88.062
7765.738489349154,208.146
7771.216392021717,509.691
7776.587154788423,85.393
7782.061396717661,157.444
7787.428570939446,563.062
7792.793969640064,512.36
7798.262745065967,354.916
7803.624560595526,776.545
7808.984603262106,-256.18
7814.447920368751,-1008.709
7819.804385227417,306.882
7825.159079875983,429.635
7830.616946831127,-208.146
7835.968069024231,576.405
7841.317423654822,336.236
7846.665011598543,248.174
7852.115636126822,-109.41
7857.459658723532,264.186
7862.801917273948,869.944
7868.142412651388,-232.163
7873.481145728587,165.45
7878.922746278997,168.118
7884.257922859626,608.427
7889.59133977185,101.405
7894.922997886111,-82.725
7900.252898072242,312.219
7905.581041199541,-301.545
7910.907428136696,413.624
7916.336446752692,333.568
7921.65928952102,899.298
7926.980378718883,547.051
7932.29971521271,-56.039
7937.617299868325,373.596
7942.933133550996,450.983
7948.247217125423,424.298
7953.559551455743,-282.865
7958.870137405502,240.169
7964.178975837705,475.0
7969.486067614758,440.824
7974.791413598527,227.299
7980.0950146503055,-58.297
7985.396871630804,-308.686
7990.696985400187,-416.591
7995.995356818043,-274.734
8001.291986743403,224.157
8006.586876034729,749.86
8011.880025549901,160.112
8017.067699705829,627.107
8022.357406311574,85.393
8027.645375694708,509.691
8032.931608710882,421.629
8038.216106215201,-82.725
8043.498869062179,64.045
8048.779898105804,504.354
8053.955695240969,693.821
8059.233293192043,242.837
8064.509159881611,544.382
8069.783296161415,429.635
8074.952338977277,536.377
8080.223050878609,-8.006
8085.492034905405,-122.753
8090.759291907168,-98.736
8095.921593616502,133.427
8101.185432936367,483.006
8106.447547759821,632.17
8111.604810570996,583.751
8116.863512715307,420.746
8122.120492886879,226.159
8127.272724173963,82.983
8132.526296659391,74.22
8137.778149690843,282.865
8142.925356813517,584.41
8148.173807142077,322.893
8153.4205405305,-170.787
8158.562730834117,298.877
8163.806066493191,149.438
8168.944927307508,400.281
8174.184868536668,609.26
8179.32040309432,648.137
8184.55695318873,569.821
8189.689164718173,427.226
8194.922326968728,273.256
8200.051218694258,160.819
8205.280996387602,142.829
8210.406571529322,272.191
8215.632967947844,442.978
8220.7552297217,104.073
8225.978248143558,-693.821
8231.097199761349,74.719
8236.316843460441,2313.625
8241.43248812982,5.337
8246.546496881761,162.781
8251.76110130029,555.057
8256.871807891675,-272.191
8261.98088093357,261.517
8267.190453365733,895.949
8272.296229025691,1217.183
8277.400373499535,1293.028
8282.604921225458,1191.295
8287.705773086778,979.792
8292.804996120794,726.329
8298.004526406577,498.715
8303.100461588281,364.763
8308.194770296956,392.276
8313.28745331115,440.309
8318.48031600209,56.039
8323.569717486189,162.781
8328.657495624051,176.124
8333.743651192239,1155.478
8338.828184966831,632.444
8344.012739449463,133.427
8349.093999566121,330.899
8354.17364022991,619.102
8359.251662214898,613.764
8364.328066294685,-85.393
8369.402853242376,336.236
8374.476023830553,144.101
8379.547578831349,544.382
8384.718901354245,186.798
8389.787195221597,-707.163
8394.853875830348,461.658
8399.91894395064,685.815
8404.98240035212,853.933
8410.044245803958,477.669
8415.104481074803,765.871
8420.163106932847,74.719
8425.220124145773,242.837
8430.275533480788,40.028
8435.32933570461,224.157
8440.381531583458,627.107
8445.432121883085,645.787
8450.48110736873,384.27
8455.528488805172,-429.635
8460.473367100913,88.062
8465.51757477424,296.208
8470.560180674485,544.382
8475.601185564497,304.214
8480.64059020661,258.848
8485.67839536271,237.5
8490.714601794163,272.191
8495.749210261878,557.725
8500.681576948675,491.012
8505.713023691114,565.731
8510.742874734438,-120.084
8515.771130837642,61.376
8520.797792759218,517.697
8525.722375497866,229.495
8530.745883175656,85.393
8535.7677989293,461.658
8540.788123515384,480.337
8545.706498587671,-10.674
8550.723674892208,333.568
8555.739262280982,194.803
8560.652997083213,933.989
8565.665440644778,747.191
8570.676297538128,731.18
8575.585398634048,224.157
8580.593116146138,584.41
8585.599249233324,781.883
8590.503723174297,229.495
8595.506721317797,461.658
8600.508137275468,429.635
8605.40799060051,458.989
8610.406276043708,114.747
8615.303062904772,82.725
8620.298220771765,362.922
8625.191944046568,394.944
8630.18397727198,336.236
8635.074639834631,491.012
8640.063551349394,410.955
8644.951156070434,413.624
8649.936948801806,861.939
8654.821498548154,365.59
8659.804175419777,523.034
8664.685673054784,453.652
8669.665236986599,96.067
8674.543685370048,133.427
8679.520139278378,458.989
8684.395541266465,82.725
8689.2694364983,272.191
8694.241246509358,496.349
8699.112099609058,763.203
8703.981448060618,469.663
8708.948620671701,301.545
8713.81493124642,37.36
8718.779005433622,208.146
8723.642280973501,437.641
8728.504055374753,213.483
8733.364329332315,144.101
8738.32224658698,-16.011
8743.179491154478,-160.112
8748.035237374625,632.444
8752.889485940628,864.607
8757.8412577103,840.59
8762.692482517024,354.916
8767.542211760752,864.607
8772.39044613298,555.057
8777.336083836857,264.186
8782.18130006664,837.922
8787.02502351089,488.343
8791.867254859393,162.781
8796.707994801498,619.102
8801.547244026118,154.775
8806.385003221756,322.893
8811.319956958603,104.073
8816.154707786565,165.45
8820.987970662514,456.321
8825.819746273257,-93.399
8830.650035305174,178.792
8835.478838444196,856.602
8840.306156375878,400.281
8845.131989785303,485.674
8849.956339357173,-82.725
8854.779205775758,304.214
8859.60058972489,336.236
8864.420491888006,-181.461
8869.238912948098,653.793
8874.055853587757,517.697
8878.871314489159,2689.889
8883.685296334032,509.691
8888.497799803714,-170.787
8893.308825579123,405.618
8898.118374340735,533.708
8902.926446768637,285.534
8907.634964476681,242.837
8912.440116370435,-218.82
8917.243793954342,125.421
8922.045997906822,485.674
8926.846728905857,88.062
8931.645987629043,-1932.024
8936.443774753548,-1384.973
8941.142221650607,234.832
8945.937097605834,571.068
8950.73050397759,250.843
8955.522441441404,907.304
8960.215160665939,416.292
8965.004192282166,731.18
8969.791757000756,373.596
8974.577855495572,1208.849
8979.26485751475,320.225
8984.048055470721,-423.527
8988.829789208343,-739.506
8993.51251749025,-741.262
8998.291354655303,-542.36
9003.068729603765,-256.351
9007.747189991118,3.204
9012.521672326067,122.753
9017.294694442531,144.101
9021.968892767374,349.579
9026.739026222178,-346.91
9031.41039612206,1080.759
9036.17764353675,64.045
9040.943434050514,176.124
9045.610551571128,298.877
9050.373459984672,496.349
9055.037755503963,53.371
9059.797784430888,258.848
9064.45926050758,-45.365
9069.216412558366,603.09
9073.87507174812,-24.017
9078.629349530078,21.348
9083.285194385431,587.079
9088.036600502714,597.753
9092.689633573158,130.759
9097.438170626783,421.629
9102.088394458704,181.461
9106.73722909284,581.742
9111.481482183284,688.484
9116.12751137963,579.073
9120.868901881862,389.607
9125.512128179163,370.927
9130.153968412898,765.871
9134.891084617178,480.337
9139.53012574118,600.422
9144.167782675046,381.601
9148.9006303586,424.298
9153.535491965213,408.287
9158.168971251744,282.865
9162.801068836525,544.382
9167.528243916331,413.624
9172.157551197888,458.989
9176.785478643267,418.961
9181.412026869286,496.349
9186.13353953768,1016.714
9190.757302472506,45.365
9195.37968804908,344.242
9200.000696882766,-317.556
9204.620329588544,-5.337
9209.334785850184,515.028
9213.951639506451,-357.585
9218.567118890363,101.405
9223.181224615444,365.59
9227.79395729483,429.635
9232.40531754132,330.899
9237.015305967328,982.023
9241.623923184923,501.686
9246.23116980579,322.893
9250.932987640888,485.674
9255.537466379788,-288.202
9260.140576367572,77.388
9264.742318214474,709.832
9269.342692530376,264.186
9273.941699924766,-160.112
9278.539341006806,696.489
9283.135616385269,45.365
9287.730526668583,229.495
9292.324072464791,880.619
9296.91625438162,624.439
9301.411444872112,475.0
9306.00092923447,152.107
9310.589051525738,552.388
9315.175812352172,432.304
9319.761212319692,421.629
9324.345252033823,362.922
9328.927932099774,-77.388
9333.509253122353,197.472
9338.08921570604,544.382
9342.572446701386,432.304
9347.149722488744,88.062
9351.7256416359,-90.73
9356.300204745894,136.096
9360.873412421412,491.012
9365.350032145325,232.163
9369.920558965528,779.214
9374.489732144635,360.253
9379.05755228394,432.304
9383.528899030936,141.433
9388.09404305015,-152.107
9392.657835818722,165.45
9397.125240831178,469.663
9401.6863610176,357.585
9406.246131739394,96.067
9410.80455359534,768.54
9415.266701898625,605.759
9419.822455888205,-77.388
9424.281993052333,458.989
9428.835081516963,664.467
9433.38682407955,845.928
9437.84243511156,130.759
9442.391515668474,138.764
9446.84452129656,74.719
9451.390942182352,837.922
9455.93602012123,424.298
9460.385108237591,48.034
9464.927530014324,413.624
9469.374018445214,285.534
9473.913786387537,309.551
9478.35767741084,-429.635
9482.894793843763,608.427
9487.33608973474,202.809
9491.87055698055,-69.382
9496.30926001177,301.545
9500.74668109923,624.439
9505.277192831463,555.057
9509.71202445114,93.399
9514.23989277796,42.697
9518.672137195834,213.483
9523.103102466685,392.276
9527.62702390948,1019.383
9532.05540536064,824.579
9536.57668916292,18.68
9541.002489053764,186.798
9545.42701258622,-146.77
9549.850260312329,53.371
9554.36630345335,162.781
9558.78697410632,354.916
9563.206370618926,226.826
9567.718482324255,-48.034
9572.13530512818,581.742
9576.550855454823,426.967
9580.965133854,715.169
9585.47202083257,520.366
9589.883729992052,173.455
9594.294168883298,1027.388
9598.703338054846,349.579
9603.111238054931,237.5
9607.611613766734,333.568
9612.016950092931,731.18
9616.421018902103,392.276
9620.823820741218,549.719
9625.225356156909,378.933
9629.625625695517,90.73
9634.02462990307,80.056
9638.422369325252,-26.685
9642.81884450748,-29.354
9647.21405599481,-64.117
9651.701478874824,-162.971
9656.094137748323,-295.736
9660.485534571855,-432.237
9664.875669889248,-542.296
9669.264544244,-595.733
9673.65215817932,-562.376
9678.03851223808,-412.044
9682.423606962846,-114.56
9686.807442895892,360.253
9691.19002057915,736.517
9695.478134071804,365.59
9699.858223622705,723.175
9704.23705653629,234.832
9708.614633353289,280.197
9712.990954614088,221.489
9717.36602085878,160.112
9721.739832627154,418.961
9726.112390458671,138.764
9730.483694892511,-234.832
9734.760779687776,341.573
9739.129605581998,434.972
9743.497179682729,512.36
9747.863502527893,568.399
9752.228574655115,760.534
9756.499562339395,-37.36
9760.862161224974,464.326
9765.223510992222,664.467
9769.583612177565,248.174
9773.849736751828,552.388
9778.207368918504,917.978
9782.563754099236,-74.719
9786.918892829211,285.534
9791.18016259473,426.967
9795.532836519418,50.702
9799.884265585692,50.702
9804.14190615754,-69.382
9808.490873566669,258.848
9812.83859770701,381.601
9817.09261371952,400.281
9821.437879345483,218.82
9825.689490172908,240.169
9830.032299369228,536.377
9834.373867936378,170.787
9838.621861899856,907.304
9842.960977171238,450.983
9847.206571054325,-218.477
9851.543235108787,-673.954
9855.786430944943,-942.732
9860.12064585897,-1052.088
9864.361445679362,-1029.296
9868.693213527116,-901.641
9872.931619360628,-696.393
9877.26094221391,-440.838
9881.49695608711,-162.247
9885.823836015392,112.095
9890.057459952584,354.916
9894.289902518456,493.68
9898.613135046206,381.601
9902.843190697367,168.118
9907.163985452502,-48.034
9911.391656207565,485.674
9915.61814808206,149.438
9919.935303126713,82.725
9924.15941311792,386.938
9928.38234571751,627.107
9932.695865648708,77.388
9936.91641937277,464.326
9941.135797191648,789.888
9945.445686598703,280.197
9949.662688544726,-64.045
9953.878516069532,176.124
9958.09316966365,346.91
9962.398234183594,397.613
9966.61051589339,341.573
9970.821625153134,643.118
9975.031562452265,328.231
9979.240328279942,202.809
9983.53937957713,298.877
9987.745778488254,907.304
9991.95100740443,354.916
9996.155066813732,208.146
10000.357957203963,149.438
10004.55967906266,208.146
10008.760232877092,365.59
10013.050897176752,-144.101
10017.249090997648,232.163
10021.446118245014,632.444
10025.641979405023,226.826
10029.83667496358,93.399
10034.03020540632,146.77
10038.222571218605,314.888
10042.413772885537,162.781
10046.603810891938,496.349
10050.79268572236,288.202
10054.980397861098,176.124
10059.16694779218,931.321
10063.352335999334,640.45
10067.536562966066,-162.781
10071.719629175575,96.067
10075.90153511081,141.433
10080.082281254454,619.102
10084.26186808891,285.534
10088.440296096323,234.832
10092.52676786215,421.629
10096.702904826674,477.669
10100.877884398516,-101.405
10105.051707058765,-16.011
10109.224373288234,133.427
10113.395883567471,157.444
10117.475590772649,568.399
10121.64481569536,982.023
10125.812886097472,605.759
10129.979802458443,189.466
10134.145565257517,285.534
10138.219652237512,813.905
10142.383134400929,624.439
10146.545464428116,319.556
10150.706642797257,42.197
10154.776246850048,-179.566
10158.935148346747,-317.668
10163.092899607942,-344.037
10167.159152430871,-230.605
10171.314629631466,50.702
10175.468958016776,309.551
10179.531863747628,-34.691
10183.683920879565,152.107
10187.834830614069,-72.051
10191.894393383842,330.899
10196.043034667582,680.478
10200.190529969435,216.152
10204.246753902304,181.461
10208.391983551395,346.91
10212.44599199288,268.565
10216.588957845182,-29.613
10220.640752609928,-406.689
10224.781456519388,-721.728
10228.831039420063,-833.791
10232.969483238625,-601.946
10237.016856085897,114.747
10241.15304166346,904.635
10245.19820626604,269.523
10249.332135450502,653.793
10253.375093615126,0.0
10257.506768252357,619.102
10261.547521783785,1250.95
10265.58718577827,1513.15
10269.715494418666,1495.45
10273.752956473523,1287.598
10277.87901516247,979.336
10281.91427707755,660.416
10285.948451675904,420.58
10290.0711512271,349.579
10294.10312837192,560.394
10298.13401952729,885.956
10302.253364041218,-309.551
10306.282060424935,80.056
10310.309672144327,122.753
10314.425665714796,290.871
10318.451085340042,200.141
10322.475421623927,555.057
10326.498675003731,757.866
10330.610215200984,555.057
10334.631280043344,469.663
10338.651263301725,651.124
10342.670165412448,416.292
10346.687986811625,301.545
10350.704727935088,64.045
10354.80961387438,485.674
10358.824171771252,168.118
10362.837650708272,101.405
10366.850051120337,480.337
10370.86137344214,429.635
10374.871618108127,232.163
10378.880785552512,-330.899
10382.888876209276,282.865
10386.984923052532,-8.006
10390.990837530662,202.809
10394.995676531347,685.815
10398.999440487634,218.82
10403.00212983234,56.039
10407.003744998048,643.118
10411.004286417105,-130.759
10415.003754521616,184.129
10419.002149743475,568.399
10422.999472514348,64.045
10426.995723265634,-66.714
10430.990902428544,-80.056
10434.985010434026,-50.702
10438.889325180557,429.635
10442.881315942828,109.41
10446.872236829608,93.399
10450.86208827093,189.466
10454.85087069661,-301.545
10458.838584536235,418.961
10462.82523021915,237.5
10466.810808174472,170.787
10470.706785742112,1144.804
10474.690253232264,464.326
10478.672654271297,637.781
10482.653989287404,384.27
10486.634258708573,472.332
10490.525047770485,568.399
10494.50321094102,168.118
10498.480309789697,53.371
10502.45634474356,42.697
10506.342995080442,-112.079
10510.316927143493,224.157
10514.2897965821,517.395
10518.261603822417,630.101
10522.144122034457,608.411
10526.113829736623,498.459
10530.082476508169,346.382
10533.961905709137,198.312
10537.92845544769,100.385
10541.89394552126,98.736
10545.770289396216,245.506
10549.733684937964,491.012
10553.607981637546,288.202
10557.569284306495,242.837
10561.52952941227,410.955
10565.400746905443,274.86
10569.35890163298,40.028
10573.22807600992,-8.006
10577.184142013864,984.692
10581.05127489159,563.062
10585.005253824836,472.332
10588.87034681866,-475.0
10592.822240332363,-53.371
10596.685295055897,13.343
10600.635104799476,186.798
10604.496122864624,-21.348
10608.443850485746,320.225
10612.302833502728,-125.421
10616.160811022752,461.658
10620.10543022464,288.202
10623.9613750996,704.495
10627.903916281392,-64.045
10631.757830117263,240.169
10635.61074043666,486.566
10639.550179321655,508.795
10643.401060998756,381.553
10647.250940343372,179.545
10651.187280591832,-22.533
10655.035133687184,-149.977
10658.881985632182,-128.09
10662.815230898605,8.006
10666.660058983602,-5.337
10670.50388709854,135.695
10674.346715633475,135.695
10678.275847672114,135.695
10682.116655520924,135.695
10685.956464967534,135.695
10689.795276401208,172.148
10693.633090210977,172.148
10697.557095575656,172.148
10701.39289265285,172.148
10705.227693280882,135.695
10709.061497847986,-13.343
10712.894306742182,466.995
10716.726120351308,117.416
10720.55693906298,835.253
10724.386763264632,2.669
10728.302600658342,381.601
10732.130414421008,213.483
10735.957234843503,272.191
10739.783062312445,509.691
10743.60789721425,362.922
10747.431739935131,98.736
10751.254590861114,112.079
10755.076450378,-101.405
10758.897318871408,58.708
10762.717196726757,193.723
10766.536084329256,248.249
10770.353982063916,252.727
10774.170890315563,237.596
10777.98680946881,233.295
10781.801739908076,270.261
10785.615682017564,378.933
10789.341989100834,496.349
10793.153978142976,328.231
10796.964979998098,56.039
10800.774995049622,-149.438
10804.58402368077,168.118
10808.392066274577,48.034
10812.199123213884,533.708
10816.005194881312,-280.197
10819.723813349112,213.483
10823.52793799081,178.792
10827.331078498672,328.231
10831.133235254529,370.927
10834.848029253728,330.899
10838.64824198676,338.905
10842.447472103491,128.09
10846.24571998498,-16.011
10849.956695412544,-16.011
10853.753002267928,432.304
10857.548328021428,10.674
10861.342673053316,-200.141
10865.049835794096,656.461
10868.842242790466,-61.376
10872.63367019626,184.129
10876.337982712816,237.5
10880.12747431772,338.905
10883.82989575329,136.096
10887.617453039476,600.422
10891.404032613404,165.45
10895.103609289945,400.281
10898.88825677408,-290.871
10902.585945994537,-18.68
10906.368662867266,141.433
10910.150403901262,1086.096
10913.845253813895,61.376
10917.62506645972,312.219
10921.318032531915,600.422
10925.095918264182,-130.759
10928.787001936307,426.967
10932.562962228116,-162.781
10936.252164939066,288.202
10939.940438510435,-42.697
10943.713524449233,90.73
10947.399919206764,600.422
10951.171083372872,304.214
10954.855600751816,-144.101
10958.62484461311,178.792
10962.307486047235,242.837
10965.989200819247,104.073
10969.755577991731,-256.18
10973.435418958636,226.826
10977.114334320191,-210.815
10980.877848072992,504.354
10984.554891765896,-208.146
10988.231010908596,269.523
10991.991664505884,-93.399
10995.665914113146,544.382
10999.33924022374,-56.039
11003.011643185791,-360.253
11006.768495629847,272.191
11010.439031890255,-226.826
11014.108646053544,608.427
11017.777338467138,253.511
11021.530395518184,170.787
11025.197224058184,50.702
11028.863131897786,130.759
11032.528119383707,144.101
11036.192186862492,475.0
11039.855334680517,-336.236
11043.602720353196,88.062
11047.264008520897,282.865
11050.924378073953,325.562
11054.58382935806,410.955
11058.242362718707,130.759
11061.899978501227,149.438
11065.556677050785,26.685
11069.21245871235,237.5
11072.867323830738,26.685
11076.521272750586,370.927
11080.174305816368,-507.023
11083.826423372368,410.955
11087.477625762698,-448.315
11091.127913331318,154.775
11094.777286422,128.09
11098.425745378345,765.871
11102.073290543767,-53.371
11105.719922261547,520.366
11109.36564087477,-80.056
11113.010446726335,413.624
11116.654340159006,-106.742
11120.29732151534,397.613
11123.93939113774,-120.084
11127.580549368427,-197.472
11131.22079654947,-317.556
11134.77550763161,248.174
11138.413954906267,144.101
11142.051492148485,154.775
11145.688119699626,491.012
11149.323837900913,360.253
11152.958647093375,213.483
11156.508048620988,-365.59
11160.141061938251,-181.461
11163.773167260852,-114.747
11167.40436492916,-354.916
11170.950240228543,320.225
11174.579644697213,-245.506
11178.208142523734,128.09
11181.751381744987,152.107
11185.378088371155,72.051
11189.003889365817,133.427
11192.628785068173,-77.388
11196.16850723805,-122.753
11199.79161440632,154.775
11203.413817290922,378.933
11206.950910239968,77.388
11210.571326582844,45.365
11214.10667518314,-82.725
11217.725306305692,421.629
11221.343034819707,336.236
11224.875759069631,421.629
11228.49170435076,224.157
11232.022687482247,408.287
11235.636850848638,173.455
11239.166094148528,-37.36
11242.778476917028,-333.568
11246.305981670925,-18.68
11249.91658515709,77.388
11253.442352649325,-296.208
11257.05117816741,-611.096
11260.575209681025,-589.748
11264.182258544,376.264
11267.704555360804,40.028
11271.309828880325,384.27
11274.83039228086,181.461
11278.350099642112,413.624
11281.952723030843,98.736
11285.470698886753,-330.899
11288.987819646914,106.742
11292.587795825824,-272.191
11296.103186988752,536.377
11299.70139304264,154.775
11303.215055883851,384.27
11306.727865201254,768.54
11310.23982130582,362.922
11313.834511810855,80.056
11317.34474212601,-226.826
11320.8541201677,176.124
11324.446172200132,-493.68
11327.953826352135,186.798
11331.460629168672,232.163
11334.96658095964,941.995
11338.471682034791,504.354
11342.059356881087,122.753
11345.562737216636,536.377
11349.06526777208,501.686
11352.566948856567,-13.343
11356.067780779093,189.466
11359.56776384851,-296.208
11363.1502007606,536.377
11366.648466857394,-98.736
11370.145885034064,178.792
11373.642455598843,122.753
11377.138178859836,24.017
11380.633055125,-88.062
11384.1270847021,-21.348
11387.620267898808,-320.225
11391.112605022612,-539.045
11394.60409638087,-458.989
11398.094742280777,362.922
11401.584543029392,216.152
11405.073498933603,13.343
11408.561610300185,186.798
11412.048877435727,-66.714
11415.5353006467,160.112
11419.020880239405,250.843
11422.505616520008,501.686
11425.989509794525,-216.152
11429.472560368817,296.208
11432.954768548592,160.112
11436.43613463944,-314.888
11439.916658946764,114.747
11443.313501961433,309.551
11446.79236364179,-5.337
11450.270384446749,-18.68
11453.74756468115,-69.382
11457.22390464968,74.719
11460.699404656869,29.354
11464.091344754375,26.685
11467.565185732994,-138.764
11471.038187655771,603.09
11474.51035082668,152.107
11477.981675549512,389.607
11481.369541233144,117.416
11484.839209915755,-210.815
11488.30804105362,909.972
11491.693473394258,8.006
11495.16065027576,-416.292
11498.626990514544,-16.011
11502.092494413417,-218.82
11505.474679896604,-165.45
11508.938531918346,-795.225
11512.401548500471,-29.354
11515.78130675673,168.118
11519.242673239612,-242.837
11522.620821260369,-282.865
11526.080538823127,98.736
11529.5394224415,114.747
11532.915147579475,221.489
11536.372384051368,-66.714
11539.74650183491,186.798
11543.202092336618,237.5
11546.574603913472,354.916
11550.028549620163,226.826
11553.399456136987,261.517
11556.85175822272,-221.489
11560.221060825072,144.101
11563.67172046279,192.135
11567.039420295116,109.41
11570.488438656655,-162.781
11573.854536862347,-101.405
11577.301915118398,-2.669
11580.666412839755,288.202
11584.030120381583,288.202
11587.475050538147,280.197
11590.837159300165,128.09
11594.280452266124,160.112
11597.64096338792,269.523
11601.000685734118,-18.68
11604.441534950183,-456.321
11607.79966135666,2.669
11611.156999826935,-608.427
11614.59540789372,-373.596
11617.951152122365,184.129
11621.306109253032,-154.775
11624.66027956261,152.107
11628.09544335218,50.702
11631.44802167594,40.028
11634.799814015252,-218.82
11638.15082064648,-205.478
11641.58274474832,258.848
11644.932161645294,-168.118
11648.280793669244,178.792
11651.62864109602,-61.376
11654.975704201344,130.759
11658.403590030808,-32.022
11661.749066206958,82.725
11665.093758894744,472.332
11668.43766836938,-437.641
11671.780794905935,93.399
11675.12313877933,-290.871
11678.4647002644,-128.09
11681.805479635816,-178.792
11685.145477168146,-611.096
11688.484693135812,146.77
11691.904543291126,218.82
11695.24217790648,-186.798
11698.579031786354,88.062
11701.915105204676,109.41
11705.25039843522,-755.197
11708.584911751648,426.967
11711.918645427471,-10.674
11715.251599736104,176.124
11718.502511651865,-136.096
11721.83392703817,288.202
11725.164563870054,245.506
11728.4944224204,-699.158
11731.823502961994,-90.73
11735.15180576744,-779.214
11738.479331109273,-82.725
11741.806079259855,885.956
11745.132050491462,-226.826
11748.457245076206,-301.545
11751.70058915004,677.809
11755.024250183047,-264.186
11758.34713537819,-5.337
11761.669245007088,-114.747
11764.990579341233,-515.028
11768.230158619372,-213.483
11771.549962071174,-5.337
11774.86899103535,0.0
11778.187245782876,397.613
11781.423821624776,77.388
11784.740547618409,194.803
11788.05650020102,442.978
11791.371679643096,-461.658
11794.605256223578,-352.247
11797.91890903626,61.376
11801.231789512534,-408.287
11804.46312397414,282.865
11807.774479408556,-50.702
11811.085063309589,-437.641
11814.314157983485,10.674
11817.623218427994,-338.905
11820.850827315822,-128.09
11824.158365355152,-149.438
11827.4651331948,-21.348
11830.690506166697,-234.832
11833.995753182851,442.978
11837.219642936305,288.202
11840.52337017791,-5.337
11843.745777735792,58.708
11847.047986250807,109.41
11850.26891263506,-5.337
11853.569603470474,101.405
11856.789049702087,245.506
11860.088223903953,384.27
11863.30619100298,468.044
11866.603849616356,491.892
11869.820338601929,462.05
11873.11648267094,384.763
11876.331494561222,266.267
11879.545777396996,112.808
11882.839660941268,-69.382
11886.052468201013,-154.775
11889.26454715598,72.051
11892.55617250015,-603.09
11895.766777396242,928.652
11899.056892350098,-109.41
11902.26602420178,42.697
11905.474428998024,-176.124
11908.682106985869,-354.916
11911.969222890988,547.051
11915.17542984806,125.421
11918.380910743392,392.276
11921.66577540321,346.91
11924.869786778698,533.708
11928.07307283808,-306.882
11931.27563382762,-21.348
11934.477469993468,552.388
11937.758600089848,245.506
11940.95896924119,400.281
11944.158614312782,258.848
11947.35753555032,-242.837
11950.55573319941,-170.787
11953.753207505528,104.073
11957.029868231695,-458.989
11960.225878519712,-712.44
11963.42116620667,-452.625
11966.615731537608,126.526
11969.809574757444,831.082
11973.002696111003,1467.11
11976.195095842992,1840.68
11979.386774197992,1757.859
11982.577731420495,1024.72
11985.767967754866,-16.011
11988.957483445382,218.82
11992.146278736183,224.157
11995.334353871312,-21.348
11998.521709094712,274.86
12001.708344650193,418.961
12004.894260781464,-237.5
12008.079457732136,37.36
12011.2639357457,-96.067
12014.44769506553,256.18
12017.630735934905,-197.472
12020.81305859698,-98.736
12023.994663294816,-34.691
12027.175550271351,643.118
12030.27622427429,-621.77
12033.455694464548,-400.281
12036.634447655608,197.472
12039.812484089987,-405.618
12042.989804010074,368.259
12046.166407658158,80.056
12049.26290681064,-64.045
12052.4380965329,-456.321
12055.612570703324,21.348
12058.786329563762,224.157
12061.880055974125,157.444
12065.052402807443,493.68
12068.224035049663,253.511
12071.394952942192,-293.54
12074.485910333004,-18.68
12077.655418093736,-392.276
12080.824212222367,-133.427
12083.913099633974,378.933
12087.080485047096,58.708
12090.247157544738,152.107
12093.333977055809,229.495
