Raman shift,Intensity
763.76372,3856.16231
765.31805,3854.80597
766.87239,3854.80597
768.42673,3853.44962
769.98107,3853.44962
771.53541,3852.09327
773.08975,3852.09327
774.64409,3853.44962
776.19843,3854.80597
777.75277,3856.16231
779.3071,3857.51866
780.86144,3858.87501
782.41578,3861.5877
783.97012,3862.94405
785.52446,3864.3004
787.0788,3865.65675
788.63314,3867.01309
790.18748,3867.01309
791.74181,3868.36944
793.29615,3869.72579
794.85049,3869.72579
796.40483,3868.36944
797.95917,3867.01309
799.51351,3867.01309
801.06785,3865.65675
802.62219,3861.5877
804.17652,3857.51866
805.73086,3852.09327
807.2852,3848.02423
808.83954,3843.95518
810.39388,3838.52979
811.94822,3833.1044
813.50256,3827.67901
815.0569,3823.60997
816.61123,3818.18458
818.16557,3814.11553
819.71991,3808.69014
821.27425,3805.97745
822.82859,3804.6211
824.38293,3801.9084
825.93727,3800.55206
827.49161,3801.9084
829.04594,3803.26475
830.60028,3804.6211
832.15462,3807.33379
833.70896,3808.69014
835.2633,3808.69014
836.81764,3811.40284
838.37198,3811.40284
839.92632,3812.75918
841.48066,3812.75918
843.03499,3812.75918
844.58933,3812.75918
846.14367,3814.11553
847.69801,3815.47188
849.25235,3816.82823
850.80669,3818.18458
852.36103,3819.54092
853.91537,3822.25362
855.4697,3823.60997
857.02404,3824.96631
858.57838,3826.32266
860.13272,3827.67901
861.68706,3829.03536
863.2414,3830.39171
864.79574,3831.74805
866.35008,3833.1044
867.90441,3831.74805
869.45875,3830.39171
871.01309,3829.03536
872.56743,3826.32266
874.12177,3822.25362
875.67611,3815.47188
877.23045,3810.04649
878.78479,3804.6211
880.33912,3797.83936
881.89346,3789.70127
883.4478,3784.27588
885.00214,3777.49414
886.55648,3769.35606
888.11082,3763.93067
889.66516,3758.50527
891.2195,3753.07988
892.77384,3750.36719
894.32817,3749.01084
895.88251,3747.65449
897.43685,3749.01084
898.99119,3751.72354
900.54553,3754.43623
902.09987,3758.50527
903.65421,3761.21797
905.20855,3765.28701
906.76288,3766.64336
908.31722,3767.99971
909.87156,3769.35606
911.4259,3769.35606
912.98024,3767.99971
914.53458,3765.28701
916.08892,3763.93067
917.64326,3762.57432
919.19759,3761.21797
920.75193,3759.86162
922.30627,3758.50527
923.86061,3755.79258
925.41495,3754.43623
926.96929,3753.07988
928.52363,3751.72354
930.07797,3751.72354
931.6323,3751.72354
933.18664,3750.36719
934.74098,3751.72354
936.29532,3754.43623
937.84966,3755.79258
939.404,3759.86162
940.95834,3762.57432
942.51268,3766.64336
944.06701,3770.7124
945.62135,3774.78145
947.17569,3777.49414
948.73003,3780.20684
950.28437,3781.56319
951.83871,3781.56319
953.39305,3780.20684
954.94739,3778.85049
956.50173,3778.85049
958.05606,3778.85049
959.6104,3778.85049
961.16474,3780.20684
962.71908,3781.56319
964.27342,3782.91953
965.82776,3784.27588
967.3821,3784.27588
968.93644,3782.91953
970.49077,3781.56319
972.04511,3778.85049
973.59945,3776.1378
975.15379,3774.78145
976.70813,3772.06875
978.26247,3770.7124
979.81681,3770.7124
981.37115,3770.7124
982.92548,3772.06875
984.47982,3772.06875
986.03416,3773.4251
987.5885,3772.06875
989.14284,3770.7124
990.69718,3769.35606
992.25152,3767.99971
993.80586,3765.28701
995.36019,3763.93067
996.91453,3763.93067
998.46887,3767.99971
1000.02321,3770.7124
1001.57755,3774.78145
1003.13189,3778.85049
1004.68623,3785.63223
1006.24057,3789.70127
1007.79491,3795.12666
1009.34924,3800.55206
1010.90358,3804.6211
1012.45792,3808.69014
1014.01226,3812.75918
1015.5666,3815.47188
1017.12094,3816.82823
1018.67528,3819.54092
1020.22962,3820.89727
1021.78395,3822.25362
1023.33829,3822.25362
1024.89263,3822.25362
1026.44697,3818.18458
1028.00131,3812.75918
1029.55565,3808.69014
1031.10999,3804.6211
1032.66433,3799.19571
1034.21866,3791.05762
1035.773,3785.63223
1037.32734,3781.56319
1038.88168,3766.64336
1038.88168,3765.28701
1038.88168,3777.49414
1038.88168,3767.99971
1040.43602,3769.35606
1040.43602,3776.1378
1041.99036,3776.1378
1041.99036,3777.49414
1041.99036,3778.85049
1041.99036,3780.20684
1041.99036,3770.7124
1041.99036,3772.06875
1041.99036,3773.4251
1041.99036,3774.78145
1041.99036,3776.1378
1043.5447,3778.85049
1043.5447,3780.20684
1045.09904,3781.56319
1045.09904,3782.91953
1046.65337,3786.98858
1046.65337,3782.91953
1046.65337,3796.48301
1046.65337,3795.12666
1046.65337,3793.77032
1046.65337,3792.41397
1046.65337,3791.05762
1046.65337,3789.70127
1046.65337,3788.34493
1046.65337,3786.98858
1046.65337,3785.63223
1046.65337,3784.27588
1048.20771,3796.48301
1048.20771,3791.05762
1049.76205,3799.19571
1049.76205,3800.55206
1049.76205,3801.9084
1049.76205,3803.26475
1049.76205,3804.6211
1049.76205,3795.12666
1049.76205,3797.83936
1051.31639,3807.33379
1051.31639,3808.69014
1051.31639,3804.6211
1051.31639,3799.19571
1052.87073,3801.9084
1052.87073,3805.97745
1052.87073,3811.40284
1052.87073,3810.04649
1054.42507,3805.97745
1054.42507,3812.75918
1055.97941,3814.11553
1055.97941,3808.69014
1057.53375,3810.04649
1057.53375,3819.54092
1057.53375,3815.47188
1059.08808,3816.82823
1059.08808,3818.18458
1059.08808,3808.69014
1060.64242,3805.97745
1062.19676,3801.9084
1063.7511,3796.48301
1065.30544,3791.05762
1066.85978,3784.27588
1068.41412,3776.1378
1069.96846,3770.7124
1071.5228,3763.93067
1073.07713,3757.14893
1074.63147,3749.01084
1076.18581,3743.58545
1077.74015,3739.51641
1079.29449,3734.09102
1080.84883,3731.37832
1082.40317,3727.30928
1083.95751,3725.95293
1085.51184,3725.95293
1087.06618,3725.95293
1088.62052,3724.59658
1090.17486,3724.59658
1091.7292,3724.59658
1097.94655,3700.18232
1099.50089,3696.11328
1101.05523,3693.40058
1102.60957,3689.33154
1104.16391,3685.2625
1105.71825,3683.90615
1107.27259,3682.5498
1108.82693,3682.5498
1110.38126,3685.2625
1111.9356,3687.97519
1113.48994,3690.68789
1115.04428,3696.11328
1116.59862,3701.53867
1118.15296,3708.32041
1119.7073,3713.7458
1121.26164,3719.17119
1122.81598,3725.95293
1124.37031,3731.37832
1125.92465,3735.44736
1127.47899,3749.01084
1127.47899,3739.51641
1127.47899,3750.36719
1127.47899,3751.72354
1129.03333,3747.65449
1129.03333,3740.87275
1130.58767,3746.29815
1130.58767,3739.51641
1132.14201,3738.16006
1132.14201,3742.2291
1132.14201,3740.87275
1132.14201,3739.51641
1132.14201,3743.58545
1132.14201,3735.44736
1132.14201,3744.9418
1132.14201,3736.80371
1133.69635,3734.09102
1133.69635,3735.44736
1133.69635,3731.37832
1135.25069,3724.59658
1135.25069,3732.73467
1136.80502,3731.37832
1136.80502,3717.81484
1138.35936,3709.67676
1138.35936,3692.04424
1138.35936,3730.02197
1138.35936,3728.66562
1138.35936,3727.30928
1138.35936,3689.33154
1138.35936,3693.40058
1138.35936,3694.75693
1138.35936,3687.97519
1139.9137,3725.95293
1139.9137,3721.88389
1139.9137,3686.61884
1139.9137,3685.2625
1139.9137,3683.90615
1139.9137,3682.5498
1139.9137,3716.45849
1139.9137,3697.46963
1139.9137,3696.11328
1139.9137,3723.24023
1139.9137,3724.59658
1139.9137,3690.68789
1139.9137,3702.89502
1141.46804,3713.7458
1141.46804,3717.81484
1141.46804,3694.75693
1141.46804,3681.19345
1141.46804,3698.82597
1141.46804,3719.17119
1141.46804,3720.52754
1141.46804,3715.10215
1143.02238,3702.89502
1143.02238,3700.18232
1143.02238,3685.2625
1143.02238,3708.32041
1143.02238,3664.91728
1143.02238,3659.49189
1143.02238,3663.56093
1143.02238,3679.83711
1143.02238,3667.62998
1143.02238,3712.38945
1143.02238,3662.20458
1144.57672,3668.98632
1144.57672,3705.60771
1144.57672,3678.48076
1144.57672,3666.27363
1144.57672,3660.84824
1144.57672,3675.76806
1144.57672,3658.13554
1144.57672,3656.77919
1144.57672,3655.42285
1144.57672,3679.83711
1144.57672,3711.0331
1144.57672,3701.53867
1144.57672,3704.25136
1144.57672,3706.96406
1144.57672,3709.67676
1146.13106,3674.41171
1146.13106,3655.42285
1146.13106,3670.34267
1146.13106,3677.12441
1146.13106,3674.41171
1146.13106,3654.0665
1147.6854,3668.98632
1147.6854,3673.05537
1147.6854,3654.0665
1147.6854,3671.69902
1147.6854,3652.71015
1149.23973,3652.71015
1149.23973,3663.56093
1150.79407,3659.49189
1150.79407,3652.71015
1150.79407,3651.3538
1152.34841,3649.99745
1152.34841,3655.42285
1153.90275,3651.3538
1153.90275,3655.42285
1155.45709,3655.42285
1155.45709,3651.3538
1157.01143,3658.13554
1157.01143,3651.3538
1158.56577,3649.99745
1158.56577,3648.64111
1158.56577,3660.84824
1160.12011,3663.56093
1161.67444,3666.27363
1163.22878,3668.98632
1164.78312,3673.05537
1166.33746,3675.76806
1167.8918,3679.83711
1169.44614,3683.90615
1171.00048,3687.97519
1172.55482,3690.68789
1174.10915,3693.40058
1175.66349,3693.40058
1177.21783,3693.40058
1178.77217,3692.04424
1180.32651,3689.33154
1181.88085,3683.90615
1183.43519,3679.83711
1184.98953,3677.12441
1186.54387,3673.05537
1188.0982,3670.34267
1189.65254,3667.62998
1191.20688,3667.62998
1192.76122,3668.98632
1194.31556,3671.69902
1195.8699,3673.05537
1197.42424,3674.41171
1198.97858,3675.76806
1200.53291,3677.12441
1202.08725,3678.48076
1203.64159,3679.83711
1205.19593,3681.19345
1206.75027,3682.5498
1208.30461,3683.90615
1209.85895,3685.2625
1211.41329,3685.2625
1212.96762,3686.61884
1214.52196,3687.97519
1216.0763,3687.97519
1217.63064,3689.33154
1219.18498,3689.33154
1220.73932,3689.33154
1222.29366,3689.33154
1223.848,3689.33154
1225.40233,3687.97519
1226.95667,3686.61884
1228.51101,3685.2625
1230.06535,3683.90615
1231.61969,3681.19345
1233.17403,3678.48076
1234.72837,3677.12441
1236.28271,3674.41171
1237.83705,3673.05537
1239.39138,3670.34267
1240.94572,3668.98632
1242.50006,3666.27363
1244.0544,3664.91728
1245.60874,3662.20458
1247.16308,3659.49189
1248.71742,3659.49189
1250.27176,3658.13554
1251.82609,3656.77919
1253.38043,3655.42285
1254.93477,3655.42285
1256.48911,3654.0665
1258.04345,3655.42285
1259.59779,3658.13554
1261.15213,3659.49189
1262.70647,3660.84824
1264.2608,3663.56093
1265.81514,3667.62998
1267.36948,3671.69902
1268.92382,3677.12441
1270.47816,3681.19345
1272.0325,3686.61884
1273.58684,3690.68789
1275.14118,3694.75693
1276.69551,3700.18232
1278.24985,3704.25136
1279.80419,3708.32041
1281.35853,3713.7458
1282.91287,3715.10215
1284.46721,3717.81484
1286.02155,3720.52754
1287.57589,3719.17119
1289.13022,3717.81484
1290.68456,3715.10215
1292.2389,3712.38945
1293.79324,3709.67676
1295.34758,3705.60771
1296.90192,3702.89502
1298.45626,3700.18232
1300.0106,3696.11328
1301.56494,3693.40058
1303.11927,3690.68789
1304.67361,3689.33154
1306.22795,3687.97519
1307.78229,3686.61884
1309.33663,3687.97519
1310.89097,3689.33154
1312.44531,3689.33154
1313.99965,3690.68789
1315.55398,3692.04424
1317.10832,3693.40058
1318.66266,3694.75693
1320.217,3696.11328
1321.77134,3697.46963
1323.32568,3698.82597
1324.88002,3700.18232
1326.43436,3700.18232
1327.98869,3701.53867
1329.54303,3702.89502
1331.09737,3702.89502
1332.65171,3702.89502
1334.20605,3704.25136
1335.76039,3705.60771
1337.31473,3706.96406
1338.86907,3706.96406
1340.4234,3708.32041
1341.97774,3711.0331
1343.53208,3711.0331
1345.08642,3712.38945
1346.64076,3715.10215
1348.1951,3716.45849
1349.74944,3716.45849
1351.30378,3717.81484
1352.85812,3719.17119
1354.41245,3716.45849
1355.96679,3713.7458
1357.52113,3712.38945
1359.07547,3708.32041
1360.62981,3704.25136
1362.18415,3700.18232
1363.73849,3694.75693
1365.29283,3692.04424
1366.84716,3687.97519
1368.4015,3683.90615
1369.95584,3679.83711
1371.51018,3675.76806
1373.06452,3674.41171
1374.61886,3671.69902
1376.1732,3670.34267
1377.72754,3671.69902
1379.28187,3671.69902
1380.83621,3673.05537
1382.39055,3675.76806
1383.94489,3679.83711
1385.49923,3682.5498
1387.05357,3685.2625
1388.60791,3687.97519
1390.16225,3693.40058
1391.71658,3697.46963
1393.27092,3701.53867
1394.82526,3706.96406
1396.3796,3711.0331
1397.93394,3716.45849
1399.48828,3720.52754
1401.04262,3723.24023
1402.59696,3727.30928
1404.15129,3730.02197
1405.70563,3734.09102
1407.25997,3736.80371
1408.81431,3739.51641
1410.36865,3740.87275
1411.92299,3742.2291
1413.47733,3742.2291
1415.03167,3739.51641
1416.58601,3736.80371
1418.14034,3732.73467
1419.69468,3728.66562
1421.24902,3723.24023
1422.80336,3720.52754
1424.3577,3713.7458
1425.91204,3709.67676
1427.46638,3705.60771
1429.02072,3700.18232
1430.57505,3697.46963
1432.12939,3696.11328
1433.68373,3696.11328
1435.23807,3700.18232
1436.79241,3702.89502
1438.34675,3708.32041
1439.90109,3713.7458
1441.45543,3719.17119
1443.00976,3724.59658
1444.5641,3730.02197
1446.11844,3735.44736
1447.67278,3740.87275
1449.22712,3744.9418
1450.78146,3747.65449
1452.3358,3750.36719
1453.89014,3751.72354
1453.89014,3757.14893
1453.89014,3755.79258
1453.89014,3758.50527
1455.44447,3754.43623
1455.44447,3755.79258
1455.44447,3754.43623
1456.99881,3753.07988
1456.99881,3754.43623
1458.55315,3754.43623
1458.55315,3753.07988
1460.10749,3753.07988
1460.10749,3751.72354
1460.10749,3754.43623
1460.10749,3750.36719
1460.10749,3747.65449
1460.10749,3746.29815
1460.10749,3749.01084
1460.10749,3750.36719
1461.66183,3743.58545
1461.66183,3749.01084
1461.66183,3744.9418
1461.66183,3746.29815
1461.66183,3742.2291
1463.21617,3746.29815
1463.21617,3742.2291
1463.21617,3738.16006
1463.21617,3739.51641
1463.21617,3740.87275
1464.77051,3743.58545
1464.77051,3736.80371
1466.32485,3740.87275
1466.32485,3735.44736
1466.32485,3734.09102
1466.32485,3732.73467
1467.87919,3732.73467
1467.87919,3731.37832
1467.87919,3730.02197
1467.87919,3738.16006
1469.43352,3728.66562
1469.43352,3724.59658
1469.43352,3735.44736
1470.98786,3725.95293
1470.98786,3724.59658
1470.98786,3732.73467
1470.98786,3727.30928
1472.5422,3731.37832
1474.09654,3730.02197
1475.65088,3728.66562
1477.20522,3730.02197
1478.75956,3731.37832
1480.3139,3734.09102
1481.86823,3736.80371
1483.42257,3740.87275
1484.97691,3743.58545
1486.53125,3746.29815
1499.74132,3770.11785
1534.77277,3800.68375
1591.44129,3815.9667
1608.95701,3825.85567
1666.65587,3815.9667
1688.59529,3776.1378
1690.14963,3774.78145
1691.70397,3772.06875
1693.25831,3772.06875
1694.81265,3772.06875
1696.36699,3774.78145
1697.92133,3777.49414
1699.47566,3781.56319
1701.03,3784.27588
1702.58434,3788.34493
1704.13868,3792.41397
1705.69302,3795.12666
1707.24736,3799.19571
1708.8017,3801.9084
1710.35604,3804.6211
1711.91037,3805.97745
1713.46471,3807.33379
1715.01905,3808.69014
1716.57339,3810.04649
1718.12773,3808.69014
1719.68207,3808.69014
1721.23641,3807.33379
1722.79075,3807.33379
1724.34508,3805.97745
1725.89942,3804.6211
1727.45376,3803.26475
1729.0081,3801.9084
1730.56244,3800.55206
1732.11678,3799.19571
1733.67112,3800.55206
1735.22546,3801.9084
1736.77979,3803.26475
1738.33413,3804.6211
1739.88847,3805.97745
1741.44281,3804.6211
1742.99715,3803.26475
1744.55149,3800.55206
1746.10583,3797.83936
1747.66017,3795.12666
1749.2145,3792.41397
1750.76884,3789.70127
1752.32318,3786.98858
1753.87752,3785.63223
1755.43186,3785.63223
1756.9862,3785.63223
1758.54054,3785.63223
1760.09488,3785.63223
1761.64922,3786.98858
1763.20355,3788.34493
1764.75789,3789.70127
1766.31223,3791.05762
1767.86657,3793.77032
1769.42091,3795.12666
1770.97525,3797.83936
1772.52959,3800.55206
1774.08393,3803.26475
1775.63826,3805.97745
1777.1926,3808.69014
1778.74694,3808.69014
1780.30128,3807.33379
1781.85562,3803.26475
1783.40996,3800.55206
1784.9643,3796.48301
1786.51864,3791.05762
1788.07297,3788.34493
1789.62731,3785.63223
1791.18165,3781.56319
1792.73599,3780.20684
1794.29033,3780.20684
1795.84467,3782.91953
1797.39901,3785.63223
1798.95335,3789.70127
1800.50768,3795.12666
1802.06202,3797.83936
1803.61636,3801.9084
1805.1707,3808.69014
1806.72504,3812.75918
1808.27938,3816.82823
1809.83372,3820.89727
1811.38806,3824.96631
1812.9424,3829.03536
1814.49673,3830.39171
1816.05107,3831.74805
1817.60541,3831.74805
1819.15975,3830.39171
1820.71409,3829.03536
1822.26843,3827.67901
1823.82277,3826.32266
1825.37711,3824.96631
1826.93144,3823.60997
1828.48578,3822.25362
1830.04012,3820.89727
1831.59446,3820.89727
1833.1488,3820.89727
1834.70314,3819.54092
1836.25748,3819.54092
1837.81182,3819.54092
1839.36615,3819.54092
1840.92049,3819.54092
1842.47483,3818.18458
1844.02917,3818.18458
1845.58351,3815.47188
1847.13785,3812.75918
1848.69219,3810.04649
1850.24653,3805.97745
1851.80086,3803.26475
1853.3552,3800.55206
1854.90954,3796.48301
1856.46388,3795.12666
1858.01822,3792.41397
1859.57256,3789.70127
1861.1269,3788.34493
1862.68124,3786.98858
1864.23557,3785.63223
1865.78991,3784.27588
1867.34425,3784.27588
1868.89859,3782.91953
1870.45293,3781.56319
1872.00727,3780.20684
1873.56161,3778.85049
1875.11595,3778.85049
1876.67029,3778.85049
1878.22462,3778.85049
1879.77896,3778.85049
1881.3333,3780.20684
1882.88764,3780.20684
1884.44198,3780.20684
1885.99632,3780.20684
1887.55066,3780.20684
1889.105,3781.56319
1890.65933,3781.56319
1892.21367,3781.56319
1893.76801,3781.56319
1895.32235,3780.20684
1896.87669,3778.85049
1898.43103,3778.85049
1899.98537,3778.85049
1901.53971,3778.85049
1903.09404,3780.20684
1904.64838,3782.91953
1906.20272,3785.63223
1907.75706,3788.34493
1909.3114,3791.05762
1910.86574,3793.77032
1912.42008,3796.48301
1913.97442,3799.19571
1915.52875,3801.9084
1917.08309,3804.6211
1918.63743,3805.97745
1920.19177,3807.33379
1921.74611,3808.69014
1923.30045,3810.04649
1924.85479,3811.40284
1926.40913,3812.75918
1927.96346,3812.75918
1929.5178,3814.11553
1931.07214,3814.11553
1932.62648,3812.75918
1934.18082,3811.40284
1935.73516,3810.04649
1937.2895,3808.69014
1938.84384,3805.97745
1940.39818,3805.97745
1941.95251,3805.97745
1943.50685,3805.97745
1945.06119,3808.69014
1946.61553,3808.69014
1948.16987,3810.04649
1949.72421,3808.69014
1951.27855,3805.97745
1952.83289,3804.6211
1954.38722,3801.9084
1955.94156,3799.19571
1957.4959,3796.48301
1959.05024,3793.77032
1960.60458,3789.70127
1962.15892,3788.34493
1963.71326,3785.63223
1965.2676,3782.91953
1966.82193,3781.56319
1968.37627,3780.20684
1969.93061,3778.85049
1971.48495,3777.49414
1973.03929,3776.1378
1974.59363,3774.78145
1976.14797,3774.78145
1977.70231,3774.78145
1979.25664,3776.1378
1980.81098,3777.49414
1982.36532,3778.85049
1983.91966,3781.56319
1985.474,3782.91953
1987.02834,3782.91953
1988.58268,3780.20684
1990.13702,3778.85049
1991.69136,3776.1378
1993.24569,3772.06875
1994.80003,3769.35606
1996.35437,3766.64336
1997.90871,3765.28701
1999.46305,3762.57432
2001.01739,3763.93067
2002.57173,3763.93067
2004.12607,3765.28701
2005.6804,3765.28701
2007.23474,3763.93067
2008.78908,3763.93067
2010.34342,3762.57432
2011.89776,3762.57432
2013.4521,3761.21797
2015.00644,3762.57432
2016.56078,3763.93067
2018.11511,3765.28701
2019.66945,3766.64336
2021.22379,3769.35606
2022.77813,3770.7124
2024.33247,3772.06875
2025.88681,3773.4251
2027.44115,3774.78145
2028.99549,3773.4251
2030.54982,3773.4251
2032.10416,3773.4251
2033.6585,3773.4251
2035.21284,3773.4251
2036.76718,3774.78145
2038.32152,3776.1378
2039.87586,3777.49414
2041.4302,3777.49414
2042.98453,3774.78145
2044.53887,3773.4251
2046.09321,3769.35606
2047.64755,3765.28701
2049.20189,3761.21797
2050.75623,3758.50527
2052.31057,3754.43623
2053.86491,3751.72354
2055.41925,3747.65449
2056.97358,3744.9418
2058.52792,3743.58545
2060.08226,3742.2291
2061.6366,3743.58545
2063.19094,3744.9418
2064.74528,3747.65449
2066.29962,3750.36719
2067.85396,3753.07988
2069.40829,3755.79258
2070.96263,3758.50527
2072.51697,3761.21797
2074.07131,3763.93067
2075.62565,3766.64336
2077.17999,3769.35606
2078.73433,3770.7124
2080.28867,3772.06875
2081.843,3773.4251
2083.39734,3774.78145
2084.95168,3776.1378
2086.50602,3776.1378
2088.06036,3777.49414
2089.6147,3777.49414
2091.16904,3777.49414
2092.72338,3776.1378
2094.27771,3776.1378
2095.83205,3774.78145
2097.38639,3773.4251
2098.94073,3772.06875
2100.49507,3770.7124
2102.04941,3769.35606
2103.60375,3766.64336
2105.15809,3765.28701
2106.71243,3762.57432
2108.26676,3759.86162
2109.8211,3757.14893
2111.37544,3754.43623
2112.92978,3751.72354
2114.48412,3750.36719
2116.03846,3749.01084
2117.5928,3746.29815
2119.14714,3746.29815
2120.70147,3747.65449
2122.25581,3747.65449
2123.81015,3750.36719
2125.36449,3751.72354
2126.91883,3754.43623
2128.47317,3755.79258
2130.02751,3757.14893
2131.58185,3759.86162
2133.13618,3761.21797
2134.69052,3763.93067
2136.24486,3766.64336
2137.7992,3767.99971
2139.35354,3770.7124
2140.90788,3773.4251
2142.46222,3774.78145
2144.01656,3774.78145
2145.57089,3776.1378
2147.12523,3773.4251
2148.67957,3770.7124
2150.23391,3767.99971
2151.78825,3765.28701
2153.34259,3762.57432
2154.89693,3759.86162
2156.45127,3757.14893
2158.0056,3754.43623
2159.55994,3751.72354
2161.11428,3751.72354
2162.66862,3750.36719
2164.22296,3749.01084
2165.7773,3749.01084
2167.33164,3747.65449
2168.88598,3747.65449
2170.44032,3747.65449
2171.99465,3749.01084
2173.54899,3750.36719
2175.10333,3753.07988
2176.65767,3753.07988
2178.21201,3757.14893
2179.76635,3757.14893
2181.32069,3757.14893
2182.87503,3754.43623
2184.42936,3750.36719
2185.9837,3744.9418
2187.53804,3739.51641
2189.09238,3735.44736
2190.64672,3731.37832
2192.20106,3727.30928
2193.7554,3724.59658
2195.30974,3724.59658
2196.86407,3727.30928
2198.41841,3731.37832
2199.97275,3734.09102
2201.52709,3738.16006
2203.08143,3742.2291
2204.63577,3744.9418
2206.19011,3749.01084
2207.74445,3754.43623
2209.29878,3759.86162
2210.85312,3765.28701
2212.40746,3772.06875
2213.9618,3776.1378
2215.51614,3781.56319
2217.07048,3785.63223
2218.62482,3789.70127
2220.17916,3791.05762
2221.7335,3789.70127
2223.28783,3786.98858
2224.84217,3784.27588
2226.39651,3781.56319
2227.95085,3778.85049
2229.50519,3776.1378
2231.05953,3772.06875
2232.61387,3770.7124
2234.16821,3767.99971
2235.72254,3765.28701
2237.27688,3763.93067
2238.83122,3762.57432
2240.38556,3758.50527
2241.9399,3757.14893
2243.49424,3754.43623
2245.04858,3753.07988
2246.60292,3751.72354
2248.15725,3750.36719
2249.71159,3750.36719
2251.26593,3751.72354
2252.82027,3753.07988
2254.37461,3754.43623
2255.92895,3754.43623
2257.48329,3755.79258
2258.06913,3770.11785
2259.03763,3755.79258
2260.59196,3755.79258
2262.1463,3754.43623
2263.70064,3754.43623
2265.25498,3751.72354
2266.80932,3750.36719
2268.36366,3749.01084
2269.918,3747.65449
2271.47234,3744.9418
2273.02667,3742.2291
2274.58101,3739.51641
2276.13535,3736.80371
2277.68969,3734.09102
2279.24403,3731.37832
2280.79837,3730.02197
2282.35271,3727.30928
2283.90705,3725.95293
2286.91855,3795.28977
2344.61741,3800.68375
2378.61852,3800.68375
2436.31737,3800.68375
2447.65108,3805.17874
2465.76468,3772.06875
2467.31902,3773.4251
2468.87336,3776.1378
2470.4277,3777.49414
2471.98204,3780.20684
2473.53638,3784.27588
2475.09072,3786.98858
2476.64506,3791.05762
2478.19939,3795.12666
2479.75373,3799.19571
2481.30807,3803.26475
2482.86241,3805.97745
2484.41675,3810.04649
2485.97109,3810.04649
2487.52543,3808.69014
2489.07977,3805.97745
2490.6341,3801.9084
2492.18844,3799.19571
2493.74278,3796.48301
2495.29712,3792.41397
2496.85146,3788.34493
2498.4058,3782.91953
2499.96014,3777.49414
2501.51448,3773.4251
2503.06881,3766.64336
2504.62315,3762.57432
2506.17749,3757.14893
2507.73183,3753.07988
2509.28617,3749.01084
2510.84051,3749.01084
2512.39485,3750.36719
2513.94919,3754.43623
2515.50353,3758.50527
2517.05786,3763.93067
2518.6122,3769.35606
2520.16654,3773.4251
2521.72088,3777.49414
2523.27522,3782.91953
2524.82956,3785.63223
2526.3839,3788.34493
2527.93824,3789.70127
2529.49257,3792.41397
2531.04691,3793.77032
2532.60125,3795.12666
2534.15559,3793.77032
2535.70993,3792.41397
2537.26427,3791.05762
2538.81861,3789.70127
2540.37295,3786.98858
2541.92728,3785.63223
2543.48162,3782.91953
2545.03596,3780.20684
2546.5903,3778.85049
2548.14464,3777.49414
2549.69898,3774.78145
2551.25332,3774.78145
2552.80766,3773.4251
2554.36199,3773.4251
2555.91633,3773.4251
2557.47067,3773.4251
2559.02501,3773.4251
2560.57935,3773.4251
2562.13369,3772.06875
2563.68803,3769.35606
2565.24237,3767.99971
2566.79671,3765.28701
2568.35104,3762.57432
2569.90538,3759.86162
2571.45972,3757.14893
2573.01406,3753.07988
2574.5684,3751.72354
2576.12274,3747.65449
2577.67708,3746.29815
2579.23142,3743.58545
2580.78575,3743.58545
2582.34009,3742.2291
2583.89443,3740.87275
2585.44877,3739.51641
2587.00311,3739.51641
2588.55745,3738.16006
2590.11179,3739.51641
2591.66613,3740.87275
2593.22046,3743.58545
2594.7748,3743.58545
2596.32914,3746.29815
2597.88348,3749.01084
2599.43782,3750.36719
2600.99216,3751.72354
2602.5465,3751.72354
2604.10084,3750.36719
2605.65517,3750.36719
2607.20951,3751.72354
2608.76385,3753.07988
2610.31819,3755.79258
2611.87253,3759.86162
2613.42687,3762.57432
2614.98121,3765.28701
2616.53555,3767.99971
2618.08988,3770.7124
2619.64422,3772.06875
2621.19856,3774.78145
2622.7529,3774.78145
2624.30724,3774.78145
2625.86158,3773.4251
2627.41592,3772.06875
2628.97026,3769.35606
2630.5246,3767.99971
2632.07893,3765.28701
2633.63327,3762.57432
2635.18761,3758.50527
2636.74195,3755.79258
2638.29629,3753.07988
2639.85063,3749.01084
2641.40497,3746.29815
2642.95931,3743.58545
2644.51364,3740.87275
2646.06798,3740.87275
2647.62232,3742.2291
2649.17666,3743.58545
2650.731,3744.9418
2652.28534,3746.29815
2653.83968,3746.29815
2655.39402,3744.9418
2656.94835,3743.58545
2658.50269,3742.2291
2660.05703,3740.87275
2661.61137,3739.51641
2663.16571,3738.16006
2664.72005,3738.16006
2666.27439,3738.16006
2667.82873,3738.16006
2669.38306,3738.16006
2670.9374,3739.51641
2672.49174,3740.87275
2674.04608,3742.2291
2675.60042,3743.58545
2677.15476,3746.29815
2678.7091,3747.65449
2680.26344,3749.01084
2681.81778,3750.36719
2683.37211,3750.36719
2684.92645,3751.72354
2686.48079,3751.72354
2688.03513,3753.07988
2689.58947,3754.43623
2691.14381,3755.79258
2692.69815,3757.14893
2694.25249,3758.50527
2695.80682,3763.93067
2697.36116,3767.99971
2698.9155,3772.06875
2700.46984,3776.1378
2702.02418,3781.56319
2703.57852,3784.27588
2705.13286,3788.34493
2706.6872,3792.41397
2708.24153,3792.41397
2709.79587,3791.05762
2711.35021,3788.34493
2712.90455,3781.56319
2714.45889,3776.1378
2716.01323,3770.7124
2717.56757,3765.28701
2719.12191,3758.50527
2720.67624,3753.07988
2722.23058,3744.9418
2723.78492,3740.87275
2725.33926,3735.44736
2726.8936,3728.66562
2728.44794,3723.24023
2730.00228,3721.88389
2731.55662,3721.88389
2733.11095,3725.95293
2734.66529,3730.02197
2736.21963,3734.09102
2737.77397,3738.16006
2739.32831,3742.2291
2740.88265,3746.29815
2742.43699,3750.36719
2743.99133,3753.07988
2745.54567,3753.07988
2747.1,3751.72354
2748.65434,3750.36719
2750.20868,3749.01084
2751.76302,3747.65449
2753.31736,3747.65449
2754.8717,3747.65449
2756.42604,3744.9418
2757.98038,3743.58545
2759.53471,3740.87275
2761.08905,3739.51641
2762.64339,3736.80371
2764.19773,3734.09102
2765.75207,3730.02197
2767.30641,3727.30928
2768.86075,3724.59658
2770.41509,3720.52754
2771.96942,3717.81484
2773.52376,3716.45849
2775.0781,3713.7458
2776.63244,3711.0331
2778.18678,3709.67676
2779.74112,3706.96406
2781.29546,3705.60771
2782.8498,3705.60771
2784.40413,3704.25136
2785.95847,3706.96406
2787.51281,3708.32041
2789.06715,3712.38945
2790.62149,3715.10215
2792.17583,3717.81484
2793.73017,3721.88389
2795.28451,3725.95293
2796.83885,3728.66562
2798.39318,3732.73467
2799.94752,3735.44736
2801.50186,3738.16006
2803.0562,3739.51641
2804.61054,3740.87275
2806.16488,3740.87275
2807.71922,3739.51641
2809.27356,3738.16006
2810.82789,3736.80371
2812.38223,3736.80371
2813.93657,3736.80371
2815.49091,3736.80371
2817.04525,3736.80371
2818.59959,3735.44736
2820.15393,3734.09102
2821.70827,3732.73467
2823.2626,3728.66562
2824.81694,3725.95293
2826.37128,3723.24023
2827.92562,3721.88389
2829.47996,3719.17119
2831.0343,3715.10215
2832.58864,3713.7458
2834.14298,3711.0331
2835.69731,3708.32041
2837.25165,3706.96406
2838.80599,3705.60771
2840.36033,3704.25136
2841.91467,3702.89502
2843.46901,3701.53867
2845.02335,3698.82597
2846.57769,3698.82597
2848.13202,3698.82597
2849.68636,3698.82597
2851.2407,3700.18232
2852.79504,3702.89502
2854.34938,3704.25136
2855.90372,3706.96406
2857.45806,3708.32041
2859.0124,3711.0331
2860.56674,3713.7458
2862.12107,3715.10215
2863.67541,3717.81484
2865.22975,3721.88389
2866.78409,3723.24023
2868.33843,3725.95293
2869.89277,3730.02197
2871.44711,3731.37832
2873.00145,3734.09102
2874.55578,3735.44736
2876.11012,3736.80371
2877.66446,3738.16006
2879.2188,3739.51641
2880.77314,3738.16006
2882.32748,3738.16006
2883.88182,3736.80371
2885.43616,3734.09102
2886.99049,3732.73467
2888.54483,3730.02197
2890.09917,3730.02197
2891.65351,3728.66562
2893.20785,3725.95293
2894.76219,3725.95293
2896.31653,3724.59658
2897.87087,3724.59658
2899.4252,3724.59658
2900.97954,3724.59658
2902.53388,3724.59658
2904.08822,3723.24023
2905.64256,3723.24023
2907.1969,3723.24023
2908.75124,3723.24023
2910.30558,3723.24023
2911.85992,3724.59658
2913.41425,3724.59658
2914.96859,3724.59658
2916.52293,3725.95293
2918.07727,3725.95293
2919.63161,3727.30928
2921.18595,3730.02197
2922.74029,3732.73467
2924.29463,3736.80371
2925.84896,3739.51641
2927.4033,3742.2291
2928.95764,3746.29815
2930.51198,3749.01084
2932.06632,3751.72354
2933.62066,3754.43623
2935.175,3754.43623
2936.72934,3753.07988
2938.28367,3749.01084
2939.83801,3746.29815
2941.39235,3743.58545
2942.94669,3738.16006
2944.50103,3734.09102
2946.05537,3730.02197
2947.60971,3725.95293
2949.16405,3721.88389
2950.71838,3717.81484
2952.27272,3713.7458
2953.82706,3709.67676
2955.3814,3705.60771
2956.93574,3701.53867
2958.49008,3698.82597
2960.04442,3694.75693
2961.59876,3694.75693
2963.15309,3696.11328
2964.70743,3697.46963
2966.26177,3700.18232
2967.81611,3704.25136
2969.37045,3706.96406
2970.92479,3709.67676
2972.47913,3712.38945
2974.03347,3715.10215
2975.58781,3720.52754
2977.14214,3724.59658
2978.69648,3730.02197
2980.25082,3734.09102
2981.80516,3739.51641
2983.3595,3742.2291
2984.91384,3747.65449
2986.46818,3750.36719
2988.02252,3753.07988
2989.57685,3751.72354
2991.13119,3749.01084
2992.68553,3744.9418
2994.23987,3740.87275
2995.79421,3736.80371
2997.34855,3732.73467
2998.90289,3730.02197
3000.45723,3725.95293
3002.01156,3723.24023
3003.5659,3720.52754
3005.12024,3717.81484
3006.67458,3713.7458
3008.22892,3712.38945
3009.78326,3712.38945
3011.3376,3713.7458
3012.89194,3716.45849
3014.44627,3719.17119
3016.00061,3721.88389
3017.55495,3724.59658
3019.10929,3727.30928
3020.66363,3731.37832
3022.21797,3732.73467
3023.77231,3735.44736
3025.32665,3736.80371
3026.88099,3736.80371
3028.43532,3736.80371
3029.98966,3736.80371
3031.544,3736.80371
3033.09834,3738.16006
3034.65268,3739.51641
3036.20702,3739.51641
3037.76136,3738.16006
3039.3157,3738.16006
3040.87003,3735.44736
3042.42437,3734.09102
3043.97871,3731.37832
3045.53305,3730.02197
3047.08739,3728.66562
3048.64173,3727.30928
3050.19607,3727.30928
3051.75041,3728.66562
3053.30474,3730.02197
3054.85908,3731.37832
3056.41342,3732.73467
3057.96776,3734.09102
3059.5221,3735.44736
3061.07644,3736.80371
3062.63078,3739.51641
3064.18512,3742.2291
3065.73945,3743.58545
3067.29379,3746.29815
3068.84813,3749.01084
3070.40247,3751.72354
3071.95681,3753.07988
3073.51115,3753.07988
3075.06549,3751.72354
3076.61983,3750.36719
3078.17416,3747.65449
3079.7285,3744.9418
3081.28284,3742.2291
3082.83718,3738.16006
3084.39152,3735.44736
3085.94586,3732.73467
3087.5002,3730.02197
3089.05454,3728.66562
3090.60888,3727.30928
3092.16321,3728.66562
3093.71755,3730.02197
3095.27189,3731.37832
3096.82623,3732.73467
3098.38057,3734.09102
3099.93491,3734.09102
3101.48925,3735.44736
3103.04359,3736.80371
3104.59792,3736.80371
3106.15226,3738.16006
3107.7066,3738.16006
3109.26094,3739.51641
3110.81528,3739.51641
3112.36962,3739.51641
3113.92396,3739.51641
3115.4783,3739.51641
3117.03263,3738.16006
3118.58697,3738.16006
3120.14131,3736.80371
3121.69565,3736.80371
3123.24999,3735.44736
3124.80433,3736.80371
3126.35867,3739.51641
3127.91301,3742.2291
3129.46734,3743.58545
3131.02168,3747.65449
3132.57602,3750.36719
3134.13036,3753.07988
3135.6847,3757.14893
3137.23904,3759.86162
3138.79338,3761.21797
3140.34772,3763.93067
3141.90206,3765.28701
3143.45639,3765.28701
3145.01073,3765.28701
3146.56507,3762.57432
3148.11941,3761.21797
3149.67375,3758.50527
3151.22809,3757.14893
3152.78243,3754.43623
3154.33677,3753.07988
3155.8911,3750.36719
3157.44544,3746.29815
3158.99978,3744.9418
3160.55412,3742.2291
3162.10846,3739.51641
3163.6628,3738.16006
3165.21714,3738.16006
3166.77148,3740.87275
3168.32581,3743.58545
3169.88015,3747.65449
3171.43449,3753.07988
3172.98883,3757.14893
3174.54317,3762.57432
3176.09751,3766.64336
3177.65185,3772.06875
3179.20619,3776.1378
3180.76052,3778.85049
3182.31486,3781.56319
3183.8692,3781.56319
3185.42354,3782.91953
3186.97788,3782.91953
3188.53222,3782.91953
3190.08656,3780.20684
3191.6409,3777.49414
3193.19523,3776.1378
3194.74957,3773.4251
3196.30391,3770.7124
3197.85825,3767.99971
3199.41259,3765.28701
3200.96693,3762.57432
3202.52127,3759.86162
3204.07561,3759.86162
3205.62995,3759.86162
3207.18428,3761.21797
3208.73862,3762.57432
3210.29296,3765.28701
3211.8473,3766.64336
3213.40164,3769.35606
3214.95598,3772.06875
3216.51032,3773.4251
3218.06466,3776.1378
3219.61899,3776.1378
3221.17333,3776.1378
3222.72767,3774.78145
3224.28201,3773.4251
3225.83635,3772.06875
3227.39069,3772.06875
3228.94503,3772.06875
3230.49937,3773.4251
3230.49937,3773.4251
3232.0537,3773.4251
3232.0537,3773.4251
3233.60804,3773.4251
3233.60804,3773.4251
3235.16238,3770.7124
3235.16238,3770.7124
3236.71672,3769.35606
3236.71672,3769.35606
3238.27106,3765.28701
3238.27106,3765.28701
3239.8254,3762.57432
3239.8254,3762.57432
3241.37974,3758.50527
3241.37974,3758.50527
3242.93408,3755.79258
3242.93408,3755.79258
3244.48841,3753.07988
3244.48841,3753.07988
3246.04275,3750.36719
3246.04275,3750.36719
3247.59709,3747.65449
3247.59709,3747.65449
3249.15143,3744.9418
3249.15143,3744.9418
3250.70577,3743.58545
3250.70577,3743.58545
3252.26011,3742.2291
3252.26011,3742.2291
3253.81445,3740.87275
3253.81445,3742.2291
3255.36879,3739.51641
3255.36879,3742.2291
3256.92313,3740.87275
3256.92313,3738.16006
3258.47746,3742.2291
3260.0318,3746.29815
3261.58614,3750.36719
3263.14048,3754.43623
3264.69482,3758.50527
3266.24916,3762.57432
3267.8035,3766.64336
3269.35784,3770.7124
3270.91217,3776.1378
3272.46651,3776.1378
3274.02085,3774.78145
3275.57519,3773.4251
3277.12953,3773.4251
3278.68387,3774.78145
3280.23821,3776.1378
3281.79255,3778.85049
3283.34688,3780.20684
3284.90122,3782.91953
3286.45556,3784.27588
3288.0099,3785.63223
3289.56424,3786.98858
3291.11858,3786.98858
3292.67292,3789.70127
3294.22726,3791.05762
3295.78159,3792.41397
3297.33593,3795.12666
3298.89027,3797.83936
3300.44461,3799.19571
3301.99895,3800.55206
3303.55329,3797.83936
3305.10763,3795.12666
3306.66197,3792.41397
3308.2163,3789.70127
3309.77064,3785.63223
3311.32498,3782.91953
3312.87932,3780.20684
3314.43366,3780.20684
3315.988,3780.20684
3317.54234,3782.91953
3319.09668,3782.91953
3320.65102,3784.27588
3322.20535,3784.27588
3323.75969,3784.27588
3325.31403,3784.27588
3326.86837,3784.27588
3328.42271,3785.63223
3329.97705,3788.34493
3331.53139,3789.70127
3333.08573,3791.05762
3334.64006,3792.41397
3336.1944,3793.77032
3337.74874,3795.12666
3339.30308,3796.48301
3340.85742,3796.48301
3342.41176,3796.48301
3343.9661,3797.83936
3345.52044,3799.19571
3347.07477,3801.9084
3348.62911,3803.26475
3350.18345,3805.97745
3351.73779,3807.33379
3353.29213,3808.69014
3354.84647,3807.33379
3356.40081,3804.6211
3357.95515,3801.9084
3359.50948,3797.83936
3361.06382,3793.77032
3362.61816,3792.41397
3364.1725,3788.34493
3365.72684,3785.63223
3367.28118,3782.91953
3368.83552,3781.56319
3370.38986,3778.85049
3371.9442,3777.49414
3373.49853,3774.78145
3375.05287,3773.4251
3376.60721,3773.4251
3378.16155,3774.78145
3379.71589,3777.49414
3381.27023,3780.20684
3382.82457,3782.91953
3384.37891,3786.98858
3385.93324,3789.70127
3387.48758,3792.41397
3389.04192,3795.12666
3390.59626,3797.83936
3392.1506,3799.19571
3393.70494,3799.19571
3395.25928,3799.19571
3396.81362,3796.48301
3398.36795,3795.12666
3399.92229,3792.41397
3401.47663,3789.70127
3403.03097,3786.98858
3404.58531,3784.27588
3406.13965,3782.91953
3407.69399,3780.20684
3409.24833,3777.49414
3410.80266,3777.49414
3412.357,3778.85049
3413.91134,3780.20684
3415.46568,3781.56319
3417.02002,3784.27588
3418.57436,3788.34493
3420.1287,3792.41397
3421.68304,3796.48301
3423.23737,3800.55206
3424.79171,3805.97745
3426.34605,3807.33379
3427.90039,3811.40284
3429.45473,3814.11553
3431.00907,3816.82823
3432.56341,3816.82823
3434.11775,3815.47188
3435.67209,3812.75918
3437.22642,3810.04649
3438.78076,3807.33379
3440.3351,3804.6211
3441.88944,3801.9084
3443.44378,3797.83936
3444.99812,3795.12666
3446.55246,3792.41397
3448.1068,3789.70127
3449.66113,3786.98858
3451.21547,3785.63223
3452.76981,3784.27588
3454.32415,3784.27588
3455.87849,3784.27588
3457.43283,3785.63223
3458.98717,3786.98858
3460.54151,3786.98858
3462.09584,3788.34493
3463.65018,3788.34493
3465.20452,3789.70127
3466.75886,3789.70127
3468.3132,3789.70127
3469.86754,3789.70127
3471.42188,3789.70127
3472.97622,3788.34493
3474.53055,3786.98858
3476.08489,3786.98858
3477.63923,3782.91953
3479.19357,3781.56319
3480.74791,3778.85049
3482.30225,3776.1378
3483.85659,3773.4251
3485.41093,3772.06875
3486.96527,3769.35606
3488.5196,3767.99971
3490.07394,3769.35606
3491.62828,3770.7124
3493.18262,3772.06875
3494.73696,3773.4251
3496.2913,3774.78145
3497.84564,3776.1378
3499.39998,3776.1378
3500.95431,3777.49414
3502.50865,3777.49414
3504.06299,3778.85049
3505.61733,3780.20684
3507.17167,3781.56319
3508.72601,3782.91953
3510.28035,3782.91953
3511.83469,3784.27588
3513.38902,3782.91953
3514.94336,3781.56319
3516.4977,3780.20684
3518.05204,3780.20684
3519.60638,3778.85049
3521.16072,3777.49414
3522.71506,3777.49414
3524.2694,3777.49414
3525.82373,3777.49414
3527.37807,3777.49414
3528.93241,3776.1378
3530.48675,3773.4251
3532.04109,3770.7124
3533.59543,3767.99971
3535.14977,3765.28701
3536.70411,3761.21797
3538.25844,3757.14893
3539.81278,3753.07988
3541.36712,3750.36719
3542.92146,3747.65449
3544.4758,3744.9418
3546.03014,3744.9418
3547.58448,3744.9418
3549.13882,3747.65449
3550.69316,3750.36719
3552.24749,3753.07988
3553.80183,3755.79258
3555.35617,3758.50527
3556.91051,3761.21797
3558.46485,3763.93067
3560.01919,3765.28701
3561.57353,3765.28701
3563.12787,3765.28701
3564.6822,3763.93067
3566.23654,3761.21797
3567.79088,3759.86162
3569.34522,3757.14893
3570.89956,3754.43623
3572.4539,3753.07988
3574.00824,3750.36719
3575.56258,3750.36719
3577.11691,3750.36719
3578.67125,3751.72354
3580.22559,3753.07988
3581.77993,3755.79258
3583.33427,3758.50527
3584.88861,3761.21797
3586.44295,3765.28701
3587.99729,3769.35606
3589.55162,3770.7124
3591.10596,3774.78145
3592.6603,3774.78145
3594.21464,3776.1378
3595.76898,3772.06875
3597.32332,3769.35606
3598.87766,3766.64336
3600.432,3763.93067
3601.98634,3759.86162
3603.54067,3758.50527
3605.09501,3754.43623
3606.64935,3751.72354
3608.20369,3751.72354
3609.75803,3751.72354
3611.31237,3751.72354
3612.86671,3753.07988
3614.42105,3753.07988
3615.97538,3754.43623
3617.52972,3755.79258
3619.08406,3757.14893
3620.6384,3758.50527
3622.19274,3761.21797
3623.74708,3761.21797
3625.30142,3763.93067
3626.85576,3763.93067
3628.41009,3763.93067
3629.96443,3762.57432
3631.51877,3761.21797
3633.07311,3759.86162
3634.62745,3758.50527
3636.18179,3755.79258
3637.73613,3753.07988
3639.29047,3751.72354
3640.8448,3750.36719
3642.39914,3749.01084
3643.95348,3750.36719
3645.50782,3753.07988
3647.06216,3755.79258
3648.6165,3758.50527
3650.17084,3761.21797
3651.72518,3763.93067
3653.27951,3766.64336
3654.83385,3769.35606
3656.38819,3772.06875
3657.94253,3772.06875
3659.49687,3773.4251
3661.05121,3774.78145
3662.60555,3776.1378
3664.15989,3776.1378
3665.71423,3777.49414
3667.26856,3778.85049
3668.8229,3778.85049
3670.37724,3778.85049
3671.93158,3776.1378
3673.48592,3776.1378
3675.04026,3774.78145
3676.5946,3773.4251
3678.14894,3773.4251
3679.70327,3774.78145
3681.25761,3776.1378
3682.81195,3777.49414
3684.36629,3778.85049
3685.92063,3778.85049
3687.47497,3777.49414
3689.02931,3776.1378
3690.58365,3773.4251
3692.13798,3770.7124
3693.69232,3769.35606
3695.24666,3765.28701
3696.801,3762.57432
3698.35534,3759.86162
3699.90968,3757.14893
3701.46402,3753.07988
3703.01836,3750.36719
3704.57269,3747.65449
3706.12703,3744.9418
3707.68137,3743.58545
3709.23571,3742.2291
3710.79005,3740.87275
3712.34439,3739.51641
3713.89873,3739.51641
3715.45307,3742.2291
3717.00741,3744.9418
3718.56174,3749.01084
3720.11608,3751.72354
3721.67042,3754.43623
3723.22476,3758.50527
3724.7791,3762.57432
3726.33344,3766.64336
3727.88778,3769.35606
3729.44212,3770.7124
3730.99645,3769.35606
3732.55079,3767.99971
3734.10513,3765.28701
3735.65947,3762.57432
3737.21381,3761.21797
3738.76815,3758.50527
3740.32249,3757.14893
3741.87683,3754.43623
3743.43116,3753.07988
3744.9855,3753.07988
3746.53984,3754.43623
3748.09418,3758.50527
3749.64852,3763.93067
3751.20286,3767.99971
3752.7572,3773.4251
3754.31154,3778.85049
3755.86587,3781.56319
3757.42021,3786.98858
3758.97455,3791.05762
3760.52889,3795.12666
3762.08323,3797.83936
3763.63757,3797.83936
3765.19191,3797.83936
3766.74625,3795.12666
3768.30058,3793.77032
3769.85492,3793.77032
3771.40926,3791.05762
3772.9636,3789.70127
3774.51794,3786.98858
3776.07228,3785.63223
3777.62662,3782.91953
3779.18096,3780.20684
3780.7353,3777.49414
3782.28963,3773.4251
3783.84397,3770.7124
3785.39831,3766.64336
3786.95265,3765.28701
3788.50699,3762.57432
3790.06133,3759.86162
3791.61567,3758.50527
3793.17001,3757.14893
3794.72434,3755.79258
3796.27868,3755.79258
3797.83302,3757.14893
3799.38736,3759.86162
3800.9417,3761.21797
3802.49604,3763.93067
3804.05038,3766.64336
3805.60472,3770.7124
3807.15905,3772.06875
3808.71339,3776.1378
3810.26773,3778.85049
3811.82207,3781.56319
3813.37641,3784.27588
3814.93075,3784.27588
3816.48509,3782.91953
3818.03943,3780.20684
3819.59376,3777.49414
3821.1481,3774.78145
3822.70244,3772.06875
3824.25678,3769.35606
3825.81112,3765.28701
3827.36546,3762.57432
3828.9198,3759.86162
3830.47414,3758.50527
3832.02848,3755.79258
3833.58281,3753.07988
3835.13715,3751.72354
3836.69149,3749.01084
3838.24583,3747.65449
3839.80017,3747.65449
3841.35451,3747.65449
3842.90885,3749.01084
3844.46319,3750.36719
3846.01752,3751.72354
3847.57186,3753.07988
3849.1262,3753.07988
3850.68054,3753.07988
3852.23488,3751.72354
3853.78922,3751.72354
3855.34356,3750.36719
3856.8979,3750.36719
3858.45223,3751.72354
3860.00657,3751.72354
3861.56091,3753.07988
3863.11525,3754.43623
3864.66959,3754.43623
3866.22393,3754.43623
3867.77827,3754.43623
3869.33261,3754.43623
3870.88694,3757.14893
3872.44128,3758.50527
3873.99562,3761.21797
3875.54996,3763.93067
3877.1043,3766.64336
3878.65864,3767.99971
3880.21298,3770.7124
3881.76732,3770.7124
3883.32165,3770.7124
3884.87599,3767.99971
3886.43033,3767.99971
3887.98467,3766.64336
3889.53901,3766.64336
3891.09335,3767.99971
3892.64769,3770.7124
3894.20203,3772.06875
3895.75637,3774.78145
3897.3107,3776.1378
3898.86504,3777.49414
3900.41938,3777.49414
3901.97372,3778.85049
3903.52806,3777.49414
3905.0824,3774.78145
3906.63674,3772.06875
3908.19108,3770.7124
3909.74541,3767.99971
3911.29975,3763.93067
3912.85409,3759.86162
3914.40843,3757.14893
3915.96277,3753.07988
3917.51711,3751.72354
3919.07145,3749.01084
3920.62579,3747.65449
3922.18012,3746.29815
3923.73446,3746.29815
3925.2888,3747.65449
3926.84314,3750.36719
3928.39748,3753.07988
3929.95182,3755.79258
3931.50616,3758.50527
3933.0605,3761.21797
3934.61483,3763.93067
3936.16917,3766.64336
3937.72351,3769.35606
3939.27785,3772.06875
3940.83219,3774.78145
3942.38653,3776.1378
3943.94087,3777.49414
3945.49521,3778.85049
3947.04955,3780.20684
3948.60388,3781.56319
3950.15822,3781.56319
3951.71256,3778.85049
3953.2669,3776.1378
3954.82124,3773.4251
3956.37558,3767.99971
3957.92992,3762.57432
3959.48426,3757.14893
3961.03859,3751.72354
3962.59293,3749.01084
3964.14727,3746.29815
3965.70161,3743.58545
3967.25595,3740.87275
3968.81029,3738.16006
3970.36463,3736.80371
3971.91897,3736.80371
3973.4733,3738.16006
3975.02764,3738.16006
3976.58198,3739.51641
3978.13632,3739.51641
3979.69066,3740.87275
3981.245,3740.87275
3982.79934,3740.87275
3984.35368,3742.2291
3985.90801,3742.2291
3987.46235,3743.58545
