Raman Shift,Intensity
89.02838,2483.566
89.5105,2528.64
89.99261,2575.249
90.47473,2622.295
90.95685,2669.628
91.43896,2717.536
91.92108,2766.04
92.4032,2812.484
92.88531,2822.483
93.36743,2779.427
93.84955,2698.943
94.33167,2622.623
94.81378,2544.762
95.2959,2478.947
95.77802,2423.955
96.26013,2377.047
96.74225,2337.315
97.22437,2303.528
97.70648,2271.408
98.1886,2238.905
98.67072,2208.124
99.15283,2179.634
99.63495,2153.284
100.1171,2129.189
100.5992,2107.917
101.0813,2089.585
101.5634,2072.625
102.0455,2055.188
102.5277,2038.343
103.0098,2022.745
103.4919,2008.554
103.974,1995.669
104.4561,1984.263
104.9382,1975.883
105.4204,1966.809
105.9025,1956.79
106.3846,1945.654
106.8667,1932.837
107.3488,1917.445
107.8309,1900.177
108.3131,1886.749
108.7952,1878.412
109.2773,1871.953
109.7594,1866.17
110.2415,1860.918
110.7236,1855.532
111.2058,1848.723
111.6879,1841.296
112.17,1835.936
112.6521,1835.342
113.1342,1836.605
113.6163,1834.744
114.0985,1828.663
114.5806,1821.207
115.0627,1813.116
115.5448,1805.089
116.0269,1798.874
116.509,1796.688
116.9912,1798.425
117.4733,1798.495
117.9554,1794.53
118.4375,1790.64
118.9196,1789.229
119.4017,1789.848
119.8839,1790.022
120.366,1786.052
120.8481,1774.09
121.3302,1767.74
121.8123,1772.082
122.2944,1777.284
122.7766,1775.994
123.2587,1766.521
123.7408,1753.44
124.2229,1745.463
124.705,1747.665
125.1871,1748.725
125.6693,1748.673
126.1514,1747.341
126.6335,1744.237
127.1156,1738.95
127.5977,1732.272
128.0798,1726.552
128.562,1722.043
129.0441,1717.773
129.5262,1713.567
130.0083,1709.364
130.4904,1704.856
130.9725,1699.527
131.4547,1694.044
131.9368,1689.763
132.4189,1687.328
132.901,1685.445
133.3831,1682.55
133.8652,1678.321
134.3474,1674.895
134.8295,1674.771
135.3116,1675.679
135.7937,1674.902
136.2758,1670.558
136.7579,1664.479
137.2401,1661.905
137.7222,1666.087
138.2043,1668.774
138.6864,1666.681
139.1685,1661.625
139.6507,1656.216
140.1328,1652.084
140.6149,1649.191
141.097,1647.017
141.5791,1646.409
142.0612,1645.761
142.5434,1645.356
143.0255,1644.666
143.5076,1642.576
143.9897,1637.896
144.4718,1630.023
144.9539,1622.874
145.4361,1616.533
145.9182,1610.636
146.4003,1605.249
146.8824,1600.262
147.3645,1595.115
147.8466,1589.03
148.3288,1581.419
148.8109,1575.026
149.293,1570.041
149.7751,1566.186
150.2572,1563.599
150.7393,1562.461
151.2215,1561.521
151.7036,1558.683
152.1857,1554.055
152.6678,1549.655
153.1499,1546.513
153.632,1544.102
154.1142,1541.228
154.5963,1537.853
155.0784,1533.509
155.5605,1526.818
156.0426,1517.797
156.5247,1510.543
157.0069,1509.129
157.489,1513.427
157.9711,1516.63
158.4532,1517.345
158.9353,1516.315
159.4174,1513.095
159.8996,1507.741
160.3817,1502.654
160.8638,1501.296
161.3459,1505.336
161.828,1507.422
162.3102,1505.586
162.7923,1502.205
163.2744,1498.783
163.7565,1495.74
164.2386,1492.485
164.7207,1487.518
165.2029,1477.961
165.685,1471.634
166.1671,1470.778
166.6492,1472.18
167.1313,1472.805
167.6134,1471.358
168.0956,1468.882
168.5777,1468.431
169.0598,1473.137
169.5419,1476.367
170.024,1477.308
170.5061,1476.571
170.9883,1474.681
171.4704,1471.72
171.9525,1468.257
172.4346,1466.861
172.9167,1469.328
173.3988,1471.379
173.881,1471.417
174.3631,1470.012
174.8452,1468.654
175.3273,1468.208
175.8094,1468.373
176.2915,1468.025
176.7737,1466.909
177.2558,1465.618
177.7379,1464.282
178.22,1462.948
178.7021,1462.141
179.1842,1462.617
179.6664,1463.659
180.1485,1463.894
180.6306,1462.996
181.1127,1461.423
181.5948,1459.546
182.0769,1457.303
182.5591,1455.043
183.0412,1452.812
183.5233,1450.693
184.0054,1448.65
184.4875,1446.313
184.9696,1444.476
185.4518,1445.131
185.9339,1449.92
186.416,1453.427
186.8981,1453.804
187.3802,1451.968
187.8623,1448.55
188.3445,1443.479
188.8266,1437.509
189.3087,1433.238
189.7908,1431.144
190.2729,1430.328
190.755,1431.382
191.2372,1433.248
191.7193,1434.622
192.2014,1434.754
192.6835,1433.741
193.1656,1432.176
193.6477,1429.435
194.1299,1426.749
194.612,1424.182
195.0941,1421.825
195.5762,1419.987
196.0583,1419.006
196.5404,1418.74
197.0226,1416.507
197.5047,1409.01
197.9868,1403.112
198.4689,1401.095
198.951,1402.25
199.4331,1405.047
199.9153,1408.811
200.3974,1413.394
200.8795,1414.294
201.3616,1408.173
201.8437,1402.422
202.3258,1400.673
202.808,1402.27
203.2901,1404.1
203.7722,1403.846
204.2543,1401.721
204.7364,1401.015
205.2185,1403.067
205.7007,1405.302
206.1828,1405.867
206.6649,1404.89
207.147,1404.049
207.6291,1404.607
208.1112,1406.345
208.5934,1407.812
209.0755,1409.071
209.5576,1409.969
210.0397,1410.176
210.5218,1409.666
211.0039,1409.23
211.4861,1409.48
211.9682,1410.172
212.4503,1410.787
212.9324,1410.935
213.4145,1411.164
213.8967,1412.171
214.3788,1414.036
214.8609,1416.282
215.343,1419.411
215.8251,1422.575
216.3072,1424.727
216.7894,1425.884
217.2715,1425.554
217.7536,1421.965
218.2357,1413.177
218.7178,1406.598
219.1999,1406.926
219.6821,1410.56
220.1642,1413.654
220.6463,1414.626
221.1284,1414.208
221.6105,1414.189
222.0926,1415.337
222.5748,1415.281
223.0569,1411.777
223.539,1407.438
224.0211,1405.496
224.5032,1407.794
224.9853,1412.5
225.4675,1414.469
225.9496,1412.183
226.4317,1409.32
226.9138,1406.186
227.3959,1403.166
227.878,1400.599
228.3602,1398.633
228.8423,1397.289
229.3244,1396.763
229.8065,1398.827
230.2886,1399.129
230.7707,1396.063
231.2529,1391.42
231.735,1386.976
232.2171,1383.56
232.6992,1381.179
233.1813,1379.931
233.6634,1382.382
234.1456,1382.804
234.6277,1379.117
235.1098,1373.784
235.5919,1369.779
236.074,1368.472
236.5561,1368.837
237.0383,1367.834
237.5204,1363.148
238.0025,1359.811
238.4846,1359.326
238.9667,1359.965
239.4488,1359.677
239.931,1357.6
240.4131,1354.228
240.8952,1350.705
241.3773,1344.583
241.8594,1341.698
242.3415,1345.98
242.8237,1352.783
243.3058,1355.765
243.7879,1352.408
244.27,1345.642
244.7521,1341.691
245.2342,1341.937
245.7164,1341.967
246.1985,1341.044
246.6806,1339.54
247.1627,1337.884
247.6448,1336.165
248.1269,1334.505
248.6091,1333.103
249.0912,1331.932
249.5733,1331.01
250.0554,1330.625
250.5375,1330.411
251.0196,1329.723
251.5018,1328.319
251.9839,1326.79
252.466,1326.236
252.9481,1326.774
253.4302,1326.72
253.9123,1325.041
254.3945,1322.71
254.8766,1321.1
255.3587,1320.452
255.8408,1320.699
256.3229,1322.36
256.8051,1325.223
257.2872,1327.518
257.7693,1328.715
258.2514,1329.044
258.7335,1328.401
259.2156,1326.311
259.6978,1324.881
260.1799,1327.265
260.662,1332.31
261.1441,1336.26
261.6262,1337.202
262.1083,1336.573
262.5905,1336.914
263.0726,1338.754
263.5547,1340.156
264.0368,1339.695
264.5189,1337.713
265.001,1334.456
265.4832,1329.049
265.9653,1322.802
266.4474,1317.319
266.9295,1312.264
267.4116,1309.366
267.8937,1312.623
268.3759,1318.22
268.858,1320.642
269.3401,1316.987
269.8222,1310.484
270.3043,1305.582
270.7864,1302.409
271.2686,1300.301
271.7507,1299.875
272.2328,1300.025
272.7149,1299.639
273.197,1298.396
273.6791,1296.548
274.1613,1294.246
274.6434,1291.314
275.1255,1288.702
275.6076,1287.0
276.0897,1285.656
276.5718,1284.471
277.054,1283.499
277.5361,1282.047
278.0182,1278.635
278.5003,1272.75
278.9824,1268.574
279.4645,1268.082
279.9467,1269.237
280.4288,1271.351
280.9109,1274.266
281.393,1276.818
281.8751,1277.174
282.3572,1275.017
282.8394,1274.685
283.3215,1279.752
283.8036,1284.476
284.2857,1285.022
284.7678,1281.591
285.2499,1277.521
285.7321,1276.181
286.2142,1277.669
286.6963,1277.391
287.1784,1272.045
287.6605,1268.029
288.1426,1269.576
288.6248,1275.32
289.1069,1280.629
289.589,1281.521
290.0711,1278.426
290.5532,1277.018
291.0353,1278.534
291.5175,1280.309
291.9996,1281.559
292.4817,1282.274
292.9638,1282.364
293.4459,1281.399
293.928,1279.913
294.4102,1280.607
294.8923,1285.91
295.3744,1289.563
295.8565,1288.705
296.3386,1285.648
296.8207,1283.301
297.3029,1283.084
297.785,1284.333
298.2671,1285.591
298.7492,1287.392
299.2313,1288.081
299.7134,1286.458
300.1956,1284.164
300.6777,1282.627
301.1598,1282.326
301.6419,1282.918
302.124,1283.986
302.6061,1285.846
303.0883,1287.247
303.5704,1287.424
304.0525,1287.484
304.5346,1288.243
305.0167,1289.813
305.4988,1291.598
305.981,1292.81
306.4631,1293.251
306.9452,1293.968
307.4273,1294.625
307.9094,1295.887
308.3915,1298.687
308.8737,1302.636
309.3558,1306.166
309.8379,1307.093
310.32,1305.152
310.8021,1306.207
311.2842,1313.192
311.7664,1320.427
312.2485,1325.977
312.7306,1330.187
313.2127,1334.115
313.6948,1338.303
314.1769,1342.808
314.6591,1348.117
315.1412,1354.978
315.6233,1361.66
316.1054,1367.78
316.5875,1373.421
317.0696,1378.368
317.5518,1382.262
318.0339,1386.228
318.516,1393.638
318.9981,1407.46
319.4802,1418.598
319.9623,1424.614
320.4445,1427.867
320.9266,1429.765
321.4087,1430.797
321.8908,1431.806
322.3729,1434.662
322.855,1440.709
323.3372,1443.816
323.8193,1441.743
324.3014,1437.563
324.7835,1432.892
325.2656,1427.901
325.7477,1421.735
326.2299,1412.673
326.712,1400.234
327.1941,1390.066
327.6762,1383.808
328.1583,1378.534
328.6404,1373.335
329.1226,1368.068
329.6047,1362.643
330.0868,1357.011
330.5689,1351.166
331.051,1344.947
331.5331,1337.444
332.0153,1331.031
332.4974,1327.325
332.9795,1324.937
333.4616,1321.774
333.9437,1316.679
334.4258,1310.608
334.908,1305.703
335.3901,1302.186
335.8722,1299.331
336.3543,1297.128
336.8365,1295.356
337.3186,1293.965
337.8007,1292.975
338.2828,1292.02
338.7649,1290.469
339.247,1288.173
339.7292,1286.439
340.2113,1286.368
340.6934,1286.255
341.1755,1284.527
341.6576,1281.32
342.1397,1278.652
342.6219,1278.391
343.104,1280.319
343.5861,1282.399
344.0682,1285.182
344.5503,1287.028
345.0324,1286.633
345.5146,1284.664
345.9967,1282.801
346.4788,1281.956
346.9609,1281.801
347.443,1281.536
347.9251,1281.051
348.4073,1280.782
348.8894,1281.678
349.3715,1282.7
349.8536,1282.362
350.3357,1279.805
350.8178,1276.739
351.3,1275.123
351.7821,1275.005
352.2642,1275.638
352.7463,1277.709
353.2284,1279.74
353.7105,1280.186
354.1927,1278.869
354.6748,1276.916
355.1569,1274.408
355.639,1271.72
356.1211,1270.817
356.6032,1273.044
357.0854,1275.42
357.5675,1274.877
358.0496,1271.957
358.5317,1269.132
359.0138,1267.668
359.4959,1266.758
359.9781,1264.705
360.4602,1261.137
360.9423,1258.391
361.4244,1259.059
361.9065,1261.726
362.3886,1262.789
362.8708,1260.492
363.3529,1257.763
363.835,1257.151
364.3171,1258.368
364.7992,1259.501
365.2813,1259.697
365.7635,1259.331
366.2456,1259.156
366.7277,1259.188
367.2098,1259.314
367.6919,1259.531
368.174,1259.799
368.6562,1260.265
369.1383,1261.109
369.6204,1261.388
370.1025,1259.289
370.5846,1254.558
371.0667,1251.784
371.5489,1253.242
372.031,1255.763
372.5131,1256.341
372.9952,1254.908
373.4773,1253.576
373.9594,1254.359
374.4416,1256.746
374.9237,1255.69
375.4058,1247.727
375.8879,1240.43
376.37,1237.678
376.8521,1237.747
377.3343,1237.024
377.8164,1233.877
378.2985,1229.104
378.7806,1224.486
379.2627,1219.625
379.7448,1215.607
380.227,1213.374
380.7091,1211.546
381.1912,1208.244
381.6733,1203.34
382.1554,1199.088
382.6375,1198.368
383.1197,1202.556
383.6018,1203.113
384.0839,1196.786
384.566,1190.665
385.0481,1188.102
385.5302,1188.43
386.0124,1189.525
386.4945,1190.104
386.9766,1190.127
387.4587,1189.341
387.9408,1186.252
388.4229,1184.167
388.9051,1184.131
389.3872,1184.916
389.8693,1185.508
390.3514,1185.502
390.8335,1184.702
391.3156,1182.463
391.7978,1177.621
392.2799,1174.559
392.762,1174.84
393.2441,1175.469
393.7262,1175.036
394.2083,1173.536
394.6905,1171.629
395.1726,1169.759
395.6547,1167.932
396.1368,1166.357
396.6189,1166.164
397.101,1164.477
397.5832,1158.895
398.0653,1151.985
398.5474,1147.387
399.0295,1146.79
399.5116,1147.719
399.9937,1146.219
400.4759,1141.988
400.958,1136.892
401.4401,1129.436
401.9222,1122.733
402.4043,1119.582
402.8864,1119.938
403.3686,1120.547
403.8507,1118.987
404.3328,1115.677
404.8149,1112.3
405.297,1108.685
405.7791,1105.666
406.2613,1104.338
406.7434,1103.966
407.2255,1103.023
407.7076,1100.596
408.1897,1097.832
408.6718,1095.993
409.154,1095.051
409.6361,1094.535
410.1182,1094.57
410.6003,1094.643
411.0824,1093.713
411.5645,1091.368
412.0467,1089.639
412.5288,1089.973
413.0109,1091.369
413.493,1092.116
413.9751,1091.87
414.4572,1091.015
414.9394,1089.884
415.4215,1088.453
415.9036,1086.749
416.3857,1083.85
416.8678,1081.483
417.3499,1081.703
417.8321,1083.658
418.3142,1084.088
418.7963,1080.887
419.2784,1075.418
419.7605,1072.401
420.2426,1073.484
420.7248,1074.637
421.2069,1076.144
421.689,1077.159
422.1711,1076.137
422.6532,1073.01
423.1353,1070.071
423.6175,1070.311
424.0996,1074.761
424.5817,1077.109
425.0638,1076.077
425.5459,1074.545
426.028,1073.623
426.5102,1073.072
426.9923,1071.98
427.4744,1069.698
427.9565,1066.976
428.4386,1066.691
428.9207,1071.542
429.4029,1073.858
429.885,1070.945
430.3671,1066.625
430.8492,1063.695
431.3313,1062.711
431.8134,1062.804
432.2956,1063.349
432.7777,1064.368
433.2598,1065.005
433.7419,1065.447
434.2241,1065.16
434.7062,1063.718
435.1883,1061.482
435.6704,1059.036
436.1525,1056.291
436.6346,1053.939
437.1168,1053.699
437.5989,1055.901
438.081,1056.55
438.5631,1052.135
439.0452,1047.217
439.5273,1047.724
440.0095,1054.365
440.4916,1059.985
440.9737,1059.936
441.4558,1056.354
441.9379,1053.641
442.42,1052.458
442.9022,1051.419
443.3843,1049.18
443.8664,1046.025
444.3485,1043.701
444.8306,1042.015
445.3127,1041.437
445.7949,1043.245
446.277,1046.422
446.7591,1048.26
447.2412,1047.59
447.7233,1045.349
448.2054,1043.193
448.6876,1040.849
449.1697,1039.269
449.6518,1038.734
450.1339,1038.819
450.616,1039.476
451.0981,1040.524
451.5803,1041.598
452.0624,1042.571
452.5445,1043.307
453.0266,1041.911
453.5087,1034.446
453.9908,1029.356
454.473,1029.673
454.9551,1032.156
455.4372,1033.091
455.9193,1031.354
456.4014,1028.663
456.8835,1027.543
457.3657,1028.462
457.8478,1028.793
458.3299,1027.549
458.812,1026.565
459.2941,1026.987
459.7762,1028.272
460.2584,1029.068
460.7405,1028.538
461.2226,1027.177
461.7047,1026.063
462.1868,1025.311
462.6689,1024.191
463.1511,1021.388
463.6332,1018.862
464.1153,1018.976
464.5974,1022.068
465.0795,1024.919
465.5616,1025.67
466.0438,1024.792
466.5259,1023.067
467.008,1020.44
467.4901,1017.913
467.9722,1016.132
468.4543,1015.145
468.9365,1014.852
469.4186,1015.843
469.9007,1016.925
470.3828,1018.077
470.8649,1018.817
471.347,1017.784
471.8292,1014.382
472.3113,1010.036
472.7934,1006.826
473.2755,1005.036
473.7576,1003.839
474.2397,1003.308
474.7219,1003.267
475.204,1003.925
475.6861,1005.002
476.1682,1005.98
476.6503,1006.607
477.1324,1006.648
477.6146,1004.969
478.0967,998.8483
478.5788,995.4808
479.0609,997.3346
479.543,1000.646
480.0251,1003.109
480.5073,1004.094
480.9894,1003.442
481.4715,1000.204
481.9536,994.6978
482.4357,991.3566
482.9178,991.1202
483.4,991.4771
483.8821,991.642
484.3642,991.5776
484.8463,991.14
485.3284,990.1732
485.8105,989.2132
486.2927,988.707
486.7748,988.6378
487.2569,989.0122
487.739,990.0273
488.2211,991.0768
488.7032,991.7311
489.1854,991.9771
489.6675,991.2466
490.1496,988.1431
490.6317,985.0768
491.1138,984.0008
491.5959,984.6868
492.0781,986.2296
492.5602,988.3723
493.0423,990.6638
493.5244,992.155
494.0065,993.0277
494.4886,992.6174
494.9708,988.9645
495.4529,985.4754
495.935,985.4514
496.4171,988.3062
496.8992,990.4866
497.3813,989.056
497.8635,984.842
498.3456,983.0974
498.8277,985.2308
499.3098,987.8628
499.7919,991.5353
500.274,994.7733
500.7562,995.8099
501.2383,994.5729
501.7204,993.2375
502.2025,994.8088
502.6846,998.8353
503.1667,999.2606
503.6489,993.2697
504.131,989.0047
504.6131,993.1021
505.0952,1000.971
505.5773,1005.959
506.0594,1006.063
506.5416,1004.345
507.0237,1002.555
507.5058,1000.895
507.9879,1000.043
508.47,1000.142
508.9521,1001.165
509.4343,1003.765
509.9164,1007.886
510.3985,1009.796
510.8806,1007.345
511.3627,1004.497
511.8448,1003.801
512.327,1004.418
512.8091,1003.993
513.2912,1001.467
513.7733,998.355
514.2554,997.6162
514.7375,1001.237
515.2197,1002.525
515.7018,998.0712
516.1839,994.798
516.666,998.0257
517.1481,1005.4
517.6302,1010.683
518.1124,1009.942
518.5945,1005.387
519.0766,1002.608
519.5587,1001.917
520.0408,1001.888
520.5229,1002.711
521.0051,1003.732
521.4872,1004.772
521.9693,1005.703
522.4514,1006.023
522.9335,1005.192
523.4156,1003.639
523.8978,1001.907
524.3799,999.9636
524.862,998.8351
525.3441,999.5236
525.8262,1001.006
526.3083,1001.065
526.7905,999.3359
527.2726,997.6488
527.7547,996.0946
528.2368,995.1346
528.7189,995.7443
529.201,997.7573
529.6832,999.5169
530.1653,999.7171
530.6474,998.6185
531.1295,998.0427
531.6116,999.2554
532.0938,999.3473
532.5759,997.6976
533.058,995.0314
533.5401,991.2482
534.0222,986.7959
534.5043,983.4105
534.9865,983.1603
535.4686,985.6898
535.9507,987.0008
536.4328,987.056
536.9149,985.9165
537.397,982.5468
537.8792,978.6102
538.3613,976.3093
538.8434,976.275
539.3255,975.5483
539.8076,970.8912
540.2897,963.9297
540.7719,958.741
541.254,955.7876
541.7361,954.98
542.2182,957.2072
542.7003,961.61
543.1824,963.9507
543.6646,964.583
544.1467,962.744
544.6288,955.3958
545.1109,946.5863
545.593,942.1823
546.0751,943.2062
546.5573,945.9198
547.0394,946.5208
547.5215,944.9283
548.0036,944.0204
548.4857,944.0861
548.9678,944.5384
549.45,945.6128
549.9321,946.8483
550.4142,947.8703
550.8963,948.5459
551.3784,948.7419
551.8605,947.9798
552.3427,946.3694
552.8248,945.5934
553.3069,945.8241
553.789,946.6447
554.2711,948.4359
554.7532,950.4908
555.2354,951.8209
555.7175,952.3397
556.1996,951.9212
556.6817,949.5202
557.1638,946.3246
557.6459,945.2462
558.1281,946.8661
558.6102,948.2108
559.0923,946.4799
559.5744,941.8656
560.0565,938.5736
560.5386,938.1549
561.0208,936.9347
561.5029,933.5895
561.985,929.2159
562.4671,924.7293
562.9492,920.5024
563.4313,916.9706
563.9135,914.6667
564.3956,913.5641
564.8777,912.7925
565.3598,913.1216
565.8419,912.5158
566.324,909.9431
566.8062,906.4533
567.2883,902.8774
567.7704,899.3889
568.2525,896.6354
568.7346,896.0344
569.2167,896.5045
569.6989,894.7227
570.181,890.1407
570.6631,885.3312
571.1452,881.5743
571.6273,878.9523
572.1094,877.7052
572.5916,878.7671
573.0737,879.4174
573.5558,878.8002
574.0379,877.4807
574.52,875.7064
575.0021,873.7195
575.4843,872.2555
575.9664,871.9375
576.4485,872.6183
576.9306,873.4927
577.4127,875.1847
577.8948,875.9959
578.377,875.5524
578.8591,874.3512
579.3412,872.3846
579.8233,869.8905
580.3054,867.7189
580.7875,866.5614
581.2697,866.1401
581.7518,866.0516
582.2339,866.4219
582.7161,865.8475
583.1982,863.0702
583.6803,859.7164
584.1624,858.4003
584.6445,859.3112
585.1266,860.0207
585.6088,860.283
586.0909,859.7986
586.573,858.0086
587.0551,855.199
587.5372,852.2609
588.0193,849.6678
588.5015,847.3141
588.9836,844.8528
589.4657,841.3981
589.9478,839.8636
590.4299,842.1535
590.912,844.2955
591.3942,843.8793
591.8763,841.8735
592.3584,840.599
592.8405,841.2619
593.3226,842.7089
593.8047,843.2805
594.2869,842.9818
594.769,842.3912
595.2511,841.5482
595.7332,840.5122
596.2153,839.0596
596.6974,837.3913
597.1796,836.2943
597.6617,836.3995
598.1438,836.5292
598.6259,836.1569
599.108,835.3475
599.5901,834.0174
600.0723,832.1985
600.5544,830.4675
601.0365,829.3253
601.5186,828.7618
602.0007,829.6356
602.4828,834.9082
602.965,837.9974
603.4471,836.0252
603.9292,832.4243
604.4113,830.5477
604.8934,831.011
605.3755,832.2767
605.8577,833.5109
606.3398,834.4914
606.8219,834.1144
607.304,832.0782
607.7861,830.4266
608.2682,830.3777
608.7504,831.0098
609.2325,830.5283
609.7146,828.577
610.1967,827.4344
610.6788,828.7565
611.1609,830.3197
611.6431,829.8278
612.1252,827.72
612.6073,825.8011
613.0894,824.9841
613.5715,825.1655
614.0536,826.3644
614.5358,829.6725
615.0179,831.2867
615.5,829.9261
615.9821,828.1531
616.4642,826.8174
616.9464,825.889
617.4285,825.0903
617.9106,824.2396
618.3927,823.7788
618.8748,824.3958
619.3569,825.9061
619.8391,827.5755
620.3212,829.549
620.8033,830.5039
621.2854,828.8105
621.7675,825.0571
622.2496,822.9032
622.7318,823.5477
623.2139,824.1567
623.696,823.9967
624.1781,823.3936
624.6602,822.4714
625.1423,821.3919
625.6245,820.6056
626.1066,820.4728
626.5887,820.9236
627.0708,821.8592
627.5529,824.021
628.035,824.8514
628.5172,821.8083
628.9993,818.8257
629.4814,818.8151
629.9635,821.3893
630.4456,823.8616
630.9277,824.8373
631.4099,825.3345
631.892,826.4644
632.3741,828.1075
632.8562,829.7512
633.3383,831.2303
633.8204,832.7482
634.3026,834.6159
634.7847,836.9282
635.2668,838.6945
635.7489,838.6931
636.231,839.6737
636.7131,843.533
637.1953,848.2213
637.6774,851.1677
638.1595,851.9282
638.6416,852.1766
639.1237,853.3888
639.6058,855.444
640.088,857.5598
640.5701,859.3926
641.0522,862.7343
641.5343,869.3712
642.0164,877.0807
642.4985,882.6639
642.9807,885.9432
643.4628,889.8175
643.9449,895.0046
644.427,901.2136
644.9091,909.1494
645.3912,917.9201
645.8734,924.9881
646.3555,929.2823
646.8376,932.894
647.3197,939.2586
647.8018,949.2946
648.2839,956.9799
648.7661,961.1708
649.2482,964.3016
649.7303,966.6522
650.2124,968.6025
650.6945,970.5534
651.1766,972.5848
651.6588,974.6737
652.1409,976.6603
652.623,978.712
653.1051,981.6785
653.5872,985.5305
654.0693,987.6465
654.5515,985.8652
655.0336,982.8257
655.5157,984.2487
655.9978,992.8179
656.4799,999.7161
656.962,1003.108
657.4442,1006.558
657.9263,1011.647
658.4084,1018.219
658.8905,1025.77
659.3726,1034.044
659.8547,1043.317
660.3369,1054.304
660.819,1066.836
661.3011,1078.658
661.7832,1089.284
662.2653,1100.306
662.7474,1112.864
663.2296,1126.318
663.7117,1139.599
664.1938,1153.455
664.6759,1164.756
665.158,1170.672
665.6401,1175.042
666.1223,1181.862
666.6044,1190.405
667.0865,1197.728
667.5686,1202.403
668.0507,1204.094
668.5328,1201.926
669.015,1195.311
669.4971,1187.398
669.9792,1178.727
670.4613,1167.988
670.9434,1153.983
671.4255,1137.985
671.9077,1122.025
672.3898,1106.788
672.8719,1090.102
673.354,1069.363
673.8361,1046.859
674.3182,1025.84
674.8004,1006.561
675.2825,988.6271
675.7646,971.8919
676.2467,956.2748
676.7288,941.4022
677.2109,926.8361
677.6931,913.9618
678.1752,904.0944
678.6573,894.3416
679.1394,882.6823
679.6215,870.5598
680.1036,860.736
680.5858,854.2687
681.0679,848.6432
681.55,841.3972
682.0321,833.1504
682.5142,825.417
682.9963,818.3367
683.4785,812.1929
683.9606,807.3822
684.4427,803.2926
684.9248,798.3981
685.4069,792.1466
685.889,786.4196
686.3712,780.5468
686.8533,775.9357
687.3354,774.4948
687.8175,774.5546
688.2996,773.098
688.7817,769.0071
689.2639,763.8853
689.746,759.2785
690.2281,755.2393
690.7102,752.4689
691.1923,751.2479
691.6744,750.1925
692.1566,748.514
692.6387,746.6663
693.1208,745.5895
693.6029,745.3776
694.085,745.331
694.5671,746.0474
695.0493,746.2103
695.5314,744.5919
696.0135,741.8541
696.4956,739.1927
696.9777,737.0789
697.4598,735.4952
697.942,734.7025
698.4241,734.6387
698.9062,733.6125
699.3883,731.1965
699.8704,729.016
700.3525,727.8588
700.8347,727.256
701.3168,726.5934
701.7989,725.869
702.281,725.13
702.7631,724.5579
703.2452,723.8286
703.7274,722.453
704.2095,720.8056
704.6916,719.6329
705.1737,719.1713
705.6558,719.1452
706.1379,719.4624
706.6201,720.0342
707.1022,719.1296
707.5843,716.1641
708.0664,713.0552
708.5485,709.5488
709.0306,706.814
709.5128,706.6564
709.9949,708.8297
710.477,709.7062
710.9591,706.8961
711.4412,703.5934
711.9233,702.0895
712.4055,701.7948
712.8876,701.3661
713.3697,700.5485
713.8518,700.5514
714.3339,702.9069
714.816,707.014
715.2982,708.1545
715.7803,704.9547
716.2624,701.9905
716.7445,699.9146
717.2266,698.632
717.7087,698.8073
718.1909,699.8639
718.673,699.4347
719.1551,694.9041
719.6372,691.1912
720.1193,693.3041
720.6014,697.8726
721.0836,698.5612
721.5657,694.7686
722.0478,690.9475
722.5299,690.4299
723.012,692.499
723.4941,694.9758
723.9763,699.0272
724.4584,700.1927
724.9405,695.5905
725.4226,690.5829
725.9047,687.6453
726.3868,686.4778
726.869,686.4845
727.3511,688.0045
727.8332,689.3136
728.3153,689.257
728.7974,688.4561
729.2795,687.5543
729.7617,686.7003
730.2438,685.8925
730.7259,685.043
731.208,684.8746
731.6901,687.5137
732.1722,694.5383
732.6544,697.5871
733.1365,694.7181
733.6186,690.4492
734.1007,685.0826
734.5828,680.2286
735.0649,678.387
735.5471,680.1124
736.0292,681.8494
736.5113,682.038
736.9934,681.4027
737.4755,680.3048
737.9576,679.0087
738.4398,677.9279
738.9219,677.2296
739.404,677.462
739.8861,679.724
740.3682,683.9462
740.8503,685.3385
741.3325,682.6729
741.8146,679.7319
742.2967,677.153
742.7788,675.0375
743.2609,673.2032
743.743,671.7844
744.2252,671.7916
744.7073,675.662
745.1894,678.7952
745.6715,677.4623
746.1536,673.7499
746.6357,670.7108
747.1179,668.963
747.6,667.9642
748.0821,667.3568
748.5642,667.0111
749.0463,666.5758
749.5284,666.1783
750.0106,665.1152
750.4927,663.0212
750.9748,660.6176
751.4569,657.5475
751.939,654.6394
752.4211,654.0236
752.9033,657.133
753.3854,659.6492
753.8675,659.3375
754.3496,658.2321
754.8317,658.5875
755.3138,659.8367
755.796,659.5519
756.2781,656.6171
756.7602,653.455
757.2423,654.1678
757.7244,658.5851
758.2065,661.1639
758.6887,661.6028
759.1708,660.8785
759.6529,658.9636
760.135,656.473
760.6171,653.787
761.0992,650.6743
761.5814,649.9807
762.0635,654.7141
762.5456,658.9442
763.0277,659.8407
763.5098,658.7108
763.9919,657.1339
764.4741,655.5182
764.9562,653.6611
765.4383,651.1913
765.9204,648.6693
766.4025,647.5938
766.8846,647.9154
767.3668,647.9933
767.8489,647.3795
768.331,646.8503
768.8131,647.1597
769.2952,648.103
769.7773,648.5223
770.2595,647.6288
770.7416,647.3802
771.2237,648.6548
771.7058,649.8861
772.1879,649.9883
772.67,649.2902
773.1522,648.7169
773.6343,648.6544
774.1164,648.203
774.5985,646.0564
775.0806,643.0197
775.5627,640.9684
776.0449,639.9435
776.527,639.0449
777.0091,637.8745
777.4912,636.6984
777.9733,635.8871
778.4554,635.4267
778.9376,635.4785
779.4197,637.0024
779.9019,637.7162
780.384,636.6495
780.8661,634.9749
781.3482,633.2794
781.8303,631.8348
782.3124,631.5806
782.7946,633.9363
783.2767,636.3459
783.7588,636.6658
784.2409,635.6108
784.723,634.205
785.2051,632.731
785.6873,631.3878
786.1694,630.2383
786.6515,629.6388
787.1336,631.143
787.6157,635.6965
788.0978,636.8312
788.58,632.0935
789.0621,627.3869
789.5442,625.9969
790.0263,626.5985
790.5084,627.2458
790.9905,627.9615
791.4727,628.2437
791.9548,627.1117
792.4369,626.3721
792.919,627.6051
793.4011,629.8535
793.8832,631.8083
794.3654,632.9825
794.8475,632.9415
795.3296,630.7535
795.8117,627.4819
796.2938,626.3951
796.7759,627.4252
797.2581,627.1265
797.7402,624.2201
798.2223,621.7512
798.7044,622.8591
799.1865,626.6754
799.6686,628.0514
800.1508,624.8825
800.6329,622.2489
801.115,619.9171
801.5971,618.4549
802.0792,619.0992
802.5613,620.5785
803.0435,620.3656
803.5256,617.5919
804.0077,614.9674
804.4898,614.4145
804.9719,615.2816
805.454,617.6082
805.9362,620.6427
806.4183,621.3093
806.9004,618.5316
807.3825,614.9129
807.8646,613.611
808.3467,614.3531
808.8289,613.2391
809.311,608.6444
809.7931,606.743
810.2752,611.1471
810.7573,616.1346
811.2394,616.6729
811.7216,614.0387
812.2037,612.4205
812.6858,613.0242
813.1679,613.4351
813.65,612.1659
814.1321,610.9273
814.6143,611.4568
815.0964,613.2452
815.5785,615.0486
816.0606,616.3401
816.5427,616.7292
817.0248,615.2705
817.507,612.5599
817.9891,610.6027
818.4712,609.4251
818.9533,609.1671
819.4354,610.1866
819.9175,610.8808
820.3997,608.9321
820.8818,604.4323
821.3639,602.9922
821.846,608.1003
822.3281,611.0852
822.8102,609.1259
823.2924,606.6226
823.7745,606.9141
824.2566,608.9548
824.7387,609.5742
825.2208,607.4309
825.7029,605.2587
826.1851,604.851
826.6672,605.2209
827.1493,605.7288
827.6314,605.9594
828.1135,604.907
828.5956,602.2159
829.0778,598.7358
829.5599,594.8657
830.042,591.0826
830.5241,591.4641
831.0062,596.9244
831.4883,600.2982
831.9705,598.8985
832.4526,596.2627
832.9347,595.5778
833.4168,596.67
833.8989,597.8785
834.381,601.1066
834.8632,601.6798
835.3453,596.2657
835.8274,590.8929
836.3095,589.7155
836.7916,591.2688
837.2737,592.2526
837.7559,591.6578
838.238,591.1073
838.7201,592.7794
839.2022,594.5309
839.6843,592.6275
840.1664,588.2202
840.6486,585.1646
841.1307,584.6227
841.6128,585.3077
842.0949,586.1334
842.577,586.9241
843.0591,586.4971
843.5413,584.2703
844.0234,584.1452
844.5055,588.3588
844.9876,591.6589
845.4697,589.4205
845.9518,583.8127
846.434,581.3307
846.9161,583.5819
847.3982,584.5223
847.8803,582.5192
848.3624,580.1509
848.8445,578.0253
849.3267,576.6855
849.8088,577.1549
850.2909,579.3595
850.773,581.354
851.2551,582.1407
851.7372,581.813
852.2194,579.6957
852.7015,576.6927
853.1836,575.0853
853.6657,575.2057
854.1478,576.0775
854.6299,577.114
855.1121,578.1544
855.5942,578.9976
856.0763,579.7405
856.5584,579.2296
857.0405,576.8994
857.5226,574.7249
858.0048,573.7808
858.4869,573.213
858.969,571.3535
859.4511,568.0045
859.9332,566.7384
860.4153,569.6254
860.8975,572.1024
861.3796,572.7448
861.8617,572.6067
862.3438,572.5629
862.8259,572.6006
863.308,572.2893
863.7902,571.379
864.2723,570.386
864.7544,569.5459
865.2365,569.0003
865.7186,569.1891
866.2007,569.9112
866.6829,570.5868
867.165,570.9628
867.6471,570.3687
868.1292,567.5942
868.6113,563.2595
869.0934,561.4254
869.5756,562.5511
870.0577,562.6979
870.5398,560.5131
871.0219,558.4066
871.504,558.3533
871.9861,559.8548
872.4683,561.0766
872.9504,561.8763
873.4325,562.6518
873.9146,563.6498
874.3967,564.3448
874.8788,564.2852
875.361,563.9199
875.8431,563.968
876.3252,564.4638
876.8073,564.4797
877.2894,563.5985
877.7715,562.0499
878.2537,558.6036
878.7358,555.3065
879.2179,556.0494
879.7,560.3978
880.1821,564.3469
880.6642,565.6205
881.1464,565.4755
881.6285,565.9866
882.1106,566.8341
882.5927,565.8261
883.0748,562.808
883.5569,560.2055
884.0391,558.8558
884.5212,558.6208
885.0033,559.6049
885.4854,561.6835
885.9675,562.4654
886.4496,561.6712
886.9318,560.1032
887.4139,556.2374
887.896,553.3443
888.3781,554.11
888.8602,556.8802
889.3423,558.3236
889.8245,557.8065
890.3066,557.2869
890.7887,557.9418
891.2708,558.0681
891.7529,555.9294
892.235,553.0385
892.7172,551.644
893.1993,551.8671
893.6814,552.0053
894.1635,551.0349
894.6456,549.5147
895.1277,547.8392
895.6099,546.2065
896.092,544.5122
896.5741,543.1037
897.0562,544.7826
897.5383,551.0477
898.0204,557.1522
898.5026,555.3002
898.9847,546.3593
899.4668,541.8383
899.9489,542.2728
900.431,544.2526
900.9131,547.7065
901.3953,550.6688
901.8774,551.2203
902.3595,549.9235
902.8416,549.3359
903.3237,550.2593
903.8058,550.4498
904.288,549.5792
904.7701,548.4045
905.2522,546.6323
905.7343,545.0706
906.2164,544.9326
906.6985,546.2388
907.1807,547.3494
907.6628,548.1224
908.1449,548.0277
908.627,545.637
909.1091,543.0057
909.5912,542.2594
910.0734,543.4754
910.5555,546.4437
911.0376,551.1741
911.5197,555.0367
912.0018,554.2795
912.4839,551.0392
912.9661,549.6588
913.4482,549.9816
913.9303,550.627
914.4124,551.2109
914.8945,552.1982
915.3766,554.2344
915.8588,556.4925
916.3409,555.7262
916.823,551.3528
917.3051,550.0602
917.7872,553.6493
918.2693,556.0992
918.7515,553.8552
919.2336,549.6705
919.7157,547.7817
920.1978,548.4139
920.6799,549.0344
921.162,549.6224
921.6442,550.2214
922.1263,551.4385
922.6084,552.1025
923.0905,550.7454
923.5726,548.3517
924.0547,547.4244
924.5369,548.9307
925.019,549.7891
925.5011,548.7692
925.9832,546.8997
926.4653,543.8358
926.9474,540.8871
927.4296,540.5302
927.9117,542.4596
928.3938,543.0576
928.8759,539.4122
929.358,535.5365
929.8401,536.8815
930.3223,540.7231
930.8044,541.6065
931.2865,539.7769
931.7686,538.7267
932.2507,539.8262
932.7328,540.9791
933.215,539.411
933.6971,536.1645
934.1792,535.7069
934.6613,538.0309
935.1434,539.179
935.6255,538.3009
936.1077,537.0406
936.5898,536.4258
937.0719,536.201
937.554,535.7103
938.0361,534.7413
938.5182,534.7982
939.0004,536.8384
939.4825,538.0176
939.9646,537.0216
940.4467,535.379
940.9288,533.9969
941.4109,533.0703
941.8931,533.6781
942.3752,537.5992
942.8573,539.834
943.3394,538.4415
943.8215,536.7303
944.3036,535.8265
944.7858,535.9174
945.2679,537.8436
945.75,541.3186
946.2321,543.1967
946.7142,540.3542
947.1964,537.8868
947.6785,540.0126
948.1606,543.2991
948.6427,543.7927
949.1248,542.0157
949.6069,540.2254
950.0891,539.2896
950.5712,539.0942
951.0533,540.3907
951.5354,541.8189
952.0175,540.5047
952.4996,537.511
952.9818,536.3488
953.4639,537.3145
953.946,537.1071
954.4281,533.4725
954.9102,529.1223
955.3923,529.4889
955.8745,533.8851
956.3566,535.7151
956.8387,534.8095
957.3208,532.8309
957.8029,530.0455
958.285,527.5764
958.7672,526.5036
959.2493,526.5446
959.7314,526.5822
960.2135,526.6277
960.6956,526.6221
961.1777,526.5753
961.6599,526.4359
962.142,526.1267
962.6241,525.7685
963.1062,525.6264
963.5883,525.6956
964.0704,525.1376
964.5526,523.048
965.0347,521.6948
965.5168,520.9986
965.9989,521.3704
966.481,523.7663
966.9631,527.0446
967.4453,529.4894
967.9274,530.8937
968.4095,532.0653
968.8916,533.6716
969.3737,534.5683
969.8558,533.0151
970.338,531.5318
970.8201,533.2579
971.3022,537.009
971.7843,539.1448
972.2664,538.3484
972.7485,537.9167
973.2307,540.6286
973.7128,544.2195
974.1949,546.6649
974.677,548.3038
975.1591,549.1442
975.6412,549.7733
976.1234,552.3039
976.6055,558.0421
977.0876,564.951
977.5698,570.8351
978.0519,575.9728
978.534,580.8433
979.0161,585.5184
979.4982,589.7291
979.9803,593.5988
980.4625,599.2716
980.9446,608.7322
981.4267,620.1863
981.9088,629.1125
982.3909,636.0228
982.873,647.1647
983.3552,663.0299
983.8373,675.9409
984.3194,682.5027
984.8015,689.0629
985.2836,702.6315
985.7657,721.7712
986.2479,739.133
986.73,753.9642
987.2121,771.474
987.6942,793.1874
988.1763,814.8077
988.6584,834.5477
989.1406,852.772
989.6227,869.4128
990.1048,884.6133
990.5869,901.4406
991.069,922.9088
991.5511,940.0952
992.0333,952.1179
992.5154,959.8822
992.9975,963.2927
993.4796,962.9974
993.9617,960.1115
994.4438,954.7166
994.926,945.7562
995.4081,930.3837
995.8902,915.2969
996.3723,903.8465
996.8544,891.2064
997.3365,872.4657
997.8187,850.6427
998.3008,832.0309
998.7829,817.8112
999.265,803.6945
999.7471,787.3434
1000.229,772.1049
1000.711,758.8824
1001.193,747.9442
1001.676,740.7126
1002.158,735.6627
1002.64,728.9601
1003.122,719.246
1003.604,710.1324
1004.086,704.3605
1004.568,699.2128
1005.05,692.016
1005.533,684.3497
1006.015,678.0613
1006.497,673.5508
1006.979,671.2552
1007.461,671.601
1007.943,671.7372
1008.425,668.4764
1008.907,664.1111
1009.389,661.7816
1009.872,660.667
1010.354,659.2076
1010.836,656.9271
1011.318,653.2577
1011.8,647.7161
1012.282,642.0753
1012.764,639.59
1013.246,638.1404
1013.729,632.673
1014.211,623.9561
1014.693,615.463
1015.175,607.9576
1015.657,599.985
1016.139,590.4006
1016.621,580.5929
1017.103,572.9548
1017.585,567.1793
1018.068,562.2437
1018.55,558.0048
1019.032,553.0703
1019.514,547.0869
1019.996,540.9962
1020.478,535.4897
1020.96,530.7725
1021.442,527.7096
1021.924,526.2187
1022.407,523.6676
1022.889,519.9003
1023.371,516.5306
1023.853,514.1434
1024.335,511.6156
1024.817,507.8386
1025.299,503.3315
1025.781,499.5441
1026.264,496.3687
1026.746,494.9757
1027.228,495.8758
1027.71,496.4413
1028.192,495.8818
1028.674,494.4293
1029.156,492.1942
1029.638,489.3289
1030.12,486.0861
1030.603,481.5352
1031.085,480.5312
1031.567,485.1444
1032.049,488.2833
1032.531,486.9129
1033.013,484.1383
1033.495,482.9782
1033.977,483.0839
1034.459,482.6882
1034.942,481.5184
1035.424,480.4959
1035.906,479.7403
1036.388,478.9419
1036.87,478.1559
1037.352,477.0982
1037.834,475.0365
1038.316,472.3445
1038.799,471.2689
1039.281,472.7057
1039.763,474.0165
1040.245,476.2649
1040.727,477.0294
1041.209,474.1302
1041.691,470.5115
1042.173,468.7791
1042.656,468.744
1043.138,469.5323
1043.62,472.4569
1044.102,473.4914
1044.584,470.5394
1045.066,467.9704
1045.548,468.2467
1046.03,468.9629
1046.512,467.8568
1046.995,465.0655
1047.477,461.4272
1047.959,455.3558
1048.441,452.3367
1048.923,456.1155
1049.405,459.5334
1049.887,459.8493
1050.369,458.2655
1050.851,454.7677
1051.334,450.4529
1051.816,449.3526
1052.298,453.7849
1052.78,456.831
1053.262,456.1036
1053.744,454.6537
1054.226,453.6139
1054.708,452.742
1055.191,451.7005
1055.673,450.5443
1056.155,449.465
1056.637,448.2661
1057.119,447.9603
1057.601,449.4715
1058.083,451.1991
1058.565,453.0774
1059.047,454.2075
1059.53,453.5195
1060.012,451.3456
1060.494,448.5321
1060.976,444.7538
1061.458,442.9279
1061.94,446.0014
1062.422,448.9642
1062.904,449.0503
1063.386,447.8412
1063.869,446.8613
1064.351,446.0718
1064.833,444.6533
1065.315,442.2047
1065.797,440.6813
1066.279,441.6618
1066.761,442.8247
1067.243,442.8811
1067.726,442.5775
1068.208,442.6804
1068.69,443.0752
1069.172,443.4514
1069.654,443.7709
1070.136,443.3335
1070.618,441.2005
1071.1,439.0251
1071.583,437.6353
1072.065,436.643
1072.547,435.3008
1073.029,434.1472
1073.511,434.7883
1073.993,437.5396
1074.475,439.1861
1074.957,437.3187
1075.439,435.2699
1075.922,435.1537
1076.404,435.1964
1076.886,432.8461
1077.368,429.8354
1077.85,430.3488
1078.332,434.7592
1078.814,437.1592
1079.296,432.7641
1079.779,428.946
1080.261,429.9365
1080.743,432.2524
1081.225,433.7224
1081.707,434.2158
1082.189,433.6131
1082.671,432.1025
1083.153,430.9368
1083.635,430.9721
1084.118,430.7338
1084.6,428.7452
1085.082,427.0837
1085.564,427.9171
1086.046,429.6471
1086.528,429.9503
1087.01,428.7847
1087.492,427.6413
1087.974,426.8245
1088.457,426.5491
1088.939,427.736
1089.421,428.5566
1089.903,427.5062
1090.385,425.7111
1090.867,424.3813
1091.349,423.5925
1091.831,422.9533
1092.314,422.315
1092.796,422.0149
1093.278,422.6608
1093.76,423.0829
1094.242,422.4804
1094.724,421.5273
1095.206,420.4904
1095.688,419.7407
1096.171,420.0959
1096.653,421.8356
1097.135,423.6915
1097.617,425.9554
1098.099,427.3963
1098.581,427.4857
1099.063,426.6217
1099.545,424.7121
1100.027,422.2532
1100.51,419.9201
1100.992,417.7909
1101.474,416.5607
1101.956,417.192
1102.438,417.5969
1102.92,416.3361
1103.402,415.653
1103.884,417.9835
1104.366,421.1566
1104.849,421.8984
1105.331,420.1441
1105.813,418.6572
1106.295,418.2262
1106.777,417.4749
1107.259,415.9241
1107.741,414.3597
1108.223,412.5943
1108.706,411.3869
1109.188,412.1227
1109.67,414.2672
1110.152,414.8907
1110.634,412.7904
1111.116,411.5029
1111.598,412.5396
1112.08,412.6344
1112.563,409.515
1113.045,406.3535
1113.527,406.0031
1114.009,407.4534
1114.491,408.007
1114.973,407.4289
1115.455,406.9487
1115.937,405.9254
1116.419,406.2235
1116.901,409.8118
1117.384,412.4151
1117.866,410.5555
1118.348,406.9214
1118.83,406.2841
1119.312,408.761
1119.794,409.5049
1120.276,407.5446
1120.758,406.3566
1121.241,406.4579
1121.723,407.0414
1122.205,408.1801
1122.687,408.7836
1123.169,407.1509
1123.651,403.9535
1124.133,403.523
1124.615,407.0202
1125.098,407.3399
1125.58,403.2794
1126.062,400.0761
1126.544,399.4512
1127.026,400.183
1127.508,401.5224
1127.99,402.9132
1128.472,402.576
1128.954,400.4145
1129.437,401.0188
1129.919,404.7091
1130.401,405.7422
1130.883,402.7065
1131.365,399.6026
1131.847,398.8198
1132.329,399.2278
1132.811,399.2722
1133.293,398.9846
1133.776,398.492
1134.258,397.8083
1134.74,396.762
1135.222,395.4685
1135.704,395.8149
1136.186,398.548
1136.668,401.7829
1137.15,404.0209
1137.633,404.6878
1138.115,401.2086
1138.597,395.4904
1139.079,393.8053
1139.561,395.5564
1140.043,396.8529
1140.525,396.7117
1141.007,395.9628
1141.49,395.0091
1141.972,394.6486
1142.454,396.7819
1142.936,399.4681
1143.418,399.1265
1143.9,397.0318
1144.382,395.8936
1144.864,395.8524
1145.346,395.5495
1145.828,394.4808
1146.311,393.9833
1146.793,396.1599
1147.275,398.1428
1147.757,396.2992
1148.239,393.5487
1148.721,393.6349
1149.203,395.4769
1149.685,396.4054
1150.168,395.9449
1150.65,395.3719
1151.132,395.2296
1151.614,395.1086
1152.096,395.0358
1152.578,394.6392
1153.06,392.9904
1153.542,391.3641
1154.025,391.5198
1154.507,393.03
1154.989,394.0374
1155.471,394.0844
1155.953,394.0644
1156.435,394.7669
1156.917,394.6458
1157.399,391.5564
1157.881,389.1763
1158.364,391.2381
1158.846,395.1076
1159.328,396.3274
1159.81,394.6928
1160.292,392.6246
1160.774,389.1014
1161.256,387.0873
1161.738,387.3137
1162.22,388.1216
1162.703,389.3487
1163.185,390.3017
1163.667,390.2312
1164.149,389.4173
1164.631,388.7302
1165.113,388.0936
1165.595,388.2635
1166.077,389.6994
1166.56,389.7144
1167.042,387.4151
1167.524,385.1457
1168.006,384.2682
1168.488,384.3211
1168.97,384.857
1169.452,385.5837
1169.934,384.639
1170.417,382.2036
1170.899,381.0577
1171.381,381.4008
1171.863,382.0654
1172.345,382.6381
1172.827,383.1341
1173.309,383.6281
1173.791,383.7679
1174.273,382.2263
1174.755,380.2242
1175.238,381.4459
1175.72,384.5688
1176.202,385.264
1176.684,383.4735
1177.166,382.7
1177.648,384.4336
1178.13,385.9542
1178.612,384.7795
1179.095,382.5091
1179.577,379.59
1180.059,377.4174
1180.541,378.3183
1181.023,381.0688
1181.505,383.5906
1181.987,385.2274
1182.469,385.1443
1182.952,381.9388
1183.434,379.9986
1183.916,383.2831
1184.398,385.9229
1184.88,383.0123
1185.362,379.3178
1185.844,380.2917
1186.326,384.0683
1186.808,385.3631
1187.291,383.3478
1187.773,381.6327
1188.255,379.7119
1188.737,379.4809
1189.219,383.0181
1189.701,385.5945
1190.183,384.7906
1190.665,382.5327
1191.147,380.4515
1191.63,378.8183
1192.112,379.069
1192.594,381.9169
1193.076,382.842
1193.558,381.3408
1194.04,380.7526
1194.522,382.1369
1195.004,382.5035
1195.487,379.9005
1195.969,376.1403
1196.451,373.4998
1196.933,372.0389
1197.415,372.6685
1197.897,374.7901
1198.379,374.6754
1198.861,372.4044
1199.344,370.3412
1199.826,369.2655
1200.308,369.3868
1200.79,371.0152
1201.272,372.7933
1201.754,372.6036
1202.236,371.9539
1202.718,373.4931
1203.2,375.8339
1203.682,376.4444
1204.165,375.5745
1204.647,374.8318
1205.129,374.6675
1205.611,374.4126
1206.093,373.5296
1206.575,372.7881
1207.057,372.619
1207.539,372.6883
1208.022,372.7928
1208.504,372.9853
1208.986,373.3898
1209.468,373.9532
1209.95,374.5156
1210.432,375.1557
1210.914,375.3973
1211.396,375.1482
1211.879,374.5372
1212.361,372.8044
1212.843,371.9955
1213.325,373.7834
1213.807,376.0704
1214.289,376.1054
1214.771,374.5394
1215.253,374.9412
1215.735,377.8265
1216.218,377.3853
1216.7,373.1571
1217.182,370.02
1217.664,369.0901
1218.146,369.7671
1218.628,371.7928
1219.11,374.052
1219.592,375.1238
1220.074,375.3261
1220.557,375.3414
1221.039,375.1163
1221.521,374.2772
1222.003,373.0916
1222.485,372.4967
1222.967,372.6231
1223.449,372.9233
1223.931,373.2662
1224.414,372.6969
1224.896,369.3919
1225.378,366.0887
1225.86,365.0438
1226.342,365.1523
1226.824,365.8988
1227.306,366.541
1227.788,365.5284
1228.271,362.8576
1228.753,361.4163
1229.235,362.8519
1229.717,363.6523
1230.199,362.217
1230.681,361.6808
1231.163,363.856
1231.645,366.2248
1232.127,367.2079
1232.609,366.8576
1233.092,364.8314
1233.574,361.2181
1234.056,361.0361
1234.538,364.9549
1235.02,366.2926
1235.502,364.2398
1235.984,362.5909
1236.466,362.6556
1236.949,362.9661
1237.431,362.2878
1237.913,361.8055
1238.395,364.1835
1238.877,367.8249
1239.359,368.6412
1239.841,367.7157
1240.323,368.0448
1240.806,369.2013
1241.288,368.1312
1241.77,364.3846
1242.252,361.814
1242.734,362.9278
1243.216,364.7485
1243.698,365.7556
1244.18,366.3192
1244.662,366.9268
1245.145,367.0177
1245.627,365.1581
1246.109,362.5931
1246.591,362.6103
1247.073,365.748
1247.555,366.6969
1248.037,363.4935
1248.519,361.3054
1249.001,360.8246
1249.484,360.3707
1249.966,359.325
1250.448,358.2809
1250.93,357.5964
1251.412,357.4724
1251.894,358.4511
1252.376,360.3391
1252.858,361.8829
1253.341,362.9958
1253.823,362.6347
1254.305,360.9393
1254.787,359.4817
1255.269,358.7862
1255.751,358.7213
1256.233,359.2242
1256.715,360.1477
1257.198,362.2894
1257.68,363.8228
1258.162,361.8492
1258.644,358.675
1259.126,356.9284
1259.608,356.5579
1260.09,357.0024
1260.572,358.0173
1261.054,358.6919
1261.536,358.2833
1262.019,358.6409
1262.501,361.5562
1262.983,363.2542
1263.465,361.8536
1263.947,359.8159
1264.429,358.4333
1264.911,357.5264
1265.393,356.7486
1265.876,356.2049
1266.358,356.8815
1266.84,358.8954
1267.322,359.7148
1267.804,359.2486
1268.286,359.0437
1268.768,359.4486
1269.25,359.7653
1269.733,359.6126
1270.215,359.1023
1270.697,358.306
1271.179,357.2901
1271.661,355.8297
1272.143,354.449
1272.625,353.8049
1273.107,353.866
1273.589,354.8984
1274.072,356.4635
1274.554,356.977
1275.036,355.8144
1275.518,355.1297
1276.0,355.9201
1276.482,356.762
1276.964,357.1351
1277.446,357.75
1277.929,359.2844
1278.411,360.6868
1278.893,361.2824
1279.375,360.6923
1279.857,357.1858
1280.339,350.6628
1280.821,349.4936
1281.303,353.8338
1281.786,356.5585
1282.268,356.7027
