Raman Shift,Intensity 
400,2.408836943
401,2.390579937
402,2.409394192
403,2.409292665
404,2.405693837
405,2.382941541
406,2.396875757
407,2.399307862
408,2.409208905
409,2.397719024
410,2.390143491
411,2.387087773
412,2.406789427
413,2.384465491
414,2.407690743
415,2.405180268
416,2.399471511
417,2.404818342
418,2.407028588
419,2.381909683
420,2.399844575
421,2.404850943
422,2.385783043
423,2.410902474
424,2.396614034
425,2.397203756
426,2.407677255
427,2.405936906
428,2.392803525
429,2.411277319
430,2.396023709
431,2.386671241
432,2.422006892
433,2.394475287
434,2.394996425
435,2.414562891
436,2.406061487
437,2.400028334
438,2.405659925
439,2.409573051
440,2.404254707
441,2.391532256
442,2.401130645
443,2.385493475
444,2.392973869
445,2.40161019
446,2.396954126
447,2.398922113
448,2.392854584
449,2.426725234
450,2.411850375
451,2.395643033
452,2.417179699
453,2.392237698
454,2.399764738
455,2.397459376
456,2.398216191
457,2.418458278
458,2.389455346
459,2.40003809
460,2.381501881
461,2.396054409
462,2.400239552
463,2.399141194
464,2.401324253
465,2.408551813
466,2.391478853
467,2.39176939
468,2.398674977
469,2.39315079
470,2.392244108
471,2.403932957
472,2.431125985
473,2.393599361
474,2.406267942
475,2.394924049
476,2.396335419
477,2.409490829
478,2.410084899
479,2.413962249
480,2.400396986
481,2.393599466
482,2.390129724
483,2.404591704
484,2.403440827
485,2.403718733
486,2.406943011
487,2.42120202
488,2.395662941
489,2.401054898
490,2.392920541
491,2.394284043
492,2.395025431
493,2.401886022
494,2.399254243
495,2.392453507
496,2.413521279
497,2.38862101
498,2.422399717
499,2.388099462
500,2.398704307
501,2.40529634
502,2.409414795
503,2.407642939
504,2.403121478
505,2.402020008
506,2.396494561
507,2.401980362
508,2.408085518
509,2.434292906
510,2.403721993
511,2.402367935
512,2.377153382
513,2.404451035
514,2.403611222
515,2.406344497
516,2.395338895
517,2.399474686
518,2.398579556
519,2.393060804
520,2.383062742
521,2.388122606
522,2.409964058
523,2.400461182
524,2.41010133
525,2.399624629
526,2.400803689
527,2.398395155
528,2.385099804
529,2.419712376
530,2.396708154
531,2.380501184
532,2.386414643
533,2.393521015
534,2.383063501
535,2.403932392
536,2.4208843
537,2.402959879
538,2.411723406
539,2.403729392
540,2.408275902
541,2.400562791
542,2.401225609
543,2.384189972
544,2.396016891
545,2.399947303
546,2.401167227
547,2.404093856
548,2.38648534
549,2.409573506
550,2.398589725
551,2.41619487
552,2.411255824
553,2.389423133
554,2.395543524
555,2.422134715
556,2.397120284
557,2.403962861
558,2.392373431
559,2.413227428
560,2.395628925
561,2.400963933
562,2.410468207
563,2.408925045
564,2.392111489
565,2.402883649
566,2.407439902
567,2.405015535
568,2.391885854
569,2.370814803
570,2.384254006
571,2.381597985
572,2.411323532
573,2.393263303
574,2.409612056
575,2.398458424
576,2.39253498
577,2.379096823
578,2.391424353
579,2.389802589
580,2.411344804
581,2.38641233
582,2.435982956
583,2.391825051
584,2.411174732
585,2.390850629
586,2.40137231
587,2.402166747
588,2.412317663
589,2.404721841
590,2.38491309
591,2.398833054
592,2.404877195
593,2.408055429
594,2.422448199
595,2.386467038
596,2.403172595
597,2.421124607
598,2.397330729
599,2.397300579
600,2.410007609
601,2.394908814
602,2.392340063
603,2.396011872
604,2.402949466
605,2.408804592
606,2.403502451
607,2.391452174
608,2.41557533
609,2.405561898
610,2.413635967
611,2.379957133
612,2.415156877
613,2.406782896
614,2.4011325
615,2.400684745
616,2.402263406
617,2.398765095
618,2.406234672
619,2.395852222
620,2.389800658
621,2.400884228
622,2.395502421
623,2.398772335
624,2.381642156
625,2.396739526
626,2.411015064
627,2.395829523
628,2.40205217
629,2.39133532
630,2.406578257
631,2.398943183
632,2.389083974
633,2.411194295
634,2.400876194
635,2.396292121
636,2.407655265
637,2.404147653
638,2.395627007
639,2.404171175
640,2.387903008
641,2.40853911
642,2.371534721
643,2.40043643
644,2.392378032
645,2.403492924
646,2.389645517
647,2.401135128
648,2.381429665
649,2.408599254
650,2.39595579
651,2.401391176
652,2.399029046
653,2.39337057
654,2.402872813
655,2.397084045
656,2.393931867
657,2.388150216
658,2.401719342
659,2.389866131
660,2.409485365
661,2.40596751
662,2.397254106
663,2.390024494
664,2.403414803
665,2.393291269
666,2.392512577
667,2.399576097
668,2.395093158
669,2.407819572
670,2.390127533
671,2.391979204
672,2.393883215
673,2.40396048
674,2.384981231
675,2.4074053
676,2.397740011
677,2.391435249
678,2.392084578
679,2.389626236
680,2.405859085
681,2.40463526
682,2.390470501
683,2.402552529
684,2.384597775
685,2.395983053
686,2.404145067
687,2.399650641
688,2.389534727
689,2.396496499
690,2.379388668
691,2.407887455
692,2.422129445
693,2.394953333
694,2.411212389
695,2.389352033
696,2.390482243
697,2.396875647
698,2.400889043
699,2.404521531
700,2.407897919
701,2.413214977
702,2.402706133
703,2.410476428
704,2.399512916
705,2.403369963
706,2.389445593
707,2.413240165
708,2.375044883
709,2.404928923
710,2.379673438
711,2.392415853
712,2.385645283
713,2.380940671
714,2.40188891
715,2.415113355
716,2.411978023
717,2.39226705
718,2.409313052
719,2.389932447
720,2.393504105
721,2.430701653
722,2.416221605
723,2.419832277
724,2.409670827
725,2.401501806
726,2.414905935
727,2.409028943
728,2.41093528
729,2.401528139
730,2.397098456
731,2.402554559
732,2.408419718
733,2.390644511
734,2.400676091
735,2.392647205
736,2.395087219
737,2.393063002
738,2.39140789
739,2.375368697
740,2.392935731
741,2.40908684
742,2.39861653
743,2.409725104
744,2.389222893
745,2.395142376
746,2.398103406
747,2.396886175
748,2.399111103
749,2.405976953
750,2.410124995
751,2.405687571
752,2.405396273
753,2.399801555
754,2.411834516
755,2.408747307
756,2.402057759
757,2.411293284
758,2.38433852
759,2.412758647
760,2.401269534
761,2.397529274
762,2.383078509
763,2.415575681
764,2.40650522
765,2.40807517
766,2.404180883
767,2.402227365
768,2.391007703
769,2.390375627
770,2.400759409
771,2.401956147
772,2.396149869
773,2.407063011
774,2.397629836
775,2.392289089
776,2.386986039
777,2.384106952
778,2.405678605
779,2.397368933
780,2.403689808
781,2.379783767
782,2.404081294
783,2.405699997
784,2.390429925
785,2.390160342
786,2.393048636
787,2.393233548
788,2.394081928
789,2.40104937
790,2.399583295
791,2.398221862
792,2.404435773
793,2.405618426
794,2.401350346
795,2.393085795
796,2.387489974
797,2.40866947
798,2.397749684
799,2.412949298
800,2.40688133
801,2.385406619
802,2.409081714
803,2.386409879
804,2.408916603
805,2.402825734
806,2.396826744
807,2.414088754
808,2.403809735
809,2.402289961
810,2.411410634
811,2.413048427
812,2.400247731
813,2.406039254
814,2.3818901
815,2.405275571
816,2.410396314
817,2.401142863
818,2.407402545
819,2.379303941
820,2.410753552
821,2.397985953
822,2.41367602
823,2.385970335
824,2.402718655
825,2.405625746
826,2.406451387
827,2.392260253
828,2.390951762
829,2.408084291
830,2.402712827
831,2.402759632
832,2.387375222
833,2.397517671
834,2.401654871
835,2.404093175
836,2.406076825
837,2.436625411
838,2.40536271
839,2.400788794
840,2.403586178
841,2.399854615
842,2.393725937
843,2.391591487
844,2.396186323
845,2.403401956
846,2.399229457
847,2.382932927
848,2.413317534
849,2.39952587
850,2.395020432
851,2.393792123
852,2.385311942
853,2.379970691
854,2.389159884
855,2.406652047
856,2.393080606
857,2.406551988
858,2.41538882
859,2.39399981
860,2.403128907
861,2.392326157
862,2.406849303
863,2.390679178
864,2.409127664
865,2.379875974
866,2.404234934
867,2.393418
868,2.38042611
869,2.414620569
870,2.399610516
871,2.386332849
872,2.3938761
873,2.406210847
874,2.384105218
875,2.402158747
876,2.399649505
877,2.404407504
878,2.387552239
879,2.40422217
880,2.398427771
881,2.38776446
882,2.409262918
883,2.388834521
884,2.400773435
885,2.418665503
886,2.404585665
887,2.397445683
888,2.415985204
889,2.396402311
890,2.391161568
891,2.407057912
892,2.398993983
893,2.407019917
894,2.400170982
895,2.405114031
896,2.391973328
897,2.39946773
898,2.417469127
899,2.396970447
900,2.406584911
901,2.406786845
902,2.397441965
903,2.383545833
904,2.393621675
905,2.39380175
906,2.38734308
907,2.395826492
908,2.395690024
909,2.394248737
910,2.399742985
911,2.401822639
912,2.405183808
913,2.392216842
914,2.394379242
915,2.395492916
916,2.408328951
917,2.415437456
918,2.380504496
919,2.405088722
920,2.389151749
921,2.395021211
922,2.386954067
923,2.385623599
924,2.391668946
925,2.405072176
926,2.390670349
927,2.405762171
928,2.395191797
929,2.40429089
930,2.40224502
931,2.401309485
932,2.408822749
933,2.378628463
934,2.409428737
935,2.393323032
936,2.39632354
937,2.399468767
938,2.408546086
939,2.405639
940,2.399554586
941,2.396602423
942,2.383215127
943,2.415882127
944,2.390680267
945,2.390897734
946,2.407596959
947,2.407266831
948,2.39665838
949,2.403330157
950,2.40706107
951,2.411593433
952,2.385981293
953,2.397865523
954,2.4010621
955,2.405162773
956,2.41507459
957,2.404369974
958,2.378112559
959,2.407181026
960,2.400891056
961,2.383884025
962,2.407051063
963,2.385782237
964,2.401305951
965,2.395020595
966,2.389266551
967,2.405157745
968,2.39134084
969,2.39998777
970,2.417325744
971,2.394874506
972,2.383264033
973,2.406432545
974,2.398650944
975,2.398491952
976,2.401591291
977,2.404531456
978,2.395613474
979,2.401172687
980,2.403878264
981,2.408129695
982,2.411182186
983,2.404436432
984,2.39515758
985,2.410890574
986,2.407955628
987,2.411170012
988,2.410225812
989,2.398418365
990,2.399267763
991,2.395981052
992,2.392687515
993,2.391617132
994,2.38911097
995,2.394899987
996,2.409074934
997,2.390769958
998,2.423258201
999,2.418483229
1000,2.389038793
1001,2.400789872
1002,2.413992578
1003,2.379894392
1004,2.389924634
1005,2.397747278
1006,2.39760507
1007,2.389222754
1008,2.392104201
1009,2.402368436
1010,2.39078002
1011,2.406446183
1012,2.38814202
1013,2.416900985
1014,2.412715473
1015,2.419554059
1016,2.382322397
1017,2.397373602
1018,2.394435619
1019,2.39182074
1020,2.412674451
1021,2.392595422
1022,2.389943088
1023,2.394899173
1024,2.409406321
1025,2.394330083
1026,2.397031527
1027,2.391858998
1028,2.393461831
1029,2.381007817
1030,2.391412967
1031,2.386431738
1032,2.39875564
1033,2.402242133
1034,2.389548139
1035,2.389041949
1036,2.396987026
1037,2.390363781
1038,2.396902648
1039,2.396128647
1040,2.41051944
1041,2.410212878
1042,2.39832511
1043,2.398442646
1044,2.398223521
1045,2.390173951
1046,2.396198718
1047,2.396502509
1048,2.406014401
1049,2.395803703
1050,2.413409814
1051,2.392195293
1052,2.37737531
1053,2.409881106
1054,2.417602434
1055,2.417099725
1056,2.398260226
1057,2.396103099
1058,2.393289635
1059,2.408796447
1060,2.413973519
1061,2.410163636
1062,2.422129857
1063,2.425554392
1064,2.441700784
1065,2.439368179
1066,2.431575269
1067,2.462024992
1068,2.470953542
1069,2.524871928
1070,2.530274686
1071,2.562416355
1072,2.597737744
1073,2.649027082
1074,2.7082735
1075,2.751619694
1076,2.815753936
1077,2.872002532
1078,2.934255258
1079,2.999548549
1080,3.07614508
1081,3.128663827
1082,3.174393859
1083,3.257853573
1084,3.297098083
1085,3.342036639
1086,3.379449324
1087,3.405131219
1088,3.40672602
1089,3.403807594
1090,3.389716387
1091,3.35287063
1092,3.306472926
1093,3.253612979
1094,3.209024745
1095,3.144139671
1096,3.069344266
1097,2.992271536
1098,2.94907135
1099,2.86916601
1100,2.8254458
1101,2.762091128
1102,2.692786912
1103,2.639594233
1104,2.597286546
1105,2.572427702
1106,2.542613298
1107,2.505367003
1108,2.508054933
1109,2.468308106
1110,2.433004076
1111,2.443273517
1112,2.410310225
1113,2.424071513
1114,2.404555883
1115,2.403666456
1116,2.404324336
1117,2.393922961
1118,2.409560738
1119,2.394419478
1120,2.411234924
1121,2.401076111
1122,2.401067475
1123,2.398765173
1124,2.399156299
1125,2.399000722
1126,2.397192095
1127,2.408805341
1128,2.404879913
1129,2.394768971
1130,2.389998086
1131,2.407566278
1132,2.409972023
1133,2.402734703
1134,2.388374308
1135,2.398448265
1136,2.382025056
1137,2.396034159
1138,2.40665088
1139,2.380200274
1140,2.395166245
1141,2.409507603
1142,2.402813384
1143,2.40769695
1144,2.389013189
1145,2.387775249
1146,2.387496845
1147,2.409504424
1148,2.411419026
1149,2.398835852
1150,2.413351898
1151,2.395163387
1152,2.395149377
1153,2.391276275
1154,2.392121302
1155,2.411891117
1156,2.400391145
1157,2.397712403
1158,2.400240015
1159,2.418586411
1160,2.400798875
1161,2.397536144
1162,2.39826922
1163,2.391720065
1164,2.388772862
1165,2.404273275
1166,2.390554926
1167,2.41735497
1168,2.397321669
1169,2.394197603
1170,2.381253159
1171,2.407169085
1172,2.401538647
1173,2.392751422
1174,2.424754124
1175,2.38581466
1176,2.394849592
1177,2.401588066
1178,2.402481785
1179,2.416903718
1180,2.388555316
1181,2.416426433
1182,2.404319242
1183,2.414987004
1184,2.40491678
1185,2.390174752
1186,2.421771407
1187,2.422460743
1188,2.404081396
1189,2.412187002
1190,2.417138108
1191,2.407271835
1192,2.391486828
1193,2.403059869
1194,2.403352358
1195,2.412320726
1196,2.383430332
1197,2.398261926
1198,2.412169646
1199,2.400070503
1200,2.40347903
1201,2.398460952
1202,2.409199244
1203,2.38592225
1204,2.410698723
1205,2.405358107
1206,2.401351356
1207,2.408237662
1208,2.376968518
1209,2.38953149
1210,2.390620209
1211,2.409139725
1212,2.389573083
1213,2.407556137
1214,2.389842412
1215,2.419972242
1216,2.409551511
1217,2.408056688
1218,2.409609186
1219,2.394905663
1220,2.397495692
1221,2.38762731
1222,2.392139064
1223,2.40004786
1224,2.410722543
1225,2.398877884
1226,2.384115529
1227,2.39612378
1228,2.402494506
1229,2.404852516
1230,2.411349927
1231,2.381134372
1232,2.404759347
1233,2.398990376
1234,2.408081027
1235,2.406965637
1236,2.410796129
1237,2.397373999
1238,2.394425277
1239,2.392975045
1240,2.411976083
1241,2.407460421
1242,2.385959651
1243,2.384715812
1244,2.387408785
1245,2.410723707
1246,2.41423793
1247,2.412098517
1248,2.397607184
1249,2.417093998
1250,2.390937058
1251,2.408622945
1252,2.394845034
1253,2.411391299
1254,2.385731692
1255,2.413812089
1256,2.387595472
1257,2.397085108
1258,2.37757506
1259,2.395294295
1260,2.390665775
1261,2.386582283
1262,2.404464599
1263,2.391829047
1264,2.396373932
1265,2.398709337
1266,2.409035699
1267,2.38717916
1268,2.401575705
1269,2.383746385
1270,2.390321989
1271,2.406198904
1272,2.391697571
1273,2.395555453
1274,2.392356643
1275,2.394946781
1276,2.404062368
1277,2.395092053
1278,2.403652735
1279,2.405138186
1280,2.418236436
1281,2.400912584
1282,2.418615872
1283,2.392803361
1284,2.422487266
1285,2.398925038
1286,2.396281906
1287,2.400803856
1288,2.404327474
1289,2.403533376
1290,2.402180937
1291,2.39763818
1292,2.401644122
1293,2.404816232
1294,2.409173388
1295,2.391546772
1296,2.408258413
1297,2.399489024
1298,2.398941172
1299,2.404524295
1300,2.407539106
1301,2.400426178
1302,2.395202131
1303,2.407501239
1304,2.411003991
1305,2.405424781
1306,2.401463947
1307,2.407091585
1308,2.387682985
1309,2.39944811
1310,2.420505218
1311,2.396354231
1312,2.400589819
1313,2.390025231
1314,2.401936927
1315,2.393809289
1316,2.40411179
1317,2.406716757
1318,2.395227792
1319,2.406056225
1320,2.400807534
1321,2.383055152
1322,2.399706547
1323,2.393361673
1324,2.399257125
1325,2.397208666
1326,2.385794195
1327,2.392975152
1328,2.40084071
1329,2.419972761
1330,2.403094518
1331,2.412985957
1332,2.385883904
1333,2.397150201
1334,2.421890248
1335,2.414094092
1336,2.403859748
1337,2.39282136
1338,2.402199119
1339,2.389125669
1340,2.388546355
1341,2.397781063
1342,2.398734741
1343,2.412322403
1344,2.391136631
1345,2.404476338
1346,2.404862121
1347,2.396670731
1348,2.414576609
1349,2.386366404
1350,2.398399585
1351,2.412489016
1352,2.393676521
1353,2.397648299
1354,2.419657914
1355,2.395842795
1356,2.393095696
1357,2.413801293
1358,2.39960368
1359,2.399537476
1360,2.404666904
1361,2.396275691
1362,2.39041406
1363,2.402612076
1364,2.401269077
1365,2.386897699
1366,2.423952881
1367,2.40043445
1368,2.389990679
1369,2.382743297
1370,2.406859352
1371,2.395126255
1372,2.405399507
1373,2.418610888
1374,2.402102047
1375,2.399398735
1376,2.394827083
1377,2.408465235
1378,2.39884202
1379,2.405049846
1380,2.409877098
1381,2.386737315
1382,2.397554671
1383,2.390423413
1384,2.400982378
1385,2.38606386
1386,2.3970673
1387,2.403764782
1388,2.390105755
1389,2.391581561
1390,2.403584944
1391,2.403173673
1392,2.406002159
1393,2.419115199
1394,2.386491008
1395,2.392328074
1396,2.392032745
1397,2.409953854
1398,2.412084073
1399,2.413116301
1400,2.384612126
1401,2.418553515
1402,2.411352526
1403,2.413484108
1404,2.42821954
1405,2.435164196
1406,2.429236856
1407,2.455036913
1408,2.426659808
1409,2.436876243
1410,2.457338507
1411,2.441845289
1412,2.481326121
1413,2.490034899
1414,2.484917825
1415,2.502725228
1416,2.537172528
1417,2.532470981
1418,2.557686924
1419,2.563145276
1420,2.57820441
1421,2.600006475
1422,2.608992355
1423,2.629838908
1424,2.6318516
1425,2.651132079
1426,2.654638611
1427,2.672871368
1428,2.690249973
1429,2.695360429
1430,2.706900661
1431,2.691660768
1432,2.696778529
1433,2.69945468
1434,2.693133045
1435,2.697096151
1436,2.676859681
1437,2.662522138
1438,2.670288777
1439,2.654874121
1440,2.64683849
1441,2.63211296
1442,2.599791532
1443,2.594032192
1444,2.586804062
1445,2.570098856
1446,2.548203144
1447,2.535879062
1448,2.537956107
1449,2.51653395
1450,2.497589754
1451,2.489509114
1452,2.471126072
1453,2.470162039
1454,2.456661872
1455,2.439786855
1456,2.442728942
1457,2.43302247
1458,2.446362716
1459,2.432040804
1460,2.420111165
1461,2.423907102
1462,2.412106096
1463,2.403080094
1464,2.409035581
1465,2.420413392
1466,2.410962588
1467,2.415776637
1468,2.411932939
1469,2.408861553
1470,2.391086046
1471,2.393309194
1472,2.405995683
1473,2.411798484
1474,2.402614337
1475,2.411339729
1476,2.400008908
1477,2.40989605
1478,2.426961927
1479,2.391905792
1480,2.402339508
1481,2.414192952
1482,2.413419019
1483,2.410503691
1484,2.402630132
1485,2.410227015
1486,2.404355808
1487,2.423022744
1488,2.401954334
1489,2.407322066
1490,2.408457478
1491,2.394126424
1492,2.404933258
1493,2.408645376
1494,2.394332114
1495,2.403339595
1496,2.414230314
1497,2.390821711
1498,2.395921742
1499,2.39057694
1500,2.402905622
1501,2.413389727
1502,2.39052856
1503,2.412597758
1504,2.3991942
1505,2.397193411
1506,2.390850085
1507,2.406539321
1508,2.420518207
1509,2.396537173
1510,2.408850116
1511,2.399733215
1512,2.405902185
1513,2.411936153
1514,2.388985944
1515,2.416186422
1516,2.399189578
1517,2.406262802
1518,2.401549322
1519,2.409261152
1520,2.414299584
1521,2.414851923
1522,2.409054346
1523,2.417270901
1524,2.397012357
1525,2.400693362
1526,2.416265267
1527,2.403761359
1528,2.40032227
1529,2.41851037
1530,2.408668086
1531,2.408309901
1532,2.420322847
1533,2.408987628
1534,2.406191699
1535,2.406440309
1536,2.413289543
1537,2.425930946
1538,2.410401869
1539,2.406981715
1540,2.434578689
1541,2.408215009
1542,2.40939557
1543,2.437568919
1544,2.44070386
1545,2.420015471
1546,2.425478986
1547,2.408616598
1548,2.431779757
1549,2.421957144
1550,2.422274264
1551,2.414376182
1552,2.418204025
1553,2.429462234
1554,2.432455265
1555,2.441976257
1556,2.441043522
1557,2.428276415
1558,2.445541997
1559,2.422435033
1560,2.428591882
1561,2.440227733
1562,2.445333528
1563,2.424455031
1564,2.436759378
1565,2.427568049
1566,2.429789693
1567,2.42243299
1568,2.433003571
1569,2.4451376
1570,2.428327269
1571,2.440592984
1572,2.421923277
1573,2.436073903
1574,2.437726076
1575,2.439031625
1576,2.433831921
1577,2.448192754
1578,2.444029586
1579,2.425542097
1580,2.445397262
1581,2.438285224
1582,2.437888557
1583,2.454174742
1584,2.440526816
1585,2.456652562
1586,2.43586997
1587,2.454375005
1588,2.455876534
1589,2.462571104
1590,2.433290736
1591,2.433258222
1592,2.45062393
1593,2.461893634
1594,2.42279101
1595,2.444241068
1596,2.44453989
1597,2.444687078
1598,2.453113335
1599,2.435284891
1600,2.452609698
1601,2.440075483
1602,2.454743989
1603,2.440451711
1604,2.439516091
1605,2.464154868
1606,2.469592695
1607,2.439101853
1608,2.431478578
1609,2.439637807
1610,2.45557283
1611,2.446259212
1612,2.455638017
1613,2.433054569
1614,2.444289932
1615,2.462026742
1616,2.46450555
1617,2.44784131
1618,2.43565504
1619,2.442604523
1620,2.445651704
1621,2.462722901
1622,2.447278385
1623,2.456789803
1624,2.450633343
1625,2.446442383
1626,2.450114245
1627,2.435611913
1628,2.435667046
1629,2.446707334
1630,2.439920612
1631,2.44007707
1632,2.437382651
1633,2.442548398
1634,2.456323876
1635,2.447825836
1636,2.442858773
1637,2.455793968
1638,2.450547849
1639,2.453869672
1640,2.430874213
1641,2.453058521
1642,2.43226986
1643,2.446712465
1644,2.431966401
1645,2.437470218
1646,2.44068049
1647,2.434795849
1648,2.42933463
1649,2.453957936
1650,2.424060296
1651,2.444130514
1652,2.424166352
1653,2.42457549
1654,2.425757068
1655,2.416462134
1656,2.427453732
1657,2.441066456
1658,2.444656725
1659,2.421530388
1660,2.416856904
1661,2.425314539
1662,2.424220735
1663,2.434088357
1664,2.443980627
1665,2.410431088
1666,2.430952891
1667,2.420733003
1668,2.423846794
1669,2.404070765
1670,2.423566275
1671,2.435878317
1672,2.420415843
1673,2.423290634
1674,2.416762687
1675,2.414661849
1676,2.426672142
1677,2.41448864
1678,2.411882636
1679,2.385065155
1680,2.414102979
1681,2.409798478
1682,2.425394367
1683,2.416925272
1684,2.423103802
1685,2.405355531
1686,2.435658866
1687,2.425618308
1688,2.438627805
1689,2.412911804
1690,2.410353769
1691,2.436054367
1692,2.408835693
1693,2.412673974
1694,2.401794102
1695,2.410863922
1696,2.412674791
1697,2.427293877
1698,2.406309759
1699,2.395199891
1700,2.417569564
1701,2.405747247
1702,2.400663205
1703,2.41372773
1704,2.411859241
1705,2.396435956
1706,2.396619051
1707,2.400506024
1708,2.411270624
1709,2.405871258
1710,2.39926029
1711,2.398634872
1712,2.400016882
1713,2.394698809
1714,2.407455994
1715,2.396827747
1716,2.399235159
1717,2.409971341
1718,2.391795176
1719,2.407339724
1720,2.410615011
1721,2.403743941
1722,2.398919619
1723,2.402014724
1724,2.40379764
1725,2.418632325
1726,2.4233289
1727,2.424087443
1728,2.422964475
1729,2.430659597
1730,2.437827157
1731,2.424179602
1732,2.444683176
1733,2.462916882
1734,2.468886557
1735,2.4506269
1736,2.48512105
1737,2.472631965
1738,2.46463044
1739,2.495381889
1740,2.506675303
1741,2.486183014
1742,2.520792257
1743,2.514875313
1744,2.530170817
1745,2.530831425
1746,2.537034764
1747,2.551331496
1748,2.541409017
1749,2.539606022
1750,2.568169657
1751,2.544348629
1752,2.564001642
1753,2.554640871
1754,2.556690439
1755,2.533165459
1756,2.530734577
1757,2.530120844
1758,2.538747355
1759,2.519558193
1760,2.519184587
1761,2.512518974
1762,2.518410405
1763,2.514571045
1764,2.459677748
1765,2.487526517
1766,2.471159361
1767,2.473751147
1768,2.464273041
1769,2.445250012
1770,2.445504568
1771,2.431298864
1772,2.447939703
1773,2.436411194
1774,2.434163495
1775,2.446577911
1776,2.422254399
1777,2.424890586
1778,2.398225346
1779,2.414114364
1780,2.416496491
1781,2.411790144
1782,2.406912916
1783,2.421650815
1784,2.40366991
1785,2.391133958
1786,2.415991456
1787,2.39659977
1788,2.392150736
1789,2.410991533
1790,2.397971567
1791,2.395313864
1792,2.418826228
1793,2.384917923
1794,2.39010675
1795,2.375830912
1796,2.387944045
1797,2.413458704
1798,2.402494886
1799,2.411637709
1800,2.401580136
1801,2.408294345
1802,2.394491021
1803,2.416905923
1804,2.403926821
1805,2.407953659
1806,2.384643878
1807,2.397357679
1808,2.4012316
1809,2.394375394
1810,2.393818007
1811,2.395283754
1812,2.403544205
1813,2.408887474
1814,2.40426579
1815,2.406044263
1816,2.411148326
1817,2.40465895
1818,2.403529609
1819,2.402426204
1820,2.408248771
1821,2.398276571
1822,2.383866283
1823,2.399279929
1824,2.384463447
1825,2.394110587
1826,2.390882922
1827,2.392604373
1828,2.405338841
1829,2.411816816
1830,2.379722279
1831,2.394287061
1832,2.388155832
1833,2.405712557
1834,2.40304356
1835,2.39801211
1836,2.418907814
1837,2.409422673
1838,2.407146255
1839,2.403416036
1840,2.420534139
1841,2.397515309
1842,2.392257016
1843,2.398297408
1844,2.411161056
1845,2.39095343
1846,2.38923834
1847,2.386272705
1848,2.401397184
1849,2.403470693
1850,2.416504192
1851,2.400417392
1852,2.404166395
1853,2.395560703
1854,2.389206708
1855,2.397403802
1856,2.396557364
1857,2.391869076
1858,2.397782026
1859,2.389707861
1860,2.404639115
1861,2.403295006
1862,2.410619499
1863,2.396207978
1864,2.409154846
1865,2.419247313
1866,2.412569495
1867,2.398912345
1868,2.408148471
1869,2.394528952
1870,2.393967402
1871,2.406257429
1872,2.403498671
1873,2.401846047
1874,2.413433425
1875,2.378371869
1876,2.407408036
1877,2.398504995
1878,2.39375378
1879,2.40420698
1880,2.405946482
1881,2.421188251
1882,2.396058277
1883,2.39611434
1884,2.377596532
1885,2.408695767
1886,2.401346612
1887,2.395130972
1888,2.401855547
1889,2.404765351
1890,2.40401435
1891,2.411338068
1892,2.389100862
1893,2.384602127
1894,2.391629917
1895,2.390326369
1896,2.393123898
1897,2.397061987
1898,2.387977485
1899,2.399965305
1900,2.387805738
1901,2.392687413
1902,2.399395726
1903,2.401626572
1904,2.400111071
1905,2.380576992
1906,2.390622168
1907,2.403472759
1908,2.374826287
1909,2.412613031
1910,2.400034886
1911,2.421499332
1912,2.413079611
1913,2.38940842
1914,2.406524558
1915,2.3799683
1916,2.399223036
1917,2.37586393
1918,2.405942011
1919,2.398754787
1920,2.40131023
1921,2.406975823
1922,2.397222791
1923,2.397267289
1924,2.395723335
1925,2.402691757
1926,2.40640502
1927,2.422346779
1928,2.397241713
1929,2.400159635
1930,2.410797251
1931,2.399959218
1932,2.413684963
1933,2.378447861
1934,2.413023875
1935,2.384257097
1936,2.388543441
1937,2.402222148
1938,2.420128866
1939,2.39952156
1940,2.376887656
1941,2.399211114
1942,2.400459396
1943,2.391599004
1944,2.402897857
1945,2.412880337
1946,2.393335878
1947,2.380957852
1948,2.389263297
1949,2.424674505
1950,2.411619831
1951,2.402751323
1952,2.39810532
1953,2.405251107
1954,2.382928425
1955,2.412390301
1956,2.407078985
1957,2.394332709
1958,2.408390456
1959,2.379326776
1960,2.403052595
1961,2.388626581
1962,2.391439563
1963,2.412335984
1964,2.402513827
1965,2.422228124
1966,2.397094401
1967,2.409554357
1968,2.383661616
1969,2.416250602
1970,2.406238716
1971,2.395853205
1972,2.40859692
1973,2.387699706
1974,2.42167788
1975,2.38700473
1976,2.391812461
1977,2.400641003
1978,2.393505285
1979,2.412310334
1980,2.396142453
1981,2.39086798
1982,2.391413514
1983,2.39029546
1984,2.403443541
1985,2.398859202
1986,2.39694496
1987,2.414745542
1988,2.39411969
1989,2.402775591
1990,2.399260998
1991,2.396439159
1992,2.406335751
1993,2.386074375
1994,2.423582157
1995,2.415142135
1996,2.404544069
1997,2.394765832
1998,2.379823597
1999,2.415844378
2000,2.402229584
2001,2.40992535
2002,2.401238881
2003,2.391034455
2004,2.409175977
2005,2.395286068
2006,2.401606854
2007,2.400351715
2008,2.401868352
2009,2.393589366
2010,2.398382818
2011,2.401924009
2012,2.41122289
2013,2.394781145
2014,2.390840285
2015,2.383943135
2016,2.391282983
2017,2.416086784
2018,2.38619758
2019,2.396604347
2020,2.407019459
2021,2.405552165
2022,2.420970581
2023,2.399429574
2024,2.402975691
2025,2.408102962
2026,2.396852406
2027,2.389749629
2028,2.405439848
2029,2.403213874
2030,2.404569728
2031,2.416280866
2032,2.41401357
2033,2.370179889
2034,2.389847907
2035,2.414776145
2036,2.410680913
2037,2.389053872
2038,2.399272655
2039,2.405656343
2040,2.413941154
2041,2.405614706
2042,2.387401193
2043,2.395957932
2044,2.388307878
2045,2.395027194
2046,2.408645682
2047,2.396090902
2048,2.407888206
2049,2.391994191
2050,2.398045626
2051,2.381246926
2052,2.389884561
2053,2.380752116
2054,2.40460986
2055,2.401955939
2056,2.399785945
2057,2.401783764
2058,2.414366993
2059,2.3898602
2060,2.406692556
2061,2.420950897
2062,2.397135907
2063,2.390011969
2064,2.394576366
2065,2.386112385
2066,2.405018207
2067,2.385447439
2068,2.408545436
2069,2.414281898
2070,2.408769688
2071,2.395389583
2072,2.407323896
2073,2.394985093
2074,2.400206232
2075,2.393938472
2076,2.402923624
2077,2.395592438
2078,2.397108245
2079,2.399339552
2080,2.413806522
2081,2.396599501
2082,2.394146902
2083,2.404930445
2084,2.407097481
2085,2.413259249
2086,2.415597138
2087,2.420054837
2088,2.422138889
2089,2.404633227
2090,2.41854097
2091,2.398513552
2092,2.395891631
2093,2.399901036
2094,2.411487811
2095,2.409073841
2096,2.396006924
2097,2.405635248
2098,2.387923574
2099,2.401930655
2100,2.420823615
2101,2.398703704
2102,2.384469246
2103,2.405388058
2104,2.403541791
2105,2.409114891
2106,2.3902041
2107,2.40419617
2108,2.395915365
2109,2.401038835
2110,2.407634154
2111,2.395505733
2112,2.409051774
2113,2.405917565
2114,2.40803187
2115,2.401020181
2116,2.403418635
2117,2.401119681
2118,2.404239938
2119,2.412160487
2120,2.414736993
2121,2.386083804
2122,2.389315382
2123,2.399209566
2124,2.391941502
2125,2.411050415
2126,2.388701574
2127,2.39318796
2128,2.389116917
2129,2.39045432
2130,2.40339144
2131,2.385777777
2132,2.397953537
2133,2.411902669
2134,2.417545959
2135,2.409619044
2136,2.406972073
2137,2.405528314
2138,2.411673207
2139,2.402849697
2140,2.394965725
2141,2.424929666
2142,2.413394768
2143,2.394332898
2144,2.394645443
2145,2.37249189
2146,2.396725766
2147,2.378044459
2148,2.398035941
2149,2.400407852
2150,2.41852244
2151,2.395031477
2152,2.391728615
2153,2.399528432
2154,2.406850754
2155,2.394556327
2156,2.412442536
2157,2.405144738
2158,2.40501083
2159,2.405615897
2160,2.392071147
2161,2.400548437
2162,2.396982527
2163,2.407359185
2164,2.404786787
2165,2.400741602
2166,2.398587553
2167,2.384484092
2168,2.40415747
2169,2.387792127
2170,2.407912589
2171,2.415215728
2172,2.384211746
2173,2.397093282
2174,2.416211273
2175,2.404552217
2176,2.404203297
2177,2.393904454
2178,2.401569921
2179,2.400144983
2180,2.413098664
2181,2.394942348
2182,2.39042498
2183,2.400978926
2184,2.41980552
2185,2.397630311
2186,2.407754971
2187,2.379463141
2188,2.403985879
2189,2.386029743
2190,2.414072884
2191,2.403012405
2192,2.388812517
2193,2.405707314
2194,2.390442144
2195,2.401090077
2196,2.399790437
2197,2.410021456
2198,2.382972856
2199,2.395118868
2200,2.409252652
2201,2.407037958
2202,2.398474744
2203,2.409410523
2204,2.39159071
2205,2.406408396
2206,2.402006366
2207,2.404397152
2208,2.397764442
2209,2.407532618
2210,2.403640218
2211,2.412530619
2212,2.388956475
2213,2.403013806
2214,2.413439123
2215,2.389217409
2216,2.403729544
2217,2.389812074
2218,2.405987511
2219,2.420484166
2220,2.400955445
2221,2.394106357
2222,2.401299072
2223,2.39500342
2224,2.397099777
2225,2.410141294
2226,2.389695703
2227,2.39157404
2228,2.39691392
2229,2.404127216
2230,2.414450659
2231,2.375951761
2232,2.399562871
2233,2.404123978
2234,2.400766579
2235,2.406923667
2236,2.399889735
2237,2.407212657
2238,2.421869239
2239,2.391162361
2240,2.401331245
2241,2.390931318
2242,2.380970392
2243,2.416479691
2244,2.382187211
2245,2.411181082
2246,2.404302896
2247,2.381172196
2248,2.409908975
2249,2.399252182
2250,2.406721759
2251,2.388378847
2252,2.412408325
2253,2.412706344
2254,2.379423996
2255,2.410569787
2256,2.405484105
2257,2.393205753
2258,2.413636057
2259,2.402551956
2260,2.399389541
2261,2.406972395
2262,2.377248241
2263,2.393269474
2264,2.387587016
2265,2.401238387
2266,2.413931713
2267,2.419667611
2268,2.391245143
2269,2.408362511
2270,2.410157003
2271,2.403803331
2272,2.416000203
2273,2.400393312
2274,2.39187905
2275,2.404441686
2276,2.384161026
2277,2.395136153
2278,2.389803332
2279,2.393095627
2280,2.413180217
2281,2.412180975
2282,2.415225317
2283,2.389184635
2284,2.393126909
2285,2.410258094
2286,2.416965818
2287,2.410994021
2288,2.401527289
2289,2.400729827
2290,2.400561366
2291,2.4090349
2292,2.405182351
2293,2.410662287
2294,2.384151553
2295,2.396851899
2296,2.390949754
2297,2.410567166
2298,2.407454675
2299,2.405087298
2300,2.405707514
2301,2.394903583
2302,2.39970428
2303,2.408534817
2304,2.393169871
2305,2.395456564
2306,2.394559132
2307,2.394569466
2308,2.400378471
2309,2.412885925
2310,2.38275989
2311,2.396825467
2312,2.40328638
2313,2.395310136
2314,2.398458934
2315,2.396012174
2316,2.397013695
2317,2.40500411
2318,2.392671579
2319,2.397526643
2320,2.403479568
2321,2.415289152
2322,2.390106722
2323,2.394132154
2324,2.413293826
2325,2.392294857
2326,2.400914908
2327,2.401986039
2328,2.424357375
2329,2.396751207
2330,2.408080621
2331,2.386843014
2332,2.382427693
2333,2.396458122
2334,2.400901594
2335,2.402812901
2336,2.410123708
2337,2.398785816
2338,2.400416032
2339,2.394723349
2340,2.408853376
2341,2.387058485
2342,2.408175745
2343,2.401467419
2344,2.382484153
2345,2.39888729
2346,2.391110425
2347,2.408323498
2348,2.391391998
2349,2.409759738
2350,2.41092263
2351,2.407072855
2352,2.393241
2353,2.398208065
2354,2.411064963
2355,2.398037986
2356,2.417710121
2357,2.392498168
2358,2.393081424
2359,2.402910901
2360,2.39817945
2361,2.407520282
2362,2.403860288
2363,2.404404001
2364,2.405094177
2365,2.408137968
2366,2.414550332
2367,2.421400456
2368,2.406657795
2369,2.401910036
2370,2.394623756
2371,2.397795004
2372,2.392024426
2373,2.397827948
2374,2.396782014
2375,2.411606063
2376,2.423999448
2377,2.411176506
2378,2.395968456
2379,2.384739921
2380,2.401826778
2381,2.394742826
2382,2.385550523
2383,2.386417101
2384,2.411586467
2385,2.392572012
2386,2.393034076
2387,2.411701812
2388,2.401746721
2389,2.396906955
2390,2.38459102
2391,2.410455923
2392,2.411815868
2393,2.408321851
2394,2.389889043
2395,2.387700697
2396,2.403398882
2397,2.403932813
2398,2.404452516
2399,2.400797814
2400,2.391331712
2401,2.386908513
2402,2.397126713
2403,2.407821369
2404,2.400231205
2405,2.402927232
2406,2.393165985
2407,2.399792949
2408,2.390825307
2409,2.404944304
2410,2.405476906
2411,2.383500794
2412,2.396630067
2413,2.389856407
2414,2.402289437
2415,2.400308432
2416,2.404725715
2417,2.394396811
2418,2.399592411
2419,2.411411661
2420,2.405928587
2421,2.402071779
2422,2.396639317
2423,2.391600598
2424,2.400201057
2425,2.40225605
2426,2.386083727
2427,2.393058775
2428,2.393529937
2429,2.396971233
2430,2.40834553
2431,2.398917224
2432,2.406164275
2433,2.373915625
2434,2.386131347
2435,2.389210127
2436,2.396600566
2437,2.398352241
2438,2.411826715
2439,2.397505043
2440,2.395231239
2441,2.396593141
2442,2.394584298
2443,2.399417079
2444,2.398920924
2445,2.390674934
2446,2.402689895
2447,2.410450947
2448,2.384288968
2449,2.404135301
2450,2.415778369
2451,2.411942165
2452,2.398596731
2453,2.418479622
2454,2.396197366
2455,2.396362055
2456,2.408781366
2457,2.392090244
2458,2.414575366
2459,2.405105049
2460,2.405017742
2461,2.409120814
2462,2.40130204
2463,2.406630795
2464,2.423327752
2465,2.399494641
2466,2.388036163
2467,2.406924337
2468,2.422778568
2469,2.419105129
2470,2.406439701
2471,2.419135257
2472,2.405234513
2473,2.418244208
2474,2.412437065
2475,2.395612678
2476,2.40334835
2477,2.412437224
2478,2.391179513
2479,2.422394867
2480,2.392065217
2481,2.403821587
2482,2.402264286
2483,2.39037865
2484,2.400402761
2485,2.407577767
2486,2.383089484
2487,2.403381372
2488,2.408876591
2489,2.416957086
2490,2.404924275
2491,2.40123061
2492,2.391547088
2493,2.392625366
2494,2.418492752
2495,2.408594556
2496,2.401020649
2497,2.403995032
2498,2.418744026
2499,2.375038694
2500,2.4059065
2501,2.405740369
2502,2.406950585
2503,2.381241857
2504,2.394126669
2505,2.407266008
2506,2.396009902
2507,2.395216676
2508,2.410379374
2509,2.387702557
2510,2.415769512
2511,2.391380457
2512,2.395848843
2513,2.398040503
2514,2.395768922
2515,2.392512796
2516,2.418278381
2517,2.405189327
2518,2.400698956
2519,2.395454993
2520,2.381577778
2521,2.397855018
2522,2.403155436
2523,2.400280476
2524,2.397476389
2525,2.411122703
2526,2.409886014
2527,2.387147663
2528,2.405588188
2529,2.387959348
2530,2.407421686
2531,2.385089026
2532,2.401821919
2533,2.406730076
2534,2.372336316
2535,2.392254154
2536,2.413182295
2537,2.394681481
2538,2.416791739
2539,2.398990279
2540,2.404386916
2541,2.392694611
2542,2.3865114
2543,2.399803538
2544,2.4089634
2545,2.401627599
2546,2.389996002
2547,2.413333049
2548,2.411187604
2549,2.39463623
2550,2.390444141
2551,2.412509917
2552,2.414252656
2553,2.402157334
2554,2.394252294
2555,2.381857794
2556,2.398021551
2557,2.395860302
2558,2.391651714
2559,2.402682412
2560,2.390580697
2561,2.404003917
2562,2.403091511
2563,2.393005564
2564,2.379375963
2565,2.406936992
2566,2.408532966
2567,2.39803522
2568,2.383502276
2569,2.39619909
2570,2.400675254
2571,2.405901088
2572,2.395411431
2573,2.392325605
2574,2.417089884
2575,2.402631636
2576,2.404223212
2577,2.406738503
2578,2.387609082
2579,2.402887838
2580,2.394487709
2581,2.408919682
2582,2.390643728
2583,2.403816244
2584,2.388242474
2585,2.396298369
2586,2.396916087
2587,2.403558524
2588,2.396016084
2589,2.393095858
2590,2.412292287
2591,2.407173184
2592,2.385022831
2593,2.408246765
2594,2.401284506
2595,2.404901062
2596,2.404268059
2597,2.403945225
2598,2.387145923
2599,2.395996009
2600,2.411933142
2601,2.394732283
2602,2.391604286
2603,2.380672752
2604,2.403748655
2605,2.382707864
2606,2.401615744
2607,2.406583554
2608,2.400425673
2609,2.420787647
2610,2.383297278
2611,2.401656873
2612,2.390953563
2613,2.408383025
2614,2.388074921
2615,2.404530387
2616,2.391006669
2617,2.406828494
2618,2.375983857
2619,2.415601784
2620,2.39004126
2621,2.407784297
2622,2.391047911
2623,2.394674269
2624,2.392298912
2625,2.393049323
2626,2.400977474
2627,2.396248188
2628,2.407822424
2629,2.381862062
2630,2.406774641
2631,2.3923484
2632,2.41994829
2633,2.3990372
2634,2.391348697
2635,2.408751509
2636,2.401299393
2637,2.402144405
2638,2.393562345
2639,2.395285207
2640,2.413625664
2641,2.419100067
2642,2.40464882
2643,2.39326228
2644,2.403080641
2645,2.40564816
2646,2.405175258
2647,2.395371948
2648,2.401936337
2649,2.393591993
2650,2.388105151
2651,2.378804718
2652,2.414085746
2653,2.390367912
2654,2.392222655
2655,2.394513293
2656,2.400711037
2657,2.389297213
2658,2.385442972
2659,2.408473219
2660,2.398085786
2661,2.402353977
2662,2.404938391
2663,2.386027489
2664,2.409973014
2665,2.391820282
2666,2.409694882
2667,2.401171889
2668,2.418608455
2669,2.395843712
2670,2.415986117
2671,2.399675388
2672,2.418862943
2673,2.398690955
2674,2.394278847
2675,2.395917056
2676,2.408513618
2677,2.410667191
2678,2.405825922
2679,2.403948429
2680,2.409696583
2681,2.40879702
2682,2.395243619
2683,2.403041569
2684,2.400335573
2685,2.388850487
2686,2.382677723
2687,2.410015174
2688,2.405954343
2689,2.413105234
2690,2.388190855
2691,2.405680276
2692,2.401972373
2693,2.385920449
2694,2.41126459
2695,2.400123925
2696,2.405050678
2697,2.420095547
2698,2.388171304
2699,2.392362249
2700,2.40604908
2701,2.403180682
2702,2.396617228
2703,2.392562759
2704,2.399383325
2705,2.407697586
2706,2.387867159
2707,2.405983402
2708,2.407525363
2709,2.405992533
2710,2.408905529
2711,2.410707518
2712,2.393747742
2713,2.388626277
2714,2.388260284
2715,2.404421717
2716,2.393775864
2717,2.397348746
2718,2.403412051
2719,2.391514857
2720,2.418551075
2721,2.427400145
2722,2.397291818
2723,2.394378919
2724,2.403083954
2725,2.410269883
2726,2.397066122
2727,2.417960793
2728,2.386558704
2729,2.395420364
2730,2.390774107
2731,2.386308218
2732,2.388342603
2733,2.393021518
2734,2.411819719
2735,2.391028532
2736,2.389805549
2737,2.39059936
2738,2.410453671
2739,2.399444169
2740,2.401784617
2741,2.402288078
2742,2.408560829
2743,2.392620241
2744,2.408094351
2745,2.403180655
2746,2.395318205
2747,2.396769199
2748,2.407674159
2749,2.397507098
2750,2.392460935
2751,2.402732303
2752,2.403145147
2753,2.380032284
2754,2.405808457
2755,2.413104283
2756,2.411997201
2757,2.403996084
2758,2.414407061
2759,2.414388291
2760,2.39100339
2761,2.384268367
2762,2.393322947
2763,2.396832504
2764,2.413382909
2765,2.400541219
2766,2.409182268
2767,2.380896136
2768,2.401568645
2769,2.40050563
2770,2.373462726
2771,2.394598099
2772,2.419917961
2773,2.398816477
2774,2.410539588
2775,2.407333186
2776,2.382601758
2777,2.393659947
2778,2.404133617
2779,2.406599455
2780,2.393083424
2781,2.400237586
2782,2.394429278
2783,2.401328656
2784,2.41897462
2785,2.397281045
2786,2.420159256
2787,2.392198228
2788,2.394134998
2789,2.386839399
2790,2.4203037
2791,2.39503576
2792,2.402919361
2793,2.399778134
2794,2.392311469
2795,2.401754405
2796,2.396720672
2797,2.396626229
2798,2.397249311
2799,2.401780813
2800,2.406216578
2801,2.382701493
2802,2.395046495
2803,2.392415475
2804,2.403702622
2805,2.384490915
2806,2.417215303
2807,2.415087578
2808,2.401803029
2809,2.409631126
2810,2.400019762
2811,2.401135431
2812,2.400871883
2813,2.393383982
2814,2.392893607
2815,2.394732043
2816,2.412536397
2817,2.412394546
2818,2.412953562
2819,2.385653664
2820,2.396276943
2821,2.403450385
2822,2.397886573
2823,2.418605231
2824,2.40529855
2825,2.413995528
2826,2.413319722
2827,2.406012668
2828,2.388044097
2829,2.395951626
2830,2.398100209
2831,2.400219226
2832,2.397955874
2833,2.390340916
2834,2.403527469
2835,2.396051445
2836,2.389028711
2837,2.377607871
2838,2.396148618
2839,2.400261478
2840,2.398669091
2841,2.404458333
2842,2.400407476
2843,2.402820427
2844,2.396899379
2845,2.384715714
2846,2.405454903
2847,2.402162109
2848,2.407415235
2849,2.397091748
2850,2.38455821
2851,2.394966164
2852,2.408777513
2853,2.398101437
2854,2.397058218
2855,2.388361634
2856,2.404287706
2857,2.390302341
2858,2.389498708
2859,2.407291612
2860,2.400277644
2861,2.386205918
2862,2.39950017
2863,2.395501632
2864,2.390125083
2865,2.383726646
2866,2.405455874
2867,2.399914632
2868,2.39738333
2869,2.398048188
2870,2.405878429
2871,2.398515907
2872,2.411753989
2873,2.394234936
2874,2.407709369
2875,2.400575681
2876,2.396374559
2877,2.404673031
2878,2.427588189
2879,2.395573973
2880,2.390421869
2881,2.398108054
2882,2.391777601
2883,2.399494112
2884,2.393529536
2885,2.370888838
2886,2.394023226
2887,2.38834407
2888,2.385296014
2889,2.401979468
2890,2.389854501
2891,2.410347606
2892,2.407754455
2893,2.396540043
2894,2.402577171
2895,2.40445556
2896,2.397607288
2897,2.414086955
2898,2.419382024
2899,2.401955493
2900,2.413294371
2901,2.396693805
2902,2.403024556
2903,2.388952327
2904,2.401546924
2905,2.385430448
2906,2.393218537
2907,2.405840426
2908,2.384180335
2909,2.392595268
2910,2.383938838
2911,2.423373939
2912,2.404011497
2913,2.386024347
2914,2.391027941
2915,2.41591159
2916,2.411370047
2917,2.384686364
2918,2.413674884
2919,2.408428889
2920,2.395688461
2921,2.38271794
2922,2.39331557
2923,2.414946331
2924,2.396584445
2925,2.403630305
2926,2.419534803
2927,2.405854903
2928,2.382511567
2929,2.393868495
2930,2.393847428
2931,2.401920183
2932,2.400292823
2933,2.407914385
2934,2.394690448
2935,2.405881323
2936,2.407567668
2937,2.409686061
2938,2.38847812
2939,2.38367898
2940,2.395687396
2941,2.397686791
2942,2.397801003
2943,2.413734892
2944,2.382359463
2945,2.395312211
2946,2.395806168
2947,2.397511998
2948,2.393001558
2949,2.391306386
2950,2.414226996
2951,2.388435998
2952,2.405564768
2953,2.397227431
2954,2.390751736
2955,2.380705792
2956,2.398891523
2957,2.409143003
2958,2.412272848
2959,2.404744413
2960,2.373364962
2961,2.395443383
2962,2.378644029
2963,2.407470567
2964,2.398291286
2965,2.421698047
2966,2.405835213
2967,2.401133883
2968,2.386997055
2969,2.400822849
2970,2.398225357
2971,2.384619479
2972,2.399464457
2973,2.39571986
2974,2.404270331
2975,2.416749252
2976,2.379443508
2977,2.383560979
2978,2.412792917
2979,2.377654934
2980,2.400654621
2981,2.402482326
2982,2.414856024
2983,2.388552776
2984,2.405609102
2985,2.397543483
2986,2.403214875
2987,2.395810312
2988,2.405644546
2989,2.392311724
2990,2.406532732
2991,2.398533131
2992,2.406433718
2993,2.398373447
2994,2.388808165
2995,2.414132335
2996,2.405861509
2997,2.397579904
2998,2.389169745
2999,2.392389278
3000,2.396474002
3001,2.398337392
3002,2.406315102
3003,2.382731157
3004,2.411249812
3005,2.387036068
3006,2.402729971
3007,2.411342694
3008,2.398559288
3009,2.402233583
3010,2.391726296
3011,2.391498465
3012,2.400405575
3013,2.388092683
3014,2.400409118
3015,2.390858125
3016,2.420254949
3017,2.390586217
3018,2.390585548
3019,2.414339261
3020,2.405711085
3021,2.396528724
3022,2.409976224
3023,2.407141819
3024,2.399641202
3025,2.390980914
3026,2.387728465
3027,2.404703016
3028,2.39915912
3029,2.376498879
3030,2.395419299
3031,2.413402276
3032,2.386159576
3033,2.395093979
3034,2.401036403
3035,2.400888514
3036,2.409601
3037,2.411287683
3038,2.398846556
3039,2.405060325
3040,2.403255962
3041,2.402487375
3042,2.397704383
3043,2.40715595
3044,2.391321296
3045,2.38393594
3046,2.402833072
3047,2.408435306
3048,2.383711047
3049,2.393318944
3050,2.429603318
3051,2.401991815
3052,2.397511105
3053,2.387703923
3054,2.401277095
3055,2.385513122
3056,2.392202929
3057,2.420191003
3058,2.402896442
3059,2.39554441
3060,2.398829317
3061,2.399888366
3062,2.407916917
3063,2.393956606
3064,2.406097284
3065,2.406128423
3066,2.408706492
3067,2.396884201
3068,2.399853991
3069,2.419273441
3070,2.386355024
3071,2.403374033
3072,2.394149894
3073,2.410179609
3074,2.38914969
3075,2.394917938
3076,2.417798094
3077,2.398532646
3078,2.39306123
3079,2.403181089
3080,2.405531187
3081,2.406661702
3082,2.39266758
3083,2.396032748
3084,2.414070366
3085,2.404926727
3086,2.404606439
3087,2.389299672
3088,2.395661549
3089,2.406391062
3090,2.387256707
3091,2.395262657
3092,2.390082483
3093,2.389531902
3094,2.407136878
3095,2.402658073
3096,2.395220864
3097,2.405789477
3098,2.4066105
3099,2.403019977
3100,2.402788019
3101,2.39929164
3102,2.410424677
3103,2.400198477
3104,2.383351447
3105,2.395862446
3106,2.415030727
3107,2.394330203
3108,2.42168641
3109,2.399866462
3110,2.389302804
3111,2.370821345
3112,2.412593328
3113,2.413083524
3114,2.417211806
3115,2.396606286
3116,2.402222969
3117,2.391666078
3118,2.403083047
3119,2.391377844
3120,2.394317476
3121,2.396470445
3122,2.388531398
3123,2.395327716
3124,2.417367689
3125,2.405023535
3126,2.382021097
3127,2.391788718
3128,2.407820338
3129,2.384965647
3130,2.405011183
3131,2.394797696
3132,2.410765475
3133,2.397560627
3134,2.41078466
3135,2.401718641
3136,2.406374903
3137,2.404936954
3138,2.409138891
3139,2.395874696
3140,2.391385404
3141,2.395791712
3142,2.400757725
3143,2.393478409
3144,2.377073035
3145,2.412113352
3146,2.393979946
3147,2.388689319
3148,2.39631189
3149,2.41030516
3150,2.394876052
3151,2.391293778
3152,2.397536958
3153,2.396744366
3154,2.406416939
3155,2.387481157
3156,2.40654013
3157,2.404003436
3158,2.390714163
3159,2.394023442
3160,2.378504996
3161,2.407493331
3162,2.385810343
3163,2.400971721
3164,2.395968617
3165,2.394281331
3166,2.401863617
3167,2.386512914
3168,2.391249222
3169,2.399364336
3170,2.404359424
3171,2.4072519
3172,2.410985768
3173,2.397627822
3174,2.382863475
3175,2.412473975
3176,2.408650148
3177,2.402764444
3178,2.395096552
3179,2.40598274
3180,2.399162639
3181,2.4062308
3182,2.394043446
3183,2.370736758
3184,2.421566623
3185,2.380735452
3186,2.397369162
3187,2.388040736
3188,2.399772625
3189,2.400140432
3190,2.395334808
3191,2.397410349
3192,2.40808551
3193,2.39007061
3194,2.422632431
3195,2.381302069
3196,2.391892415
3197,2.397415012
3198,2.409742519
3199,2.400175168
3200,2.39390639
3201,2.413172657
3202,2.39200609
3203,2.381280176
3204,2.394370926
3205,2.411562473
3206,2.415832024
3207,2.39331253
3208,2.409932075
3209,2.413516251
3210,2.401496901
3211,2.394250881
3212,2.397224996
3213,2.402892422
3214,2.401350258
3215,2.398755052
3216,2.397345709
3217,2.393927273
3218,2.378989865
3219,2.41160222
3220,2.385205963
3221,2.380441715
3222,2.389941234
3223,2.391501418
3224,2.402502609
3225,2.390654812
3226,2.389177335
3227,2.395058738
3228,2.407245211
3229,2.399433066
3230,2.388789117
3231,2.398454189
3232,2.408271809
3233,2.404817959
3234,2.398015574
3235,2.392778708
3236,2.39358806
3237,2.389615967
3238,2.420225856
3239,2.400222109
3240,2.413581888
3241,2.388488359
3242,2.408635362
3243,2.395776353
3244,2.425484064
3245,2.398597599
3246,2.392478981
3247,2.398183035
3248,2.390629479
3249,2.395593969
3250,2.399550656
3251,2.418784896
3252,2.399412674
3253,2.4071715
3254,2.401585396
3255,2.403000326
3256,2.405463065
3257,2.374858496
3258,2.398392092
3259,2.393056447
3260,2.409732988
3261,2.39099795
3262,2.384483288
3263,2.394843362
3264,2.411332392
3265,2.406041162
3266,2.398467688
3267,2.406345699
3268,2.404605289
3269,2.384519091
3270,2.407779452
3271,2.40455896
3272,2.401255394
3273,2.401521891
3274,2.384540635
3275,2.394033731
3276,2.397110383
3277,2.386285882
3278,2.396874231
3279,2.388686113
3280,2.419595592
3281,2.394761311
3282,2.406097367
3283,2.39760552
3284,2.377506116
3285,2.409073109
3286,2.399989458
3287,2.396187651
3288,2.415551024
3289,2.394015192
3290,2.425565277
3291,2.415573962
3292,2.386534191
3293,2.400744628
3294,2.395931962
3295,2.393793687
3296,2.407807872
3297,2.394806343
3298,2.400598703
3299,2.414264
3300,2.386917027
3301,2.386892401
3302,2.404091057
3303,2.399591785
3304,2.403594034
3305,2.389159863
3306,2.393405881
3307,2.392664273
3308,2.40680658
3309,2.408088521
3310,2.403920306
3311,2.408739817
3312,2.381645005
3313,2.394195204
3314,2.393402621
3315,2.393008597
3316,2.405926988
3317,2.417731983
3318,2.39304974
3319,2.399703937
3320,2.397117701
3321,2.403751615
3322,2.408514974
3323,2.400813239
3324,2.394956782
3325,2.394891498
3326,2.406244918
3327,2.405404971
3328,2.40072791
3329,2.402311732
3330,2.40920425
3331,2.409841904
3332,2.406489746
3333,2.400581703
3334,2.401479648
3335,2.395598515
3336,2.401933218
3337,2.400865924
3338,2.401467183
3339,2.398807262
3340,2.395201028
3341,2.407476864
3342,2.400246331
3343,2.394038934
3344,2.402832784
3345,2.40193966
3346,2.416444736
3347,2.39080053
3348,2.398388961
3349,2.420208548
3350,2.399667134
3351,2.405155357
3352,2.395617303
3353,2.368434773
3354,2.392276915
3355,2.385797428
3356,2.384915292
3357,2.399077177
3358,2.411452297
3359,2.385010145
3360,2.40491565
3361,2.399104384
3362,2.38911002
3363,2.393413211
3364,2.393745037
3365,2.400374525
3366,2.393634852
3367,2.407584754
3368,2.407131102
3369,2.38491284
3370,2.403281597
3371,2.397787399
3372,2.38604129
3373,2.394234468
3374,2.405819365
3375,2.415099405
3376,2.401834105
3377,2.399310336
3378,2.384333764
3379,2.399083975
3380,2.40472519
3381,2.38442944
3382,2.394296264
3383,2.405649538
3384,2.394310378
3385,2.394526201
3386,2.381447039
3387,2.400838243
3388,2.382657602
3389,2.39938959
3390,2.401376977
3391,2.41373838
3392,2.394811663
3393,2.414660806
3394,2.394802716
3395,2.409308665
3396,2.40691175
3397,2.392788846
3398,2.393642781
3399,2.402917582
3400,2.397177447
3401,2.402968555
3402,2.398932367
3403,2.401558076
3404,2.397724917
3405,2.387249485
3406,2.37304765
3407,2.39273959
3408,2.389276747
3409,2.391786816
3410,2.407239173
3411,2.407111164
3412,2.390131133
3413,2.397826171
3414,2.405605016
3415,2.412728595
3416,2.390905943
3417,2.391486114
3418,2.402027807
3419,2.398249915
3420,2.407270571
3421,2.396884424
3422,2.382908954
3423,2.405575542
3424,2.408110396
3425,2.400728119
3426,2.392526697
3427,2.412982261
3428,2.410629061
3429,2.396623556
3430,2.406276406
3431,2.402682866
3432,2.419204374
3433,2.394085993
3434,2.405155585
3435,2.400920926
3436,2.399201561
3437,2.413064269
3438,2.408084181
3439,2.402567003
3440,2.384311521
3441,2.398435933
3442,2.409940387
3443,2.408256247
3444,2.389731865
3445,2.396510281
3446,2.385636368
3447,2.399068822
3448,2.400329208
3449,2.406390504
3450,2.408571612
3451,2.407990856
3452,2.387489236
3453,2.396246973
3454,2.387487574
3455,2.397935213
3456,2.389451919
3457,2.405648397
3458,2.415121807
3459,2.392831288
3460,2.40040637
3461,2.3884878
3462,2.384195628
3463,2.411936075
3464,2.402327495
3465,2.394659919
3466,2.404331338
3467,2.390364853
3468,2.396606889
3469,2.398706785
3470,2.39628287
3471,2.418041949
3472,2.394670979
3473,2.410962517
3474,2.407382032
3475,2.384561999
3476,2.384681146
3477,2.386439113
3478,2.42159624
3479,2.389569627
3480,2.411741896
3481,2.388191344
3482,2.399957314
3483,2.393677928
3484,2.40381433
3485,2.396062845
3486,2.409720238
3487,2.406272064
3488,2.405491109
3489,2.400610742
3490,2.414346342
3491,2.392022962
3492,2.394821225
3493,2.411905413
3494,2.39216209
3495,2.383561524
3496,2.395098421
3497,2.414235778
3498,2.395543523
3499,2.398752525
3500,2.399719835
3501,2.400664645
3502,2.398689349
3503,2.40150511
3504,2.396096949
3505,2.3935969
3506,2.413385196
3507,2.379800659
3508,2.394679255
3509,2.403754822
3510,2.379926668
3511,2.391444896
3512,2.402989152
3513,2.400891634
3514,2.387439913
3515,2.397458612
3516,2.39009646
3517,2.397167754
3518,2.399179253
3519,2.38398388
3520,2.398027269
3521,2.398315638
3522,2.381836558
3523,2.404807595
3524,2.403493521
3525,2.398739831
3526,2.397840217
3527,2.391166619
3528,2.406499922
3529,2.417157654
3530,2.397574352
3531,2.387382232
3532,2.394422112
3533,2.392929852
3534,2.404604253
3535,2.398085563
3536,2.389275348
3537,2.402858428
3538,2.399879877
3539,2.402706634
3540,2.402526755
3541,2.407188262
3542,2.396679213
3543,2.402201067
3544,2.391078412
3545,2.393686408
3546,2.4239106
3547,2.403420842
3548,2.406498855
3549,2.399649605
3550,2.384817775
3551,2.409087987
3552,2.404141677
3553,2.406039848
3554,2.402931626
3555,2.396555888
3556,2.404467879
3557,2.418148761
3558,2.411947035
3559,2.394380736
3560,2.401459448
3561,2.388590453
3562,2.405144768
3563,2.376505738
3564,2.414919733
3565,2.419978531
3566,2.394039165
3567,2.396343047
3568,2.409765154
3569,2.3954134
3570,2.416196208
3571,2.407295536
3572,2.39927167
3573,2.406685942
3574,2.392043808
3575,2.416056281
3576,2.396702844
3577,2.402004083
3578,2.380367078
3579,2.400979317
3580,2.371412217
3581,2.383055096
3582,2.402280799
3583,2.391191162
3584,2.401462783
3585,2.378242845
3586,2.38711932
3587,2.382014563
3588,2.392621606
3589,2.385153428
3590,2.405930202
3591,2.424857945
3592,2.400275512
3593,2.401367878
3594,2.406388733
3595,2.385287093
3596,2.401092411
3597,2.395740167
3598,2.397561075
3599,2.399632713
3600,2.422865243
3601,2.402461132
3602,2.410170536
3603,2.413197747
3604,2.417801844
3605,2.39454599
3606,2.388476908
3607,2.414760315
3608,2.399765804
3609,2.398463516
3610,2.40443696
3611,2.412370196
3612,2.390717172
3613,2.415321706
3614,2.38401482
3615,2.408656761
3616,2.386834922
3617,2.385780465
3618,2.389132112
3619,2.391659269
3620,2.404098569
3621,2.395995249
3622,2.401809439
3623,2.405766143
3624,2.394565682
3625,2.38664874
3626,2.400798069
3627,2.41257998
3628,2.406697621
3629,2.395594143
3630,2.395402505
3631,2.391308331
3632,2.407583996
3633,2.405654156
3634,2.407397265
3635,2.383800261
3636,2.405842643
3637,2.398928588
3638,2.390943414
3639,2.400955756
3640,2.413080245
3641,2.396276413
3642,2.395971773
3643,2.418650745
3644,2.403989758
3645,2.391278789
3646,2.39192605
3647,2.379074313
3648,2.380777822
3649,2.40887232
3650,2.40486425
3651,2.392126481
3652,2.372802996
3653,2.40409316
3654,2.41094341
3655,2.410666458
3656,2.39196703
3657,2.406947919
3658,2.391828938
3659,2.393500158
3660,2.409566115
3661,2.399821549
3662,2.384594647
3663,2.400687453
3664,2.396164789
3665,2.390694403
3666,2.379032372
3667,2.391640423
3668,2.401888781
3669,2.396078508
3670,2.391314063
3671,2.387856143
3672,2.385596468
3673,2.408385792
3674,2.422521019
3675,2.40543569
3676,2.396854251
3677,2.388496908
3678,2.405375442
3679,2.395960093
3680,2.399600607
3681,2.403553107
3682,2.397824788
3683,2.402820291
3684,2.402111837
3685,2.416522992
3686,2.371677707
3687,2.383330574
3688,2.407693766
3689,2.392792525
3690,2.408028995
3691,2.399003185
3692,2.385336707
3693,2.416322979
3694,2.410092144
3695,2.408711055
3696,2.4031498
3697,2.41534628
3698,2.400738653
3699,2.396465871
3700,2.404179995
3701,2.392530126
3702,2.389650279
3703,2.397772435
3704,2.409126324
3705,2.396472147
3706,2.398263328
3707,2.39682305
3708,2.39554016
3709,2.409003801
3710,2.39380023
3711,2.403954447
3712,2.406327395
3713,2.410406048
3714,2.400315659
3715,2.402155045
3716,2.404503166
3717,2.39028451
3718,2.393205565
3719,2.395046667
3720,2.40306946
3721,2.400794342
3722,2.419694358
3723,2.407777104
3724,2.403110153
3725,2.386447078
3726,2.403303481
3727,2.397541296
3728,2.396539256
3729,2.402390912
3730,2.392200054
3731,2.397526248
3732,2.392002222
3733,2.409674237
3734,2.393407937
3735,2.39440474
3736,2.407692475
3737,2.407928831
3738,2.416216867
3739,2.410952565
3740,2.394172039
3741,2.402511145
3742,2.39225815
3743,2.405621666
3744,2.394567257
3745,2.399589761
3746,2.394819482
3747,2.413742176
3748,2.391097944
3749,2.403291087
3750,2.400845662
3751,2.403496953
3752,2.398926465
3753,2.400259772
3754,2.397369386
3755,2.398700496
3756,2.41148678
3757,2.400018086
3758,2.385415993
3759,2.399573093
3760,2.394245698
3761,2.40982904
3762,2.393078981
3763,2.403633683
3764,2.420837511
3765,2.386651197
3766,2.426989368
3767,2.394043425
3768,2.394420782
3769,2.410890167
3770,2.410136514
3771,2.389773698
3772,2.410128682
3773,2.405102519
3774,2.414895524
3775,2.386810556
3776,2.408648229
3777,2.395246155
3778,2.401266062
3779,2.400263691
3780,2.402515655
3781,2.3878448
3782,2.380919963
3783,2.389555975
3784,2.39077924
3785,2.391271924
3786,2.395056978
3787,2.391298647
3788,2.394041398
3789,2.403054311
3790,2.378049435
3791,2.395292657
3792,2.392940437
3793,2.402595336
3794,2.38832399
3795,2.40012779
3796,2.389715847
3797,2.415110877
3798,2.396796726
3799,2.422742474
3800,2.410249223
3801,2.399619857
3802,2.401346709
3803,2.395911238
3804,2.38956196
3805,2.387411745
3806,2.419938986
3807,2.402065237
3808,2.393239665
3809,2.417122768
3810,2.400591794
3811,2.406865477
3812,2.407133063
3813,2.414401807
3814,2.388082796
3815,2.414904681
3816,2.399101131
3817,2.399473258
3818,2.397890842
3819,2.385259454
3820,2.384490443
3821,2.413896553
3822,2.393844682
3823,2.382857789
3824,2.395667697
3825,2.404912753
3826,2.384645468
3827,2.395762064
3828,2.426861929
3829,2.399130147
3830,2.412732865
3831,2.398411018
3832,2.415257666
3833,2.393003032
3834,2.407092674
3835,2.405466138
3836,2.397460036
3837,2.405655706
3838,2.394661001
3839,2.414310376
3840,2.387082061
3841,2.382801205
3842,2.397978983
3843,2.407758753
3844,2.394426651
3845,2.374255697
3846,2.381002861
3847,2.398162523
3848,2.402679821
3849,2.403192491
3850,2.409069244
3851,2.390594762
3852,2.412494908
3853,2.39462115
3854,2.423024809
3855,2.398520433
3856,2.4067114
3857,2.390477234
3858,2.420909173
3859,2.384858528
3860,2.397658927
3861,2.401986777
3862,2.388605299
3863,2.409639986
3864,2.367407682
3865,2.398854151
3866,2.407600457
3867,2.39190991
3868,2.384481989
3869,2.407810525
3870,2.410835682
3871,2.385988267
3872,2.383926326
3873,2.411290839
3874,2.399414395
3875,2.397220167
3876,2.400241449
3877,2.400679501
3878,2.423554153
3879,2.399395503
3880,2.398200061
3881,2.398936142
3882,2.414384222
3883,2.393034804
3884,2.392042565
3885,2.389460395
3886,2.396851401
3887,2.388500251
3888,2.385541175
3889,2.402331993
3890,2.420623691
3891,2.394427277
3892,2.392013977
3893,2.397868512
3894,2.394104103
3895,2.385739214
3896,2.417819985
3897,2.397758833
3898,2.388280838
3899,2.406694116
3900,2.42159848
3901,2.403052507
3902,2.399899154
3903,2.384580911
3904,2.375621153
3905,2.404845687
3906,2.398073868
3907,2.411325569
3908,2.395919931
3909,2.388685863
3910,2.407717595
3911,2.40445437
3912,2.40185358
3913,2.40362671
3914,2.409479915
3915,2.408609959
3916,2.411631423
3917,2.404423344
3918,2.402151888
3919,2.412498398
3920,2.397027235
3921,2.403154455
3922,2.408987063
3923,2.39819952
3924,2.38452567
3925,2.401144177
3926,2.366687702
3927,2.406382862
3928,2.393758055
3929,2.401609317
3930,2.369462925
3931,2.421200017
3932,2.395524921
3933,2.398604932
3934,2.41288071
3935,2.407408731
3936,2.402246546
3937,2.430786047
3938,2.396556567
3939,2.392859008
3940,2.39593761
3941,2.375710538
3942,2.398828318
3943,2.406899353
3944,2.400906361
3945,2.403920069
3946,2.406204439
3947,2.400551217
3948,2.409065404
3949,2.395189516
3950,2.397193891
3951,2.398613897
3952,2.389753665
3953,2.4137805
3954,2.396521258
3955,2.391598122
3956,2.409268323
3957,2.398366906
3958,2.400618516
3959,2.407716956
3960,2.393460289
3961,2.391947245
3962,2.412422986
3963,2.399333228
3964,2.399801964
3965,2.410518049
3966,2.411483926
3967,2.40187486
3968,2.399756076
3969,2.38868131
3970,2.40276185
3971,2.388041219
3972,2.40992665
3973,2.390950749
3974,2.405499185
3975,2.408186819
3976,2.4023881
3977,2.396771396
3978,2.405554275
3979,2.410447316
3980,2.411043142
3981,2.388413931
3982,2.412453853
3983,2.39416051
3984,2.393760387
3985,2.414542603
3986,2.403584332
3987,2.39248957
3988,2.41751662
3989,2.404764647
3990,2.384409748
3991,2.415383736
3992,2.394417494
3993,2.42714542
3994,2.401307162
3995,2.405815018
3996,2.403866664
3997,2.40729122
3998,2.382893391
3999,2.390369452
4000,2.397570794
