Raman Shift,Intensity
214.3785040343428,-65.838
224.78145843945092,-139.576
235.01908334044856,-442.431
245.41130867789616,-121.142
255.63837774522108,-7.901
265.8602158678186,28.969
276.23642015571386,-460.865
286.44772684514464,563.573
296.8132434111685,-2.634
307.0140349346475,213.315
317.209615658554,-23.702
327.399989574551,-158.011
337.7442627077253,-500.368
347.9241537664129,260.718
358.09885002992814,-305.488
368.2683554736213,189.613
378.5914504125685,144.843
388.7505051753542,-292.32
398.90438108190574,-176.446
409.0530820913264,39.503
419.196612158652,-71.105
429.3349752349313,697.882
439.626465572117,724.217
449.75442592354375,-231.749
459.8772311743669,-558.306
469.994885259468,413.462
480.1073921097559,-605.709
490.2147556521086,-645.212
500.31697980943136,-329.19
510.41406850063504,60.571
520.5060256406359,-39.503
530.5928551403995,-481.934
540.6745609068894,18.435
550.7511468431039,-105.341
560.8226168481124,113.241
570.888974816975,47.403
580.9502246408374,-263.352
590.8492821665859,144.843
600.9004070215597,408.195
610.9464353206786,7.901
620.9873709393651,-339.724
631.0232177491416,231.749
641.0539796175653,186.98
650.9230482019848,-676.814
660.9437310766662,-302.854
670.9593405290361,-113.241
680.9698804110958,102.707
690.8190579752118,-63.204
700.8195493193562,-260.718
710.8149825658329,63.204
720.805361551138,-371.326
730.6347081696804,81.639
740.6150689503047,81.639
750.4345613154874,113.241
760.404918953056,-276.519
770.3702413346182,181.713
780.174941402227,105.341
790.1302832356378,-413.462
799.925166080895,252.818
809.8705423523497,-555.672
819.6556227125038,-107.974
829.5910483782136,-297.587
839.3663409610526,5.267
849.2918309472952,-605.709
859.0573504311833,-226.482
868.972919634427,-21.068
878.7286806683987,221.215
888.6343439553166,-168.545
898.3803611591502,-52.67
908.12155022542,-271.252
918.0124213310264,115.875
927.743888384779,31.602
937.4705381077074,-323.923
947.3466501411676,439.797
957.0635996041163,97.44
966.7757425107702,-47.403
976.6371284824854,-126.409
986.3395928168538,-73.738
996.0372613373548,260.718
1005.7301375988682,147.477
1015.5719657306544,-252.818
1025.255192198514,-44.77
1034.9336371072422,-152.744
1044.6073039976543,-142.21
1054.2761964070742,339.724
1063.9403178693246,563.573
1073.5996719147442,-155.377
1083.4074711432768,94.807
1093.057225399156,150.11
1102.70222286418,-115.875
1112.3424670547538,329.19
1121.9779614837898,123.775
1131.6087096607444,474.033
1141.2347150916105,-268.619
1150.855981278939,595.175
1160.4725117218331,57.937
1170.0843099159465,-229.116
1179.6913793534914,-129.042
1189.293723523253,39.503
1198.739039559725,521.436
1208.3320185130287,-181.713
1217.9202825891407,-84.273
1227.5038352631818,89.54
1237.0826800068826,576.74
1246.6568202885535,-158.011
1256.226259573108,110.608
1265.639216696829,-655.746
1275.1993388504195,-97.44
1284.7547703264208,13.168
1294.3055145761757,-263.352
1303.7000868433097,18.435
1313.241541245312,-129.042
1322.778318700337,310.755
1332.310422646282,-13.168
1341.686663866676,-181.713
1351.2095051416618,134.309
1360.727683146746,-152.744
1370.0902294598782,-18.435
1379.5991650801443,-213.315
1388.9526223370776,-255.451
1398.4523290278594,-339.724
1407.7967104575073,-2.634
1417.287201648047,196.797
1426.7730533080105,198.833
1436.1038095471376,68.556
1445.5804658554116,-128.953
1454.9021792800197,-328.61
1464.369653600741,-465.329
1473.6823373500883,-474.033
1482.9905472474493,-318.656
1492.444310209452,-107.974
1501.7435100404182,-94.807
1511.1881242589734,-44.77
1520.4783270994303,126.409
1529.764072276041,134.309
1539.1950247490097,-426.63
1548.4717924494323,213.315
1557.7441121511074,79.006
1567.1614324998736,129.042
1576.4247941832873,555.672
1585.6837175051332,-110.608
1594.9382056544855,39.503
1604.3374199708342,229.116
1613.5829759239496,-302.854
1622.8241063047317,150.11
1632.0608142900164,661.013
1641.2931030535765,279.153
1650.6697762525291,302.854
1659.8931649322622,-15.801
1669.1121439444323,102.707
1678.3267164506542,15.801
1687.53688560953,-568.84
1696.7426545766284,208.048
1705.9440265045123,-184.346
1715.1410045427183,381.86
1724.3335918377925,-229.116
1733.5217915332687,-7.901
1742.705606769683,-136.943
1751.8850406845886,376.593
1761.0600964125188,57.937
1770.230777085024,316.022
1779.397085830693,358.158
1788.55902577511,292.32
1797.7166000408906,539.871
1806.8698117476447,163.278
1816.0186640120735,350.258
1825.163159947857,-226.482
1834.1559155330324,-600.442
1843.29177827917,63.204
1852.4232939699289,118.508
1861.550465707216,397.661
1870.673296589972,-81.639
1879.644751645923,221.215
1888.758979994156,50.037
1897.8688767172423,147.477
1906.974444902422,247.551
1915.9289277003045,297.587
1925.025917750907,94.807
1934.118588458099,200.147
1943.060390766601,-294.954
1952.144501554074,60.571
1961.2243021666216,-271.252
1970.153450902042,-442.797
1979.224709758193,-367.06
1988.1454604369865,-147.19
1997.208189584475,113.659
2006.120554048888,312.346
2015.1747655127983,345.71
2024.0787555828572,110.608
2033.12446136566,-226.482
2042.0200888391555,55.304
2051.057300920809,-150.11
2059.9445775734057,250.184
2068.9733079113576,126.409
2077.852245496608,118.508
2086.8725060258803,208.048
2095.743116275291,68.471
2104.6096010526526,60.571
2113.6172135316083,-342.357
2122.4753884816528,347.624
2131.329446630596,-158.011
2140.324437642892,326.556
2149.170203423979,-31.602
2158.011861050589,-389.76
2166.994257105456,165.912
2175.8276397748195,297.587
2184.656922912145,-294.954
2193.48210937062,-68.471
2202.303202000803,268.619
2211.2647105948345,-34.236
2220.077557114586,-890.129
2228.886318388424,-237.017
2237.6909972563008,179.079
2246.4915965555265,-36.869
2255.2881191208,134.309
2264.0805677841927,352.891
2272.8689453751285,-431.897
2281.6532547204406,352.891
2290.5774032157133,-123.775
2299.353517963282,-79.006
2308.125572976198,84.273
2316.893571070781,281.786
2325.6575150607823,-129.042
2334.273835606975,510.902
2343.029746164546,397.661
2351.781610997117,-7.901
2360.5294329081007,-79.006
2369.273214698267,284.42
2378.0129591658333,-42.136
2386.7486691064114,368.692
2395.48034731306,-192.247
2404.2079965762314,63.204
2412.788641914361,708.416
2421.5083075861257,316.022
2430.2239526247795,-289.687
2438.9355798105607,-134.309
2447.64319192111,337.09
2456.204142101211,-184.346
2464.9037980916983,229.116
2473.5994472792227,168.545
2482.148638712344,267.015
2490.836348166158,547.766
2499.5200590665554,881.588
2508.0575159626023,1139.265
2516.7333034706826,1191.582
2525.405100652257,909.324
2533.930847154741,163.278
2542.5947372405863,-513.536
2551.112711590584,566.206
2559.768705390503,-226.482
2568.2789182109263,73.738
2576.927026515033,129.042
2585.5711635713087,271.252
2594.069721988235,310.755
2602.5644435408976,-302.854
2611.196813145194,-84.273
2619.683804921093,416.096
2628.3083212822166,-297.587
2636.7875938271245,-292.32
2645.404267656864,49.384
2653.875831497382,438.965
2662.343576738021,839.641
2670.948539131641,1214.646
2679.408591378582,1527.197
2687.8648328054915,1740.521
2696.4581076233444,1817.843
2704.906671724595,1722.385
2713.351432764532,1417.38
2721.792393310454,866.043
2730.370143142005,31.602
2738.8034471581705,-603.075
2747.232958411034,258.085
2755.658679458633,344.991
2764.220946338093,-21.068
2772.639031576786,273.886
2781.053334313052,258.085
2789.463857095703,-292.32
2797.8706024712737,163.278
2806.2735729839987,194.88
2814.672771175843,165.912
2823.0681995864725,381.86
2831.459860753297,68.471
2839.847757211428,71.105
2848.231891493713,326.556
2856.612266130724,94.807
2864.988883650767,173.812
2873.3617465798743,-192.247
2881.7308574418275,194.88
2890.096218758139,-252.818
2898.457833048058,-352.891
2906.815702828586,118.508
2915.169830614461,179.079
2923.5202189181878,271.252
2931.8668702499926,-28.969
2940.209787117892,-376.593
2948.41001618022,-271.252
2956.7455337723804,-160.645
2965.077324369493,-13.168
2973.405390470638,-395.028
2981.7297345726547,-105.341
2989.9117125592966,279.153
2998.2286820744484,358.158
3006.5419370261297,86.906
3014.8514799023105,-39.503
3023.0189130185245,589.908
3031.3211009634906,408.195
3039.619584242202,-273.886
3047.776149306213,334.457
3056.067292329164,342.357
3064.2166442633534,668.913
3072.500456765243,597.808
3080.780576892153,197.514
3088.919096831967,671.547
3097.1919010483834,34.236
3105.3232317767324,-323.923
3113.588729774354,-39.503
3121.712880813,-856.28
3129.9710822664056,-856.28
3138.0880631202745,-856.28
3146.338977686973,-856.28
3154.448797844241,-856.28
3162.692435164703,-856.28
3170.7951040967964,-856.28
3178.894230970407,-856.28
3187.127000956163,-856.28
3195.218990740796,-856.28
3203.3074454664093,-856.28
3211.5293695924192,-856.28
3219.610701328027,-856.28
3227.688504985643,-856.28
3235.899604670318,-856.28
3243.9702993997853,-856.28
3252.03747301393,-856.28
3260.1011278165533,-856.28
3268.297848330192,-856.28
3276.354412870096,-856.28
3284.407465536773,-856.28
3292.4570086259846,-856.28
3300.5030444314834,-856.28
3308.545575245,-856.28
3316.720827896272,-856.28
3324.756296283769,-856.28
3332.788266581294,-856.28
3340.816741072602,-856.28
3348.8417220394404,-856.28
3356.8632117615925,-856.28
3364.8812125168406,-856.28
3372.895726580995,-856.28
3380.906756227865,-856.28
3388.91430372934,-13.168
3396.918371355256,505.521
3404.9189613735507,589.002
3412.9160760501472,390.672
3420.909717649003,63.931
3428.8998884321263,-237.817
3436.886590659553,-361.176
3444.734546370892,-152.744
3452.714376952972,226.482
3460.690745709508,-60.571
3468.663654892749,160.645
3476.633106752961,-205.414
3484.5991035384795,-231.749
3492.4267178764712,18.435
3500.385869715596,65.838
3508.341573175334,-142.21
3516.293830496281,86.906
3524.1079469444667,392.394
3532.0533770164475,-160.645
3539.9953676218797,94.807
3547.7993978646555,-237.017
3555.734574435446,226.482
3563.666318194715,-468.766
3571.460281747888,842.725
3579.385224652753,-55.304
3587.30674138396,197.514
3595.090657713052,300.221
3603.00538673612,-194.88
3610.782634691175,237.017
3618.6905847266535,381.86
3626.461172873067,7.901
3634.362352626544,-139.576
3642.1262895150494,481.934
3650.020707677235,2.634
3657.778001843908,-226.482
3665.665667090652,79.006
3673.416327056992,-139.576
3681.163701429177,163.278
3689.041282322214,-234.383
3696.782035212709,155.377
3704.6528847781447,234.383
3712.3870246721344,-163.278
3720.117889469839,63.204
3727.845481251112,-339.724
3735.702951367959,107.974
3743.4239470074463,-605.709
3751.141675895298,-47.403
3758.989119491133,589.908
3766.700264858686,-50.037
3774.408149723422,-168.545
3782.1127761528696,-471.4
3789.814146212797,-297.587
3797.644959575024,339.724
3805.339767031168,-355.525
3813.03132434014,503.002
3820.7196335607214,979.668
3828.404696749953,331.823
3836.086515963114,-376.593
3843.76509325378,-869.061
3851.4404306737633,-218.582
3859.112530273167,-28.969
3866.7813941003615,-358.158
3874.4470242019815,-366.923
3882.109422622947,-31.365
3889.7685914064414,468.582
3897.4245325939337,952.98
3905.0772482251705,1241.896
3912.7267403381848,1155.392
3920.373010969284,513.536
3928.016062153074,-310.755
3935.655895922435,208.048
3943.292514308545,-86.906
3950.925919340858,-276.519
3958.424585178429,147.477
3966.051624900327,-97.44
3973.675457311714,-23.702
3981.296084435249,186.98
3988.913508291902,-384.493
3996.396478310664,144.843
4004.007556831755,279.153
4011.615438103967,107.974
4019.220124141517,194.88
4026.690583777876,113.241
4034.288940385857,-100.074
4041.8841077570687,129.042
4049.3452186808136,-202.781
4056.934068499933,-139.576
4064.519735065173,76.372
4071.971514814119,-189.613
4079.550875675057,92.173
4086.996462302253,173.812
4094.5695253181984,-65.838
4102.008926541021,344.991
4109.575699558212,489.834
4117.008923081237,-347.624
4124.569413932906,276.519
4131.996467447912,-13.168
4139.550683954272,-47.403
4146.971575140262,-421.363
4154.519525108568,-747.834
4161.93426163181,-949.272
4169.475952856366,-1025.544
4228.011654085007,-976.522
4235.396210255021,-802.072
4242.907210725418,-502.064
4250.415076793586,-76.372
4257.7904449892885,234.383
4265.292102093408,-210.681
4272.790630641473,-42.136
4280.156827999919,366.059
4287.649159161061,-81.639
4295.138367597785,197.514
4302.4954112134365,-413.462
4309.978433811593,574.107
4317.329402006981,-171.179
4324.8062464273535,-684.714
4332.151146724958,-231.749
4339.621820615692,547.771
4346.960660525576,-92.173
4354.425171522191,-271.252
4361.757958542046,-724.217
4369.216314267462,-2965.34
4376.543055882612,-142.21
4383.9952639471885,-21.068
4391.315967630617,-184.346
4398.762035632179,-86.906
4406.07670884455,492.468
4413.516644368407,402.928
4420.825294558097,-118.508
4428.130962180556,-213.315
4435.561739780205,-76.372
4442.861395497304,86.906
4450.1580741507205,-210.681
4457.579710724684,316.022
4464.870388562711,-10.534
4472.158094827057,397.661
4479.570607232323,231.749
4486.852323743988,242.284
4494.131074158497,39.503
4501.534479210626,-136.943
4508.807250907994,297.587
4516.077061971264,421.363
4523.3439142079005,-71.105
4530.735219799091,316.022
4537.996107969229,400.295
4545.254042757973,-171.179
4552.509025966887,-168.545
4559.888261734326,-210.681
4567.13729547953,23.702
4574.383383072374,-186.98
4581.626526308552,392.394
4588.866726982291,-205.414
4596.103986886381,-194.88
4603.338307812148,194.88
4610.69653172473,-171.179
4617.92492857972,129.042
4625.150391852971,318.656
4632.372923329975,316.022
4639.592524794789,126.409
4646.809198030001,408.195
4654.022944816745,-113.241
4661.233766934747,-2.634
4668.441666162253,-63.204
4675.646644276094,142.21
4682.8487030516335,15.801
4690.047844262837,318.656
4697.244069682201,97.44
4704.437381080781,7.901
4711.627780228235,192.247
4718.815268892759,226.482
4725.999848841122,255.451
4733.181521838655,-574.107
4740.3602896492885,-2899.502
4747.536154035501,-210.681
4754.583300303697,100.074
4761.753413983191,-337.09
4768.9206294863325,373.959
4776.084948569973,400.295
4783.246372989488,155.377
4790.404904498872,-234.383
4797.435032206777,460.865
4804.5878338284165,-73.738
4811.73774776268,-173.812
4818.884775757928,-171.179
4826.028919561082,-284.42
4833.044920461813,202.781
4840.183351639585,239.65
4847.3189038270575,81.639
4854.451578765569,194.88
4861.456318765864,597.808
4868.58329482688,302.854
4875.707398824052,-142.21
4882.703723295803,558.306
4889.822138682386,1166.959
4896.937687177771,1475.151
4903.925611277555,1531.495
4911.035481404608,1384.608
4918.142489800703,1083.102
4925.122028648751,675.587
4932.223368894192,210.681
4939.197342363797,-163.278
4946.293021236786,-57.937
4953.385846941688,379.226
4960.35146024984,258.085
4967.43863475923,-13.168
4974.398699333346,168.545
4981.480229398396,476.667
4988.43475186592,305.488
4995.510644227063,-158.011
5002.459631204903,160.645
5009.529892591847,-152.744
5016.473350686378,-150.11
5023.537987818112,194.88
5030.475923625207,-571.473
5037.534943210041,871.694
5044.467363315067,-5.267
5051.397052412052,131.676
5058.447683028528,-76.372
5065.371866252855,173.812
5072.416896017057,-189.613
5079.335579928018,-150.11
5086.251540943114,176.446
5093.288206657562,-7.901
5100.198678149784,-286.195
5107.106431592307,-499.418
5114.134748143202,-638.324
5121.037021830118,-693.677
5127.93658230202,-656.227
5134.833431158368,-516.738
5141.85065500065,-265.961
5148.742037069234,105.341
5155.630712341699,342.357
5162.516682412504,-152.744
5169.522839786696,610.976
5176.403355996677,205.414
5183.281171809234,113.241
5190.156288813778,395.028
5197.028708598496,429.263
5204.021081907653,397.661
5210.888063918697,63.204
5217.752353495271,-492.468
5224.613952220541,560.939
5231.472861676462,2615.082
5238.329083443728,-587.274
5245.182619101804,316.022
5252.033470228904,945.433
5258.881638402017,28.969
5265.727125196914,34.236
5272.569932188097,107.974
5279.532181775125,-284.42
5286.369586094326,292.32
5293.204315354014,92.173
5300.036371123795,408.195
5306.865754971979,705.783
5313.692468465706,52.67
5320.516513170878,179.079
5327.216103720151,-184.346
5334.034863128356,310.755
5340.850958410447,158.011
5347.664391127459,50.037
5354.475162839211,202.781
5361.283275104273,-452.965
5368.088729480027,213.315
5374.891527522632,516.169
5381.6916707870405,221.215
5388.489160826968,173.812
5395.162686039381,497.735
5401.954921596684,-337.09
5408.744508555763,310.755
5415.531448465517,163.278
5422.31574287366,392.394
5428.976315601984,-47.403
5435.7553708175255,326.556
5442.531785139763,118.508
5449.305560111599,510.902
5456.076697274744,205.414
5462.724355191152,671.547
5469.490268392445,505.635
5476.253548375513,63.204
5482.893493883399,-363.425
5489.651558992991,71.105
5496.406995464167,-205.414
5503.039241977291,202.781
5509.789472642318,81.639
5516.5370792381145,126.409
5523.161640139158,47.403
5529.904049975114,-229.116
5536.643840300443,179.079
5543.260728941095,-173.812
5549.995331531944,-57.937
5556.607128017575,-1264.088
5563.336548861262,184.346
5569.943259067753,-329.19
5576.667504142417,44.77
5583.269133936614,-94.807
5589.988209211173,86.906
5596.58476445092,268.619
5603.298675885118,-534.604
5609.890162419251,-858.526
5616.598915963696,-94.807
5623.185339632037,226.482
5629.888941228186,-684.714
5636.470307861637,481.934
5643.16876344182,-671.547
5649.745078862296,215.948
5656.438394349752,-28.969
5663.009664370256,186.98
5669.578436568787,242.284
5676.264076103718,123.775
5682.827811578958,197.514
5689.3890535265455,234.383
5696.067030305661,287.053
5702.623244186747,252.818
5709.176968824671,563.573
5715.847296014435,471.4
5722.39600122282,213.315
5728.942221462719,115.875
5735.4859581482815,215.948
5742.146121627004,-239.65
5748.684850350968,-152.744
5755.221099782248,173.812
5761.754871330697,221.215
5768.404894310675,-321.289
5774.933669330552,-42.136
5781.459970716278,189.613
5787.983799873429,373.959
5794.505158206499,-136.943
5801.142549523138,605.709
5807.658925557145,866.427
5814.172834999641,621.51
5820.684279250832,244.917
5827.193259709879,521.436
5833.699777774898,-28.969
5840.203834842934,18.435
5846.7054323099655,-142.21
5853.204571570954,553.039
5859.701254019747,503.002
5866.195481049195,-355.525
5872.687254051074,-44.77
5879.176574416102,115.875
5885.663443533944,495.101
5892.14786279323,136.943
5898.629833581537,197.514
5905.109357285379,165.912
5911.586435290243,265.985
5918.061068980562,-326.556
5924.533259739736,302.854
5931.003008950094,147.477
5937.470317992949,542.504
5943.935188248557,-65.838
5950.397621096134,147.477
5956.857617913869,50.037
5963.315180078898,-176.446
5969.7703089673305,115.875
5976.105705888956,-63.204
5982.556016527509,7.901
5989.003897986593,-334.457
5995.449351638199,163.278
6001.8923788532775,86.906
6008.215900781644,571.473
6014.654123287393,-152.744
6021.089923438405,334.457
6027.523302601519,76.372
6033.954262142564,276.519
6040.265942433929,563.573
6046.692110755517,-497.735
6053.115863521547,158.011
6059.420472023492,-107.974
6065.839441620141,210.681
6072.255999718647,260.718
6078.553548309683,118.508
6084.965331270854,302.854
6091.374706782226,123.775
6097.665207314269,384.493
6104.06981570238,-305.488
6110.472020679961,-79.006
6116.755484978421,331.823
6123.152930828903,497.735
6129.431725134898,-268.619
6135.824417162912,431.897
6142.098546680769,189.613
6148.486490183052,732.118
6154.872039648391,982.302
6161.139160374798,373.959
6167.519969269015,371.326
6173.782438208022,-413.462
6180.158511808193,92.173
6186.416334137088,-308.121
6192.787677712448,381.86
6199.040858600842,163.278
6205.291741972564,387.127
6211.656022022646,-126.409
6217.902271670246,740.018
6224.261834810408,71.105
6230.503455884398,292.32
6236.742785809074,139.576
6243.095304999864,-118.508
6249.330014038809,629.411
6255.677829386121,1180.216
6261.907922670827,1371.92
6268.1357311500615,1302.83
6274.476522051649,1071.241
6280.699722436162,775.455
6286.920641805642,513.773
6293.139281413962,384.493
6299.470738832184,426.63
6305.684780516531,379.226
6311.896546218988,-329.19
6318.106037189755,287.053
6324.428181717434,168.545
6330.633084905065,-300.221
6336.835717129172,-337.09
6343.036079636258,402.928
6349.234173671932,-205.414
6355.544716640681,431.897
6361.738235515753,632.044
6367.929489673777,50.037
6374.118480356665,566.206
6380.305208805476,28.969
6386.489676260331,200.147
6392.671883960451,-189.613
6398.851833144166,-76.372
6405.143905470883,447.698
6411.319299566196,313.388
6417.492438877496,-350.258
6423.663324639478,34.236
6429.831958085924,255.451
6435.998340449718,305.488
6442.162472962846,107.974
6448.324356856407,381.86
6454.483993360576,605.709
6460.641383704664,189.613
6466.79652911704,142.21
6472.949430825232,-84.273
6479.100090055821,-234.383
6485.248508034543,265.985
6491.280888225534,250.184
6497.424868822251,-18.435
6503.5666118162335,310.755
6509.706118429633,468.766
6515.843389883739,-342.357
6521.978427398899,339.724
6528.111232194642,142.21
6534.241805489546,50.037
6540.256680928833,5.267
6546.382836142315,234.383
6552.506763482961,105.341
6558.628464165849,18.435
6564.747939405184,0.0
6570.751928194237,-23.702
6576.866997341494,76.372
6582.979844660076,1040.239
6589.090471360658,531.97
6595.0857801617385,331.823
6601.192010321647,210.681
6607.296023467985,126.409
6613.39782080795,34.236
6619.384468430493,152.744
6625.481878753591,57.484
6631.577076864334,-238.994
6637.5572509579,-614.889
6643.64806916556,-948.405
6649.623946782151,-1117.738
6655.71038980603,-1001.091
6661.794626582923,-476.667
6667.764048126817,242.284
6673.843916808139,84.273
6679.809053455574,-429.263
6685.884558743659,439.797
6691.957863728712,150.11
6697.916561697035,-21.068
6703.985510351609,518.803
6709.939934962422,387.127
6716.004531971987,202.781
6721.954687820689,252.818
6728.014937863976,-76.372
6733.960829539363,-152.744
6739.904610751524,-344.991
6745.95836937274,-376.914
6751.897893261092,-253.268
6757.947316561804,-49.045
6763.8825876987685,160.76
6769.927680334353,301.155
6775.858703285812,297.145
6781.787623684751,73.738
6787.826249230238,-234.383
6793.750928258974,31.602
6799.673508107371,481.934
6805.705676935038,416.096
6811.624022213946,-205.414
6817.540271677499,-97.44
6823.5659941374615,595.175
6829.478015817709,316.022
6835.387945040406,126.409
6841.407231460638,-2.634
6847.312939671727,526.703
6853.216558775894,297.587
6859.118089881435,-76.372
6865.017534095896,231.749
6871.026143398485,313.388
6876.921377827312,-23.702
6882.814528703813,542.504
6888.705597132364,171.179
6894.594584216582,692.615
6900.592544785228,221.215
6906.477333270021,587.274
6912.360043737404,47.403
6918.240677287846,-121.142
6924.119235021055,589.908
6929.995718035963,358.158
6935.870127430717,321.289
6941.742464302697,305.488
6947.6127297485,302.854
6953.480924863958,121.142
6959.347050744116,71.105
6965.21110848328,337.09
6971.073099174937,574.107
6976.93302391185,284.42
6982.79088378598,576.74
6988.64667988853,197.514
6994.500413309928,7.901
7000.35208513985,-297.587
7006.201696467178,455.598
7012.049248380063,79.006
7017.894741965851,213.315
7023.738178311156,350.258
7029.579558501813,100.074
7035.418883622879,47.403
7041.2561547586665,181.713
7047.091372992727,42.136
7052.924539407839,679.447
7058.645653010426,258.085
7064.474757695687,468.766
7070.301813785409,-279.153
7076.126822359336,368.692
7081.949784496486,202.781
7087.660891581778,250.184
7093.479802640664,129.042
7099.296670474898,-202.781
7105.111496160462,492.468
7110.814624476749,381.86
7116.625407570507,237.017
7122.434151718757,247.551
7128.2408579944895,-79.006
7133.936024250346,165.912
7139.73869639702,5.267
7145.53933386541,-65.838
7151.22854892195,371.326
7157.025158582874,450.331
7162.819736753059,576.74
7168.503009933542,-10.534
7174.293566604632,-352.891
7180.082094965896,229.116
7185.759435574095,50.037
7191.54394873148,566.206
7197.2173519438,192.247
7202.997854073568,776.887
7208.667323984642,155.377
7214.443819257263,186.98
7220.109359956041,608.342
7225.881852536215,255.451
7231.54346810597,703.149
7237.311962152613,339.724
7242.969656670975,321.289
7248.734156337254,352.891
7254.387933876205,50.037
7260.148443309525,42.136
7265.798307935409,505.635
7271.554831277448,194.88
7277.20078705097,205.414
7282.953328437674,905.93
7288.59537941395,252.818
7294.235498085545,289.687
7299.982093204053,-113.241
7305.618313131272,118.508
7311.252603748333,355.525
7316.993261813666,645.212
7322.623659726734,102.707
7328.252131317968,595.175
7333.9868615261075,884.862
7339.611446441268,-123.775
7345.234108016753,384.493
7350.962919544712,447.698
7356.581700459581,226.482
7362.198561010817,252.818
7367.813502182726,-281.786
7373.426524958988,-92.173
7379.145517410223,376.593
7384.7546694986595,508.269
7390.361906157261,289.687
7395.967228366993,300.221
7401.570637108154,737.385
7407.279835705631,526.703
7412.879383697611,28.969
7418.477021176703,237.017
7424.072749120482,-160.645
7429.666568505905,179.079
7435.258480309247,155.377
7440.848485506111,-115.875
7446.436585071431,503.002
7452.022779979503,-44.77
7457.607071203925,558.306
7463.296794702215,126.409
7468.877244915177,-437.164
7474.455794380043,123.775
7480.032444067743,550.405
7485.607194948596,437.164
7491.18004799222,-100.074
7496.751004167574,655.746
7502.2129850032,-100.074
7507.7801867781745,-223.849
7513.345494569261,605.709
7518.908909342786,421.363
7524.470432064445,-139.576
7530.03006369928,15.801
7535.587805211653,258.085
7541.1436575652915,-410.829
7546.697621723266,732.118
7552.249698647978,7.901
7557.693172648,371.326
7563.241514237732,379.226
7568.787971459049,-437.164
7574.332545271769,813.757
7579.87523663506,107.974
7585.416046507413,-81.639
7590.848475703144,629.411
7596.385561603231,176.446
7601.920768865631,898.029
7607.454098446255,811.123
7612.879194899509,481.934
7618.4088080453,89.54
7623.936546354853,260.718
7629.462410781522,287.053
7634.880189328982,-134.309
7640.402344837916,384.493
7645.9226293018255,-263.352
7651.334937948188,181.713
7656.851519109852,368.692
7662.260197498763,589.908
7667.773079083498,1003.37
7673.284094334183,421.363
7678.687316594296,437.164
7684.194637864675,-10.534
7689.7000956236625,313.388
7695.097870006797,323.923
7700.599639370841,753.186
7705.993798107356,695.248
7711.491882781789,158.011
7716.882429503323,584.641
7722.376833188511,584.641
7727.763771521855,-463.499
7733.254497913214,163.278
7738.637831480286,121.142
7744.124884268305,-139.576
7749.504616686187,5.267
7754.987999556393,26.335
7760.364134437317,150.11
7765.738489349154,271.252
7771.216392021717,-337.09
7776.587154788423,484.567
7782.061396717661,326.556
7787.428570939446,52.67
7792.793969640064,1082.375
7798.262745065967,463.499
7803.624560595526,229.116
7808.984603262106,-200.147
7814.447920368751,-937.532
7819.804385227417,737.385
7825.159079875983,260.718
7830.616946831127,721.584
7835.968069024231,1124.596
7841.317423654822,1311.534
7846.665011598543,1333.471
7852.115636126822,1241.482
7857.459658723532,1086.64
7862.801917273948,920.019
7868.142412651388,792.689
7873.481145728587,655.746
7878.922746278997,281.786
7884.257922859626,229.116
7889.59133977185,213.315
7894.922997886111,121.142
7900.252898072242,139.576
7905.581041199541,750.552
7910.907428136696,28.969
7916.336446752692,-150.11
7921.65928952102,176.446
7926.980378718883,234.383
7932.29971521271,-355.525
7937.617299868325,790.055
7942.933133550996,252.818
7948.247217125423,534.604
7953.559551455743,337.09
7958.870137405502,121.142
7964.178975837705,244.917
7969.486067614758,265.985
7974.791413598527,300.221
7980.0950146503055,194.88
7985.396871630804,144.843
7990.696985400187,-213.315
7995.995356818043,521.436
8001.291986743403,639.945
8006.586876034729,592.541
8011.880025549901,279.153
8017.067699705829,687.348
8022.357406311574,466.132
8027.645375694708,610.976
8032.931608710882,455.598
8038.216106215201,595.175
8043.498869062179,458.232
8048.779898105804,302.854
8053.955695240969,747.919
8059.233293192043,624.143
8064.509159881611,387.127
8069.783296161415,-60.571
8074.952338977277,368.692
8080.223050878609,766.353
8085.492034905405,107.974
8090.759291907168,416.096
8095.921593616502,-176.446
8101.185432936367,152.744
8106.447547759821,603.075
8111.604810570996,437.164
8116.863512715307,171.179
8122.120492886879,666.28
8127.272724173963,950.7
8132.526296659391,-23.702
8137.778149690843,342.357
8142.925356813517,518.803
8148.173807142077,479.3
8153.4205405305,474.033
8158.562730834117,711.05
8163.806066493191,-86.906
8168.944927307508,389.76
8174.184868536668,289.687
8179.32040309432,313.388
8184.55695318873,15.801
8189.689164718173,237.017
8194.922326968728,318.656
8200.051218694258,376.593
8205.280996387602,481.934
8210.406571529322,92.173
8215.632967947844,466.132
8220.7552297217,524.07
8225.978248143558,308.121
8231.097199761349,50.037
8236.316843460441,1764.456
8241.43248812982,605.709
8246.546496881761,468.766
8251.76110130029,692.615
8256.871807891675,911.969
8261.98088093357,1062.603
8267.190453365733,1140.866
8272.296229025691,1143.099
8277.400373499535,1065.649
8282.604921225458,904.864
8287.705773086778,657.084
8292.804996120794,318.656
8298.004526406577,155.377
8303.100461588281,761.086
8308.194770296956,0.0
8313.28745331115,774.254
8318.48031600209,192.247
8323.569717486189,503.002
8328.657495624051,400.295
8333.743651192239,210.681
8338.828184966831,12.417
8344.012739449463,-156.431
8349.093999566121,-267.841
8354.17364022991,-293.787
8359.251662214898,-206.252
8364.328066294685,22.79
8369.402853242376,421.363
8374.476023830553,697.882
8379.547578831349,28.969
8384.718901354245,258.085
8389.787195221597,429.263
8394.853875830348,450.331
8399.91894395064,323.923
8404.98240035212,73.738
8410.044245803958,568.84
8415.104481074803,229.116
8420.163106932847,262.625
8425.220124145773,713.599
8430.275533480788,1335.316
8435.32933570461,1881.056
8440.381531583458,2104.094
8445.432121883085,1757.706
8450.48110736873,595.175
8455.528488805172,-797.956
8460.473367100913,15.801
8465.51757477424,397.661
8470.560180674485,489.834
8475.601185564497,529.337
8480.64059020661,492.468
8485.67839536271,5.267
8490.714601794163,850.626
8495.749210261878,2.634
8500.681576948675,-773.977
8505.713023691114,-1173.82
8510.742874734438,-1256.346
8515.771130837642,-1081.008
8520.797792759218,-707.259
8525.722375497866,-194.554
8530.745883175656,397.661
8535.7677989293,800.589
8540.788123515384,466.132
8545.706498587671,869.061
8550.723674892208,463.499
8555.739262280982,582.007
8560.652997083213,-547.771
8565.665440644778,84.273
8570.676297538128,708.416
8575.585398634048,574.107
8580.593116146138,131.676
8585.599249233324,550.405
8590.503723174297,458.232
8595.506721317797,621.51
8600.508137275468,273.886
8605.40799060051,10.534
8610.406276043708,223.849
8615.303062904772,495.101
8620.298220771765,215.948
8625.191944046568,221.215
8630.18397727198,468.766
8635.074639834631,782.154
8640.063551349394,721.584
8644.951156070434,603.075
8649.936948801806,208.048
8654.821498548154,-155.377
8659.804175419777,352.891
8664.685673054784,553.039
8669.665236986599,-15.801
8674.543685370048,613.609
8679.520139278378,-173.812
8684.395541266465,434.53
8689.2694364983,618.876
8694.241246509358,92.173
8699.112099609058,753.186
8703.981448060618,318.656
8708.948620671701,300.221
8713.81493124642,874.328
8718.779005433622,-179.079
8723.642280973501,560.939
8728.504055374753,1073.221
8733.364329332315,1092.864
8738.32224658698,794.037
8743.179491154478,350.9
8748.035237374625,-62.377
8752.889485940628,-271.637
8757.8412577103,-102.707
8762.692482517024,408.195
8767.542211760752,574.107
8772.39044613298,260.718
8777.336083836857,373.959
8782.18130006664,576.74
8787.02502351089,-86.906
8791.867254859393,1040.239
8796.707994801498,816.39
8801.547244026118,526.703
8806.385003221756,202.781
8811.319956958603,-202.781
8816.154707786565,263.352
8820.987970662514,563.573
8825.819746273257,600.442
8830.650035305174,579.374
8835.478838444196,740.018
8840.306156375878,695.248
8845.131989785303,-294.954
8849.956339357173,442.431
8854.779205775758,1074.475
8859.60058972489,-2.634
8864.420491888006,579.374
8869.238912948098,-118.508
8874.055853587757,-13.168
8878.871314489159,534.604
8883.685296334032,431.897
8888.497799803714,458.232
8893.308825579123,621.51
8898.118374340735,71.105
8902.926446768637,537.237
8907.634964476681,155.377
8912.440116370435,458.232
8917.243793954342,553.039
8922.045997906822,466.132
8926.846728905857,487.201
8931.645987629043,371.326
8936.443774753548,919.097
8941.142221650607,-297.587
8945.937097605834,571.473
8950.73050397759,-150.11
8955.522441441404,-2.634
8960.215160665939,510.902
8965.004192282166,136.943
8969.791757000756,808.49
8974.577855495572,-210.681
8979.26485751475,-197.514
8984.048055470721,645.212
8988.829789208343,813.757
8993.51251749025,-308.121
8998.291354655303,742.652
9003.068729603765,-429.263
9007.747189991118,468.766
9012.521672326067,197.514
9017.294694442531,160.645
9021.968892767374,297.587
9026.739026222178,779.521
9031.41039612206,-3897.605
9036.17764353675,410.829
9040.943434050514,342.357
9045.610551571128,252.818
9050.373459984672,316.022
9055.037755503963,395.028
9059.797784430888,589.908
9064.45926050758,911.197
9069.216412558366,481.934
9073.87507174812,250.184
9078.629349530078,397.661
9083.285194385431,550.937
9088.036600502714,617.114
9092.689633573158,615.121
9097.438170626783,563.881
9102.088394458704,482.313
9106.73722909284,389.35
9111.481482183284,303.908
9116.12751137963,244.917
9120.868901881862,255.451
9125.512128179163,360.792
9130.153968412898,152.744
9134.891084617178,260.718
9139.53012574118,516.169
9144.167782675046,397.661
9148.9006303586,5.267
9153.535491965213,371.326
9158.168971251744,268.619
9162.801068836525,-2.634
9167.528243916331,79.006
9172.157551197888,1016.537
9176.785478643267,1045.506
9181.412026869286,34.236
9186.13353953768,624.143
9190.757302472506,284.42
9195.37968804908,821.657
9200.000696882766,450.331
9204.620329588544,439.797
9209.334785850184,487.201
9213.951639506451,758.453
9218.567118890363,671.547
9223.181224615444,168.545
9227.79395729483,613.609
9232.40531754132,237.017
9237.015305967328,471.4
9241.623923184923,318.656
9246.23116980579,634.678
9250.932987640888,1224.585
9255.537466379788,534.604
9260.140576367572,661.013
9264.742318214474,208.048
9269.342692530376,244.917
9273.941699924766,487.201
9278.539341006806,705.783
9283.135616385269,471.4
9287.730526668583,-123.775
9292.324072464791,123.775
9296.91625438162,437.164
9301.411444872112,471.4
9306.00092923447,318.656
9310.589051525738,603.075
9315.175812352172,563.573
9319.761212319692,761.086
9324.345252033823,1027.072
9328.927932099774,321.289
9333.509253122353,189.613
9338.08921570604,553.039
9342.572446701386,-15.801
9347.149722488744,460.865
9351.7256416359,439.797
9356.300204745894,244.917
9360.873412421412,86.906
9365.350032145325,229.116
9369.920558965528,392.394
9374.489732144635,676.814
9379.05755228394,516.169
9383.528899030936,368.692
9388.09404305015,237.017
9392.657835818722,142.21
9397.125240831178,384.493
9401.6863610176,373.959
9406.246131739394,158.011
9410.80455359534,358.158
9415.266701898625,642.578
9419.822455888205,60.571
9424.281993052333,661.013
9428.835081516963,113.241
9433.38682407955,310.755
9437.84243511156,529.337
9442.391515668474,263.352
9446.84452129656,368.692
9451.390942182352,376.593
9455.93602012123,726.851
9460.385108237591,450.331
9464.927530014324,344.991
9469.374018445214,926.998
9473.913786387537,687.348
9478.35767741084,779.521
9482.894793843763,874.328
9487.33608973474,65.838
9491.87055698055,-481.934
9496.30926001177,271.252
9500.74668109923,21.068
9505.277192831463,405.562
9509.71202445114,213.315
9514.23989277796,-15.801
9518.672137195834,-7.901
9523.103102466685,123.775
9527.62702390948,468.766
9532.05540536064,376.593
9536.57668916292,-15.801
9541.002489053764,579.374
9545.42701258622,926.998
9549.850260312329,318.656
9554.36630345335,65.838
9558.78697410632,747.919
9563.206370618926,961.234
9567.718482324255,-65.838
9572.13530512818,584.641
9576.550855454823,863.794
9580.965133854,763.72
9585.47202083257,368.692
9589.883729992052,218.582
9594.294168883298,337.09
9598.703338054846,144.843
9603.111238054931,-129.042
9607.611613766734,434.53
9612.016950092931,326.556
9616.421018902103,613.609
9620.823820741218,44.77
9625.225356156909,445.064
9629.625625695517,647.845
9634.02462990307,784.788
9638.422369325252,179.079
9642.81884450748,68.471
9647.21405599481,371.326
9651.701478874824,-350.258
9656.094137748323,-44.77
9660.485534571855,418.729
9664.875669889248,626.777
9669.264544244,932.265
9673.65215817932,679.447
9678.03851223808,447.698
9682.423606962846,44.77
9686.807442895892,381.86
9691.19002057915,537.237
9695.478134071804,379.226
9699.858223622705,-68.471
9704.23705653629,671.547
9708.614633353289,-121.142
9712.990954614088,329.19
9717.36602085878,305.488
9721.739832627154,97.44
9726.112390458671,-560.939
9730.483694892511,471.4
9734.760779687776,260.718
9739.129605581998,271.252
9743.497179682729,-52.67
9747.863502527893,316.022
9752.228574655115,-105.341
9756.499562339395,-10.534
9760.862161224974,265.985
9765.223510992222,429.263
9769.583612177565,466.132
9773.849736751828,911.197
9778.207368918504,242.284
9782.563754099236,100.074
9786.918892829211,313.388
9791.18016259473,329.19
9795.532836519418,-555.672
9799.884265585692,234.383
9804.14190615754,-113.241
9808.490873566669,223.849
9812.83859770701,123.775
9817.09261371952,-5.267
9821.437879345483,171.179
9825.689490172908,297.587
9830.032299369228,300.221
9834.373867936378,747.919
9838.621861899856,539.871
9842.960977171238,629.411
9847.206571054325,524.07
9851.543235108787,205.414
9855.786430944943,-397.661
9860.12064585897,998.103
9864.361445679362,287.053
9868.693213527116,790.055
9872.931619360628,316.022
9877.26094221391,44.77
9881.49695608711,268.619
9885.823836015392,450.331
9890.057459952584,790.055
9894.289902518456,368.692
9898.613135046206,658.379
9902.843190697367,255.451
9907.163985452502,202.781
9911.391656207565,300.221
9915.61814808206,445.064
9919.935303126713,292.32
9924.15941311792,542.504
9928.38234571751,513.536
9932.695865648708,76.372
9936.91641937277,708.416
9941.135797191648,-215.948
9945.445686598703,313.388
9949.662688544726,223.849
9953.878516069532,234.383
9958.09316966365,-13.168
9962.398234183594,-44.77
9966.61051589339,355.525
9970.821625153134,500.368
9975.031562452265,260.718
9979.240328279942,574.107
9983.53937957713,484.567
9987.745778488254,713.683
9991.95100740443,803.223
9996.155066813732,716.317
10000.357957203963,676.814
10004.55967906266,518.803
10008.760232877092,208.048
10013.050897176752,26.335
10017.249090997648,194.88
10021.446118245014,268.619
10025.641979405023,763.72
10029.83667496358,1008.637
10034.03020540632,210.681
10038.222571218605,929.631
10042.413772885537,371.326
10046.603810891938,626.777
10050.79268572236,-200.147
10054.980397861098,416.096
10059.16694779218,405.562
10063.352335999334,505.635
10067.536562966066,518.803
10071.719629175575,603.075
10075.90153511081,152.744
10080.082281254454,610.976
10084.26186808891,144.843
10088.440296096323,223.849
10092.52676786215,118.508
10096.702904826674,-10.65
10100.877884398516,-88.307
10105.051707058765,-121.194
10109.224373288234,-116.054
10113.395883567471,-79.616
10117.475590772649,-18.619
10121.64481569536,60.202
10125.812886097472,150.11
10129.979802458443,460.865
10134.145565257517,1337.827
10138.219652237512,421.363
10142.383134400929,100.074
10146.545464428116,-126.409
10150.706642797257,55.304
10154.776246850048,542.504
10158.935148346747,118.508
10163.092899607942,661.013
10167.159152430871,126.409
10171.314629631466,905.93
10175.468958016776,387.127
10179.531863747628,234.383
10183.683920879565,-121.142
10187.834830614069,163.278
10191.894393383842,908.563
10196.043034667582,684.714
10200.190529969435,371.326
10204.246753902304,34.236
10208.391983551395,294.954
10212.44599199288,668.913
10216.588957845182,429.263
10220.640752609928,682.081
10224.781456519388,726.851
10228.831039420063,-158.011
10232.969483238625,945.433
10237.016856085897,294.954
10241.15304166346,294.954
10245.19820626604,15.801
10249.332135450502,113.241
10253.375093615126,547.771
10257.506768252357,44.77
10261.547521783785,471.4
10265.58718577827,674.18
10269.715494418666,397.661
10273.752956473523,563.573
10277.87901516247,313.388
10281.91427707755,-79.006
10285.948451675904,289.687
10290.0711512271,458.232
10294.10312837192,600.442
10298.13401952729,-5.267
10302.253364041218,310.755
10306.282060424935,531.97
10310.309672144327,318.656
10314.425665714796,273.886
10318.451085340042,492.468
10322.475421623927,252.818
10326.498675003731,358.158
10330.610215200984,397.661
10334.631280043344,634.678
10338.651263301725,279.153
10342.670165412448,790.055
10346.687986811625,136.943
10350.704727935088,558.306
10354.80961387438,692.615
10358.824171771252,173.812
10362.837650708272,550.405
10366.850051120337,265.985
10370.86137344214,165.912
10374.871618108127,513.536
10378.880785552512,-115.875
10382.888876209276,921.731
10386.984923052532,205.414
10390.990837530662,450.331
10394.995676531347,205.414
10398.999440487634,179.079
10403.00212983234,268.645
10407.003744998048,391.822
10411.004286417105,525.829
10415.003754521616,647.884
10419.002149743475,735.204
10422.999472514348,765.005
10426.995723265634,714.513
10430.990902428544,560.939
10434.985010434026,342.357
10438.889325180557,268.619
10442.881315942828,323.923
10446.872236829608,221.215
10450.86208827093,658.379
10454.85087069661,163.278
10458.838584536235,-592.541
10462.82523021915,239.65
10466.810808174472,687.348
10470.706785742112,2.634
10474.690253232264,-39.503
10478.672654271297,121.142
10482.653989287404,258.085
10486.634258708573,110.608
10490.525047770485,363.425
10494.50321094102,121.142
10498.480309789697,650.479
10502.45634474356,697.882
10506.342995080442,126.409
10510.316927143493,321.289
10514.2897965821,-323.923
10518.261603822417,121.142
10522.144122034457,718.95
10526.113829736623,244.917
10530.082476508169,118.508
10533.961905709137,265.985
10537.92845544769,34.236
10541.89394552126,208.048
10545.770289396216,576.74
10549.733684937964,-57.937
10553.607981637546,279.153
10557.569284306495,442.431
10561.52952941227,215.948
10565.400746905443,134.309
10569.35890163298,-168.545
10573.22807600992,750.552
10577.184142013864,608.342
10581.05127489159,355.525
10585.005253824836,387.127
10588.87034681866,113.241
10592.822240332363,289.687
10596.685295055897,337.09
10600.635104799476,-126.409
10604.496122864624,442.431
10608.443850485746,439.797
10612.302833502728,-100.074
10616.160811022752,355.525
10620.10543022464,426.63
10623.9613750996,189.613
10627.903916281392,276.519
10631.757830117263,231.749
10635.61074043666,-176.446
10639.550179321655,679.447
10643.401060998756,52.67
10647.250940343372,97.44
10651.187280591832,-397.661
10655.035133687184,287.053
10658.881985632182,86.906
10662.815230898605,168.545
10666.660058983602,168.545
10670.50388709854,134.309
10674.346715633475,189.613
10678.275847672114,492.468
10682.116655520924,387.127
10685.956464967534,84.273
10689.795276401208,158.011
10693.633090210977,-755.819
10697.557095575656,123.775
10701.39289265285,118.508
10705.227693280882,513.536
10709.061497847986,-50.037
10712.894306742182,181.713
10716.726120351308,558.306
10720.55693906298,208.048
10724.386763264632,-208.048
10728.302600658342,-360.792
10732.130414421008,197.514
10735.957234843503,242.284
10739.783062312445,342.357
10743.60789721425,73.738
10747.431739935131,239.65
10751.254590861114,408.195
10755.076450378,-76.372
10758.897318871408,-501.746
10762.717196726757,-687.255
10766.536084329256,-685.199
10770.353982063916,-547.875
10774.170890315563,-327.58
10777.98680946881,-76.617
10781.801739908076,152.714
10785.615682017564,308.121
10789.341989100834,239.65
10793.153978142976,-192.247
10796.964979998098,379.226
10800.774995049622,226.482
10804.58402368077,163.278
10808.392066274577,65.838
10812.199123213884,218.582
10816.005194881312,-376.593
10819.723813349112,774.254
10823.52793799081,-2.634
10827.331078498672,-118.508
10831.133235254529,136.943
10834.848029253728,252.818
10838.64824198676,668.913
10842.447472103491,-5.267
10846.24571998498,713.683
10849.956695412544,113.241
10853.753002267928,676.814
10857.548328021428,-97.44
10861.342673053316,234.383
10865.049835794096,-165.912
10868.842242790466,126.409
10872.63367019626,-287.053
10876.337982712816,258.085
10880.12747431772,31.602
10883.82989575329,265.985
10887.617453039476,-7.901
10891.404032613404,-142.21
10895.103609289945,-2.634
10898.88825677408,-471.4
10902.585945994537,292.32
10906.368662867266,358.158
10910.150403901262,-310.755
10913.845253813895,-205.414
10917.62506645972,729.484
10921.318032531915,-279.153
10925.095918264182,18.435
10928.787001936307,-21.068
10932.562962228116,358.158
10936.252164939066,229.116
10939.940438510435,121.142
10943.713524449233,-21.068
10947.399919206764,-28.969
10951.171083372872,-147.477
10954.855600751816,-200.147
10958.62484461311,31.602
10962.307486047235,571.473
10965.989200819247,165.912
10969.755577991731,239.65
10973.435418958636,-21.068
10977.114334320191,194.88
10980.877848072992,-308.121
10984.554891765896,92.173
10988.231010908596,443.358
10991.991664505884,486.688
10995.665914113146,320.043
10999.33924022374,41.304
11003.011643185791,-251.648
11006.768495629847,-460.939
11010.439031890255,-488.689
11014.108646053544,-237.017
11017.777338467138,244.917
11021.530395518184,445.064
11025.197224058184,205.414
11028.863131897786,-260.718
11032.528119383707,468.766
11036.192186862492,84.273
11039.855334680517,329.19
11043.602720353196,-387.127
11047.264008520897,550.405
11050.924378073953,144.843
11054.58382935806,79.006
11058.242362718707,155.377
11061.899978501227,344.991
11065.556677050785,105.341
11069.21245871235,281.786
11072.867323830738,71.105
11076.521272750586,-229.116
11080.174305816368,136.943
11083.826423372368,194.88
11087.477625762698,-337.09
11091.127913331318,97.44
11094.777286422,-47.403
11098.425745378345,260.718
11102.073290543767,371.326
11105.719922261547,163.278
11109.36564087477,63.204
11113.010446726335,-284.42
11116.654340159006,173.812
11120.29732151534,-92.173
11123.93939113774,474.033
11127.580549368427,163.278
11131.22079654947,410.829
11134.77550763161,474.033
11138.413954906267,34.236
11142.051492148485,-36.869
11145.688119699626,-368.692
11149.323837900913,476.667
11152.958647093375,-129.042
11156.508048620988,-158.011
11160.141061938251,-179.079
11163.773167260852,234.383
11167.40436492916,-429.263
11170.950240228543,352.891
11174.579644697213,139.576
11178.208142523734,139.576
11181.751381744987,-26.335
11185.378088371155,76.372
11189.003889365817,-47.403
11192.628785068173,-134.309
11196.16850723805,179.079
11199.79161440632,-294.954
11203.413817290922,-89.54
11206.950910239968,50.037
11210.571326582844,987.569
11214.10667518314,76.372
11217.725306305692,181.713
11221.343034819707,131.676
11224.875759069631,355.525
11228.49170435076,-613.609
11232.022687482247,-429.263
11235.636850848638,-223.849
11239.166094148528,-413.462
11242.778476917028,-397.661
11246.305981670925,492.468
11249.91658515709,-115.875
11253.442352649325,76.372
11257.05117816741,-426.63
11260.575209681025,213.315
11264.182258544,189.613
11267.704555360804,-102.707
11271.309828880325,-36.869
11274.83039228086,-73.738
11278.350099642112,281.786
11281.952723030843,7.901
11285.470698886753,521.436
11288.987819646914,163.278
11292.587795825824,-21.068
11296.103186988752,197.514
11299.70139304264,121.142
11303.215055883851,158.011
11306.727865201254,171.179
11310.23982130582,226.482
11313.834511810855,358.158
11317.34474212601,-71.105
11320.8541201677,258.085
11324.446172200132,39.503
11327.953826352135,218.582
11331.460629168672,497.735
11334.96658095964,358.158
11338.471682034791,655.746
11342.059356881087,229.116
11345.562737216636,-231.749
11349.06526777208,197.514
11352.566948856567,-105.341
11356.067780779093,168.545
11359.56776384851,-479.3
11363.1502007606,250.184
11366.648466857394,442.431
11370.145885034064,-208.048
11373.642455598843,-31.602
11377.138178859836,189.613
11380.633055125,-73.738
11384.1270847021,-297.587
11387.620267898808,23.702
11391.112605022612,-466.132
11394.60409638087,355.525
11398.094742280777,-292.32
11401.584543029392,-210.681
11405.073498933603,-445.064
11408.561610300185,181.713
11412.048877435727,-339.724
11415.5353006467,-168.545
11419.020880239405,371.326
11422.505616520008,92.173
11425.989509794525,-624.143
11429.472560368817,458.232
11432.954768548592,-21.068
11436.43613463944,-60.571
11439.916658946764,-139.576
11443.313501961433,595.175
11446.79236364179,163.278
11450.270384446749,-158.011
11453.74756468115,115.875
11457.22390464968,92.173
11460.699404656869,408.195
11464.091344754375,-118.508
11467.565185732994,194.88
11471.038187655771,765.788
11474.51035082668,1306.798
11477.981675549512,1760.239
11481.369541233144,2068.436
11484.839209915755,2173.71
11488.30804105362,2018.387
11491.693473394258,1544.793
11495.16065027576,695.248
11498.626990514544,-118.508
11502.092494413417,439.797
11505.474679896604,363.425
11508.938531918346,597.808
11512.401548500471,-121.142
11515.78130675673,-113.241
11519.242673239612,23.702
11522.620821260369,-134.309
11526.080538823127,-210.681
11529.5394224415,-223.849
11532.915147579475,-2.634
11536.372384051368,208.048
11539.74650183491,-57.937
11543.202092336618,-255.451
11546.574603913472,-115.875
11550.028549620163,-705.783
11553.399456136987,-173.812
11556.85175822272,292.32
11560.221060825072,-442.431
11563.67172046279,139.576
11567.039420295116,-142.21
11570.488438656655,268.619
11573.854536862347,208.048
11577.301915118398,-310.755
11580.666412839755,34.236
11584.030120381583,284.42
11587.475050538147,55.304
11590.837159300165,-231.749
11594.280452266124,2.634
11597.64096338792,194.88
11601.000685734118,113.241
11604.441534950183,379.226
11607.79966135666,-97.44
11611.156999826935,-566.206
11614.59540789372,263.352
11617.951152122365,-7.901
11621.306109253032,13.168
11624.66027956261,142.21
11628.09544335218,55.304
11631.44802167594,-218.582
11634.799814015252,160.645
11638.15082064648,-223.849
11641.58274474832,-31.602
11644.932161645294,-134.309
11648.280793669244,-244.917
11651.62864109602,-242.284
11654.975704201344,13.168
11658.403590030808,-194.88
11661.749066206958,-344.991
11665.093758894744,-121.142
11668.43766836938,840.092
11671.780794905935,-229.116
11675.12313877933,347.624
11678.4647002644,113.241
11681.805479635816,-100.074
11685.145477168146,-52.67
11688.484693135812,142.21
11691.904543291126,5.267
11695.24217790648,105.341
11698.579031786354,-460.865
11701.915105204676,210.681
11705.25039843522,50.037
11708.584911751648,819.024
11711.918645427471,218.582
11715.251599736104,231.749
11718.502511651865,81.639
11721.83392703817,202.781
11725.164563870054,81.639
11728.4944224204,142.21
11731.823502961994,429.263
11735.15180576744,84.273
11738.479331109273,155.377
11741.806079259855,434.53
11745.132050491462,-81.639
11748.457245076206,516.169
11751.70058915004,1339.881
11755.024250183047,2017.883
11758.34713537819,2502.766
11761.669245007088,2747.129
11764.990579341233,2703.572
11768.230158619372,2324.687
11771.549962071174,1563.071
11774.86899103535,371.326
11778.187245782876,-626.777
11781.423821624776,429.263
11784.740547618409,279.153
11788.05650020102,-524.07
11791.371679643096,150.11
11794.605256223578,94.807
11797.91890903626,373.959
11801.231789512534,73.738
11804.46312397414,-418.729
11807.774479408556,466.132
11811.085063309589,421.363
11814.314157983485,234.383
11817.623218427994,-218.582
11820.850827315822,-123.775
11824.158365355152,18.435
11827.4651331948,200.147
11830.690506166697,626.777
11833.995753182851,-171.179
11837.219642936305,313.388
11840.52337017791,268.619
11843.745777735792,-366.059
11847.047986250807,142.21
11850.26891263506,-402.928
11853.569603470474,-239.65
11856.789049702087,184.346
11860.088223903953,431.897
11863.30619100298,-105.341
11866.603849616356,-173.812
11869.820338601929,287.053
11873.11648267094,179.079
11876.331494561222,110.608
11879.545777396996,-21.068
11882.839660941268,-23.702
11886.052468201013,86.906
11889.26454715598,-595.175
11892.55617250015,-42.136
11895.766777396242,-134.309
11899.056892350098,-258.085
11902.26602420178,-466.145
11905.474428998024,-713.299
11908.682106985869,-929.89
11911.969222890988,-1046.257
11915.17542984806,-992.743
11918.380910743392,-699.691
11921.66577540321,-97.44
11924.869786778698,452.965
11928.07307283808,-221.215
11931.27563382762,-79.006
11934.477469993468,149.166
11937.758600089848,156.168
11940.95896924119,3.599
11944.158614312782,-246.942
11947.35753555032,-533.861
11950.55573319941,-795.556
11953.753207505528,-970.43
11957.029868231695,-996.888
11960.225878519712,-813.33
11963.42116620667,-358.158
11966.615731537608,63.204
11969.809574757444,-55.304
11973.002696111003,1453.701
11976.195095842992,-92.173
11979.386774197992,18.435
11982.577731420495,-192.247
11985.767967754866,2.634
11988.957483445382,-55.304
11992.146278736183,239.65
11995.334353871312,-302.854
11998.521709094712,-55.304
12001.708344650193,-110.608
12004.894260781464,60.571
12008.079457732136,-297.587
12011.2639357457,-184.346
12014.44769506553,-55.304
12017.630735934905,28.969
12020.81305859698,-189.613
12023.994663294816,632.044
12027.175550271351,-13.168
12030.27622427429,329.19
12033.455694464548,-347.624
12036.634447655608,-215.948
12039.812484089987,-405.562
12042.989804010074,-503.002
12046.166407658158,81.639
12049.26290681064,329.19
12052.4380965329,-171.179
12055.612570703324,158.011
12058.786329563762,-379.226
12061.880055974125,102.707
12065.052402807443,384.493
12068.224035049663,313.388
12071.394952942192,313.388
12074.485910333004,36.869
12077.655418093736,-205.414
12080.824212222367,-292.32
12083.913099633974,-23.702
12087.080485047096,566.206
12090.247157544738,474.033
12093.333977055809,479.3
