Raman Shift,Intensity
91.55994,539.7883
92.04205,543.6659
92.52417,549.3441
93.00629,555.8002
93.4884,559.6359
93.97052,556.9261
94.45264,545.824
94.93475,532.2668
95.41687,520.7083
95.89898,512.0776
96.3811,505.1128
96.86321,498.9021
97.34533,492.7267
97.82745,485.5117
98.30956,478.1292
98.79168,469.7293
99.2738,462.2926
99.75591,456.6324
100.238,452.214
100.7201,447.7642
101.2023,442.4039
101.6844,436.413
102.1665,431.0712
102.6486,426.549
103.1307,422.437
103.6128,418.2071
104.095,413.6516
104.5771,409.7787
105.0592,407.7716
105.5413,406.6988
106.0234,405.2339
106.5055,402.4589
106.9877,398.756
107.4698,395.7986
107.9519,394.3463
108.434,392.671
108.9161,390.1982
109.3982,386.9451
109.8804,383.0513
110.3625,378.3759
110.8446,372.5871
111.3267,367.8587
111.8088,364.6711
112.2909,362.0186
112.7731,359.5374
113.2552,357.1393
113.7373,354.8569
114.2194,352.7629
114.7015,350.8687
115.1836,349.1587
115.6658,347.8661
116.1479,346.6376
116.63,345.1426
117.1121,343.2589
117.5942,341.0598
118.0763,338.6579
118.5584,335.9024
119.0406,333.2839
119.5227,330.7812
120.0048,328.4973
120.4869,326.8061
120.969,326.2279
121.4511,326.0772
121.9333,324.8942
122.4154,322.1022
122.8975,319.2596
123.3796,318.015
123.8617,318.5858
124.3438,318.8549
124.826,317.6587
125.3081,315.683
125.7902,313.3393
126.2723,310.635
126.7544,307.828
127.2365,305.5143
127.7187,303.7354
128.2008,302.4619
128.6829,301.9121
129.165,301.714
129.6471,301.4062
130.1292,300.7149
130.6114,299.6507
131.0935,298.344
131.5756,296.191
132.0577,294.3634
132.5398,293.5146
133.0219,293.2999
133.5041,292.8602
133.9862,291.3873
134.4683,288.6344
134.9504,286.4153
135.4325,284.9531
135.9146,283.724
136.3968,282.4514
136.8789,281.1024
137.361,279.7887
137.8431,278.6378
138.3252,277.6554
138.8073,276.8858
139.2895,276.5572
139.7716,276.3525
140.2537,275.9545
140.7358,275.3241
141.2179,274.3829
141.7,272.8502
142.1821,270.7845
142.6643,268.8307
143.1464,267.2513
143.6285,265.9971
144.1106,264.8991
144.5927,264.0219
145.0748,263.1867
145.557,262.2345
146.0391,261.1649
146.5212,260.0409
147.0033,258.8539
147.4854,257.5763
147.9675,256.4894
148.4497,255.8248
148.9318,255.2536
149.4139,254.6084
149.896,253.8559
150.3781,253.056
150.8602,252.3431
151.3424,251.8787
151.8245,251.1087
152.3066,249.5492
152.7887,247.9606
153.2708,247.0621
153.7529,247.1059
154.2351,247.634
154.7172,247.4976
155.1993,245.8975
155.6814,244.5342
156.1635,243.5622
156.6456,242.8446
157.1278,242.2788
157.6099,241.8289
158.092,241.4151
158.5741,240.6754
159.0562,239.2915
159.5383,237.9864
160.0205,236.8493
160.5026,235.9144
160.9847,235.2898
161.4668,235.1096
161.9489,235.2585
162.431,235.1935
162.9131,235.0247
163.3953,234.5745
163.8774,233.5003
164.3595,231.8798
164.8416,230.5086
165.3237,229.963
165.8058,230.024
166.288,230.1306
166.7701,230.3848
167.2522,230.5367
167.7343,230.2109
168.2164,229.3028
168.6985,228.4175
169.1807,228.1603
169.6628,228.0865
170.1449,227.5683
170.627,226.0713
171.1091,224.164
171.5912,223.2752
172.0734,224.0547
172.5555,224.6837
173.0376,224.3683
173.5197,223.4971
174.0018,222.6134
174.4839,222.0523
174.9661,221.7406
175.4482,221.2227
175.9303,220.1739
176.4124,219.2843
176.8945,218.7702
177.3766,218.5407
177.8588,218.4652
178.3409,218.4988
178.823,218.6449
179.3051,218.3279
179.7872,216.7858
180.2693,215.5271
180.7515,215.1984
181.2336,215.5758
181.7157,216.0213
182.1978,215.9899
182.6799,215.4243
183.162,214.8999
183.6441,214.4561
184.1263,214.0071
184.6084,213.4682
185.0905,212.8636
185.5726,212.3187
186.0547,211.9581
186.5368,211.8127
187.019,211.6749
187.5011,211.6053
187.9832,211.5038
188.4653,211.332
188.9474,211.0811
189.4296,210.6751
189.9117,209.9341
190.3938,208.8796
190.8759,208.0949
191.358,207.7195
191.8401,207.6128
192.3223,207.715
192.8044,208.0751
193.2865,208.3511
193.7686,208.0937
194.2507,207.453
194.7328,206.8406
195.215,206.2827
195.6971,205.8499
196.1792,205.707
196.6613,205.938
197.1434,206.3147
197.6255,206.8542
198.1077,207.4325
198.5898,207.676
199.0719,207.1884
199.554,206.1552
200.0361,205.405
200.5182,205.1556
201.0004,204.9177
201.4825,204.3367
201.9646,203.5478
202.4467,202.8994
202.9288,202.7292
203.4109,202.9972
203.893,203.0067
204.3752,202.5291
204.8573,202.0101
205.3394,201.5087
205.8215,201.0939
206.3036,200.8936
206.7857,201.078
207.2679,201.6773
207.75,202.0747
208.2321,202.2326
208.7142,202.2059
209.1963,201.9182
209.6784,201.4372
210.1606,200.8969
210.6427,200.3806
211.1248,199.8565
211.6069,199.6775
212.089,200.2322
212.5711,200.736
213.0533,200.8621
213.5354,200.6438
214.0175,200.3007
214.4996,200.0271
214.9817,199.8357
215.4638,199.623
215.946,199.4008
216.4281,199.1531
216.9102,198.8182
217.3923,198.4294
217.8744,198.1
218.3565,197.9252
218.8387,197.9175
219.3208,198.0916
219.8029,198.804
220.285,199.3919
220.7671,199.3464
221.2492,198.7041
221.7314,197.9479
222.2135,197.4327
222.6956,197.1982
223.1777,197.2708
223.6598,198.0938
224.1419,198.8985
224.624,198.9795
225.1062,198.3344
225.5883,197.68
226.0704,197.6842
226.5525,198.2418
227.0346,198.4363
227.5167,197.8493
227.9989,197.1033
228.481,196.7973
228.9631,196.9693
229.4452,197.246
229.9273,197.4025
230.4094,197.4551
230.8916,197.4514
231.3737,197.3735
231.8558,197.2553
232.3379,197.0903
232.82,196.856
233.3021,196.7314
233.7843,196.9022
234.2664,197.2485
234.7485,197.6116
235.2306,198.0098
235.7127,198.3588
236.1948,198.5857
236.677,198.7221
237.1591,198.602
237.6412,197.6674
238.1233,196.5722
238.6054,196.1286
239.0875,196.7965
239.5697,197.9173
240.0518,198.3934
240.5339,198.0181
241.016,197.6631
241.4981,197.8219
241.9802,198.101
242.4624,198.0597
242.9445,197.4746
243.4266,196.7409
243.9087,196.6254
244.3908,197.439
244.8729,198.0179
245.355,197.9113
245.8372,197.5208
246.3193,197.1225
246.8014,196.7997
247.2835,196.6004
247.7656,196.6351
248.2477,197.0151
248.7299,197.3679
249.212,197.6836
249.6941,197.9186
250.1762,197.9843
250.6583,197.8624
251.1404,197.7031
251.6226,197.825
252.1047,198.5423
252.5868,198.8032
253.0689,198.1979
253.551,197.3902
254.0331,196.8059
254.5153,196.5675
254.9974,196.5662
255.4795,196.6781
255.9616,197.0578
256.4437,197.2024
256.9258,196.8685
257.408,196.5112
257.8901,196.4654
258.3722,196.7716
258.8543,197.1983
259.3364,197.4243
259.8185,197.3276
260.3007,197.3357
260.7828,197.5087
261.2649,197.7161
261.747,197.8687
262.2291,197.9632
262.7112,198.0662
263.1934,198.2729
263.6755,198.6635
264.1576,198.8473
264.6397,198.7783
265.1218,198.5861
265.6039,198.2043
266.0861,197.7173
266.5682,197.3958
267.0503,197.5327
267.5324,198.2209
268.0145,198.7912
268.4966,199.3692
268.9788,199.7484
269.4609,199.7544
269.943,199.4454
270.4251,199.0123
270.9072,198.5754
271.3893,198.1285
271.8715,197.9968
272.3536,198.3627
272.8357,198.7905
273.3178,199.1733
273.7999,199.4747
274.282,199.5864
274.7642,199.3681
275.2463,198.8897
275.7284,199.0636
276.2105,200.6694
276.6926,201.9283
277.1747,202.0066
277.6568,201.2822
278.1389,200.6265
278.6211,200.5211
279.1032,200.8296
279.5853,200.9714
280.0674,200.8348
280.5495,200.7014
281.0316,200.5016
281.5138,200.3682
281.9959,200.6349
282.478,201.5113
282.9601,202.657
283.4422,203.1347
283.9243,202.634
284.4065,202.1826
284.8886,201.8361
285.3707,201.7013
285.8528,202.0435
286.3349,202.9979
286.817,204.1605
287.2992,204.8374
287.7813,204.9189
288.2634,204.9419
288.7455,204.8627
289.2276,204.8154
289.7097,205.0814
290.1919,205.7425
290.674,206.3289
291.1561,206.1082
291.6382,204.9079
292.1203,204.3077
292.6024,204.9026
293.0846,205.9179
293.5667,206.6257
294.0488,206.9334
294.5309,207.1086
295.013,207.4223
295.4951,207.8644
295.9773,208.0563
296.4594,207.7424
296.9415,207.3476
297.4236,207.1186
297.9057,207.0841
298.3878,207.3414
298.87,208.0723
299.3521,209.1759
299.8342,209.9673
300.3163,210.2646
300.7984,210.4176
301.2805,210.6582
301.7627,210.9439
302.2448,211.0621
302.7269,210.8525
303.209,210.4314
303.6911,210.1356
304.1732,209.843
304.6554,209.8388
305.1375,210.5802
305.6196,211.7323
306.1017,212.3554
306.5838,211.9824
307.0659,211.1311
307.5481,210.7842
308.0302,210.9602
308.5123,211.3523
308.9944,212.0257
309.4765,212.819
309.9586,213.4871
310.4408,213.9875
310.9229,214.2547
311.405,214.0226
311.8871,213.2547
312.3692,212.852
312.8513,213.2447
313.3335,213.9765
313.8156,214.538
314.2977,214.8541
314.7798,215.0319
315.2619,215.0661
315.744,214.9923
316.2262,215.2417
316.7083,216.2795
317.1904,217.3488
317.6725,217.7571
318.1546,217.5204
318.6367,217.1544
319.1188,216.9016
319.601,216.8237
320.0831,217.0639
320.5652,218.0012
321.0473,218.8725
321.5294,219.1817
322.0115,219.0562
322.4937,218.9561
322.9758,219.1119
323.4579,219.4025
323.94,219.479
324.4221,219.1482
324.9042,219.047
325.3864,219.6683
325.8685,220.636
326.3506,221.2149
326.8327,221.1411
327.3148,220.7403
327.7969,220.4336
328.2791,220.1663
328.7612,220.2192
329.2433,220.9996
329.7254,221.9652
330.2075,222.4202
330.6896,222.2445
331.1718,221.9197
331.6539,221.8999
332.136,222.2169
332.6181,222.6047
333.1002,223.0205
333.5823,223.5284
334.0645,224.3029
334.5466,225.2826
335.0287,226.0796
335.5108,226.3793
335.9929,226.2512
336.475,226.272
336.9572,226.431
337.4393,226.7252
337.9214,227.2871
338.4035,227.9881
338.8856,228.4835
339.3677,228.5746
339.8499,228.4517
340.332,228.6517
340.8141,229.3774
341.2962,230.003
341.7783,230.4567
342.2604,230.7297
342.7426,230.7055
343.2247,230.3501
343.7068,229.9868
344.1889,230.1015
344.671,230.9702
345.1531,231.5227
345.6353,231.3095
346.1174,231.0839
346.5995,231.5994
347.0816,232.8136
347.5637,233.965
348.0458,234.3355
348.528,233.8761
349.0101,233.6101
349.4922,233.6809
349.9743,233.7667
350.4564,233.6465
350.9385,233.4319
351.4207,233.4013
351.9028,233.7292
352.3849,234.3385
352.867,234.9082
353.3491,235.586
353.8312,236.0419
354.3134,235.9786
354.7955,235.7732
355.2776,235.9123
355.7597,236.5572
356.2418,237.423
356.7239,238.0202
357.2061,238.1073
357.6882,238.4175
358.1703,239.3661
358.6524,240.2085
359.1345,240.2554
359.6166,239.5711
360.0987,238.8608
360.5808,238.8393
361.063,239.5985
361.5451,240.1535
362.0272,240.3112
362.5093,240.4772
362.9914,240.8285
363.4735,241.2858
363.9557,241.6835
364.4378,241.9238
364.9199,242.0242
365.402,242.0404
365.8841,241.6998
366.3662,241.6732
366.8484,242.2643
367.3305,243.0743
367.8126,243.7511
368.2947,244.1709
368.7768,244.3919
369.2589,244.4787
369.7411,244.3731
370.2232,244.289
370.7053,244.0396
371.1874,243.9701
371.6695,244.4895
372.1516,245.4437
372.6338,246.1976
373.1159,246.093
373.598,245.1641
374.0801,244.5628
374.5622,244.4522
375.0443,244.4997
375.5265,244.6005
376.0086,244.7715
376.4907,245.0766
376.9728,245.5863
377.4549,246.1572
377.937,246.4404
378.4192,246.3227
378.9013,246.2384
379.3834,246.4289
379.8655,246.6263
380.3476,246.5315
380.8297,246.0926
381.3119,245.7249
381.794,245.9709
382.2761,246.8142
382.7582,247.3786
383.2403,247.4005
383.7224,247.2879
384.2046,247.3476
384.6867,247.5277
385.1688,247.6322
385.6509,247.484
386.133,247.1988
386.6151,247.0712
387.0973,247.161
387.5794,247.1853
388.0615,246.6664
388.5436,246.0684
389.0257,246.1952
389.5078,247.6411
389.99,249.0273
390.4721,248.8441
390.9542,247.3151
391.4363,246.2397
391.9184,246.3464
392.4005,246.9924
392.8827,247.2763
393.3648,247.1788
393.8469,247.0868
394.329,247.3653
394.8111,247.6759
395.2932,247.2877
395.7754,246.0188
396.2575,244.8807
396.7396,244.8836
397.2217,245.9375
397.7038,246.6528
398.1859,246.8659
398.6681,246.8248
399.1501,246.625
399.6323,246.2958
400.1144,245.8969
400.5965,245.4328
401.0786,244.958
401.5607,244.6506
402.0428,244.5818
402.525,244.5213
403.0071,244.3797
403.4892,244.2468
403.9713,244.2394
404.4534,244.3798
404.9355,244.5986
405.4177,244.8515
405.8998,245.2053
406.3819,245.1956
406.864,244.3589
407.3461,243.6472
407.8282,243.7055
408.3104,244.2867
408.7925,244.6925
409.2746,244.4705
409.7567,243.7758
410.2388,243.3255
410.7209,243.4281
411.2031,243.3838
411.6852,242.887
412.1673,242.3547
412.6494,242.3332
413.1315,242.8996
413.6136,243.4802
414.0958,243.1852
414.5779,241.6432
415.06,240.7173
415.5421,240.9412
416.0242,241.3079
416.5063,241.5198
416.9885,241.5646
417.4706,241.4968
417.9527,241.3276
418.4348,241.0948
418.9169,240.935
419.399,240.8996
419.8812,240.825
420.3633,240.5636
420.8454,240.2945
421.3275,240.219
421.8096,240.3899
422.2917,240.5972
422.7739,240.637
423.256,240.513
423.7381,240.2982
424.2202,239.8607
424.7023,239.5359
425.1844,239.7616
425.6666,240.3481
426.1487,240.5937
426.6308,239.9801
427.1129,238.9574
427.595,238.1068
428.0771,237.4196
428.5593,237.065
429.0414,237.3678
429.5235,237.9515
430.0056,237.9542
430.4877,237.1003
430.9698,236.2912
431.452,236.1162
431.9341,236.2817
432.4162,236.1443
432.8983,235.5145
433.3804,234.7955
433.8625,234.4637
434.3447,234.5802
434.8268,234.661
435.3089,234.755
435.791,234.7531
436.2731,234.516
436.7552,234.1056
437.2374,233.7651
437.7195,233.6676
438.2016,233.6825
438.6837,233.3092
439.1658,231.872
439.6479,230.9132
440.1301,230.9305
440.6122,231.2497
441.0943,231.2729
441.5764,230.8675
442.0585,230.2153
442.5406,229.4691
443.0227,228.5629
443.5049,228.0427
443.987,228.3956
444.4691,228.6365
444.9512,228.3762
445.4333,227.8175
445.9154,227.3269
446.3976,227.1028
446.8797,227.0038
447.3618,226.6848
447.8439,226.0285
448.326,225.5019
448.8081,225.4436
449.2903,225.3521
449.7724,224.8046
450.2545,223.8312
450.7366,222.9177
451.2187,222.5237
451.7008,222.5143
452.183,222.3334
452.6651,221.9539
453.1472,221.4461
453.6293,220.7112
454.1114,219.9061
454.5935,219.2785
455.0757,218.9613
455.5578,218.6779
456.0399,218.1571
456.522,217.4612
457.0041,216.8753
457.4862,216.5204
457.9684,216.2153
458.4505,215.7339
458.9326,215.089
459.4147,214.3294
459.8968,213.2724
460.3789,212.2462
460.8611,211.6712
461.3432,211.4616
461.8253,211.0481
462.3074,210.0257
462.7895,208.5857
463.2716,207.5005
463.7538,207.2515
464.2359,206.7043
464.718,205.3815
465.2001,203.882
465.6822,202.9374
466.1643,202.6229
466.6465,202.3262
467.1286,201.3233
467.6107,199.4872
468.0928,198.0864
468.5749,197.4508
469.057,196.9052
469.5392,196.3557
470.0213,195.7625
470.5034,195.1371
470.9855,194.4919
471.4676,193.6986
471.9497,192.467
472.4319,190.682
472.914,188.9745
473.3961,187.389
473.8782,185.9616
474.3603,184.7968
474.8424,183.8405
475.3246,182.8501
475.8067,181.6554
476.2888,180.3483
476.7709,179.0812
477.253,177.8432
477.7351,176.7591
478.2173,176.017
478.6994,175.3954
479.1815,174.5395
479.6636,173.3822
480.1457,172.1916
480.6278,171.1081
481.11,170.0794
481.592,168.9667
482.0742,167.7379
482.5563,166.6
483.0384,165.7833
483.5205,165.28
484.0026,164.5501
484.4847,163.5076
484.9669,162.3499
485.449,161.0771
485.9311,159.754
486.4132,158.4753
486.8953,157.2727
487.3774,156.1598
487.8596,155.2091
488.3417,154.6404
488.8238,153.5885
489.3059,151.8092
489.788,149.8708
490.2701,147.9358
490.7523,146.0755
491.2344,144.4161
491.7165,143.0823
492.1986,141.88
492.6807,140.2232
493.1628,137.9099
493.645,135.7137
494.1271,133.829
494.6092,132.1084
495.0913,130.5787
495.5734,129.19
496.0555,127.6276
496.5377,125.5318
497.0198,123.1206
497.5019,121.0078
497.984,119.2369
498.4661,117.6061
498.9482,115.9981
499.4304,114.4533
499.9125,113.0632
500.3946,111.894
500.8767,110.7173
501.3588,109.344
501.8409,107.8987
502.3231,106.5907
502.8052,105.4671
503.2873,104.4277
503.7694,103.3765
504.2515,102.3051
504.7336,101.3494
505.2158,100.7719
505.6979,100.0061
506.18,98.63832
506.6621,97.01452
507.1442,95.68174
507.6263,94.83177
508.1085,94.23416
508.5906,93.55372
509.0727,92.77523
509.5548,91.96473
510.0369,91.0055
510.519,90.13285
511.0012,89.45358
511.4833,88.92252
511.9654,88.46902
512.4475,88.08138
512.9296,87.6737
513.4117,87.06519
513.8939,86.22521
514.376,85.39864
514.8581,84.5981
515.3402,83.86785
515.8223,83.23328
516.3044,82.69392
516.7866,82.24369
517.2687,82.01629
517.7508,81.79662
518.2329,81.21618
518.715,80.30662
519.1971,79.55081
519.6793,79.22082
520.1614,79.12695
520.6435,78.83524
521.1256,78.26372
521.6077,77.77376
522.0898,77.54414
522.572,77.33907
523.0541,76.85733
523.5362,76.15997
524.0183,75.64057
524.5004,75.61966
524.9825,75.96572
525.4647,75.98731
525.9468,75.39089
526.4289,74.87632
526.911,74.55115
527.3931,74.29366
527.8752,74.03105
528.3574,73.7397
528.8395,73.39915
529.3216,72.96481
529.8037,72.4621
530.2858,72.03743
530.7679,71.69263
531.2501,71.42563
531.7322,71.32073
532.2143,71.25365
532.6964,71.06625
533.1785,70.71143
533.6606,70.40636
534.1428,70.3605
534.6249,70.45177
535.107,70.41966
535.5891,70.22818
536.0712,69.94777
536.5533,69.60616
537.0355,69.2178
537.5176,68.88076
537.9997,68.34145
538.4818,68.15293
538.9639,68.95657
539.446,69.97414
539.9282,70.11758
540.4103,69.22555
540.8924,68.07235
541.3745,67.47427
541.8566,67.45016
542.3387,67.32407
542.8209,66.9846
543.3029,66.67327
543.785,66.50485
544.2672,66.35786
544.7493,66.06722
545.2314,65.59637
545.7135,65.10617
546.1956,64.7727
546.6777,64.58589
547.1599,64.45824
547.642,64.42965
548.1241,64.36612
548.6062,64.08647
549.0883,63.73764
549.5704,63.58281
550.0526,63.76127
550.5347,63.93447
551.0168,63.88617
551.4989,63.68062
551.981,63.40606
552.4631,63.0767
552.9453,62.8408
553.4274,62.884
553.9095,63.20757
554.3916,63.25816
554.8737,62.87148
555.3558,62.45259
555.838,62.05878
556.3201,61.71645
556.8022,61.48791
557.2843,61.37248
557.7664,61.26045
558.2485,61.01271
558.7307,60.6244
559.2128,60.2746
559.6949,59.93344
560.177,59.68538
560.6591,59.63774
561.1412,59.65098
561.6234,59.53799
562.1055,59.24248
562.5876,58.92869
563.0697,58.7611
563.5518,58.69219
564.0339,58.56022
564.5161,58.33968
564.9982,58.08512
565.4803,57.81183
565.9624,57.53748
566.4445,57.32874
566.9266,57.23019
567.4088,57.13312
567.8909,56.98593
568.373,56.82682
568.8551,56.73793
569.3372,56.71593
569.8193,56.62266
570.3015,56.30904
570.7836,55.79236
571.2657,55.43438
571.7478,55.38661
572.2299,55.29747
572.712,55.07515
573.1942,54.81195
573.6763,54.57885
574.1584,54.39317
574.6405,54.25903
575.1226,54.22839
575.6047,54.25811
576.0869,54.1299
576.569,53.78579
577.0511,53.54015
577.5332,53.7005
578.0153,53.95235
578.4974,53.74498
578.9796,52.94456
579.4617,52.25304
579.9438,51.9585
580.4259,51.89719
580.908,51.95986
581.3901,52.0971
581.8723,52.13668
582.3544,51.94921
582.8365,51.62399
583.3186,51.47118
583.8007,51.7682
584.2828,51.80918
584.765,51.3437
585.2471,50.8358
585.7292,50.63549
586.2113,50.67753
586.6934,50.65199
587.1755,50.33575
587.6577,49.88688
588.1398,49.70152
588.6219,49.8275
589.104,49.88727
589.5861,49.77629
590.0682,49.5817
590.5504,49.35912
591.0325,49.11861
591.5146,48.93188
591.9967,48.862
592.4788,48.82008
592.9609,48.7443
593.4431,48.63575
593.9252,48.49727
594.4073,48.3291
594.8894,48.14172
595.3715,47.94226
595.8536,47.71407
596.3358,47.55153
596.8179,47.47284
597.3,47.42918
597.7821,47.45128
598.2642,47.48005
598.7463,47.42514
599.2285,47.25776
599.7106,47.05289
600.1927,46.88285
600.6748,46.74809
601.1569,46.69878
601.639,46.79384
602.1212,46.8534
602.6033,46.73529
603.0854,46.52708
603.5675,46.36908
604.0496,46.30814
604.5317,46.20496
605.0139,45.93083
605.496,45.5961
605.9781,45.34881
606.4602,45.21011
606.9423,45.17219
607.4244,45.25054
607.9066,45.40417
608.3887,45.44643
608.8708,45.30534
609.3529,45.14901
609.835,44.95799
610.3171,44.77578
610.7993,44.62531
611.2814,44.51127
611.7635,44.44731
612.2456,44.47322
612.7277,44.50247
613.2098,44.30789
613.692,43.86101
614.1741,43.5152
614.6562,43.37859
615.1383,43.34018
615.6204,43.28002
616.1025,43.2099
616.5847,43.22127
617.0668,43.44447
617.5489,43.64373
618.031,43.64412
618.5131,43.51515
618.9952,43.42483
619.4774,43.41888
619.9595,43.35187
620.4416,43.01498
620.9237,42.37069
621.4058,42.01378
621.8879,42.16903
622.3701,42.34956
622.8522,42.4573
623.3343,42.54015
623.8164,42.67945
624.2985,42.87907
624.7806,43.01064
625.2628,42.95646
625.7448,42.75647
626.2269,42.47683
626.709,42.10514
627.1912,41.82013
627.6733,41.70949
628.1554,41.725
628.6375,41.82319
629.1196,42.06113
629.6017,42.11451
630.0839,41.70528
630.566,41.30197
631.0481,41.31288
631.5302,41.589
632.0123,41.72069
632.4944,41.51946
632.9766,41.16821
