Raman Shift,Intensity
92.04205,781.5262
92.52417,793.7178
93.00629,805.3766
93.4884,811.346
93.97052,807.5538
94.45264,794.1476
94.93475,782.6765
95.41687,771.3378
95.89898,760.3245
96.3811,750.0964
96.86321,741.1145
97.34533,733.0419
97.82745,724.2533
98.30956,716.2648
98.79168,708.3805
99.2738,701.9965
99.75591,697.7367
100.238,695.0591
100.7201,692.748
101.2023,689.9313
101.6844,686.9842
102.1665,685.1175
102.6486,684.423
103.1307,684.5834
103.6128,685.6174
104.095,687.7021
104.5771,689.5488
105.0592,690.3365
105.5413,690.1505
106.0234,688.8926
106.5055,686.0496
106.9877,681.9908
107.4698,678.2557
107.9519,674.7913
108.434,671.6897
108.9161,668.8545
109.3982,666.3195
109.8804,664.2034
110.3625,662.5485
110.8446,661.2861
111.3267,660.8735
111.8088,661.8594
112.2909,663.1501
112.7731,664.4582
113.2552,665.6285
113.7373,666.5029
114.2194,666.8629
114.7015,666.7156
115.1836,665.8459
115.6658,664.8092
116.1479,662.8671
116.63,659.0726
117.1121,653.0237
117.5942,645.5129
118.0763,638.3378
118.5584,631.64
119.0406,624.873
119.5227,617.5763
120.0048,610.0466
120.4869,603.0421
120.969,596.9477
121.4511,591.6748
121.9333,586.743
122.4154,582.1806
122.8975,577.8946
123.3796,573.9667
123.8617,570.4349
124.3438,566.8268
124.826,562.8932
125.3081,558.7877
125.7902,554.5115
126.2723,549.9382
126.7544,545.4045
127.2365,541.7891
127.7187,539.5712
128.2008,537.5279
128.6829,535.2133
129.165,532.8153
129.6471,530.6318
130.1292,528.8972
130.6114,527.5639
131.0935,525.9037
131.5756,523.8768
132.0577,521.5272
132.5398,518.6252
133.0219,515.3653
133.5041,512.1671
133.9862,509.3717
134.4683,507.0007
134.9504,504.9531
135.4325,503.3478
135.9146,501.8944
136.3968,500.4596
136.8789,499.02
137.361,497.584
137.8431,496.1303
138.3252,494.5973
138.8073,493.4674
139.2895,492.9615
139.7716,492.7913
140.2537,492.808
140.7358,493.1086
141.2179,493.0838
141.7,491.6938
142.1821,489.0839
142.6643,486.4213
143.1464,483.9504
143.6285,481.7556
144.1106,480.2278
144.5927,479.9862
145.0748,479.8369
145.557,478.6042
146.0391,476.2866
146.5212,473.8702
147.0033,472.2116
147.4854,471.3779
147.9675,470.6278
148.4497,470.1475
148.9318,469.4916
149.4139,468.3432
149.896,466.6529
150.3781,464.6626
150.8602,462.6537
151.3424,460.3291
151.8245,458.6649
152.3066,457.9434
152.7887,457.6532
153.2708,457.4316
153.7529,457.1385
154.2351,456.8182
154.7172,456.5874
155.1993,456.7092
155.6814,456.5947
156.1635,456.2598
156.6456,455.6671
157.1278,454.6911
157.6099,453.2428
158.092,451.4881
158.5741,450.1524
159.0562,449.5058
159.5383,448.8992
160.0205,448.0696
160.5026,447.1559
160.9847,446.5447
161.4668,446.5702
161.9489,447.0021
162.431,446.8333
162.9131,445.4994
163.3953,444.1556
163.8774,443.5312
164.3595,443.5651
164.8416,443.6874
165.3237,443.6704
165.8058,443.454
166.288,442.9396
166.7701,441.9644
167.2522,440.8036
167.7343,439.6964
168.2164,438.6079
168.6985,437.7498
169.1807,437.2684
169.6628,437.085
170.1449,437.2019
170.627,437.8247
171.1091,438.6291
171.5912,438.8193
172.0734,438.0933
172.5555,437.2728
173.0376,436.6365
173.5197,436.1344
174.0018,435.6985
174.4839,435.3008
174.9661,434.939
175.4482,434.5946
175.9303,434.2194
176.4124,433.9309
176.8945,433.77
177.3766,433.7158
177.8588,433.7097
178.3409,433.6801
178.823,433.6246
179.3051,433.9613
179.7872,435.3181
180.2693,436.4489
180.7515,436.8147
181.2336,436.6022
181.7157,436.3312
182.1978,436.4304
182.6799,436.9229
183.162,437.6006
183.6441,439.0178
184.1263,440.0983
184.6084,440.036
185.0905,438.9825
185.5726,437.865
186.0547,437.5414
186.5368,438.1478
187.019,438.7192
187.5011,439.1313
187.9832,439.5927
188.4653,440.1971
188.9474,440.963
189.4296,442.0069
189.9117,443.6055
190.3938,445.7291
190.8759,447.4927
191.358,448.2375
191.8401,448.8288
192.3223,450.2687
192.8044,452.7341
193.2865,455.7336
193.7686,458.7629
194.2507,461.9105
194.7328,465.6856
195.215,470.308
195.6971,475.663
196.1792,481.5374
196.6613,487.8943
197.1434,494.8643
197.6255,502.9445
198.1077,511.7549
198.5898,520.1467
199.0719,528.5186
199.554,536.2826
200.0361,540.8944
200.5182,542.2053
201.0004,539.952
201.4825,533.8362
201.9646,524.5713
202.4467,513.8771
202.9288,502.3247
203.4109,490.0091
203.893,478.9131
204.3752,469.2386
204.8573,460.8542
205.3394,453.9537
205.8215,448.3272
206.3036,443.4752
206.7857,439.0361
207.2679,434.9971
207.75,431.636
208.2321,429.4425
208.7142,427.5226
209.1963,425.6127
209.6784,423.7481
210.1606,422.11
210.6427,420.871
211.1248,420.0702
211.6069,419.3866
212.089,419.0886
212.5711,418.651
213.0533,417.7208
213.5354,416.4191
214.0175,415.1445
214.4996,414.2591
214.9817,413.8039
215.4638,413.5012
215.946,413.3306
216.4281,413.2892
216.9102,413.5371
217.3923,413.9765
217.8744,414.228
218.3565,413.8938
218.8387,412.8721
219.3208,412.1967
219.8029,412.1933
220.285,412.2253
220.7671,411.8641
221.2492,411.1191
221.7314,410.3077
222.2135,409.6707
222.6956,409.2328
223.1777,408.9507
223.6598,408.8234
224.1419,408.8463
224.624,409.1279
225.1062,409.6498
225.5883,410.075
226.0704,410.0941
226.5525,409.7408
227.0346,409.4221
227.5167,409.1588
227.9989,408.9431
228.481,408.7904
228.9631,408.7044
229.4452,408.6172
229.9273,408.4829
230.4094,408.3095
230.8916,408.1177
231.3737,407.8675
231.8558,407.6244
232.3379,407.4913
232.82,407.4885
233.3021,407.4525
233.7843,407.241
234.2664,406.9325
234.7485,406.6392
235.2306,406.383
235.7127,406.1583
236.1948,405.9278
236.677,405.6592
237.1591,405.5172
237.6412,405.6842
238.1233,405.9963
238.6054,406.316
239.0875,406.6673
239.5697,406.9124
240.0518,406.7113
240.5339,405.838
241.016,405.2514
241.4981,405.6444
241.9802,406.3569
242.4624,406.712
242.9445,406.4017
243.4266,405.8854
243.9087,406.1033
244.3908,407.5254
244.8729,408.3716
245.355,407.6778
245.8372,406.4899
246.3193,405.7419
246.8014,405.7685
247.2835,406.065
247.7656,405.6626
248.2477,404.0986
248.7299,402.9509
249.212,402.7166
249.6941,402.8194
250.1762,402.9202
250.6583,402.9012
251.1404,402.6946
251.6226,402.1415
252.1047,401.0537
252.5868,400.0484
253.0689,399.0115
253.551,398.1703
254.0331,397.6749
254.5153,397.5689
254.9974,397.8019
255.4795,398.4349
255.9616,400.0856
256.4437,400.7317
256.9258,399.6172
257.408,398.2114
257.8901,397.5468
258.3722,397.7696
258.8543,398.2291
259.3364,397.9739
259.8185,396.4233
260.3007,395.6565
260.7828,396.0483
261.2649,396.7491
261.747,397.2565
262.2291,397.5122
262.7112,397.76
263.1934,398.317
263.6755,399.3657
264.1576,400.0337
264.6397,399.9736
265.1218,399.8966
265.6039,400.2169
266.0861,400.9242
266.5682,401.742
267.0503,402.3996
267.5324,402.8567
268.0145,403.4002
268.4966,403.9932
268.9788,404.6834
269.4609,405.6406
269.943,406.7568
270.4251,407.6548
270.9072,407.9629
271.3893,407.6413
271.8715,407.8878
272.3536,408.832
272.8357,410.0757
273.3178,411.5509
273.7999,413.1969
274.282,414.9032
274.7642,416.6012
275.2463,418.2939
275.7284,419.9881
276.2105,421.5418
276.6926,423.2464
277.1747,425.0181
277.6568,427.0172
278.1389,429.6712
278.6211,433.3162
279.1032,437.6398
279.5853,441.3109
280.0674,443.5641
280.5495,446.2089
281.0316,449.9703
281.5138,454.3973
281.9959,458.7934
282.478,462.9113
282.9601,466.6653
283.4422,469.6732
283.9243,471.8048
284.4065,473.6314
284.8886,475.6965
285.3707,477.4156
285.8528,477.7671
286.3349,476.336
286.817,473.9336
287.2992,471.8639
287.7813,470.2682
288.2634,468.5223
288.7455,466.585
289.2276,464.433
289.7097,461.9491
290.1919,459.0906
290.674,456.1945
291.1561,453.5284
291.6382,451.0487
292.1203,449.3617
292.6024,449.2513
293.0846,449.555
293.5667,449.0752
294.0488,447.6637
294.5309,446.0463
295.013,444.8012
295.4951,443.9667
295.9773,443.4635
296.4594,443.6704
296.9415,443.931
297.4236,443.7027
297.9057,442.9904
298.3878,442.1489
298.87,441.3764
299.3521,440.6856
299.8342,440.085
300.3163,439.8609
300.7984,439.4709
301.2805,438.4017
301.7627,436.812
302.2448,435.4509
302.7269,434.7918
303.209,434.5656
303.6911,433.9388
304.1732,432.7476
304.6554,431.4748
305.1375,430.2812
305.6196,429.168
306.1017,428.1358
306.5838,427.1878
307.0659,426.3247
307.5481,425.5514
308.0302,424.8454
308.5123,424.2631
308.9944,423.7999
309.4765,423.478
309.9586,423.4601
310.4408,423.8715
310.9229,424.2223
311.405,423.6606
311.8871,422.1429
312.3692,421.0251
312.8513,420.7023
313.3335,420.855
313.8156,421.0771
314.2977,421.3034
314.7798,421.7938
315.2619,422.9415
315.744,424.6938
316.2262,426.1258
316.7083,426.9845
317.1904,427.6203
317.6725,428.2065
318.1546,428.7784
318.6367,429.5447
319.1188,430.6664
319.601,432.116
320.0831,433.6473
320.5652,435.4166
321.0473,437.1192
321.5294,438.6752
322.0115,440.0463
322.4937,441.023
322.9758,441.3197
323.4579,441.3813
323.94,442.3981
324.4221,444.8323
324.9042,447.0487
325.3864,448.5736
325.8685,449.4819
326.3506,449.848
326.8327,449.6349
327.3148,449.1057
327.7969,448.6193
328.2791,448.1667
328.7612,447.7894
329.2433,447.6439
329.7254,447.5115
330.2075,447.0264
330.6896,446.1254
331.1718,445.2952
331.6539,445.0521
332.136,445.4562
332.6181,445.8221
333.1002,446.0576
333.5823,446.3002
334.0645,446.3998
334.5466,446.4698
335.0287,447.2414
335.5108,449.4044
335.9929,452.7282
336.475,455.3355
336.9572,456.6088
337.4393,457.9263
337.9214,459.9666
338.4035,462.5016
338.8856,464.922
339.3677,466.9101
339.8499,468.6862
340.332,470.818
340.8141,473.0281
341.2962,475.9793
341.7783,480.0841
342.2604,484.9012
342.7426,489.8324
343.2247,494.6874
343.7068,499.7198
344.1889,505.2391
344.671,511.28
345.1531,517.9432
345.6353,524.962
346.1174,532.7425
346.5995,541.5232
347.0816,551.3054
347.5637,562.2353
348.0458,574.3407
348.528,587.7128
349.0101,602.0345
349.4922,617.0026
349.9743,633.0165
350.4564,650.4518
350.9385,668.9494
351.4207,687.9849
351.9028,707.2542
352.3849,726.5616
352.867,745.257
353.3491,765.6984
353.8312,782.5839
354.3134,796.3701
354.7955,805.8142
355.2776,809.464
355.7597,806.7875
356.2418,798.4978
356.7239,785.587
357.2061,766.4066
357.6882,745.3131
358.1703,721.1525
358.6524,696.1022
359.1345,670.9089
359.6166,646.0492
360.0987,622.8387
360.5808,602.486
361.063,585.1657
361.5451,569.0994
362.0272,554.1029
362.5093,540.4756
362.9914,528.6877
363.4735,518.2871
363.9557,508.6595
364.4378,499.3922
364.9199,490.6255
365.402,482.9925
365.8841,477.3199
366.3662,471.7486
366.8484,465.7278
367.3305,459.8823
367.8126,454.8619
368.2947,450.882
368.7768,447.58
369.2589,444.4283
369.7411,441.4583
370.2232,438.5766
370.7053,435.6015
371.1874,432.8452
371.6695,430.5451
372.1516,428.6479
372.6338,426.8241
373.1159,424.7854
373.598,422.5442
374.0801,420.3868
374.5622,418.0264
375.0443,416.1471
375.5265,415.3175
376.0086,415.0018
376.4907,414.367
376.9728,412.9535
377.4549,411.1126
377.937,409.6251
378.4192,408.5986
378.9013,407.6267
379.3834,406.4502
379.8655,405.3722
380.3476,404.6042
380.8297,404.1911
381.3119,404.133
381.794,404.6813
382.2761,405.8156
382.7582,406.3137
383.2403,405.3808
383.7224,404.5475
384.2046,405.0898
384.6867,406.6487
385.1688,407.9141
385.6509,407.9121
386.133,407.1682
386.6151,406.8574
387.0973,407.0337
387.5794,407.4515
388.0615,408.2645
388.5436,409.1534
389.0257,409.6556
389.5078,409.6623
389.99,409.2993
390.4721,408.5651
390.9542,407.497
391.4363,406.4274
391.9184,405.492
392.4005,404.5621
392.8827,403.39
393.3648,401.9415
393.8469,400.6942
394.329,400.0766
394.8111,399.7043
395.2932,398.9699
395.7754,397.769
396.2575,396.3508
396.7396,394.8519
397.2217,393.2933
397.7038,391.8554
398.1859,390.4264
398.6681,389.2114
399.1501,388.3002
399.6323,387.7046
400.1144,387.5189
400.5965,387.8731
401.0786,388.5321
401.5607,388.7926
402.0428,388.417
402.525,388.1242
403.0071,387.9923
403.4892,388.0252
403.9713,388.2065
404.4534,388.5369
404.9355,389.0903
405.4177,389.9853
405.8998,391.3051
406.3819,392.5417
406.864,393.7225
407.3461,394.8036
407.8282,395.6416
408.3104,396.3611
408.7925,397.263
409.2746,398.5586
409.7567,400.1582
410.2388,401.6683
410.7209,403.0134
411.2031,404.3568
411.6852,405.6557
412.1673,406.9892
412.6494,408.44
413.1315,410.0265
413.6136,411.6941
414.0958,413.292
414.5779,414.6663
415.06,416.632
415.5421,419.8708
416.0242,423.0736
416.5063,425.516
416.9885,427.5114
417.4706,429.8464
417.9527,433.1173
418.4348,437.0322
418.9169,440.6558
419.399,443.9084
419.8812,446.9974
420.3633,449.659
420.8454,452.3505
421.3275,455.6248
421.8096,459.6288
422.2917,463.6262
422.7739,466.7483
423.256,469.036
423.7381,471.5627
424.2202,474.7661
424.7023,477.8287
425.1844,480.2885
425.6666,482.1557
426.1487,483.4466
426.6308,484.0463
427.1129,484.128
427.595,483.8441
428.0771,483.1758
428.5593,482.4755
429.0414,481.9041
429.5235,481.4416
430.0056,481.0971
430.4877,481.124
430.9698,480.7002
431.452,478.9656
431.9341,476.5685
432.4162,474.9085
432.8983,474.4085
433.3804,474.1604
433.8625,472.8857
434.3447,470.3297
434.8268,469.2438
435.3089,470.499
435.791,472.5811
436.2731,474.7496
436.7552,476.9067
437.2374,478.9925
437.7195,480.9481
438.2016,482.8493
438.6837,484.9584
439.1658,487.5635
439.6479,490.016
440.1301,492.7725
440.6122,495.0703
441.0943,495.9967
441.5764,495.4645
442.0585,494.3577
442.5406,493.9632
443.0227,494.7918
443.5049,492.5832
443.987,484.8649
444.4691,476.6299
444.9512,468.7546
445.4333,461.5514
445.9154,455.2191
446.3976,449.9429
446.8797,445.4929
447.3618,441.3758
447.8439,437.5609
448.326,434.1827
448.8081,431.4677
449.2903,429.0353
449.7724,426.5305
450.2545,423.998
450.7366,421.9375
451.2187,420.896
451.7008,420.6747
452.183,420.5053
452.6651,420.42
453.1472,420.2685
453.6293,419.739
454.1114,419.1392
454.5935,418.9465
455.0757,419.3395
455.5578,420.0047
456.0399,420.8555
456.522,421.8042
457.0041,422.4989
457.4862,422.8618
457.9684,422.8908
458.4505,422.5449
458.9326,421.8538
459.4147,420.8536
459.8968,419.6252
460.3789,418.0409
460.8611,415.9441
461.3432,413.3663
461.8253,410.4671
462.3074,407.2715
462.7895,403.8809
463.2716,400.6349
463.7538,397.7541
464.2359,394.7208
464.718,391.0567
465.2001,387.4087
465.6822,384.4474
466.1643,382.2845
466.6465,380.6487
467.1286,379.3056
467.6107,378.2972
468.0928,377.0526
468.5749,375.2649
469.057,373.5599
469.5392,371.9417
470.0213,370.5594
470.5034,369.7439
470.9855,369.6655
471.4676,369.8069
471.9497,369.1864
472.4319,367.6046
472.914,366.145
473.3961,364.9558
473.8782,363.9526
474.3603,363.1624
474.8424,362.5428
475.3246,361.9227
475.8067,361.2016
476.2888,360.419
476.7709,359.6373
477.253,358.8534
477.7351,358.1154
478.2173,357.4575
478.6994,356.8562
479.1815,356.2677
479.6636,355.6811
480.1457,355.1431
480.6278,354.6272
481.11,354.1873
481.592,353.9646
482.0742,353.9912
482.5563,354.0446
483.0384,353.8895
483.5205,353.5371
484.0026,353.4304
484.4847,353.7585
484.9669,354.1078
485.449,354.3854
485.9311,354.5537
486.4132,354.5167
486.8953,354.2411
487.3774,353.8779
487.8596,353.6613
488.3417,353.5566
488.8238,353.7123
489.3059,354.5168
489.788,355.1694
490.2701,355.0563
490.7523,354.4825
491.2344,354.1938
491.7165,354.6714
492.1986,355.6402
492.6807,356.2608
493.1628,356.2116
493.645,356.7039
494.1271,358.8559
494.6092,361.0052
495.0913,361.9171
495.5734,361.5977
496.0555,361.0804
496.5377,360.9226
497.0198,361.1189
497.5019,361.7818
497.984,363.0388
498.4661,364.1563
498.9482,364.5765
499.4304,364.6642
499.9125,365.1423
500.3946,366.198
500.8767,367.2774
501.3588,368.1278
501.8409,368.8175
502.3231,369.4605
502.8052,370.0773
503.2873,370.6932
503.7694,371.3252
504.2515,371.979
504.7336,372.6697
505.2158,373.3021
505.6979,374.0712
506.18,375.042
506.6621,376.1963
507.1442,377.4897
507.6263,378.9077
508.1085,380.4907
508.5906,382.4026
509.0727,384.9756
509.5548,386.6719
510.0369,386.3314
510.519,386.266
511.0012,387.6258
511.4833,389.873
511.9654,391.8529
512.4475,392.9293
512.9296,393.6812
513.4117,395.1844
513.8939,397.5326
514.376,399.9598
514.8581,402.2905
515.3402,404.6883
515.8223,407.2581
516.3044,409.9955
516.7866,412.8492
517.2687,415.5542
517.7508,418.5187
518.2329,422.3792
518.715,427.0953
519.1971,432.0076
519.6793,436.7462
520.1614,441.5735
520.6435,447.0953
521.1256,453.5806
521.6077,459.8727
522.0898,465.2674
522.572,470.7204
523.0541,477.0418
523.5362,484.2221
524.0183,491.886
524.5004,499.7536
524.9825,507.7926
525.4647,516.0565
525.9468,524.515
526.4289,533.179
526.911,541.5742
527.3931,550.5206
527.8752,560.6287
528.3574,571.9763
528.8395,584.2797
529.3216,597.3069
529.8037,611.05
530.2858,625.6021
530.7679,640.7285
531.2501,657.1329
531.7322,675.2855
532.2143,694.7872
532.6964,715.6299
533.1785,737.8363
533.6606,761.0798
534.1428,785.1354
534.6249,810.1354
535.107,836.7448
535.5891,865.0903
536.0712,894.5272
536.5533,924.8318
537.0355,955.8076
537.5176,985.5864
537.9997,1014.75
538.4818,1042.25
538.9639,1069.052
539.446,1093.582
539.9282,1114.369
540.4103,1130.904
540.8924,1142.838
541.3745,1149.633
541.8566,1151.256
542.3387,1148.911
542.8209,1141.936
543.3029,1131.385
543.785,1117.259
544.2672,1099.803
544.7493,1078.928
545.2314,1054.719
545.7135,1028.428
546.1956,1001.091
546.6777,972.7519
547.1599,945.2408
547.642,918.9718
548.1241,892.9684
548.6062,866.2925
549.0883,839.6022
549.5704,813.7162
550.0526,788.8063
550.5347,764.8744
551.0168,741.6949
551.4989,719.4486
551.981,698.5953
552.4631,679.2484
552.9453,660.5818
553.4274,641.7646
553.9095,622.7369
554.3916,605.1076
554.8737,589.428
555.3558,574.2575
555.838,559.0368
556.3201,544.0749
556.8022,529.8867
557.2843,516.5583
557.7664,504.1229
558.2485,492.5521
558.7307,481.9166
559.2128,471.8777
559.6949,462.6466
560.177,453.8712
560.6591,445.202
561.1412,436.9439
561.6234,429.4018
562.1055,422.6851
562.5876,416.608
563.0697,411.0387
563.5518,405.9807
564.0339,401.5569
564.5161,397.856
564.9982,394.3087
565.4803,390.4858
565.9624,386.4831
566.4445,382.7077
566.9266,379.1354
567.4088,375.8212
567.8909,372.9657
568.373,370.2957
568.8551,367.4823
569.3372,364.4695
569.8193,361.2447
570.3015,357.7777
570.7836,354.0886
571.2657,350.8265
571.7478,348.0001
572.2299,345.6201
572.712,344.0979
573.1942,342.7347
573.6763,340.7694
574.1584,338.1407
574.6405,335.5602
575.1226,333.7118
575.6047,332.4316
576.0869,330.9975
576.569,329.3273
577.0511,327.8687
577.5332,327.0617
578.0153,326.4733
578.4974,325.2911
578.9796,323.2736
579.4617,321.7032
579.9438,321.4347
580.4259,321.6473
580.908,321.4326
581.3901,320.7426
581.8723,319.8738
582.3544,318.9665
582.8365,318.1102
583.3186,317.6207
583.8007,318.0941
584.2828,318.0155
584.765,316.8591
585.2471,315.6011
585.7292,314.8866
586.2113,314.6611
586.6934,314.5415
587.1755,314.3163
587.6577,313.9958
588.1398,313.4908
588.6219,312.7057
589.104,312.4448
589.5861,313.3651
590.0682,314.359
590.5504,314.2435
591.0325,313.201
591.5146,312.4157
591.9967,312.4398
592.4788,312.6992
592.9609,312.6771
593.4431,312.4848
593.9252,312.5846
594.4073,313.18
594.8894,313.7183
595.3715,313.317
595.8536,311.5606
596.3358,310.7714
596.8179,311.8135
597.3,312.7152
597.7821,312.5371
598.2642,311.8744
598.7463,311.6858
599.2285,312.2845
599.7106,313.0665
600.1927,313.2373
600.6748,312.8249
601.1569,312.6428
601.639,312.8153
602.1212,313.0232
602.6033,313.0373
603.0854,312.9851
603.5675,313.0872
604.0496,313.4443
604.5317,313.7323
605.0139,313.7818
605.496,313.6658
605.9781,313.4498
606.4602,313.159
606.9423,312.8822
607.4244,312.6799
607.9066,312.5507
608.3887,312.4883
608.8708,312.6668
609.3529,312.6608
609.835,312.2173
610.3171,311.7858
610.7993,311.856
611.2814,312.2603
611.7635,312.3194
612.2456,311.4717
612.7277,310.2364
613.2098,309.8151
613.692,310.297
614.1741,310.4483
614.6562,309.6586
615.1383,308.851
615.6204,309.1442
616.1025,310.3331
616.5847,311.194
617.0668,311.3266
617.5489,311.2085
618.031,311.0495
618.5131,310.8773
618.9952,310.7598
619.4774,310.7125
619.9595,310.6076
620.4416,310.2251
620.9237,309.5055
621.4058,309.4187
621.8879,310.7491
622.3701,311.7618
622.8522,311.8544
623.3343,311.6002
623.8164,311.6541
624.2985,312.1144
624.7806,312.4655
625.2628,312.1256
625.7448,311.3798
626.2269,311.0102
626.709,311.0551
627.1912,311.1847
627.6733,311.1758
628.1554,311.2338
628.6375,311.9344
629.1196,313.5402
629.6017,314.4551
630.0839,313.7847
630.566,312.9408
631.0481,312.9995
631.5302,313.6797
632.0123,314.1237
632.4944,313.9358
632.9766,313.5056
633.4587,313.5259
633.9408,314.1126
634.4229,314.5364
634.905,314.5208
635.3871,314.6975
635.8693,315.6119
636.3514,316.7846
636.8335,317.4001
637.3156,317.1343
637.7977,316.8999
638.2798,317.3808
638.762,318.3273
639.2441,319.3817
639.7262,320.4824
640.2083,321.3792
640.6904,321.856
641.1725,322.0676
641.6547,322.5407
642.1368,323.6242
642.6189,324.4506
643.101,324.6919
643.5831,324.9648
644.0652,325.6503
644.5474,326.701
645.0295,327.9222
645.5116,329.2229
645.9937,330.5664
646.4758,332.0081
646.9579,333.5435
647.4401,334.4684
647.9222,334.2609
648.4043,334.3161
648.8864,336.0495
649.3685,338.9128
649.8506,341.1118
650.3328,341.9355
650.8149,342.9794
651.297,345.062
651.7791,347.5934
652.2612,349.8361
652.7433,351.7384
653.2255,353.6819
653.7076,355.9302
654.1897,358.4723
654.6718,361.3766
655.1539,364.9634
655.636,368.109
656.1182,370.0923
656.6003,372.0766
657.0824,374.491
657.5645,377.4306
658.0466,381.0996
658.5287,385.994
659.0109,390.9894
659.493,394.8104
659.9751,397.8792
660.4572,401.4251
660.9393,405.7042
661.4214,410.3789
661.9036,415.2247
662.3857,420.2304
662.8678,425.1607
663.3499,429.5863
663.832,434.521
664.3141,440.1463
664.7963,446.2707
665.2784,452.7419
665.7605,459.5703
666.2426,466.8995
666.7247,475.0073
667.2068,483.4377
667.689,491.4032
668.1711,498.9222
668.6532,506.6022
669.1353,514.5012
669.6174,522.6797
670.0995,531.1365
670.5817,539.8959
671.0638,548.7167
671.5459,557.3857
672.028,566.36
672.5101,576.0388
672.9922,585.8508
673.4744,595.1736
673.9565,603.9667
674.4386,612.758
674.9207,622.1279
675.4028,631.5934
675.8849,639.5286
676.3671,645.6561
676.8492,651.4673
677.3313,657.304
677.8134,662.8697
678.2955,668.3947
678.7776,673.5599
679.2598,677.0999
679.7419,678.2687
680.224,678.3367
680.7061,677.9903
681.1882,677.0497
681.6703,675.2499
682.1525,672.5447
682.6346,668.9581
683.1167,664.4835
683.5988,659.1686
684.0809,653.1796
684.563,646.3792
685.0452,639.2342
685.5273,631.5771
686.0094,623.8344
686.4915,616.3145
686.9736,608.9261
687.4557,601.3274
687.9379,593.5085
688.42,585.2647
688.9021,576.1407
689.3842,566.525
689.8663,557.4133
690.3484,548.9279
690.8306,540.6506
691.3127,532.1926
691.7948,523.6349
692.2769,515.2071
692.759,506.8961
693.2411,498.7451
693.7233,490.6063
694.2054,482.8072
694.6875,475.8204
695.1696,469.2917
695.6517,462.2667
696.1339,454.083
696.616,446.0312
697.0981,439.6994
697.5802,434.6995
698.0623,429.489
698.5444,423.8414
699.0266,418.4694
699.5087,413.9581
699.9908,410.0572
700.4729,405.8838
700.955,401.0753
701.4371,396.5672
701.9193,392.3578
702.4014,388.4601
702.8835,385.0062
703.3656,381.8568
703.8477,378.642
704.3298,375.1972
704.812,371.9122
705.2941,369.5104
705.7762,367.7789
706.2583,365.5774
706.7404,362.7448
707.2225,359.8715
707.7046,357.2248
708.1867,354.8061
708.6688,352.5824
709.1509,350.3831
709.6331,348.79
710.1152,348.7827
710.5973,348.459
711.0794,346.2282
711.5615,343.0023
712.0436,340.508
712.5258,339.355
713.0079,338.7875
713.49,338.0147
713.9721,337.0698
714.4542,336.1615
714.9363,335.3409
715.4185,334.252
715.9006,332.5079
716.3827,330.653
716.8648,329.7261
717.3469,329.92
717.829,329.7878
718.3112,329.1352
718.7933,328.2132
719.2754,326.9306
719.7575,325.5497
720.2396,324.3891
720.7217,323.5441
721.2039,322.9514
721.686,322.6802
722.1681,322.5826
722.6502,321.9784
723.1323,320.7755
723.6144,319.8398
724.0966,319.5924
724.5787,319.5047
725.0608,318.8837
725.5429,317.7422
726.025,316.9361
726.5071,316.8913
726.9893,316.7318
727.4714,316.1102
727.9535,315.2286
728.4356,314.1975
728.9177,313.1258
729.3998,312.2937
729.882,311.9503
730.3641,311.8976
730.8462,311.6648
731.3283,311.242
731.8104,310.9589
732.2925,311.0122
732.7747,310.886
733.2568,309.9576
733.7389,308.4541
734.221,307.5836
734.7031,307.6801
735.1852,307.8867
735.6674,308.4306
736.1495,308.695
736.6316,307.8698
737.1137,306.3181
737.5958,305.1353
738.0779,304.8768
738.5601,305.0055
739.0422,304.7602
739.5243,304.1735
740.0064,303.5268
740.4885,302.8274
740.9706,302.1435
741.4528,301.4901
741.9349,300.8977
742.417,300.3943
742.8991,299.8601
743.3812,299.8018
743.8633,300.9769
744.3455,301.8956
744.8276,301.5685
745.3097,300.5474
745.7918,299.6198
746.2739,299.0508
746.756,298.8415
747.2382,299.2455
747.7203,299.9716
748.2024,300.0143
748.6845,299.3546
749.1666,298.8676
749.6487,298.945
750.1309,299.047
750.613,298.4298
751.0951,297.0274
751.5772,296.2215
752.0593,296.4627
752.5414,296.6568
753.0236,296.5088
753.5057,296.2457
753.9878,296.1547
754.4699,296.1718
754.952,295.9079
755.4341,294.9965
755.9163,294.0027
756.3984,293.7711
756.8805,294.1591
757.3626,294.6639
757.8447,295.2333
758.3268,295.4594
758.809,294.992
759.2911,294.027
759.7732,293.218
760.2553,292.7325
760.7374,292.1052
761.2195,290.8527
761.7017,289.9888
762.1838,290.4056
762.6659,291.3839
763.148,291.7452
763.6301,291.1516
764.1122,290.33
764.5944,289.6416
765.0765,289.1563
765.5586,289.0126
766.0407,289.1864
766.5228,289.5777
767.0049,290.1617
767.4871,290.7734
767.9692,291.2128
768.4513,291.4816
768.9334,291.5079
769.4155,291.1866
769.8976,290.7804
770.3798,290.2716
770.8619,289.7582
771.344,289.295
771.8261,288.8955
772.3082,288.5972
772.7903,288.466
773.2725,288.3703
773.7546,288.197
774.2367,288.0126
774.7188,287.9387
775.2009,287.9762
775.683,288.0038
776.1652,287.9303
776.6473,287.8557
777.1294,288.0986
777.6115,288.7681
778.0936,288.9931
778.5757,288.4573
779.0579,287.9592
779.54,288.019
780.0221,288.351
780.5042,288.4444
780.9863,288.2054
781.4684,288.1299
781.9506,288.8066
782.4327,289.2144
782.9148,288.3026
783.3969,286.8077
783.879,286.0614
784.3611,286.3517
784.8433,286.8209
785.3254,286.6298
785.8075,286.0455
786.2896,285.9353
786.7717,286.3082
787.2538,286.4889
787.736,286.2195
788.2181,286.0144
788.7002,286.4838
789.1823,287.4857
789.6644,287.7928
790.1465,286.5122
790.6286,285.8563
791.1107,286.6306
791.5928,287.4833
792.075,287.4625
792.5571,286.847
793.0392,286.3488
793.5213,286.2234
794.0034,286.2542
794.4855,286.4095
794.9677,286.5264
795.4498,286.1627
795.9319,285.3913
796.414,284.8759
796.8961,284.9043
797.3782,285.1224
797.8604,285.0157
798.3425,284.5576
798.8246,284.3894
799.3067,284.6143
799.7888,284.9375
800.2709,285.5352
800.7531,286.006
801.2352,285.9033
801.7173,285.3568
802.1994,285.0337
802.6815,285.2998
803.1636,285.545
803.6458,285.5043
804.1279,285.2398
804.61,284.6369
805.0921,283.8641
805.5742,283.462
806.0563,283.7438
806.5385,284.3143
807.0206,284.5877
807.5027,284.5762
807.9848,284.4086
808.4669,284.0803
808.949,283.6066
809.4312,282.85
809.9133,282.1553
810.3954,282.147
810.8775,283.0063
811.3596,283.3415
811.8417,282.8997
812.3239,282.2677
812.806,281.2352
813.2881,280.349
813.7702,280.2407
814.2523,280.8106
814.7344,281.4099
815.2166,281.7284
815.6987,281.925
816.1808,282.2545
816.6629,282.5591
817.145,282.3942
817.6271,281.7623
818.1093,281.1419
818.5914,280.803
819.0735,280.6432
819.5556,280.4831
820.0377,280.3293
820.5198,280.0956
821.002,279.6596
821.4841,279.3666
821.9662,279.4195
822.4483,279.6284
822.9304,279.8486
823.4125,280.0706
823.8947,280.1027
824.3768,279.6501
824.8589,279.313
825.341,279.4251
825.8231,279.746
826.3052,280.1418
826.7874,280.4917
827.2695,280.5256
827.7516,280.0584
828.2337,279.3734
828.7158,278.7925
829.1979,278.3316
829.6801,278.0777
830.1622,278.0395
830.6443,278.0836
831.1264,278.1415
831.6085,278.2602
832.0906,278.556
832.5728,279.0909
833.0549,279.3248
833.537,279.093
834.0191,278.7831
834.5012,278.4276
834.9833,278.0766
835.4655,277.6642
835.9476,277.2671
836.4297,277.23
836.9118,277.9655
837.3939,278.5919
837.876,278.528
838.3582,278.1683
838.8403,277.9657
839.3224,277.9091
839.8045,277.7308
840.2866,277.3034
840.7687,276.8939
841.2509,276.9511
841.733,277.3739
842.2151,277.591
842.6972,277.5904
843.1793,277.3752
843.6614,276.8678
844.1436,276.3636
844.6257,276.2145
845.1078,276.4107
845.5899,276.6265
846.072,276.9765
846.5541,277.1656
847.0363,277.287
847.5184,277.1304
848.0005,276.255
848.4826,275.0539
848.9647,274.4002
849.4468,274.5748
849.929,275.0358
850.4111,275.7051
850.8932,276.35
851.3753,276.7679
851.8574,276.9651
852.3395,276.9754
852.8217,276.8192
853.3038,276.5326
853.7859,276.0883
854.268,275.5993
854.7501,275.5573
855.2322,275.9627
855.7144,275.8103
856.1965,274.7314
856.6786,273.8443
857.1607,274.0974
857.6428,275.094
858.1249,275.5522
858.6071,275.1792
859.0892,274.892
859.5713,274.7836
860.0534,274.6465
860.5355,274.3667
861.0176,274.0385
861.4998,273.7383
861.9819,273.4846
862.464,273.3816
862.9461,273.782
863.4282,274.0105
863.9103,273.2777
864.3925,272.2608
864.8746,272.0379
865.3567,272.5692
865.8388,272.9763
866.3209,272.7279
866.803,272.2751
867.2852,272.5502
867.7673,273.2915
868.2494,272.8304
868.7315,271.0249
869.2136,269.6822
869.6957,269.5749
870.1779,270.1764
870.66,270.8832
871.1421,271.7012
871.6242,272.0758
872.1063,271.7872
872.5884,271.4405
873.0705,271.1895
873.5526,270.8527
874.0347,270.2858
874.5168,269.5534
874.999,268.748
875.4811,267.7263
875.9632,267.1367
876.4453,267.6182
876.9274,268.2194
877.4095,268.1598
877.8917,267.7498
878.3738,267.5881
878.8559,267.8033
879.338,268.1037
879.8201,268.3073
880.3022,268.4131
880.7844,268.4195
881.2665,268.3271
881.7486,268.0765
882.2307,267.6754
882.7128,267.4142
883.1949,267.5036
883.6771,267.7314
884.1592,267.6075
884.6413,267.0475
885.1234,266.7993
885.6055,267.0359
886.0876,267.1534
886.5698,266.9318
887.0519,266.5075
887.534,265.8765
888.0161,265.082
888.4982,264.7689
888.9803,265.6514
889.4625,266.0331
889.9446,264.9858
890.4267,263.9495
890.9088,264.1743
891.3909,265.0945
891.873,265.4861
892.3552,265.0066
892.8373,264.2583
893.3194,263.3852
893.8015,262.6381
894.2836,262.4247
894.7657,262.5109
895.2479,262.3509
895.73,261.8749
896.2121,261.479
896.6942,261.4613
897.1763,261.6913
897.6584,262.0097
898.1406,262.3787
898.6227,262.3369
899.1048,261.7925
899.5869,261.4733
900.069,261.772
900.5511,262.3351
901.0333,262.6862
901.5154,262.8327
901.9975,262.5433
902.4796,261.3257
902.9617,260.5925
903.4438,261.0459
903.926,261.635
904.4081,261.5764
904.8902,261.1125
905.3723,260.8844
905.8544,261.047
906.3365,261.198
906.8187,261.2046
907.3008,261.2098
907.7829,261.3683
908.265,261.5396
908.7471,261.463
909.2292,261.1476
909.7114,260.9348
910.1935,261.0677
910.6756,261.3193
911.1577,261.6075
911.6398,261.7876
912.1219,261.4604
912.6041,260.7178
913.0862,260.1252
913.5683,259.9517
914.0504,259.9793
914.5325,259.9546
915.0146,259.8766
915.4968,259.7014
915.9789,259.4245
916.461,259.2548
916.9431,259.2839
917.4252,259.2264
917.9073,258.7789
918.3895,258.1144
918.8716,257.8461
919.3537,257.9564
919.8358,258.5555
920.3179,260.4577
920.8,261.6669
921.2822,260.7778
921.7643,259.1943
922.2464,258.3431
922.7285,258.236
923.2106,258.433
923.6927,259.4101
924.1749,259.9556
924.657,259.3426
925.1391,258.5166
925.6212,258.2232
926.1033,258.3099
926.5854,258.3357
927.0676,258.1724
927.5497,257.9784
928.0318,257.859
928.5139,257.7632
928.996,257.5155
929.4781,257.2971
929.9603,257.5724
930.4424,258.3102
930.9245,258.9526
931.4066,259.1615
931.8887,258.998
932.3708,258.3489
932.853,257.3977
933.3351,256.9601
933.8172,257.0536
934.2993,257.2137
934.7814,257.27
935.2635,257.3087
935.7457,257.4248
936.2278,257.6033
936.7099,257.7932
937.192,258.0491
937.6741,258.0347
938.1563,257.5634
938.6384,257.1536
939.1205,257.1496
939.6026,257.3294
940.0847,257.2787
940.5668,256.9371
941.049,256.7265
941.5311,256.7431
942.0132,256.7559
942.4953,256.6654
942.9774,256.6103
943.4595,256.772
943.9417,257.0424
944.4238,257.1219
944.9059,256.902
945.388,256.6894
945.8701,256.6218
946.3522,256.5656
946.8344,256.3439
947.3165,256.1297
947.7986,256.1818
948.2807,256.5034
948.7628,256.9235
949.2449,257.4521
949.7271,257.7832
950.2092,257.3853
950.6913,256.7405
951.1734,256.6863
951.6555,257.0853
952.1376,257.3008
952.6198,257.1169
953.1019,256.7289
953.584,256.2047
954.0661,255.7581
954.5482,256.1383
955.0303,257.1579
955.5124,257.388
955.9945,256.6335
956.4766,256.2976
956.9587,257.1999
957.4409,258.5626
957.923,259.1605
958.4051,259.0058
958.8872,258.5435
959.3693,257.5965
959.8514,257.1461
960.3336,257.5989
960.8157,258.1405
961.2978,258.1341
961.7799,257.7837
962.262,257.6793
962.7441,257.9672
963.2263,258.0471
963.7084,257.7381
964.1905,257.4673
964.6726,257.3485
965.1547,257.3142
965.6368,257.3347
966.119,257.3936
966.6011,257.4308
967.0832,257.4794
967.5653,257.4238
968.0474,257.0644
968.5295,256.783
969.0117,256.7834
969.4938,257.0031
969.9759,257.4996
970.458,258.1803
970.9401,258.4855
971.4222,257.9713
971.9044,257.3409
972.3865,256.9694
972.8686,256.7592
973.3507,256.5926
973.8328,256.5054
974.3149,256.6819
974.7971,257.1379
975.2792,257.478
975.7613,257.3459
976.2434,256.9731
976.7255,256.5957
977.2076,256.238
977.6898,255.8111
978.1719,255.4153
978.654,255.6799
979.1361,256.8995
979.6182,258.0955
980.1003,257.8495
980.5825,256.6743
981.0646,256.3845
981.5467,256.8542
982.0288,257.0197
982.5109,256.672
982.993,256.2788
983.4752,256.1263
983.9573,256.2056
984.4394,256.6228
984.9215,257.3844
985.4036,257.3985
985.8857,256.4844
986.3679,255.9257
986.85,256.1408
987.3321,256.5119
987.8142,256.5199
988.2963,256.3162
988.7784,256.4078
989.2606,256.9521
989.7427,257.2369
990.2248,257.273
990.7069,257.0034
991.189,256.1447
991.6711,255.2578
992.1533,254.8206
992.6354,254.8157
993.1175,255.1736
993.5996,256.4644
994.0817,257.0907
994.5638,256.4842
995.046,255.8678
995.5281,255.7789
996.0102,255.8681
996.4923,255.7866
996.9744,255.5208
997.4565,255.1411
997.9387,254.3615
998.4208,253.9687
998.9029,254.593
999.385,255.2107
999.8671,255.1187
1000.349,254.6428
1000.831,254.2206
1001.313,253.9405
1001.796,253.8303
1002.278,253.9625
1002.76,254.1752
1003.242,254.6006
1003.724,254.8755
1004.206,254.4818
1004.688,253.731
1005.17,253.3118
1005.653,253.3562
1006.135,253.3167
1006.617,252.7178
1007.099,252.0632
1007.581,251.9645
1008.063,252.0209
1008.545,251.5867
1009.027,250.7841
1009.509,250.1432
1009.992,249.8445
1010.474,249.6119
1010.956,249.1241
1011.438,248.654
1011.92,248.8103
1012.402,249.2506
1012.884,249.0606
1013.366,248.2858
1013.849,247.7154
1014.331,247.6877
1014.813,247.7467
1015.295,247.2883
1015.777,246.6097
1016.259,246.6289
1016.741,247.133
1017.223,246.9451
1017.705,245.9831
1018.188,245.4648
1018.67,246.0426
1019.152,246.8763
1019.634,246.7259
1020.116,245.8537
1020.598,245.6922
1021.08,246.1962
1021.562,245.9813
1022.044,244.7577
1022.527,243.796
1023.009,243.8613
1023.491,244.4294
1023.973,244.7063
1024.455,244.696
1024.937,244.3919
1025.419,243.738
1025.901,243.2858
1026.384,243.15
1026.866,243.1893
1027.348,243.3737
1027.83,243.545
1028.312,243.3402
1028.794,242.722
1029.276,242.7632
1029.758,243.7997
1030.24,244.2834
1030.723,243.7673
1031.205,242.9949
1031.687,242.3144
1032.169,241.8422
1032.651,241.8388
1033.133,242.3523
1033.615,242.9245
1034.097,243.5907
1034.579,244.2543
1035.062,245.0704
1035.544,245.6039
1036.026,245.4253
1036.508,244.8451
1036.99,244.5109
1037.472,244.4638
1037.954,244.4185
1038.436,244.1679
1038.919,244.2562
1039.401,244.9682
1039.883,245.8352
1040.365,246.5077
1040.847,247.1436
1041.329,248.1926
1041.811,249.8802
1042.293,250.8146
1042.776,250.3833
1043.258,250.033
1043.74,249.9
1044.222,250.0583
1044.704,250.8131
1045.186,251.8076
1045.668,252.2405
1046.15,251.9113
1046.632,252.0999
1047.115,253.6365
1047.597,254.7439
1048.079,254.5339
1048.561,254.1944
1049.043,254.5284
1049.525,255.3269
1050.007,256.1849
1050.489,257.0674
1050.971,257.836
1051.454,258.2668
1051.936,258.8426
1052.418,260.0881
1052.9,261.1584
1053.382,261.1897
1053.864,260.7046
1054.346,260.7432
1054.828,261.467
1055.311,262.0514
1055.793,262.0498
1056.275,262.1867
1056.757,263.0777
1057.239,263.8422
1057.721,263.5322
1058.203,262.744
1058.685,262.6574
1059.167,263.4349
1059.65,263.9561
1060.132,263.6238
1060.614,263.2885
1061.096,263.305
1061.578,263.4068
1062.06,263.4815
1062.542,263.453
1063.024,263.1917
1063.506,262.6945
1063.989,262.1979
1064.471,261.8829
1064.953,261.4416
1065.435,260.7443
1065.917,259.8738
1066.399,258.5307
1066.881,257.2397
1067.363,257.0915
1067.846,258.0299
1068.328,258.2818
1068.81,256.7628
1069.292,255.1901
1069.774,254.2415
1070.256,253.6212
1070.738,253.3693
1071.22,253.1504
1071.703,252.3831
1072.185,251.1287
1072.667,250.1794
1073.149,249.9061
1073.631,249.7908
1074.113,249.6946
1074.595,249.5624
1075.077,249.2628
1075.559,248.9589
1076.042,248.9413
1076.524,249.1496
1077.006,249.1381
1077.488,248.6087
1077.97,248.3188
1078.452,249.0076
1078.934,249.6303
1079.416,249.1669
1079.898,248.4555
1080.38,248.547
1080.863,249.3774
1081.345,250.332
1081.827,251.2962
1082.309,251.9923
1082.791,252.123
1083.273,252.1514
1083.755,252.2331
1084.237,252.4543
1084.72,252.9238
1085.202,253.5935
1085.684,254.3736
1086.166,255.2631
1086.648,256.0002
1087.13,256.3253
1087.612,256.6523
1088.094,257.3308
1088.577,257.9988
1089.059,258.2823
1089.541,258.2928
1090.023,258.3247
1090.505,258.441
1090.987,258.462
1091.469,258.4864
1091.951,258.1867
1092.433,257.2
1092.916,256.0565
1093.398,255.1646
1093.88,254.4263
1094.362,253.7847
1094.844,253.1709
1095.326,251.936
1095.808,249.0141
1096.29,246.7253
1096.772,246.5418
1097.255,246.4598
1097.737,245.092
1098.219,243.1036
1098.701,241.3905
1099.183,240.0337
1099.665,238.7402
1100.147,237.3119
1100.629,236.2137
1101.112,236.0002
1101.594,235.6317
1102.076,234.2618
1102.558,232.7288
1103.04,232.0029
1103.522,231.9313
1104.004,231.7134
1104.486,231.1957
1104.969,230.6449
1105.451,229.9847
1105.933,229.4606
1106.415,229.228
1106.897,229.0981
1107.379,228.946
1107.861,228.7693
1108.343,228.5904
1108.825,228.4239
1109.307,228.1774
1109.79,227.7244
1110.272,227.3585
1110.754,227.3676
1111.236,227.2398
1111.718,226.3942
1112.2,225.3421
1112.682,225.0214
1113.164,225.4919
1113.647,225.6475
1114.129,225.2732
1114.611,224.9409
1115.093,224.6203
1115.575,224.4448
1116.057,224.5459
1116.539,224.7594
1117.021,225.0114
1117.504,225.2342
1117.986,224.8714
1118.468,223.3938
1118.95,222.62
1119.432,222.8915
1119.914,223.2067
1120.396,223.2012
1120.878,223.2399
1121.36,223.7543
1121.843,224.4667
1122.325,224.4948
1122.807,223.6599
1123.289,223.2835
1123.771,223.5759
1124.253,223.5632
1124.735,222.9086
1125.217,222.3162
1125.699,222.2485
1126.182,222.4807
1126.664,222.6656
1127.146,222.7942
1127.628,222.6508
1128.11,222.1887
1128.592,221.8847
1129.074,221.8139
1129.556,221.8127
1130.039,221.8164
1130.521,221.7894
1131.003,221.652
1131.485,221.5109
1131.967,221.868
1132.449,222.6727
1132.931,223.0193
1133.413,222.8615
1133.896,222.3839
1134.378,221.6449
1134.86,221.0826
1135.342,221.065
1135.824,221.2795
1136.306,221.0905
1136.788,220.6565
1137.27,220.6686
1137.752,221.0238
1138.234,221.1317
1138.717,220.9299
1139.199,220.8657
1139.681,221.1691
1140.163,221.5039
1140.645,221.4741
1141.127,221.2454
1141.609,221.1293
1142.091,221.0503
1142.574,220.7804
1143.056,220.3869
1143.538,220.1821
1144.02,220.2438
1144.502,220.3084
1144.984,220.1237
1145.466,220.0237
1145.948,220.6146
1146.431,221.2841
1146.913,221.1206
1147.395,220.5052
1147.877,220.1714
1148.359,220.2167
1148.841,220.4149
1149.323,220.7222
1149.805,220.8472
1150.287,220.4104
1150.77,219.9474
1151.252,219.9083
1151.734,219.9962
1152.216,219.8139
1152.698,219.4991
1153.18,219.4691
1153.662,219.8102
1154.144,220.0982
1154.626,220.3748
1155.109,220.3177
1155.591,219.4993
1156.073,218.6711
1156.555,218.2509
1157.037,218.1259
1157.519,218.1114
1158.001,218.2117
1158.483,218.5768
1158.966,219.6078
1159.448,220.0764
1159.93,219.3845
1160.412,218.8412
1160.894,218.9566
1161.376,219.1479
1161.858,218.9601
1162.34,218.5581
1162.822,218.2697
1163.305,218.0773
1163.787,218.2105
1164.269,218.8419
1164.751,219.305
1165.233,219.5338
1165.715,219.5047
1166.197,219.1519
1166.679,218.6467
1167.161,218.1076
1167.644,217.6704
1168.126,218.1026
1168.608,219.4616
1169.09,219.7178
1169.572,218.7483
1170.054,218.0948
1170.536,218.1817
1171.018,218.4902
1171.5,218.6878
1171.983,218.7337
1172.465,218.4799
1172.947,218.0526
1173.429,217.9128
1173.911,217.9742
1174.393,217.8616
1174.875,217.5866
1175.357,217.459
1175.84,217.5952
1176.322,217.9141
1176.804,218.4676
1177.286,218.9002
1177.768,218.5643
1178.25,217.977
1178.732,217.901
1179.214,218.1674
1179.697,218.3993
1180.179,218.5137
1180.661,218.5458
1181.143,218.5134
1181.625,218.3725
1182.107,217.8514
1182.589,217.5084
1183.071,217.9471
1183.553,218.5255
1184.036,218.6248
1184.518,218.3936
1185.0,218.2083
1185.482,218.1161
1185.964,217.901
1186.446,217.3946
1186.928,216.9572
1187.41,216.7139
1187.892,216.4721
1188.375,215.9462
1188.857,215.5758
1189.339,215.8929
1189.821,216.6462
1190.303,217.0964
1190.785,217.1834
1191.267,217.3525
1191.749,217.7676
1192.232,217.7431
1192.714,216.9699
1193.196,216.3533
1193.678,216.3901
1194.16,216.6755
1194.642,216.752
1195.124,216.6197
1195.606,216.1537
1196.089,215.3836
1196.571,215.2823
1197.053,215.8543
1197.535,216.2863
1198.017,216.3699
1198.499,216.1835
1198.981,215.7512
1199.463,215.4308
1199.945,215.9011
1200.427,216.661
1200.91,216.6244
1201.392,216.1252
1201.874,215.8648
1202.356,215.8519
1202.838,215.8524
1203.32,215.7957
1203.802,215.7017
1204.284,215.519
1204.767,215.4956
1205.249,216.0301
1205.731,216.5757
1206.213,216.7882
1206.695,216.6599
1207.177,215.9926
1207.659,215.0527
1208.141,214.4845
1208.624,214.4298
1209.106,214.4918
1209.588,214.7553
1210.07,214.8587
1210.552,214.5107
1211.034,214.2425
1211.516,214.4484
1211.998,214.7455
1212.48,214.7198
1212.963,214.4706
1213.445,214.4093
1213.927,214.6382
1214.409,214.4508
1214.891,213.6225
1215.373,213.3375
1215.855,213.9416
1216.337,214.5178
1216.819,214.5966
1217.302,214.3245
1217.784,213.8016
1218.266,213.2027
1218.748,213.1766
1219.23,213.5752
1219.712,213.5925
1220.194,213.276
1220.676,213.1266
1221.159,213.2298
1221.641,213.2836
1222.123,213.1218
1222.605,212.9505
1223.087,212.8725
1223.569,212.9975
1224.051,213.7407
1224.533,214.5387
1225.016,214.5587
1225.498,214.0698
1225.98,213.6689
1226.462,213.4669
1226.944,213.3128
1227.426,213.1614
1227.908,213.0306
1228.39,212.9182
1228.872,212.8358
1229.354,212.6912
1229.837,212.6741
1230.319,213.0259
1230.801,213.5666
1231.283,214.0879
1231.765,214.5745
1232.247,214.3178
1232.729,212.8275
1233.211,212.1564
1233.694,212.5981
1234.176,213.1679
1234.658,213.6369
1235.14,213.8479
1235.622,213.6482
1236.104,213.2954
1236.586,213.2488
1237.068,213.4179
1237.551,213.3832
1238.033,213.2151
1238.515,213.3422
1238.997,213.6803
1239.479,213.5988
1239.961,212.9603
1240.443,212.1648
1240.925,211.3777
1241.407,210.9857
1241.89,211.8433
1242.372,212.7692
1242.854,212.4086
1243.336,211.5854
1243.818,211.3821
1244.3,211.566
1244.782,211.2993
1245.264,210.5092
1245.746,210.2088
1246.229,211.0824
1246.711,211.6807
1247.193,211.5506
1247.675,211.3926
1248.157,211.512
1248.639,211.5898
1249.121,211.3145
1249.603,210.941
1250.085,210.9698
1250.568,211.3643
1251.05,211.4341
1251.532,211.112
1252.014,211.2762
1252.496,212.0171
1252.978,212.5087
1253.46,212.5037
1253.942,212.4061
1254.425,212.4943
1254.907,212.6203
1255.389,212.5608
1255.871,212.4106
1256.353,212.265
1256.835,212.208
1257.317,212.504
1257.799,212.9992
1258.281,213.416
1258.764,213.614
1259.246,213.2336
1259.728,211.881
1260.21,210.8695
1260.692,211.0714
1261.174,211.414
1261.656,211.2605
1262.138,211.1834
1262.62,211.923
1263.103,212.863
1263.585,212.9253
1264.067,212.2235
1264.549,211.7236
1265.031,211.383
1265.513,211.4467
1265.995,212.0694
1266.477,212.3479
1266.96,212.0244
1267.442,211.7416
1267.924,211.8677
1268.406,212.123
1268.888,212.2294
1269.37,212.1205
1269.852,211.2892
1270.334,210.2734
1270.817,210.536
1271.299,211.7917
1271.781,213.5713
1272.263,215.315
1272.745,215.378
1273.227,213.125
1273.709,211.0003
1274.191,210.4155
1274.673,210.3819
1275.156,210.7764
1275.638,211.1245
1276.12,211.0099
1276.602,210.7573
1277.084,210.739
1277.566,210.9071
1278.048,211.0203
1278.53,211.0413
1279.012,211.4187
1279.495,212.3932
1279.977,212.7567
1280.459,212.2841
1280.941,211.7532
1281.423,211.4293
1281.905,211.212
1282.387,210.998
1282.869,210.9701
1283.352,211.7763
1283.834,212.7974
1284.316,212.6881
1284.798,211.4582
