Wavenumber (cm⁻¹),Intensity
200.0,-30.038000000000004
201.00097751710655,-26.088142717497565
202.0019550342131,-22.138285434995126
203.00293255131965,-18.188428152492683
204.0039100684262,-14.238570869990244
205.00488758553274,-10.288713587487802
206.0058651026393,-6.33885630498536
207.00684261974584,-2.3889990224829196
208.0078201368524,1.5608582600195215
209.00879765395894,5.510715542521963
210.00977517106548,9.392782013685267
211.01075268817203,6.401537634408631
212.01173020527858,3.5109061583577676
213.01270772238513,3.868185728250219
214.01368523949168,6.085835777126074
215.01466275659823,8.112821114369483
216.01564027370478,9.534256109481897
217.01661779081132,10.97729227761482
218.01759530791787,13.528263929618724
219.01857282502445,16.258715542522015
220.019550342131,18.167818181818195
221.02052785923755,19.28158357771262
222.0215053763441,20.2127311827957
223.02248289345064,20.059863147605082
224.0234604105572,19.851988269794713
225.02443792766374,18.648732160312797
226.0254154447703,17.126180840664706
227.02639296187684,15.763076246334306
228.02737047898339,14.704562072336262
229.02834799608993,13.688443792766373
230.02932551319648,13.499818181818181
231.03030303030303,13.559636363636365
232.03128054740958,13.529888563049854
233.03225806451613,12.971419354838709
234.03323558162268,13.087738025415442
235.03421309872923,14.40146627565982
236.03519061583577,15.543741935483872
237.03616813294232,14.729649071358754
238.03714565004887,13.656446725317696
239.03812316715542,13.016988269794721
240.03910068426197,12.913434017595314
241.04007820136852,12.175481915933542
242.04105571847506,10.663390029325528
243.0420332355816,9.149551319648106
244.0430107526882,7.925516129032237
245.04398826979474,6.74379765395893
246.0449657869013,5.9405874877810305
247.04594330400784,5.569855327468223
248.04692082111438,5.050926686216991
249.04789833822093,3.7907438905180673
250.04887585532748,2.576822091886604
251.04985337243403,2.2626480938416424
252.05083088954058,2.259699902248286
253.05180840664713,1.9307399804496497
254.05278592375367,1.0952404692082038
255.05376344086022,0.2987634408602134
256.05474095796677,0.12349853372434308
257.0557184750733,0.5038093841642219
258.05669599217987,0.3484447702834784
259.0576735092864,0.08355425219941429
260.05865102639297,0.24978299120234568
261.0596285434995,0.1740303030303041
262.06060606060606,0.552878787878788
263.0615835777126,0.5492756598240469
264.06256109481916,0.5210606060606061
265.0635386119257,0.4899032258064516
266.06451612903226,0.45674193548387104
267.0654936461388,0.4215767350928642
268.06647116324535,0.3844740957966766
269.0674486803519,0.3463020527859239
270.06842619745845,0.306262952101662
271.069403714565,0.2821867057673498
272.07038123167155,0.4860263929618741
273.0713587487781,0.8524907135874866
274.07233626588464,0.9113313782991282
275.0733137829912,0.13551906158357055
276.07429130009774,0.8247038123167137
277.0752688172043,0.9860860215053758
278.07624633431084,1.0271260997067444
279.0772238514174,1.0680889540566953
280.07820136852393,1.1187634408602125
281.0791788856305,1.351627565982391
282.08015640273703,2.2444995112414325
283.0811339198436,3.080658846529811
284.08211143695013,3.2609560117302046
285.0830889540567,3.2966588465298137
286.0840664711632,3.328521994134897
287.0850439882698,3.373008797653955
288.0860215053764,3.6685161290323043
289.0869990224829,4.977620723362704
290.0879765395895,6.3743695014663535
291.088954056696,8.72303519061592
292.0899315738026,11.293846529814349
293.0909090909091,13.663909090909158
294.09188660801567,15.853727272727347
295.0928641251222,18.61280742913016
296.09384164222877,23.775536656891642
297.0948191593353,29.080703812316894
298.09579667644186,35.62708113392003
299.0967741935484,42.40261290322595
300.09775171065496,47.999723362658955
301.0987292277615,52.23931378299129
302.09970674486806,55.32239882697943
303.1006842619746,53.619736070381194
304.10166177908116,51.47372629521004
305.1026392961877,45.280991202345895
306.10361681329425,38.136277614858145
307.1045943304008,32.379963831866974
308.10557184750735,28.145703812316647
309.1065493646139,24.605498533724326
310.10752688172045,23.764784946236546
311.108504398827,23.035964809384165
312.10948191593354,23.249485826001962
313.1104594330401,23.734181818181828
314.11143695014664,24.50476246334312
315.1124144672532,25.44844183773217
316.11339198435974,25.91921798631475
317.1143695014663,24.746958944281513
318.11534701857283,23.573582600195493
319.1163245356794,22.398202346041046
320.11730205278593,21.344571847507332
321.1182795698925,21.3508494623656
322.119257086999,22.305506353861198
323.1202346041056,23.045624633431085
324.1212121212121,23.15048484848485
325.1221896383187,23.20874193548387
326.1231671554252,22.9359853372434
327.12414467253177,22.489564027370477
328.1251221896383,21.141747800586508
329.12609970674487,19.0976715542522
330.1270772238514,17.29236363636364
331.12805474095796,16.081797653958947
332.1290322580645,15.016741935483871
333.13000977517106,14.971010752688173
334.1309872922776,15.047693059628543
335.13196480938416,15.121369501466276
336.1329423264907,15.147903225806454
337.13391984359725,14.754278592375377
338.1348973607038,13.522401759530803
339.13587487781035,12.340816226783977
340.1368523949169,11.509875855327477
341.13782991202345,10.696530791788865
342.13880742913,9.879177908113402
343.13978494623655,9.019376344086036
344.1407624633431,7.8356891495601415
345.14173998044964,6.14301857282505
346.1427174975562,4.830303030303016
347.14369501466274,5.729607038123152
348.1446725317693,6.537955034213094
349.14565004887584,6.789932551319647
350.1466275659824,6.792178885630501
351.14760508308893,6.610777126099715
352.1485826001955,6.207578690127085
353.14956011730203,5.893140762463342
354.1505376344086,5.914010752688172
355.1515151515151,5.933575757575757
356.1524926686217,5.949829912023461
357.1534701857282,6.023383186705757
358.1544477028348,6.507215053763418
359.1554252199413,7.331835777126083
360.15640273704787,7.684086021505402
361.1573802541544,6.812662756598266
362.15835777126097,6.1081055718475
363.1593352883675,6.360706744868023
364.16031280547406,6.81630400782011
365.1612903225806,7.724354838709637
366.16226783968716,8.929434017595272
367.1632453567937,9.865767350928627
368.16422287390026,10.2712258064516
369.1652003910068,10.582922776148585
370.16617790811335,10.519702834799611
371.1671554252199,10.397322580645175
372.16813294232645,10.010429130009795
373.169110459433,9.452652981427208
374.17008797653955,8.535319648093898
375.1710654936461,7.177956989247367
376.1720430107527,6.017870967741929
377.17302052785925,5.528912023460404
378.1739980449658,5.043132942326484
379.17497556207235,4.5583870967741875
380.1759530791789,4.0583284457477955
381.17693059628544,3.5354037145649997
382.177908113392,3.0325728250244346
383.17888563049854,2.720284457478006
384.1798631476051,2.716820136852395
385.18084066471164,2.5007996089931503
386.1818181818182,1.287818181818175
387.18279569892474,0.22331182795698942
388.1837732160313,0.41716911045943605
389.18475073313783,1.2165073313783004
390.1857282502444,1.5064369501466268
391.18670576735093,1.0867575757575754
392.1876832844575,0.7620029325513197
393.188660801564,0.7783958944281525
394.1896383186706,0.9225229716520026
395.1906158357771,1.6471730205278567
396.1915933528837,2.507348973607036
397.1925708699902,3.160315738025413
398.19354838709677,3.6462258064516098
399.1945259042033,4.270213098729222
400.19550342130987,5.182103616813287
401.1964809384164,5.937791788856304
402.19745845552296,6.038700879765395
403.1984359726295,6.300781036168122
404.19941348973606,7.594935483870948
405.2003910068426,9.315121212121197
406.20136852394916,10.47665004887585
407.2023460410557,10.962029325513189
408.20332355816225,11.496707722385134
409.20430107526886,12.058397849462388
410.2052785923754,12.490865102639301
411.20625610948196,12.598012707722386
412.2072336265885,12.773172043010781
413.20821114369505,13.622958944281576
414.2091886608016,14.951281524926731
415.21016617790815,16.022693059628562
416.2111436950147,16.57648387096776
417.21212121212125,17.098000000000017
418.2130987292278,17.58943499511243
419.21407624633434,18.196486803519097
420.2150537634409,19.34118279569897
421.21603128054744,20.736904203323604
422.217008797654,22.334096774193604
423.21798631476054,24.231303030303096
424.2189638318671,27.06822971652018
425.21994134897363,31.94677419354852
426.2209188660802,36.99685434995127
427.22189638318673,42.67823558162283
428.2228739002933,47.773914956011794
429.2238514173998,50.127809384164244
430.2248289345064,50.75725610948191
431.2258064516129,49.909806451612845
432.2267839687195,47.27184750733132
433.227761485826,44.513227761485766
434.22873900293257,41.44199999999994
435.2297165200391,38.36954056695987
436.23069403714567,35.29530791788851
437.2316715542522,32.16308211143689
438.23264907135876,28.795005865102585
439.2336265884653,25.305706744867987
440.23460410557186,21.988123167155383
441.2355816226784,18.91871652003906
442.23655913978496,16.187021505376322
443.2375366568915,14.435548387096755
444.23851417399806,12.76593352883674
445.2394916911046,11.379744868035178
446.24046920821115,10.180120234604098
447.2414467253177,9.43110948191593
448.24242424242425,8.980575757575755
449.2434017595308,8.361970674486798
450.24437927663735,7.494367546432058
451.2453567937439,6.735968719452589
452.24633431085044,6.311307917888562
453.247311827957,5.886139784946235
454.24828934506354,5.461725317693059
455.2492668621701,5.091900293255131
456.25024437927664,4.942754643206256
457.2512218963832,4.988905180840664
458.25219941348973,5.201020527859236
459.2531769305963,5.665474095796675
460.25415444770283,5.794697947214079
461.2551319648094,4.9352903225806495
462.2561094819159,4.149700879765399
463.2570869990225,3.6387380254154476
464.258064516129,3.326096774193548
465.2590420332356,3.4557135874877773
466.2600195503421,3.893826979472138
467.26099706744867,4.163480938416423
468.2619745845552,4.18450146627566
469.26295210166177,4.088771260997072
470.2639296187683,3.6650938416422343
471.26490713587486,3.4181671554252167
472.2658846529814,3.7234340175953013
473.26686217008796,4.071269794721408
474.2678396871945,3.969971652003917
475.26881720430106,3.610731182795702
476.2697947214076,3.600533724340168
477.27077223851416,4.067555229716511
478.2717497556207,4.409793743890518
479.27272727272725,4.434818181818182
480.2737047898338,4.5556392961876755
481.27468230694035,4.957650048875845
482.2756598240469,5.296967741935484
483.27663734115345,5.172812316715552
484.27761485826,4.790157380254161
485.27859237536654,4.592521994134897
486.2795698924731,4.628215053763439
487.28054740957964,4.803260019550329
488.2815249266862,5.278724340175939
489.2825024437928,5.544571847507324
490.28347996089934,5.2345053763440745
491.2844574780059,4.815812316715531
492.28543499511244,4.396688172043
493.286412512219,4.023246334310844
494.28739002932554,3.842460410557185
495.2883675464321,3.8447536656891486
496.28934506353863,3.694028347996081
497.2903225806452,3.269193548387088
498.29130009775173,2.8451974584555146
499.2922776148583,2.419197458455515
500.2932551319648,1.9917800586510188
501.2942326490714,1.5643626588465227
502.2952101661779,1.1959872922776111
503.2961876832845,1.0445894428152498
504.297165200391,1.0450899315738016
505.29814271749757,0.8724819159335233
506.2991202346041,0.45077126099706233
507.30009775171067,0.161302052785924
508.3010752688172,0.1841290322580648
509.30205278592376,0.17551319648093755
510.3030303030303,0.24018181818182183
511.30400782013686,0.5173675464320622
512.3049853372434,0.3321319648094079
513.3059628543499,0.01729814271749501
514.3069403714564,0.28865102639292195
515.307917888563,1.04285337243398
516.3088954056695,1.2518895405670092
517.3098729227761,0.5197986314760674
518.3108504398826,0.35320821114368733
519.3118279569892,0.45554838709677303
520.3128054740957,0.35269794721409764
521.3137829912023,0.3711290322580135
522.3147605083088,1.0687986314760332
523.3157380254154,1.124603128054769
524.3167155425219,0.6544604105572133
525.3176930596285,0.2707790811339321
526.318670576735,0.2841378299119942
527.3196480938416,0.6087536656891485
528.3206256109481,0.6264506353861181
529.3216031280547,0.7569931573802301
530.3225806451612,1.1599354838709366
531.3235581622678,1.6317194525903889
532.3245356793743,2.1038563049853054
533.3255131964809,2.6801319648093296
534.3264907135874,3.663271749755525
535.327468230694,5.080512218963726
536.3284457478005,6.840527859237374
537.3294232649071,9.122414467253012
538.3304007820136,11.406965786901104
539.3313782991202,13.70082697947197
540.3323558162267,15.682039100684163
541.3333333333333,16.883999999999926
542.3343108504398,17.4461173020528
543.3352883675464,16.860107526881823
544.3362658846529,15.449284457478132
545.3372434017595,13.623539589442993
546.338220918866,11.404810361681502
547.3391984359725,9.530222873900401
548.3401759530791,8.210750733137937
549.3411534701856,6.907159335288475
550.3421309872922,5.604887585532856
551.3431085043987,4.521175953079235
552.3440860215054,3.9511505376343976
553.345063538612,3.6287126099706692
554.3460410557185,3.506536656891496
555.347018572825,3.5218582600195507
556.3479960899316,3.536219941348974
557.3489736070381,3.5512346041055722
558.3499511241447,3.5662492668621706
559.3509286412512,3.581263929618769
560.3519061583578,3.5966304985337247
561.3528836754643,3.6168807429130014
562.3538611925709,3.7694672531769378
563.3548387096774,4.2034193548387195
564.355816226784,4.887583577712627
565.3567937438905,6.001229716520062
566.3577712609971,7.290410557184768
567.3587487781036,8.174558162267848
568.3597262952102,8.694159335288376
569.3607038123167,9.57390322580647
570.3616813294233,10.973353861192589
571.3626588465298,12.528127077223873
572.3636363636364,14.367090909090928
573.3646138807429,16.3530566959922
574.3655913978495,18.59826881720432
575.366568914956,21.01481524926688
576.3675464320626,23.66210361681331
577.3685239491691,26.485667644183792
578.3695014662757,29.50588269794723
579.3704789833822,32.69412023460412
580.3714565004888,35.71536363636365
581.3724340175953,38.49729032258065
582.3734115347019,40.755763440860214
583.3743890518084,42.15278494623656
584.375366568915,43.25773900293255
585.3763440860215,43.84865591397849
586.377321603128,44.24544379276637
587.3782991202346,44.41502346041056
588.3792766373411,44.155508308895406
589.3802541544477,42.98723362658848
590.3812316715542,41.10812316715544
591.3822091886608,39.02682991202348
592.3831867057673,36.76024144672533
593.3841642228739,35.03980058651027
594.3851417399804,34.11998044965788
595.386119257087,33.68001368523949
596.3870967741935,34.06212903225806
597.3880742913001,34.92154349951122
598.3890518084066,36.52052101661777
599.3900293255132,38.35514369501464
600.3910068426197,40.18754252199411
601.3919843597263,42.08165689149557
602.3929618768328,44.19127565982401
603.3939393939394,46.32969696969693
604.3949169110459,47.47644574780058
605.3958944281525,47.46783284457478
606.396871945259,46.91412609970677
607.3978494623656,45.52858064516132
608.3988269794721,43.53660410557191
609.3998044965787,40.50143108504406
610.4007820136852,37.14643401759539
611.4017595307918,33.54008797653968
612.4027370478983,29.923669599218076
613.4037145650049,26.53354252199422
614.4046920821114,23.399302052786002
615.405669599218,20.69200684261981
616.4066471163245,18.389164222873966
617.4076246334312,16.28311143694999
618.4086021505377,14.39788172042995
619.4095796676443,12.8688778103616
620.4105571847508,11.892381231671477
621.4115347018574,10.788539589442708
622.4125122189639,9.408144672531654
623.4134897360705,8.296703812316668
624.414467253177,7.91237536656891
625.4154447702836,7.682910068426161
626.4164222873901,7.01098240469201
627.4173998044967,6.182185728250195
628.4183773216032,5.785775171065491
629.4193548387098,5.697225806451601
630.4203323558163,5.359468230693996
631.4213098729228,4.795386119257048
632.4222873900294,4.068692082111368
633.423264907136,3.100935483870901
634.4242424242425,2.4730606060605935
635.425219941349,2.3576686217008778
636.4261974584556,2.1939618768328217
637.4271749755621,1.7858299120234278
638.4281524926687,1.3982463343108342
639.4291300097752,1.246271749755619
640.4301075268818,1.2947956989247404
641.4310850439883,1.5676774193548662
642.4320625610949,1.9216950146627714
643.4330400782014,1.8458103616812995
644.434017595308,1.3553313782990908
645.4349951124145,0.8644173998044675
646.4359726295211,0.37250146627563113
647.4369501466276,0.06397653958943875
648.4379276637342,0.015241446725316564
649.4389051808407,0.01716715542522161
650.4398826979473,0.04675659824047079
651.4408602150538,0.11810752688172715
652.4418377321604,0.3797575757575987
653.4428152492669,0.6255425219941353
654.4437927663735,0.4089912023460156
655.44477028348,0.172029325513201
656.4457478005866,0.23715542521994304
657.4467253176931,0.2711886608015657
658.4477028347997,0.30611730205278764
659.4486803519062,0.33856304985337377
660.4496578690128,0.22899511241445453
661.4506353861193,0.2688719452590612
662.4516129032259,0.5134838709677428
663.4525904203324,0.5073489736070365
664.453567937439,0.4683108504398811
665.4545454545455,0.42927272727272564
666.455522971652,0.38977908113391824
667.4565004887586,0.34973998044965626
668.4574780058651,0.21317302052784953
669.4584555229717,0.2392932551319782
670.4594330400782,0.5325347018572907
671.4604105571848,0.45632551319646564
672.4613880742913,0.1757859237536618
673.4623655913979,0.09565591397849312
674.4633431085044,0.05114956011730055
675.464320625611,0.022821114369501173
676.4652981427175,0.03940371456500634
677.4662756598241,0.08591495601173164
678.4672531769306,0.13296089931573943
679.4682306940372,0.18047507331378437
680.4692082111437,0.2285219941348987
681.4701857282503,0.2775092864125136
682.4711632453568,0.32708699902248417
683.4721407624634,0.26707038123166693
684.4731182795699,0.2069569892473137
685.4740957966765,0.2825571847507349
686.475073313783,0.2635659824046893
687.4760508308896,0.34276735092864785
688.4770283479961,0.3020791788856218
689.4780058651027,0.1791231671554292
690.4789833822092,0.2571348973607028
691.4799608993158,0.20308211143694915
692.4809384164223,0.25387390029325796
693.4819159335289,0.5920058651026479
694.4828934506354,0.7316871945258999
695.483870967742,0.39016129032257457
696.4848484848485,0.2060909090909099
697.485826001955,0.43764613880743447
698.4868035190616,0.713771260997069
699.4877810361681,0.7531964809384157
700.4887585532747,0.585681329423262
701.4897360703812,0.26812316715542195
702.4907135874878,0.2661290322580676
703.4916911045943,0.48000977517106597
704.4926686217009,0.4858592375366566
705.4936461388074,0.25761779081133684
706.494623655914,0.17760215053763567
707.4956011730205,0.2792639296187681
708.4965786901271,0.2187086999022481
709.4975562072336,0.15764907135874864
710.4985337243402,0.09658944281524919
711.4995112414467,0.03503030303030301
712.5004887585533,0.030525904203323538
713.5014662756598,0.08809090909090901
714.5024437927664,0.150151515151515
715.5034213098729,0.21221212121212102
716.5043988269795,0.2747771260997065
717.505376344086,0.2109892473118289
718.5063538611926,0.20610557184750633
719.5073313782991,0.40006158357771116
720.5083088954057,0.4729765395894433
721.5092864125122,0.4099149560117307
722.5102639296188,0.3463431085043994
723.5112414467253,0.2827917888563056
724.5122189638319,0.21921798631476122
725.5131964809384,0.15515542521994213
726.514173998045,0.09160703812316796
727.5151515151515,0.03112121212121292
728.516129032258,0.036032258064515196
729.5171065493646,0.0995777126099697
730.5180840664711,0.16315738025415338
731.5190615835777,0.22670087976539482
732.5200391006842,0.14467155425220335
733.5210166177908,0.2556588465298064
734.5219941348973,0.5051994134897341
735.5229716520039,0.520052785923755
736.5239491691104,0.456467253176932
737.524926686217,0.3929296187683299
738.5259042033235,0.33039393939394085
739.5268817204301,0.26780645161290473
740.5278592375366,0.20527272727272883
