Raman Shift,Intensity
96.161,7162.0
97.554,7423.0
98.947,7480.331
100.34,7648.0
101.732,7645.0
103.124,7709.0
104.516,7806.0
105.908,7835.563
107.3,7866.427
108.691,7953.0
110.082,7855.0
111.473,7896.0
112.864,7832.0
114.254,8018.0
115.644,8161.0
117.034,8416.0
118.424,8064.0
119.813,7835.0
121.203,7931.0
122.592,8043.0
123.981,7878.0
125.369,7771.0
126.758,7865.0
128.146,7884.0
129.534,7977.0
130.922,7912.0
132.309,8066.0
133.696,7958.0
135.083,8017.0
136.47,7946.0
137.857,8207.0
139.243,8091.0
140.63,8005.0
142.016,7922.0
143.401,7849.0
144.787,7764.0
146.172,7838.0
147.557,7822.0
148.942,7729.0
150.327,7728.0
151.711,7651.0
153.096,7633.0
154.48,7578.0
155.863,7482.0
157.247,7444.0
158.63,7490.0
160.013,7490.0
161.396,7563.0
162.779,7532.0
164.161,7532.0
165.544,7567.0
166.926,7500.0
168.308,7581.0
169.689,7651.0
171.07,7665.0
172.452,7680.0
173.833,7706.0
175.213,7834.0
176.594,7914.0
177.974,8087.0
179.354,8090.0
180.734,8359.0
182.114,8422.0
183.493,8572.0
184.872,8798.0
186.251,9036.0
187.63,9261.0
189.008,9464.0
190.387,9417.0
191.765,9569.0
193.143,9704.0
194.52,9548.0
195.898,9627.0
197.275,9404.0
198.652,9402.0
200.029,9270.0
201.405,9401.0
202.782,9208.0
204.158,9206.0
205.534,9135.0
206.909,9032.845
208.285,8993.161
209.66,8918.0
211.035,8804.0
212.41,8826.0
213.784,8635.0
215.159,8769.0
216.533,8694.0
217.907,8852.0
219.281,8798.0
220.654,8692.0
222.027,8866.0
223.4,8728.0
224.773,8829.0
226.146,8738.0
227.518,8724.0
228.891,8674.0
230.263,8647.0
231.634,8599.0
233.006,8455.0
234.377,8624.0
235.748,8554.0
237.119,8730.0
238.49,8785.0
239.86,8743.0
241.231,9095.0
242.601,9247.0
243.97,9498.0
245.34,9912.0
246.709,10390.0
248.079,11072.0
249.448,11705.0
250.816,12957.0
252.185,14184.0
253.553,15732.0
254.921,17622.0
256.289,19698.0
257.657,22315.0
259.024,24722.0
260.391,27112.0
261.758,28701.0
263.125,29862.0
264.492,29440.0
265.858,28588.0
267.224,26900.0
268.59,24396.0
269.956,22347.0
271.321,19605.0
272.687,17966.0
274.052,16151.0
275.416,14600.0
276.781,13301.0
278.146,12598.0
279.51,11553.0
280.874,10812.0
282.237,10369.0
283.601,9828.0
284.964,9531.0
286.327,9186.0
287.69,8805.0
289.053,8738.0
290.416,8404.0
291.778,8288.0
293.14,8353.0
294.502,8035.0
295.863,8304.0
297.225,7921.0
298.586,7735.0
299.947,7705.0
301.308,7718.0
302.668,7654.0
304.029,7586.0
305.389,7591.0
306.749,7640.0
308.108,7569.0
309.468,7560.0
310.827,7670.0
312.186,7548.0
313.545,7563.0
314.903,7493.0
316.262,7608.0
317.62,7660.0
318.978,7633.0
320.336,7670.0
321.693,7666.099
323.051,7564.0
324.408,7597.0
325.765,7593.0
327.121,7426.0
328.478,7601.0
329.834,7471.0
331.19,7502.0
332.546,7492.0
333.902,7569.0
335.257,7465.0
336.612,7603.0
337.967,7519.0
339.322,7639.0
340.677,7712.0
342.031,7660.0
343.385,7858.0
344.739,7889.0
346.093,7991.0
347.446,8044.0
348.799,8132.0
350.153,8178.0
351.505,8266.0
352.858,8473.0
354.21,8534.0
355.563,8612.0
356.915,8707.0
358.267,8783.0
359.618,8973.0
360.969,9073.0
362.321,9038.0
363.672,9229.0
365.022,9293.0
366.373,9495.0
367.723,9441.0
369.073,9488.0
370.423,9712.0
371.773,9698.0
373.122,9892.0
374.471,9828.0
375.821,9988.0
377.169,10183.0
378.518,10035.0
379.866,10434.0
381.215,10257.0
382.563,10348.0
383.91,10548.0
385.258,10538.0
386.605,10596.0
387.952,10694.0
389.299,10944.0
390.646,10909.0
391.992,11231.0
393.339,11257.0
394.685,11475.0
396.031,11600.0
397.376,11801.0
398.722,12075.0
400.067,12246.0
401.412,12667.0
402.757,12778.0
404.101,12986.0
405.446,13433.0
406.79,13664.0
408.134,13860.0
409.478,14324.0
410.821,14609.0
412.165,15062.0
413.508,15144.0
414.851,15333.0
416.193,15779.0
417.536,15638.0
418.878,15754.0
420.22,15825.0
421.562,15592.0
422.904,15403.0
424.245,15051.0
425.586,14790.0
426.927,14535.0
428.268,14120.0
429.609,13770.0
430.949,13041.0
432.289,12628.0
433.629,12175.0
434.969,12029.0
436.309,11208.0
437.648,11100.0
438.987,10522.0
440.326,10346.0
441.665,10119.0
443.003,9728.0
444.342,9604.0
445.68,9461.0
447.018,9296.0
448.355,9178.0
449.693,9148.0
451.03,9012.0
452.367,8987.0
453.704,8934.0
455.041,8990.0
456.377,8876.0
457.713,8881.0
459.049,8799.0
460.385,8910.0
461.721,8819.0
463.056,8842.0
464.391,8883.0
465.726,8757.0
467.061,8590.0
468.395,8850.0
469.73,8646.0
471.064,8563.0
472.398,8610.0
473.731,8454.0
475.065,8428.0
476.398,8351.0
477.731,8291.0
479.064,8233.0
480.397,8329.0
481.729,8179.0
483.062,8201.0
484.394,8239.0
485.725,8123.0
487.057,8150.0
488.389,7993.0
489.72,8097.0
491.051,8058.0
492.382,7941.0
493.712,7911.0
495.043,7939.0
496.373,7875.0
497.703,7885.0
499.032,7796.0
500.362,7834.0
501.691,7926.0
503.02,7883.0
504.349,7948.0
505.678,7889.0
507.007,8000.0
508.335,7908.0
509.663,7958.177
510.991,7956.796
512.319,8006.0
513.646,8013.0
514.973,8035.0
516.3,8102.764
517.627,8115.0
518.954,8217.0
520.28,8292.0
521.607,8307.761
522.933,8398.0
524.259,8406.0
525.584,8506.0
526.91,8514.0
528.235,8543.0
529.56,8832.0
530.885,8841.0
532.209,9033.0
533.534,8919.0
534.858,8929.0
536.182,9216.0
537.506,9193.0
538.829,9293.0
540.152,9199.0
541.476,9298.0
542.799,9216.0
544.121,9274.0
545.444,9108.0
546.766,9298.0
548.088,9153.0
549.41,9199.0
550.732,9160.0
552.053,9226.0
553.375,9113.0
554.696,9185.0
556.017,9157.0
557.337,9050.0
558.658,9188.0
559.978,9043.0
561.298,9008.0
562.618,8988.0
563.938,9065.0
565.257,9017.0
566.576,8897.0
567.895,8960.0
569.214,8817.0
570.533,8967.0
571.851,9047.0
573.17,8977.0
574.488,8899.0
575.805,9080.0
577.123,9093.0
578.44,9152.0
579.758,9108.0
581.075,9103.0
582.391,9148.0
583.708,9187.925
585.024,9465.0
586.341,9371.0
587.657,9468.0
588.972,9623.0
590.288,9617.0
591.603,9856.0
592.918,9804.0
594.233,9850.0
595.548,9973.0
596.863,10136.0
598.177,10317.0
599.491,10358.042
600.805,10464.769
602.119,10467.0
603.432,10542.0
604.746,10637.0
606.059,10624.0
607.372,10785.0
608.685,10816.0
609.997,10789.0
611.309,10916.0
612.621,10863.0
613.933,10869.0
615.245,10841.0
616.557,10810.468
617.868,10761.0
619.179,10744.0
620.49,10708.0
621.801,10652.0
623.111,10540.0
624.421,10496.0
625.731,10330.0
627.041,10419.0
628.351,10070.0
629.66,10293.0
630.97,9927.0
632.279,9994.0
633.588,10033.0
634.896,9918.0
636.205,9986.0
637.513,9763.0
638.821,9946.0
640.129,9829.0
641.437,9859.0
642.744,9848.0
644.051,9912.0
645.358,9842.0
646.665,9833.0
647.972,9864.0
649.278,9922.0
650.584,9781.0
651.89,9815.0
653.196,9743.0
654.502,9812.0
655.807,9735.0
657.113,9727.0
658.418,9667.0
659.722,9667.0
661.027,9653.2
662.331,9711.0
663.636,9639.0
664.94,9746.0
666.244,9731.0
667.547,9720.0
668.851,9750.0
670.154,9688.0
671.457,10071.0
672.76,9925.0
674.062,9997.0
675.365,10314.0
676.667,10253.0
677.969,10473.0
679.271,10668.0
680.572,10809.0
681.874,11201.0
683.175,11487.35
684.476,11908.0
685.777,12369.0
687.077,12785.0
688.378,13491.0
689.678,14149.0
690.978,15181.0
692.278,16271.0
693.577,17365.0
694.877,18468.0
696.176,20568.0
697.475,22021.0
698.774,23488.0
700.072,24379.0
701.371,25257.0
702.669,25310.0
703.967,24931.0
705.265,23745.0
706.562,22809.0
707.86,21480.0
709.157,19770.0
710.454,18046.0
711.751,17104.0
713.047,15648.0
714.344,15027.0
715.64,13977.0
716.936,13596.0
718.232,12747.0
719.527,12386.0
720.823,12210.0
722.118,11628.0
723.413,11575.0
724.708,11297.0
726.002,11057.0
727.297,10818.0
728.591,10835.0
729.885,10566.0
731.179,10569.0
732.472,10602.0
733.766,10457.0
735.059,10527.0
736.352,10458.0
737.645,10507.0
738.937,10574.0
740.23,10516.0
741.522,10642.0
742.814,10612.0
744.106,10600.0
745.397,10706.0
746.689,10848.0
747.98,10688.0
749.271,10538.0
750.562,10630.0
751.853,10475.0
753.143,10567.0
754.433,10356.0
755.723,10331.0
757.013,10162.0
758.303,9994.0
759.592,9939.0
760.881,9780.0
762.17,9664.0
763.459,9525.0
764.748,9480.0
766.036,9271.0
767.325,9192.0
768.613,9211.0
769.901,9088.0
771.188,9152.0
772.476,8970.0
773.763,9012.0
775.05,9158.0
776.337,8920.0
777.624,9014.0
778.91,8942.0
780.196,9014.0
781.482,8966.0
782.768,8986.0
784.054,8994.0
785.339,8921.0
786.625,8913.0
787.91,9044.0
789.195,8968.0
790.479,9001.0
791.764,8894.0
793.048,8965.0
794.332,8921.0
795.616,8864.0
796.9,8890.962
798.183,8825.147
799.467,8897.0
800.75,8750.0
802.033,8785.0
803.316,8765.0
804.598,8705.0
805.88,8826.0
807.163,8637.0
808.445,8693.0
809.726,8646.0
811.008,8704.0
812.289,8673.0
813.57,8730.0
814.851,8708.0
816.132,8856.0
817.413,8933.0
818.693,9083.0
819.973,9127.0
821.253,9277.0
822.533,9399.0
823.813,9342.775
825.092,9404.0
826.371,9245.0
827.65,9266.0
828.929,9260.0
830.208,9122.0
831.486,9137.0
832.764,9134.0
834.042,8984.0
835.32,8947.0
836.598,9066.0
837.875,8974.0
839.152,9111.0
840.429,9083.0
841.706,9147.0
842.983,9314.0
844.259,9266.0
845.536,9268.0
846.812,9377.0
848.088,9231.0
849.363,9320.0
850.639,9285.0
851.914,9359.0
853.189,9273.0
854.464,9213.0
855.739,9232.0
857.013,9198.0
858.288,9280.0
859.562,9111.0
860.836,9039.0
862.11,9097.0
863.383,9047.0
864.656,8906.0
865.93,9004.0
867.203,8904.0
868.475,8927.0
869.748,8932.0
871.02,8922.0
872.292,8865.0
873.564,9024.0
874.836,8937.0
876.108,9030.0
877.379,8886.0
878.65,9024.0
879.922,9049.0
881.192,9444.0
882.463,9199.0
883.733,9265.0
885.004,9263.0
886.274,9175.0
887.544,9217.0
888.813,9300.0
890.083,9432.0
891.352,9521.0
892.621,9686.0
893.89,9792.0
895.159,9777.0
896.427,9811.0
897.695,9842.0
898.964,9973.0
900.232,10195.0
901.499,10142.0
902.767,10191.0
904.034,10225.0
905.301,10200.0
906.568,10180.0
907.835,10145.0
909.102,10186.0
910.368,10099.004
911.634,9931.0
912.9,9917.0
914.166,9882.0
915.432,9706.0
916.697,9836.0
917.962,9720.0
919.227,9399.0
920.492,9469.0
921.757,9390.0
923.021,9314.0
924.285,9142.0
925.55,9131.0
926.813,8970.0
928.077,8861.0
929.341,8851.0
930.604,8838.0
931.867,8750.0
933.13,8712.0
934.393,8608.0
935.655,8602.0
936.918,8617.0
938.18,8578.0
939.442,8632.0
940.703,8628.104
941.965,8618.846
943.226,8634.0
944.488,8616.0
945.749,8556.0
947.009,8577.0
948.27,8621.557
949.53,8699.0
950.791,8742.0
952.051,8813.0
953.311,8815.0
954.57,8837.0
955.83,8876.487
957.089,8837.0
958.348,8898.0
959.607,8936.0
960.866,8871.0
962.124,8864.0
963.383,8798.0
964.641,8791.34
965.899,8779.277
967.156,8773.0
968.414,8784.0
969.671,8776.318
970.928,8801.0
972.185,8861.0
973.442,8817.0
974.699,8897.0
975.955,8816.0
977.211,8931.322
978.468,9120.444
979.723,9113.529
980.979,8855.0
982.234,8871.0
983.49,8721.0
984.745,8894.0
986.0,8688.0
987.254,8866.0
988.509,8900.0
989.763,8737.0
991.017,8904.0
992.271,8696.0
993.525,8812.0
994.779,8816.0
996.032,8876.0
997.285,8866.0
998.538,8938.0
999.791,8976.0
1001.044,8812.0
1002.296,8947.0
1003.548,8848.0
1004.8,8914.0
1006.052,9012.0
1007.304,8860.0
1008.555,8940.0
1009.807,8887.0
1011.058,8987.0
1012.309,8976.437
1013.559,8999.0
1014.81,8976.0
1016.06,9001.0
1017.31,8971.0
1018.56,9035.0
1019.81,9017.0
1021.06,8993.0
1022.309,9063.0
1023.558,9073.0
1024.807,8956.0
1026.056,9110.0
1027.305,8979.0
1028.553,9005.0
1029.801,8979.0
1031.049,8929.928
1032.297,8961.0
1033.545,8926.0
1034.793,8915.0
1036.04,9015.0
1037.287,8840.0
1038.534,8940.0
1039.781,8865.0
1041.027,8915.0
1042.274,8911.0
1043.52,8861.0
1044.766,8832.0
1046.012,8866.987
1047.257,8912.0
1048.503,8954.0
1049.748,8941.0
1050.993,9003.0
1052.238,8990.0
1053.483,9119.0
1054.727,9061.0
1055.971,9231.0
1057.216,9134.0
1058.459,9328.0
1059.703,9354.0
1060.947,9409.0
1062.19,9461.0
1063.433,9602.0
1064.676,9576.0
1065.919,9718.0
1067.162,9664.0
1068.404,9694.0
1069.646,9912.0
1070.888,9783.0
1072.13,9858.0
1073.372,10071.0
1074.613,9993.0
1075.855,10136.0
1077.096,10156.0
1078.337,10163.0
1079.578,10203.0
1080.818,10262.0
1082.059,10261.0
1083.299,10249.0
1084.539,10234.367
1085.779,10281.0
1087.018,10176.0
1088.258,10112.0
1089.497,10129.0
1090.736,10138.0
1091.975,10062.0
1093.213,10086.0
1094.452,10028.0
1095.69,9948.0
1096.928,10057.0
1098.166,9921.0
1099.404,9997.0
1100.642,9963.0
1101.879,9980.0
1103.116,9882.0
1104.353,9985.0
1105.59,9896.0
1106.827,10012.0
1108.063,9987.0
1109.299,10107.0
1110.536,9972.0
1111.771,10052.0
1113.007,9980.0
1114.243,10000.0
1115.478,10112.0
1116.713,10076.0
1117.948,10050.0
1119.183,10158.0
1120.418,10140.0
1121.652,10117.0
1122.886,10151.0
1124.12,10107.0
1125.354,9938.0
1126.588,9887.0
1127.821,9814.0
1129.055,9737.0
1130.288,9689.0
1131.521,9596.0
1132.753,9626.0
1133.986,9416.0
1135.218,9270.0
1136.45,9241.0
1137.682,9280.0
1138.914,9105.0
1140.146,9094.0
1141.377,8924.0
1142.609,8810.0
1143.84,8769.0
1145.071,8635.0
1146.301,8636.0
1147.532,8521.0
1148.762,8561.0
1149.992,8532.0
1151.222,8365.0
1152.452,8380.0
1153.682,8384.0
1154.911,8405.0
1156.14,8276.0
1157.369,8406.0
1158.598,8266.0
1159.827,8272.0
1161.055,8230.0
1162.284,8306.0
1163.512,8314.0
1164.74,8262.0
1165.967,8276.0
1167.195,8297.0
1168.422,8252.0
1169.65,8313.0
1170.877,8288.0
1172.103,8257.0
1173.33,8176.0
1174.557,8318.0
1175.783,8267.0
1177.009,8321.0
1178.235,8302.0
1179.461,8181.0
1180.686,8291.0
1181.912,8219.0
1183.137,8207.0
1184.362,8264.0
1185.587,8334.0
1186.811,8292.0
1188.036,8242.0
1189.26,8275.0
1190.484,8310.0
1191.708,8311.0
1192.932,8289.0
1194.155,8351.0
1195.378,8282.0
1196.602,8322.0
1197.825,8307.0
1199.047,8398.0
1200.27,8274.0
1201.492,8310.0
1202.715,8308.0
1203.937,8386.0
1205.159,8280.0
1206.38,8409.0
1207.602,8271.0
1208.823,8293.0
1210.044,8279.0
1211.265,8302.0
1212.486,8395.0
1213.707,8375.0
1214.927,8301.0
1216.147,8386.0
1217.367,8355.0
1218.587,8404.0
1219.807,8401.956
1221.027,8379.867
1222.246,8417.0
1223.465,8343.0
1224.684,8409.0
1225.903,8419.0
1227.121,8447.0
1228.34,8422.0
1229.558,8407.0
1230.776,8393.0
1231.994,8475.0
1233.212,8453.0
1234.429,8456.645
1235.646,8497.0
1236.864,8436.957
1238.081,8452.0
1239.297,8457.0
1240.514,8437.0
1241.73,8422.0
1242.947,8502.0
1244.163,8492.0
1245.378,8437.0
1246.594,8369.0
1247.81,8488.0
1249.025,8554.0
1250.24,8416.0
1251.455,8490.0
1252.67,8524.0
1253.885,8535.0
1255.099,8521.0
1256.313,8574.0
1257.527,8512.0
1258.741,8559.0
1259.955,8590.0
1261.168,8559.0
1262.382,8523.0
1263.595,8513.0
1264.808,8654.0
1266.021,8626.0
1267.233,8623.0
1268.446,8596.0
1269.658,8602.0
1270.87,8682.0
1272.082,8659.0
1273.294,8662.0
1274.505,8659.0
1275.716,8605.0
1276.928,8565.0
1278.139,8611.0
1279.349,8678.0
1280.56,8762.0
1281.77,8647.0
1282.981,8686.0
1284.191,8599.0
1285.401,8760.0
1286.61,8688.0
1287.82,8781.0
1289.029,8700.0
1290.239,8790.0
1291.448,8742.0
1292.656,8893.0
1293.865,8824.0
1295.073,8877.0
1296.282,8853.0
1297.49,8891.0
1298.698,8834.0
1299.906,8969.0
1301.113,9110.0
1302.32,9082.0
1303.528,8968.0
1304.735,8995.0
1305.942,8980.0
1307.148,9042.0
1308.355,9072.0
1309.561,9017.0
1310.767,8979.0
1311.973,8977.184
1313.179,8990.0
1314.384,8973.0
1315.59,8964.0
1316.795,9027.0
1318.0,8920.0
1319.205,8898.0
1320.41,8869.0
1321.614,8942.0
1322.819,8868.0
1324.023,8870.0
1325.227,9026.0
1326.431,8916.0
1327.634,8987.0
1328.838,8910.0
1330.041,8844.0
1331.244,8864.0
1332.447,8820.791
1333.65,8996.0
1334.852,8837.0
1336.055,8897.0
1337.257,8966.0
1338.459,8807.0
1339.661,9009.0
1340.862,8914.0
1342.064,8970.0
1343.265,9017.0
1344.466,8956.0
1345.667,8948.0
1346.868,9110.0
1348.068,9022.0
1349.269,9270.0
1350.469,9174.0
1351.669,9088.0
1352.869,9123.0
1354.069,9094.0
1355.268,9123.0
1356.468,9136.0
1357.667,9083.0
1358.866,9173.0
1360.065,9105.0
1361.263,9162.0
1362.462,9126.0
1363.66,9156.0
1364.858,9159.033
1366.056,9193.0
1367.254,9175.0
1368.451,9174.0
1369.649,9210.0
1370.846,9211.0
1372.043,9152.0
1373.24,9185.0
1374.436,9284.0
1375.633,9180.0
1376.829,9221.0
1378.025,9267.0
1379.221,9169.0
1380.417,9175.0
1381.613,9121.0
1382.808,9297.0
1384.003,9279.0
1385.199,9314.0
1386.393,9273.0
1387.588,9283.0
1388.783,9209.0
1389.977,9372.0
1391.171,9305.0
1392.365,9337.0
1393.559,9286.0
1394.753,9310.0
1395.946,9307.177
1397.14,9375.0
1398.333,9324.0
1399.526,9386.0
1400.719,9421.0
1401.911,9335.0
1403.104,9412.0
1404.296,9355.0
1405.488,9612.0
1406.68,9488.729
1407.872,9521.645
1409.063,9405.0
1410.255,9459.0
1411.446,9505.0
1412.637,9481.0
1413.828,9558.0
1415.018,9507.0
1416.209,9551.0
1417.399,9601.0
1418.589,9650.0
1419.779,9657.0
1420.969,9666.0
1422.159,9654.0
1423.348,9714.0
1424.537,9744.0
1425.726,9741.0
1426.915,9677.0
1428.104,9763.0
1429.293,9842.0
1430.481,9889.0
1431.669,9998.0
1432.857,9904.0
1434.045,9962.0
1435.233,10176.0
1436.42,10124.0
1437.608,10358.0
1438.795,10291.0
1439.982,10220.0
1441.169,10297.0
1442.355,10384.0
1443.542,10410.0
1444.728,10399.419
1445.914,10485.0
1447.1,10295.0
1448.286,10338.0
1449.472,10250.0
1450.657,10294.0
1451.842,10274.558
1453.027,10323.0
1454.212,10253.0
1455.397,10283.0
1456.581,10253.0
1457.766,10214.0
1458.95,10298.0
1460.134,10325.0
1461.318,10251.0
1462.501,10195.0
1463.685,10204.0
1464.868,10145.0
1466.051,10174.0
1467.234,10083.0
1468.417,10210.0
1469.6,10105.0
1470.782,10064.0
1471.965,10100.0
1473.147,10058.0
1474.329,9958.0
1475.51,10142.0
1476.692,10075.0
1477.873,10014.0
1479.055,10078.0
1480.236,9991.0
1481.416,10012.0
1482.597,10044.0
1483.778,9947.0
1484.958,10079.0
1486.138,9993.0
1487.318,10046.0
1488.498,9926.0
1489.678,10138.0
1490.857,10025.0
1492.037,9980.0
1493.216,9928.0
1494.395,10071.0
1495.574,10096.0
1496.752,9980.0
1497.931,10060.0
1499.109,9969.0
1500.287,10037.0
1501.465,9993.0
1502.643,10046.0
1503.82,9956.0
1504.998,9988.0
1506.175,10007.319
1507.352,10008.0
1508.529,10059.0
1509.706,10074.0
1510.882,10078.0
1512.059,10121.014
1513.235,10108.0
1514.411,10168.0
1515.587,10200.0
1516.762,10193.66
1517.938,10224.0
1519.113,10115.0
1520.288,10178.0
1521.463,10107.0
1522.638,10108.0
1523.813,10274.0
1524.987,10162.0
1526.162,10276.0
