Raman Shift,Intensity
91.55994,573.6298
92.04205,593.0452
92.52417,622.2574
93.00629,655.826
93.4884,687.7962
93.97052,711.8655
94.45264,723.2486
94.93475,730.0087
95.41687,735.1423
95.89898,738.8728
96.3811,742.1205
96.86321,745.8968
97.34533,750.1562
97.82745,752.9109
98.30956,754.3422
98.79168,753.8511
99.2738,753.6207
99.75591,753.8822
100.238,754.5813
100.7201,755.8043
101.2023,757.6449
101.6844,760.0628
102.1665,762.563
102.6486,765.3114
103.1307,767.9503
103.6128,769.9435
104.095,771.106
104.5771,772.4391
105.0592,774.6256
105.5413,777.1888
106.0234,779.4821
106.5055,781.2556
106.9877,782.515
107.4698,783.1472
107.9519,781.4452
108.434,781.2678
108.9161,785.15
109.3982,791.8685
109.8804,798.4506
110.3625,802.2628
110.8446,802.8694
111.3267,802.753
111.8088,800.4092
112.2909,798.5782
112.7731,798.7303
113.2552,800.9691
113.7373,804.3466
114.2194,807.6133
114.7015,811.7877
115.1836,813.6887
115.6658,811.9825
116.1479,808.7492
116.63,806.0347
117.1121,804.5831
117.5942,803.704
118.0763,801.6799
118.5584,797.9908
119.0406,794.5146
119.5227,792.0743
120.0048,790.3104
120.4869,788.0331
120.969,784.1131
121.4511,779.9366
121.9333,778.0491
122.4154,779.1623
122.8975,781.311
123.3796,782.97
123.8617,784.1074
124.3438,785.0215
124.826,785.2325
125.3081,785.4971
125.7902,786.808
126.2723,789.9921
126.7544,793.7911
127.2365,795.0212
127.7187,791.5025
128.2008,789.0483
128.6829,789.3496
129.165,791.5858
129.6471,794.7686
130.1292,798.407
130.6114,802.4532
131.0935,806.1507
131.5756,808.8403
132.0577,811.8378
132.5398,815.6301
133.0219,820.0412
133.5041,824.4924
133.9862,828.4056
134.4683,831.5486
134.9504,836.0242
135.4325,842.9901
135.9146,850.1008
136.3968,855.7195
136.8789,859.801
137.361,863.7242
137.8431,869.009
138.3252,875.9906
138.8073,883.0375
139.2895,889.7181
139.7716,896.5706
140.2537,903.92
140.7358,911.5827
141.2179,920.6335
141.7,933.3531
142.1821,949.3557
142.6643,964.9583
143.1464,978.4459
143.6285,990.2628
144.1106,1002.192
144.5927,1015.031
145.0748,1027.516
145.557,1037.802
146.0391,1045.91
146.5212,1055.244
147.0033,1068.466
147.4854,1085.716
147.9675,1105.789
148.4497,1128.045
148.9318,1153.826
149.4139,1184.585
149.896,1220.427
150.3781,1260.317
150.8602,1302.879
151.3424,1350.373
151.8245,1396.457
152.3066,1444.959
152.7887,1489.98
153.2708,1529.314
153.7529,1561.576
154.2351,1584.071
154.7172,1589.778
155.1993,1572.658
155.6814,1542.554
156.1635,1495.079
156.6456,1436.619
157.1278,1372.901
157.6099,1306.221
158.092,1238.705
158.5741,1180.085
159.0562,1130.469
159.5383,1087.787
160.0205,1053.266
160.5026,1025.656
160.9847,1002.412
161.4668,982.6589
161.9489,966.2475
162.431,951.7663
162.9131,939.7278
163.3953,928.9432
163.8774,919.3565
164.3595,910.8232
164.8416,902.0382
165.3237,891.7405
165.8058,880.7493
166.288,870.8821
166.7701,862.2056
167.2522,854.7764
167.7343,848.8901
168.2164,844.7316
168.6985,841.2888
169.1807,837.7026
169.6628,834.5428
170.1449,832.6716
170.627,832.5405
171.1091,833.8321
171.5912,835.9804
172.0734,839.4861
172.5555,842.9603
173.0376,845.3261
173.5197,847.4235
174.0018,850.3712
174.4839,854.6263
174.9661,860.2775
175.4482,867.9443
175.9303,879.6677
176.4124,891.3048
176.8945,900.468
177.3766,908.79
177.8588,919.0706
178.3409,933.5263
178.823,952.2224
179.3051,971.4055
179.7872,994.2653
180.2693,1014.542
180.7515,1032.497
181.2336,1046.526
181.7157,1053.256
182.1978,1049.47
182.6799,1034.267
183.162,1015.942
183.6441,991.6078
184.1263,967.4414
184.6084,945.9132
185.0905,927.3512
185.5726,911.2679
186.0547,897.1534
186.5368,885.1898
187.019,877.2012
187.5011,874.7262
187.9832,874.959
188.4653,876.5665
188.9474,879.285
189.4296,882.1147
189.9117,883.8886
190.3938,884.6612
190.8759,886.2747
191.358,889.5808
191.8401,893.516
192.3223,896.8128
192.8044,899.2277
193.2865,901.5711
193.7686,904.5259
194.2507,908.001
194.7328,911.9741
195.215,916.1699
195.6971,920.9105
196.1792,926.8349
196.6613,934.0242
197.1434,942.4229
197.6255,951.7254
198.1077,962.0354
198.5898,973.6977
199.0719,986.4174
199.554,1000.569
200.0361,1017.549
200.5182,1037.465
201.0004,1060.713
201.4825,1085.778
201.9646,1113.5
202.4467,1145.598
202.9288,1182.73
203.4109,1225.018
203.893,1273.9
204.3752,1331.696
204.8573,1394.467
205.3394,1464.019
205.8215,1537.251
206.3036,1609.195
206.7857,1679.313
207.2679,1748.939
207.75,1790.407
208.2321,1800.515
208.7142,1782.969
209.1963,1729.111
209.6784,1645.903
210.1606,1547.99
210.6427,1445.632
211.1248,1337.371
211.6069,1243.53
212.089,1165.846
212.5711,1099.323
213.0533,1043.395
213.5354,997.264
214.0175,959.1074
214.4996,927.7284
214.9817,903.6663
215.4638,883.4933
215.946,868.1036
216.4281,854.7581
216.9102,842.0364
217.3923,830.0021
217.8744,819.4523
218.3565,811.305
218.8387,805.8934
219.3208,800.7497
219.8029,796.0251
220.285,791.3879
220.7671,786.3876
221.2492,781.1194
221.7314,776.3223
222.2135,772.6551
222.6956,770.2488
223.1777,768.1338
223.6598,766.5954
224.1419,765.1319
224.624,763.2747
225.1062,761.0223
225.5883,758.9011
226.0704,757.4099
226.5525,756.4869
227.0346,755.4176
227.5167,754.2191
227.9989,752.8243
228.481,751.0032
228.9631,748.7288
229.4452,746.6765
229.9273,745.3898
230.4094,744.739
230.8916,744.342
231.3737,744.3763
231.8558,744.5125
232.3379,744.3318
232.82,743.786
233.3021,743.2501
233.7843,742.7395
234.2664,742.4389
234.7485,742.6995
235.2306,743.6988
235.7127,745.2228
236.1948,747.1124
236.677,749.4908
237.1591,751.7674
237.6412,753.5213
238.1233,755.05
238.6054,756.6817
239.0875,758.5358
239.5697,760.511
240.0518,762.4601
240.5339,764.4161
241.016,766.2641
241.4981,767.1906
241.9802,768.3057
242.4624,770.8234
242.9445,775.2707
243.4266,780.8955
243.9087,786.6613
244.3908,792.9293
244.8729,798.2662
245.355,801.2402
245.8372,803.7038
246.3193,807.4696
246.8014,813.224
247.2835,819.6171
247.7656,824.4134
248.2477,827.2001
248.7299,829.2177
249.212,831.1208
249.6941,832.2223
250.1762,831.7132
250.6583,829.3865
251.1404,826.1163
251.6226,823.4676
252.1047,822.2574
252.5868,819.7768
253.0689,814.3175
253.551,808.668
254.0331,804.9502
254.5153,803.6385
254.9974,803.4711
255.4795,802.5765
255.9616,800.7538
256.4437,798.5773
256.9258,795.401
257.408,792.4158
257.8901,790.1624
258.3722,788.8546
258.8543,788.6429
259.3364,789.9372
259.8185,793.7946
260.3007,796.4656
260.7828,797.9762
261.2649,798.5911
261.747,798.5275
262.2291,797.7756
262.7112,796.1186
263.1934,793.274
263.6755,789.0718
264.1576,784.116
264.6397,777.9412
265.1218,771.5756
265.6039,765.0505
266.0861,758.7205
266.5682,753.532
267.0503,750.5804
267.5324,750.3373
268.0145,749.4449
268.4966,747.8884
268.9788,745.8551
269.4609,742.7452
269.943,739.0537
270.4251,736.3541
270.9072,736.1208
271.3893,738.4814
271.8715,739.5961
272.3536,738.601
272.8357,737.4953
273.3178,737.2698
273.7999,737.6635
274.282,737.8711
274.7642,737.3858
275.2463,736.2176
275.7284,734.4388
276.2105,731.4359
276.6926,728.6289
277.1747,726.4044
277.6568,724.7217
278.1389,723.6063
278.6211,723.2055
279.1032,723.1896
279.5853,722.0458
280.0674,718.0519
280.5495,715.1603
281.0316,715.5051
281.5138,717.4845
281.9959,718.0765
282.478,715.8367
282.9601,711.9694
283.4422,709.6453
283.9243,709.5801
284.4065,709.4073
284.8886,708.46
285.3707,707.1723
285.8528,706.2713
286.3349,706.0386
286.817,705.971
287.2992,705.0674
287.7813,702.9019
288.2634,701.4182
288.7455,701.7166
289.2276,702.5432
289.7097,702.0592
290.1919,699.7918
290.674,697.4239
291.1561,697.3777
291.6382,700.1251
292.1203,701.3837
292.6024,699.424
293.0846,696.5273
293.5667,694.85
294.0488,694.6658
294.5309,695.1855
295.013,695.8455
295.4951,696.6384
295.9773,697.2287
296.4594,698.0173
296.9415,698.2958
297.4236,696.9672
297.9057,694.1969
298.3878,691.9249
298.87,691.5997
299.3521,693.0385
299.8342,694.3043
300.3163,696.0057
300.7984,696.9854
301.2805,695.8517
301.7627,693.1306
302.2448,691.3272
302.7269,692.0743
303.209,694.4085
303.6911,695.3184
304.1732,693.9793
304.6554,692.7297
305.1375,692.938
305.6196,694.058
306.1017,694.5476
306.5838,693.6302
307.0659,692.193
307.5481,692.1314
308.0302,693.8049
308.5123,695.1132
308.9944,695.4681
309.4765,695.0056
309.9586,693.6166
310.4408,691.0509
310.9229,688.5475
311.405,688.2789
311.8871,690.3571
312.3692,691.2648
312.8513,688.7325
313.3335,685.3967
313.8156,685.0358
314.2977,688.3092
314.7798,691.4709
315.2619,690.6088
315.744,685.9893
316.2262,682.6666
316.7083,681.9285
317.1904,682.005
317.6725,681.5131
318.1546,680.4202
318.6367,679.2488
319.1188,678.2781
319.601,677.5338
320.0831,676.984
320.5652,676.8943
321.0473,676.7302
321.5294,675.9615
322.0115,674.8157
322.4937,674.1422
322.9758,674.4542
323.4579,675.3515
323.94,675.7977
324.4221,675.6599
324.9042,675.4708
325.3864,675.6068
325.8685,675.7978
326.3506,675.4039
326.8327,674.1171
327.3148,672.5912
327.7969,671.8812
328.2791,672.0617
328.7612,672.3695
329.2433,673.0434
329.7254,673.6019
330.2075,673.3283
330.6896,672.0992
331.1718,670.6611
331.6539,669.665
332.136,669.1611
332.6181,669.0735
333.1002,669.8354
333.5823,670.6838
334.0645,671.1553
334.5466,671.21
335.0287,670.8096
335.5108,669.7098
335.9929,668.1345
336.475,667.6459
336.9572,669.277
337.4393,670.7659
337.9214,671.3384
338.4035,671.0492
338.8856,669.9798
339.3677,668.1005
339.8499,665.6234
340.332,662.968
340.8141,659.0511
341.2962,656.8617
341.7783,658.3766
342.2604,661.4268
342.7426,663.0385
343.2247,662.3558
343.7068,660.9356
344.1889,661.0095
344.671,663.4512
345.1531,664.859
345.6353,664.4199
346.1174,663.4877
346.5995,663.3152
347.0816,663.8773
347.5637,663.9537
348.0458,662.214
348.528,658.4988
349.0101,656.7903
349.4922,658.3601
349.9743,660.2858
350.4564,661.7606
350.9385,662.618
351.4207,662.5922
351.9028,661.4362
352.3849,659.4789
352.867,658.1227
353.3491,657.5325
353.8312,657.337
354.3134,658.1741
354.7955,659.1198
355.2776,658.6952
355.7597,656.4524
356.2418,653.8854
356.7239,653.6085
357.2061,657.2895
357.6882,659.9571
358.1703,661.5539
358.6524,662.2933
359.1345,662.0588
359.6166,660.9994
360.0987,659.6035
360.5808,658.2736
361.063,656.9578
361.5451,656.22
362.0272,656.8992
362.5093,657.2481
362.9914,656.4157
363.4735,654.8392
363.9557,653.4172
364.4378,652.7028
364.9199,652.5286
365.402,652.1607
365.8841,651.1508
366.3662,650.5944
366.8484,651.0123
367.3305,651.7239
367.8126,652.068
368.2947,651.8344
368.7768,651.28
369.2589,650.7816
369.7411,650.3638
370.2232,649.941
370.7053,649.4573
371.1874,649.0091
371.6695,648.7952
372.1516,648.7122
372.6338,648.321
373.1159,646.9139
373.598,644.565
374.0801,643.9241
374.5622,647.0209
375.0443,649.3464
375.5265,648.9529
376.0086,646.9725
376.4907,645.1254
376.9728,644.1978
377.4549,643.968
377.937,643.9324
378.4192,644.02
378.9013,644.5195
379.3834,646.8274
379.8655,648.7843
380.3476,648.1089
380.8297,644.3949
381.3119,640.4352
381.794,639.2947
382.2761,640.9086
382.7582,642.1796
383.2403,642.6569
383.7224,642.753
384.2046,642.8182
384.6867,642.801
385.1688,642.5015
385.6509,641.4441
386.133,640.0939
386.6151,639.6249
387.0973,640.2658
387.5794,640.9618
388.0615,641.1457
388.5436,640.9914
389.0257,640.6758
389.5078,640.1025
389.99,639.6016
390.4721,639.5118
390.9542,639.787
391.4363,640.1241
391.9184,640.566
392.4005,640.8397
392.8827,640.4897
393.3648,639.474
393.8469,638.5521
394.329,638.2031
394.8111,638.079
395.2932,637.4842
395.7754,636.2567
396.2575,635.2419
396.7396,635.3839
397.2217,636.5588
397.7038,637.1196
398.1859,636.383
398.6681,635.5587
399.1501,635.6824
399.6323,636.4568
400.1144,636.706
400.5965,635.7552
401.0786,634.038
401.5607,632.8297
402.0428,632.4421
402.525,631.9188
403.0071,630.4318
403.4892,629.0203
403.9713,629.1614
404.4534,631.1097
404.9355,633.5704
405.4177,635.0232
405.8998,635.2042
406.3819,635.5882
406.864,636.9774
407.3461,637.7923
407.8282,636.6397
408.3104,634.241
408.7925,632.4396
409.2746,632.4052
409.7567,633.7957
410.2388,635.0328
410.7209,636.3576
411.2031,637.1639
411.6852,636.9081
412.1673,636.3928
412.6494,636.6756
413.1315,637.9034
413.6136,638.947
414.0958,637.9922
414.5779,634.1778
415.06,631.8185
415.5421,632.4128
416.0242,633.119
416.5063,632.6885
416.9885,631.4717
417.4706,630.5316
417.9527,630.6154
418.4348,631.4034
418.9169,631.8076
419.399,631.7433
419.8812,631.4676
420.3633,630.5981
420.8454,629.8105
421.3275,630.0424
421.8096,631.5591
422.2917,632.8878
422.7739,632.0132
423.256,629.0895
423.7381,627.4421
424.2202,628.1315
424.7023,629.4482
425.1844,630.4366
425.6666,631.0004
426.1487,630.7467
426.6308,628.723
427.1129,626.1393
427.595,624.8594
428.0771,624.937
428.5593,625.4492
429.0414,626.2703
429.5235,627.0291
430.0056,626.9622
430.4877,625.7515
430.9698,624.4459
431.452,623.2733
431.9341,622.4208
432.4162,622.5732
432.8983,624.0506
433.3804,625.4338
433.8625,624.7221
434.3447,621.4822
434.8268,619.9602
435.3089,622.0602
435.791,624.4119
436.2731,624.7584
436.7552,623.3763
437.2374,621.551
437.7195,619.9359
438.2016,618.6235
438.6837,618.0118
439.1658,618.9467
439.6479,619.5052
440.1301,618.7908
440.6122,618.0831
441.0943,618.9631
441.5764,621.5465
442.0585,624.3347
442.5406,625.6547
443.0227,625.421
443.5049,624.3807
443.987,621.2748
444.4691,618.6714
444.9512,617.7419
445.4333,617.7897
445.9154,617.5304
446.3976,616.2642
446.8797,614.5949
447.3618,613.8649
447.8439,614.2572
448.326,615.0483
448.8081,617.3854
449.2903,619.1363
449.7724,618.3943
450.2545,615.3256
450.7366,612.2609
451.2187,611.278
451.7008,611.8329
452.183,611.451
452.6651,609.5457
453.1472,608.0638
453.6293,608.6773
454.1114,610.3181
454.5935,611.6066
455.0757,612.4255
455.5578,612.4882
456.0399,610.9971
456.522,608.3864
457.0041,606.6108
457.4862,606.3939
457.9684,606.8309
458.4505,606.78
458.9326,606.2527
459.4147,605.7908
459.8968,605.7891
460.3789,605.6818
460.8611,604.5599
461.3432,602.6832
461.8253,601.6692
462.3074,602.7479
462.7895,605.2057
463.2716,606.0591
463.7538,603.4767
464.2359,601.8041
464.718,602.0942
465.2001,603.2071
465.6822,604.1445
466.1643,604.6357
466.6465,604.725
467.1286,604.4122
467.6107,603.6337
468.0928,603.0145
468.5749,602.0605
469.057,601.8053
469.5392,603.6444
470.0213,606.0595
470.5034,606.5435
470.9855,603.9236
471.4676,600.0579
471.9497,598.3058
472.4319,599.1472
472.914,600.0147
473.3961,600.9112
473.8782,601.42
474.3603,601.22
474.8424,600.3942
475.3246,599.2873
475.8067,597.6165
476.2888,595.9811
476.7709,596.0212
477.253,598.0629
477.7351,599.7721
478.2173,600.3748
478.6994,599.7509
479.1815,597.342
479.6636,592.2324
480.1457,588.6346
480.6278,590.1815
481.11,594.2847
481.592,596.0292
482.0742,594.4874
482.5563,592.1879
483.0384,591.3782
483.5205,592.0378
484.0026,592.0153
484.4847,590.7178
484.9669,589.4238
485.449,588.3564
485.9311,587.7034
486.4132,588.0141
486.8953,589.4777
487.3774,591.1596
487.8596,591.4195
488.3417,589.3918
488.8238,588.3203
489.3059,589.3691
489.788,590.1063
490.2701,588.7297
490.7523,586.103
491.2344,584.4176
491.7165,585.1328
492.1986,587.2666
492.6807,588.1785
493.1628,587.7079
493.645,586.4578
494.1271,583.4012
494.6092,580.4437
495.0913,578.8951
495.5734,578.7956
496.0555,579.2972
496.5377,580.1221
497.0198,581.0818
497.5019,581.538
497.984,581.3356
498.4661,581.3434
498.9482,582.5201
499.4304,584.0132
499.9125,584.0646
500.3946,581.8744
500.8767,579.9938
501.3588,580.1212
501.8409,581.29
502.3231,581.2939
502.8052,579.6559
503.2873,579.0497
503.7694,582.8055
504.2515,591.1602
504.7336,594.4266
505.2158,589.0638
505.6979,583.1981
506.18,579.2615
506.6621,576.8096
507.1442,574.9714
507.6263,573.4323
508.1085,572.533
508.5906,573.0289
509.0727,575.6564
509.5548,577.0043
510.0369,575.6783
510.519,574.4554
511.0012,574.7227
511.4833,575.8199
511.9654,576.2554
512.4475,575.1263
512.9296,573.5187
513.4117,573.8528
513.8939,576.5847
514.376,577.6126
514.8581,574.345
515.3402,570.8175
515.8223,571.0406
516.3044,574.3945
516.7866,576.5788
517.2687,574.7025
517.7508,571.3112
518.2329,569.702
518.715,569.8096
519.1971,569.9788
519.6793,569.3906
520.1614,568.4454
520.6435,568.1317
521.1256,568.7213
521.6077,569.0033
522.0898,568.7689
522.572,568.1498
523.0541,566.7529
523.5362,564.9166
524.0183,564.0804
524.5004,565.4584
524.9825,568.4597
525.4647,570.0314
525.9468,569.1329
526.4289,568.1902
526.911,567.5212
527.3931,566.8265
527.8752,565.5609
528.3574,563.8582
528.8395,562.7012
529.3216,563.2465
529.8037,565.1361
530.2858,566.193
530.7679,566.2887
531.2501,565.8346
531.7322,564.4203
532.2143,562.8219
532.6964,561.9005
533.1785,561.8636
533.6606,561.9438
534.1428,561.4597
534.6249,560.766
535.107,560.7256
535.5891,561.4887
536.0712,562.399
536.5533,563.1996
537.0355,563.7193
537.5176,563.1031
537.9997,559.5915
538.4818,557.1913
538.9639,557.9285
539.446,559.9816
539.9282,561.0452
540.4103,560.6727
540.8924,560.0127
541.3745,560.3995
541.8566,561.9036
542.3387,561.985
542.8209,558.6071
543.3029,556.2201
543.785,556.4131
544.2672,557.7164
544.7493,558.5568
545.2314,558.4954
545.7135,557.9344
546.1956,557.1751
546.6777,556.2416
547.1599,555.4984
547.642,555.1181
548.1241,554.6072
548.6062,553.1046
549.0883,551.389
549.5704,550.9129
550.0526,552.5387
550.5347,554.1023
551.0168,554.0129
551.4989,552.9283
551.981,552.2024
552.4631,552.1198
552.9453,552.2988
553.4274,552.4571
553.9095,552.5923
554.3916,552.3483
554.8737,550.7873
555.3558,550.0164
555.838,551.5292
556.3201,553.7333
556.8022,554.4835
557.2843,553.3257
557.7664,551.6652
558.2485,551.2394
558.7307,552.1256
559.2128,552.0635
559.6949,550.2439
560.177,548.6246
560.6591,547.7982
561.1412,547.5397
561.6234,547.7072
562.1055,548.3148
562.5876,548.8146
563.0697,548.4659
563.5518,547.6074
564.0339,547.5184
564.5161,548.5009
564.9982,549.4689
565.4803,549.7215
565.9624,549.2913
566.4445,548.5215
566.9266,546.9342
567.4088,545.687
567.8909,545.9215
568.373,546.3607
568.8551,544.8026
569.3372,541.1884
569.8193,538.0742
570.3015,538.0643
570.7836,540.9377
571.2657,542.4094
571.7478,541.1699
572.2299,540.24
572.712,540.1431
573.1942,540.5076
573.6763,541.0298
574.1584,541.6378
574.6405,542.3432
575.1226,543.3666
575.6047,544.5225
576.0869,545.0715
576.569,545.0178
577.0511,544.3063
577.5332,542.5709
578.0153,540.3354
578.4974,538.2344
578.9796,536.0356
579.4617,535.082
579.9438,537.0641
580.4259,539.8564
580.908,541.1095
581.3901,540.7019
581.8723,539.4879
582.3544,537.9172
582.8365,536.1038
583.3186,534.3866
583.8007,531.9056
584.2828,530.9225
584.765,533.1486
585.2471,535.3849
585.7292,535.2197
586.2113,533.1047
586.6934,531.0394
587.1755,530.2349
587.6577,530.3334
588.1398,530.6938
588.6219,531.4078
589.104,531.7516
589.5861,531.5193
590.0682,530.8721
590.5504,529.7526
591.0325,528.2784
591.5146,527.2546
591.9967,527.4103
592.4788,527.7056
592.9609,527.186
593.4431,526.0707
593.9252,524.8528
594.4073,523.6554
594.8894,523.058
595.3715,524.0878
595.8536,527.4592
596.3358,529.187
596.8179,528.5947
597.3,527.3743
597.7821,525.7299
598.2642,523.9685
598.7463,522.3109
599.2285,520.8514
599.7106,519.8878
600.1927,519.9036
600.6748,520.866
601.1569,521.986
601.639,523.5251
602.1212,524.5814
602.6033,524.1985
603.0854,523.1245
603.5675,522.4988
604.0496,522.5889
604.5317,522.7214
605.0139,522.3102
605.496,521.8405
605.9781,522.2354
606.4602,523.4976
606.9423,524.5578
607.4244,524.5626
607.9066,523.8372
608.3887,523.8918
608.8708,526.6788
609.3529,527.3827
609.835,523.8185
610.3171,519.8225
610.7993,518.0283
611.2814,518.3361
611.7635,519.3873
612.2456,520.606
612.7277,521.5776
613.2098,521.2877
613.692,519.6305
614.1741,517.8427
614.6562,515.9354
615.1383,514.3644
615.6204,513.6379
616.1025,513.6531
616.5847,513.9489
617.0668,515.3405
617.5489,516.0872
618.031,514.0954
618.5131,510.8251
618.9952,509.454
619.4774,510.8813
619.9595,513.2081
620.4416,514.1998
620.9237,513.7584
621.4058,513.5506
621.8879,514.3412
622.3701,514.3999
622.8522,512.476
623.3343,510.1695
623.8164,509.2707
624.2985,510.0598
624.7806,511.197
625.2628,511.6311
625.7448,511.581
626.2269,511.6117
626.709,511.7405
627.1912,511.9425
627.6733,512.4341
628.1554,512.7772
628.6375,511.9246
629.1196,509.5996
629.6017,507.6751
630.0839,506.3072
630.566,505.519
631.0481,505.5741
631.5302,506.1959
632.0123,506.8972
632.4944,507.4532
632.9766,507.668
633.4587,506.9144
633.9408,504.7293
634.4229,504.0267
634.905,506.1123
635.3871,508.0427
635.8693,508.7595
636.3514,508.4496
636.8335,507.2012
637.3156,504.8169
637.7977,502.5237
638.2798,500.9526
638.762,500.1606
639.2441,500.5013
639.7262,501.9694
640.2083,503.5774
640.6904,504.7515
641.1725,505.5159
641.6547,505.9577
642.1368,506.1855
642.6189,505.8732
643.101,504.2043
643.5831,502.7206
644.0652,502.9666
644.5474,504.2018
645.0295,504.3069
645.5116,502.0175
645.9937,498.8399
646.4758,497.0884
646.9579,496.757
647.4401,497.3526
647.9222,499.433
648.4043,501.0954
648.8864,500.5141
649.3685,498.3333
649.8506,496.5595
650.3328,495.3727
650.8149,494.5679
651.297,494.2662
651.7791,494.2027
652.2612,494.0344
652.7433,493.7498
653.2255,493.6177
653.7076,493.8726
654.1897,494.3549
654.6718,494.4366
655.1539,493.9007
655.636,493.482
656.1182,493.2985
656.6003,493.2389
657.0824,493.312
657.5645,493.4624
658.0466,493.5237
658.5287,493.2943
659.0109,493.1683
659.493,493.763
659.9751,494.7504
660.4572,495.2617
660.9393,495.1099
661.4214,494.3706
661.9036,492.9564
662.3857,490.9809
662.8678,489.6835
663.3499,489.4571
663.832,489.4193
664.3141,489.7323
664.7963,490.0335
665.2784,490.1198
665.7605,489.9364
666.2426,489.3802
666.7247,488.194
667.2068,486.9245
667.689,486.7094
668.1711,487.5138
668.6532,488.159
669.1353,488.4876
669.6174,488.3146
670.0995,487.0363
670.5817,484.8819
671.0638,484.0717
671.5459,486.2765
672.028,487.8071
672.5101,487.0279
672.9922,485.2579
673.4744,483.5809
673.9565,482.3603
674.4386,482.0158
674.9207,483.0802
675.4028,484.8966
675.8849,485.1103
676.3671,483.2318
676.8492,481.9194
677.3313,481.7906
677.8134,482.2782
678.2955,483.3584
678.7776,484.715
679.2598,485.152
679.7419,483.7872
680.224,482.2252
680.7061,481.3087
681.1882,480.8452
681.6703,480.5112
682.1525,480.263
682.6346,480.3273
683.1167,480.9671
683.5988,481.9823
684.0809,482.3338
684.563,481.6096
685.0452,481.1243
685.5273,481.3832
686.0094,481.6358
686.4915,481.4693
686.9736,480.9328
687.4557,480.2177
687.9379,479.2749
688.42,478.3866
688.9021,477.5547
689.3842,477.0057
689.8663,477.4301
690.3484,478.9345
690.8306,480.7433
691.3127,482.3141
691.7948,483.6465
692.2769,484.7915
692.759,486.169
693.2411,486.6474
693.7233,484.7823
694.2054,483.3427
694.6875,484.7142
695.1696,487.8726
695.6517,489.8144
696.1339,488.806
696.616,487.4684
697.0981,488.4654
697.5802,491.5507
698.0623,496.1618
698.5444,502.265
699.0266,508.734
699.5087,514.6205
699.9908,520.3495
700.4729,527.4523
700.955,535.4171
701.4371,545.6158
701.9193,563.4414
702.4014,578.5247
702.8835,585.1904
703.3656,583.9752
703.8477,576.2254
704.3298,562.0382
704.812,546.2877
705.2941,534.5148
705.7762,526.4408
706.2583,521.1683
706.7404,519.0115
707.2225,517.1057
707.7046,514.0086
708.1867,509.8646
708.6688,504.8565
709.1509,498.3139
709.6331,492.6558
710.1152,488.5034
710.5973,484.7825
711.0794,480.1109
711.5615,475.6241
712.0436,473.8828
712.5258,475.7316
713.0079,478.2227
713.49,477.4769
713.9721,474.2386
714.4542,472.7963
714.9363,473.5213
715.4185,474.4397
715.9006,474.4891
716.3827,474.417
716.8648,475.7755
717.3469,478.956
717.829,481.0627
718.3112,481.283
718.7933,480.9821
719.2754,481.3011
719.7575,481.3375
720.2396,479.2404
720.7217,474.8111
721.2039,470.4375
721.686,468.6955
722.1681,468.8402
722.6502,467.8178
723.1323,465.4366
723.6144,463.44
724.0966,462.4349
724.5787,461.9536
725.0608,461.3782
725.5429,460.7232
726.025,460.8431
726.5071,463.0327
726.9893,464.5127
727.4714,463.572
727.9535,461.8195
728.4356,461.1686
728.9177,461.7425
729.3998,462.3709
729.882,462.2363
730.3641,461.5278
730.8462,460.4274
731.3283,458.8964
731.8104,458.2891
732.2925,459.275
732.7747,460.2518
733.2568,459.5953
733.7389,457.7591
734.221,457.1858
734.7031,459.0026
735.1852,460.3238
735.6674,460.5366
736.1495,460.0546
736.6316,458.7314
737.1137,457.035
737.5958,456.0518
738.0779,456.3476
738.5601,457.2411
739.0422,457.9356
739.5243,458.3934
740.0064,458.1316
740.4885,456.9742
740.9706,455.6959
741.4528,454.5133
741.9349,453.6435
742.417,453.8396
742.8991,455.8217
743.3812,456.336
743.8633,453.0754
744.3455,450.4203
744.8276,451.4023
745.3097,454.2387
745.7918,456.055
746.2739,456.0534
746.756,455.5108
747.2382,455.7624
747.7203,456.4142
748.2024,456.1204
748.6845,454.8562
749.1666,453.6486
749.6487,452.8137
750.1309,452.2269
750.613,451.7573
751.0951,451.4095
751.5772,451.124
752.0593,450.7504
752.5414,450.6172
753.0236,451.1114
753.5057,451.6389
753.9878,451.4385
754.4699,450.6922
754.952,450.3911
755.4341,451.2491
755.9163,452.4825
756.3984,453.0405
756.8805,453.0213
757.3626,452.784
757.8447,452.3708
758.3268,451.9772
758.809,451.6865
759.2911,451.582
759.7732,452.008
760.2553,454.3032
760.7374,454.6601
761.2195,451.1906
761.7017,447.9323
762.1838,447.1118
762.6659,447.6571
763.148,447.6729
763.6301,446.6217
764.1122,445.6146
764.5944,445.3786
765.0765,445.7553
765.5586,446.7721
766.0407,448.255
766.5228,449.3114
767.0049,449.586
767.4871,449.4911
767.9692,449.5855
768.4513,449.887
768.9334,449.7794
769.4155,448.9162
769.8976,448.1936
770.3798,447.6081
770.8619,447.3774
771.344,447.91
771.8261,449.0343
772.3082,449.9282
772.7903,450.7245
773.2725,450.6458
773.7546,448.2083
774.2367,444.9557
774.7188,443.5229
775.2009,444.0222
775.683,444.64
776.1652,444.1758
776.6473,443.1008
777.1294,442.5454
777.6115,442.5975
778.0936,442.6059
778.5757,442.6188
779.0579,442.4253
779.54,441.9115
780.0221,441.1119
780.5042,439.8819
780.9863,437.9151
781.4684,436.9866
781.9506,438.7588
782.4327,440.4624
782.9148,439.7229
783.3969,437.8966
783.879,437.4661
784.3611,438.9864
784.8433,441.0182
785.3254,442.5355
785.8075,443.3693
786.2896,442.5602
786.7717,440.0752
787.2538,438.556
787.736,438.931
788.2181,439.5912
788.7002,438.9547
789.1823,437.2381
789.6644,436.3067
790.1465,437.062
790.6286,437.2651
791.1107,435.6689
791.5928,434.4767
792.075,435.6481
792.5571,438.237
793.0392,440.1396
793.5213,440.5874
794.0034,440.3337
794.4855,439.6558
794.9677,438.8824
795.4498,438.6633
795.9319,438.9832
796.414,439.5448
796.8961,440.2503
797.3782,440.8897
797.8604,441.1793
798.3425,441.1118
798.8246,440.7932
799.3067,439.9839
799.7888,439.3486
800.2709,439.1555
800.7531,439.1142
801.2352,438.8769
801.7173,438.5646
802.1994,438.8106
802.6815,440.3262
803.1636,441.6349
803.6458,441.9908
804.1279,441.7021
804.61,441.0291
805.0921,440.068
805.5742,438.8685
806.0563,437.4514
806.5385,436.0077
807.0206,434.8599
807.5027,433.9901
807.9848,433.0986
808.4669,432.0931
808.949,431.5009
809.4312,431.686
809.9133,432.2348
810.3954,432.5984
810.8775,432.7943
811.3596,432.6235
811.8417,431.632
812.3239,430.8598
812.806,430.6485
813.2881,430.7421
813.7702,430.9547
814.2523,431.2396
814.7344,431.5826
815.2166,432.0198
815.6987,432.4193
816.1808,432.7015
816.6629,432.8214
817.145,432.5638
817.6271,431.9629
818.1093,431.4894
818.5914,431.4147
819.0735,431.5809
819.5556,431.4784
820.0377,430.786
820.5198,432.1211
821.002,437.2995
821.4841,441.0843
821.9662,441.1071
822.4483,439.0186
822.9304,436.2436
823.4125,432.8481
823.8947,429.8654
824.3768,427.1493
824.8589,425.3277
825.341,425.1049
825.8231,425.6348
826.3052,426.0312
826.7874,426.2391
827.2695,426.7378
827.7516,427.9056
828.2337,428.9702
828.7158,428.7392
829.1979,427.4516
829.6801,425.864
830.1622,424.0451
830.6443,422.9155
831.1264,423.0219
831.6085,423.8115
832.0906,424.3848
832.5728,424.6767
833.0549,425.2094
833.537,426.6837
834.0191,427.3535
834.5012,426.2635
834.9833,424.7187
835.4655,423.5828
835.9476,422.9363
836.4297,422.7686
836.9118,423.249
837.3939,423.9369
837.876,425.0402
838.3582,425.931
838.8403,425.6781
839.3224,424.5077
839.8045,423.295
840.2866,422.4522
840.7687,421.9574
841.2509,422.0009
841.733,422.4253
842.2151,422.0681
842.6972,420.8205
843.1793,420.4633
843.6614,421.9278
844.1436,423.6714
844.6257,423.7769
845.1078,422.2962
845.5899,421.628
846.072,422.4268
846.5541,423.0877
847.0363,423.899
847.5184,424.1281
848.0005,422.7321
848.4826,420.5044
848.9647,419.2733
849.4468,419.6742
849.929,420.3141
850.4111,420.194
850.8932,420.1494
851.3753,421.2925
851.8574,423.1738
852.3395,424.6321
852.8217,425.3317
853.3038,425.9081
853.7859,427.1739
854.268,428.6139
854.7501,428.3247
855.2322,426.3101
855.7144,424.7465
856.1965,424.2082
856.6786,423.504
857.1607,421.5195
857.6428,418.869
858.1249,417.5853
858.6071,418.643
859.0892,418.9536
859.5713,417.75
860.0534,416.7112
860.5355,416.218
861.0176,416.3243
861.4998,417.4685
861.9819,419.5729
862.464,420.8239
862.9461,420.2044
863.4282,418.8162
863.9103,416.7217
864.3925,414.6966
864.8746,413.9453
865.3567,414.432
865.8388,415.4494
866.3209,416.6886
866.803,417.4551
867.2852,415.9597
867.7673,412.8814
868.2494,412.176
868.7315,414.145
869.2136,416.0927
869.6957,417.0378
870.1779,416.9825
870.66,415.6685
871.1421,413.0703
871.6242,411.9635
872.1063,413.4781
872.5884,414.4919
873.0705,414.4549
873.5526,413.8001
874.0347,412.3335
874.5168,410.4969
874.999,409.242
875.4811,408.6245
875.9632,408.9241
876.4453,411.8172
876.9274,414.1466
877.4095,412.6993
877.8917,409.3599
878.3738,407.5191
878.8559,407.8935
879.338,408.729
879.8201,408.7143
880.3022,408.3195
880.7844,408.2849
881.2665,408.5392
881.7486,408.7683
882.2307,408.937
882.7128,409.4281
883.1949,410.5461
883.6771,411.8581
884.1592,412.507
884.6413,412.4932
885.1234,411.7098
885.6055,409.7255
886.0876,408.0381
886.5698,407.3181
887.0519,406.9459
887.534,405.8632
888.0161,404.2155
888.4982,404.2049
888.9803,408.1636
889.4625,410.5542
889.9446,409.3729
890.4267,407.3332
890.9088,405.7992
891.3909,404.9748
891.873,405.0934
892.3552,406.2617
892.8373,407.3162
893.3194,407.5861
893.8015,407.3185
894.2836,406.4128
894.7657,405.2765
895.2479,404.9647
895.73,405.5251
896.2121,405.7131
896.6942,404.5411
897.1763,402.6541
897.6584,401.0316
898.1406,399.7645
898.6227,400.0606
899.1048,402.1797
899.5869,403.9561
900.069,404.3441
900.5511,403.9499
901.0333,403.6657
901.5154,403.5099
901.9975,403.0101
902.4796,401.9449
902.9617,400.932
903.4438,399.545
903.926,398.7908
904.4081,399.7944
904.8902,401.8961
905.3723,403.4493
905.8544,404.338
906.3365,404.5051
906.8187,403.4608
907.3008,402.1899
907.7829,401.1604
908.265,400.338
908.7471,399.5
909.2292,398.6944
909.7114,398.4245
910.1935,399.3569
910.6756,400.3582
911.1577,400.0924
911.6398,399.1451
912.1219,398.5778
912.6041,398.4489
913.0862,398.3724
913.5683,398.168
914.0504,397.8024
914.5325,396.9529
915.0146,395.8859
915.4968,396.4986
915.9789,398.8844
916.461,400.2189
916.9431,399.6758
917.4252,398.4859
917.9073,397.5521
918.3895,396.8706
918.8716,396.442
919.3537,396.3887
919.8358,396.2663
920.3179,396.1238
920.8,395.8271
921.2822,394.7304
921.7643,393.832
922.2464,394.6397
922.7285,397.0519
923.2106,398.4579
923.6927,398.1382
924.1749,397.2567
924.657,395.4901
925.1391,393.8564
925.6212,393.2847
926.1033,393.447
926.5854,393.511
927.0676,393.2268
927.5497,393.1779
928.0318,394.204
928.5139,395.2509
928.996,395.061
929.4781,394.1596
929.9603,393.6898
930.4424,393.7352
930.9245,393.3724
931.4066,391.9077
931.8887,390.3515
932.3708,390.7008
932.853,392.3593
933.3351,392.6169
933.8172,391.4283
934.2993,390.7315
934.7814,391.2892
935.2635,392.0737
935.7457,391.8936
936.2278,391.0021
936.7099,391.1362
937.192,392.8488
937.6741,392.9249
938.1563,389.9802
938.6384,387.675
939.1205,388.3969
939.6026,390.6754
940.0847,391.9698
940.5668,392.1816
941.049,391.987
941.5311,391.1012
942.0132,390.2199
942.4953,389.0909
942.9774,388.358
943.4595,388.9531
943.9417,390.2636
944.4238,390.6256
944.9059,389.4447
945.388,388.3727
945.8701,387.806
946.3522,387.7329
946.8344,388.4516
947.3165,389.494
947.7986,390.5521
948.2807,391.3533
948.7628,391.121
949.2449,389.0805
949.7271,386.797
950.2092,385.497
950.6913,385.0652
951.1734,385.7838
951.6555,387.1932
952.1376,387.8766
952.6198,387.3925
953.1019,386.5625
953.584,385.999
954.0661,385.8675
954.5482,386.9263
955.0303,388.9111
955.5124,390.0683
955.9945,390.1536
956.4766,389.5394
956.9587,388.2991
957.4409,387.1916
957.923,387.642
958.4051,389.6042
958.8872,390.1278
959.3693,388.7613
959.8514,387.9298
960.3336,388.3148
960.8157,388.9688
961.2978,389.1478
961.7799,389.1048
962.262,389.6928
962.7441,391.6972
963.2263,391.8752
963.7084,388.1129
964.1905,385.3989
964.6726,385.8238
965.1547,387.1801
965.6368,387.7329
966.119,387.5642
966.6011,387.2711
967.0832,386.6536
967.5653,386.472
968.0474,387.3197
968.5295,388.1786
969.0117,388.4833
969.4938,388.4346
969.9759,388.5998
970.458,388.8707
970.9401,387.9784
971.4222,384.1076
971.9044,380.9852
972.3865,381.4323
972.8686,383.4443
973.3507,385.4668
973.8328,387.1075
974.3149,388.1014
974.7971,388.3586
975.2792,387.8664
975.7613,386.2464
976.2434,384.2765
976.7255,382.6014
977.2076,381.5031
977.6898,382.1273
978.1719,384.1128
978.654,385.1867
979.1361,384.2765
979.6182,382.5429
980.1003,381.1266
980.5825,380.1534
981.0646,380.2393
981.5467,381.277
982.0288,382.4555
982.5109,383.61
982.993,384.9184
983.4752,386.6395
983.9573,387.8683
984.4394,386.4774
984.9215,382.4422
985.4036,379.8393
985.8857,378.7042
986.3679,379.1301
986.85,381.7033
987.3321,384.0157
987.8142,383.9333
988.2963,382.2564
988.7784,381.5331
989.2606,382.1179
989.7427,382.3881
990.2248,382.125
990.7069,381.9716
991.189,382.2374
991.6711,382.5797
992.1533,382.8952
992.6354,383.0543
993.1175,382.216
993.5996,378.955
994.0817,377.2723
994.5638,378.463
995.046,379.7505
995.5281,380.3277
996.0102,380.2925
996.4923,379.2437
996.9744,377.494
997.4565,377.1818
997.9387,380.1629
998.4208,382.178
998.9029,381.4634
999.385,380.1853
999.8671,379.6724
1000.349,379.4678
1000.831,378.7459
1001.313,377.4492
1001.796,376.2213
1002.278,374.7451
1002.76,374.2923
1003.242,376.8378
1003.724,379.6056
1004.206,379.6345
1004.688,377.9707
1005.17,377.0755
1005.653,377.5097
1006.135,378.0118
1006.617,377.8196
1007.099,377.3197
1007.581,376.5785
1008.063,375.9439
1008.545,376.0946
1009.027,376.7986
1009.509,377.207
1009.992,377.0517
1010.474,376.9784
1010.956,377.8501
1011.438,378.8039
1011.92,377.9475
1012.402,376.3258
1012.884,377.0326
1013.366,379.6958
1013.849,380.5735
1014.331,378.0837
1014.813,375.1939
1015.295,375.3655
1015.777,377.494
1016.259,379.3258
1016.741,380.6696
1017.223,380.0091
1017.705,377.3893
1018.188,376.0186
1018.67,377.6351
1019.152,379.6288
1019.634,377.959
1020.116,373.6847
1020.598,372.1294
1021.08,373.2036
1021.562,374.6123
1022.044,376.0163
1022.527,376.5271
1023.009,375.4907
1023.491,373.9883
1023.973,373.8122
1024.455,374.8734
1024.937,375.7451
1025.419,376.4581
1025.901,376.6364
1026.384,376.1082
1026.866,375.5181
1027.348,375.3022
1027.83,375.1737
1028.312,374.4745
1028.794,373.1327
1029.276,373.0977
1029.758,374.8745
1030.24,376.2299
1030.723,376.8571
1031.205,376.6938
1031.687,375.4488
1032.169,373.6391
1032.651,372.2072
1033.133,371.0727
1033.615,371.058
1034.097,372.8122
1034.579,374.2411
1035.062,374.67
1035.544,375.1428
1036.026,376.7477
1036.508,378.6079
1036.99,378.7007
1037.472,376.5565
1037.954,375.2781
1038.436,375.4734
1038.919,375.5594
1039.401,374.6411
1039.883,374.2267
1040.365,375.9403
1040.847,378.6411
1041.329,379.9449
1041.811,379.7153
1042.293,378.8722
1042.776,375.8101
1043.258,374.4224
1043.74,377.7343
1044.222,380.6344
1044.704,378.9676
1045.186,374.8394
1045.668,372.4077
1046.15,372.1279
1046.632,372.2012
1047.115,372.9553
1047.597,373.3239
1048.079,372.5517
1048.561,371.7899
1049.043,371.8491
1049.525,372.4759
1050.007,373.137
1050.489,373.7585
1050.971,374.5665
1051.454,376.2547
1051.936,377.2405
1052.418,376.4781
1052.9,375.4064
1053.382,375.181
1053.864,375.3584
1054.346,374.8487
1054.828,373.4676
1055.311,372.7709
1055.793,373.8852
1056.275,374.7775
1056.757,374.126
1057.239,373.6102
1057.721,375.1111
1058.203,377.3876
1058.685,377.8295
1059.167,376.1049
1059.65,375.4696
1060.132,378.1637
1060.614,380.5333
1061.096,381.2122
1061.578,381.0356
1062.06,380.342
1062.542,379.3894
1063.024,378.4474
1063.506,377.57
1063.989,376.7967
1064.471,376.4946
1064.953,375.7873
1065.435,373.4108
1065.917,371.3832
1066.399,371.5072
1066.881,372.8942
1067.363,374.305
1067.846,375.4349
1068.328,375.9766
1068.81,375.3978
1069.292,374.9462
1069.774,375.2322
1070.256,375.8047
1070.738,376.0938
1071.22,376.5821
1071.703,378.0946
1072.185,380.606
1072.667,383.0971
1073.149,384.1925
1073.631,387.5122
1074.113,395.1623
1074.595,405.2192
1075.077,418.7379
1075.559,432.2675
1076.042,441.6208
1076.524,446.6602
1077.006,449.1772
1077.488,448.1099
1077.97,450.0567
1078.452,458.691
1078.934,470.7476
1079.416,483.7594
1079.898,499.1478
1080.38,518.2985
1080.863,541.6403
1081.345,569.0934
1081.827,599.7586
1082.309,638.6797
1082.791,683.2977
1083.273,742.7101
1083.755,805.3103
1084.237,898.6896
1084.72,1044.146
1085.202,1246.729
1085.684,1550.173
1086.166,1989.264
1086.648,2280.425
1087.13,2294.711
1087.612,2142.318
1088.094,1766.705
1088.577,1348.691
1089.059,1031.876
1089.541,812.7712
1090.023,660.7606
1090.505,568.0942
1090.987,503.0052
1091.469,462.8369
1091.951,434.6598
1092.433,417.3077
1092.916,405.4899
1093.398,396.3844
1093.88,389.5785
1094.362,385.4978
1094.844,384.0038
1095.326,382.8015
1095.808,381.3071
1096.29,379.8158
1096.772,378.3522
1097.255,377.0003
1097.737,375.7851
1098.219,374.714
1098.701,373.9479
1099.183,373.3851
1099.665,372.2933
1100.147,369.7065
1100.629,368.2516
1101.112,369.7529
1101.594,371.1783
1102.076,370.8068
1102.558,369.782
1103.04,369.3481
1103.522,369.4047
1104.004,369.1739
1104.486,368.3428
1104.969,367.8607
1105.451,368.1911
1105.933,368.5114
1106.415,368.7798
1106.897,368.7055
1107.379,367.5638
1107.861,366.014
1108.343,365.7448
1108.825,367.1334
1109.307,368.3086
1109.79,369.6544
1110.272,369.9934
1110.754,368.3495
1111.236,366.4149
1111.718,364.5982
1112.2,363.4203
1112.682,364.1313
1113.164,366.8854
1113.647,368.4123
1114.129,368.3883
1114.611,367.6377
1115.093,365.0535
1115.575,363.3666
1116.057,364.5878
1116.539,366.4877
1117.021,366.3314
1117.504,364.4565
1117.986,363.3235
1118.468,362.7507
1118.95,363.5058
1119.432,366.8996
1119.914,368.9173
1120.396,367.6857
1120.878,365.6699
1121.36,364.92
1121.843,365.0435
1122.325,364.9189
1122.807,364.5403
1123.289,363.8143
1123.771,362.3115
1124.253,362.1142
1124.735,364.1981
1125.217,365.9785
1125.699,365.6276
1126.182,364.4299
1126.664,364.7189
1127.146,366.3574
1127.628,366.6172
1128.11,365.2618
1128.592,364.8289
1129.074,365.8347
1129.556,366.2213
1130.039,364.9549
1130.521,363.2563
1131.003,362.4456
1131.485,362.4359
1131.967,363.2164
1132.449,364.6959
1132.931,365.0848
1133.413,364.3166
1133.896,363.7626
1134.378,363.8424
1134.86,364.2568
1135.342,364.8344
1135.824,365.2915
1136.306,365.1022
1136.788,364.3542
1137.27,362.8144
1137.752,360.955
1138.234,361.5818
1138.717,364.7593
1139.199,366.9512
1139.681,366.349
1140.163,365.0074
1140.645,365.2492
1141.127,366.2661
1141.609,366.9183
1142.091,367.0504
1142.574,365.7648
1143.056,363.6312
1143.538,362.7754
1144.02,363.7433
1144.502,364.9807
1144.984,365.4065
1145.466,365.6122
1145.948,366.3087
1146.431,367.0698
1146.913,367.4188
1147.395,367.3896
1147.877,366.8008
1148.359,365.9254
1148.841,365.9632
1149.323,367.6266
1149.805,368.9458
1150.287,368.0132
1150.77,367.0497
1151.252,368.2688
1151.734,369.8146
1152.216,369.1819
1152.698,367.2892
1153.18,366.8008
1153.662,368.2666
1154.144,369.3429
1154.626,368.848
1155.109,368.4115
1155.591,368.5362
1156.073,368.9214
1156.555,369.6074
1157.037,370.2953
1157.519,370.6617
1158.001,370.6913
1158.483,370.4388
1158.966,369.7088
1159.448,369.1254
1159.93,368.1319
1160.412,368.1304
1160.894,370.556
1161.376,372.897
1161.858,373.2294
1162.34,372.1999
1162.822,371.0612
1163.305,369.7164
1163.787,369.3354
1164.269,370.2928
1164.751,371.0775
1165.233,371.3028
1165.715,371.9554
1166.197,373.6799
1166.679,375.5544
1167.161,376.4044
1167.644,376.5837
1168.126,377.9864
1168.608,380.7291
1169.09,380.4492
1169.572,376.8506
1170.054,374.5438
1170.536,374.7934
1171.018,376.4541
1171.5,378.9266
1171.983,381.0307
1172.465,380.149
1172.947,377.6274
1173.429,378.399
1173.911,381.5402
1174.393,383.5929
1174.875,384.2738
1175.357,384.6687
1175.84,385.256
1176.322,386.4459
1176.804,388.8878
1177.286,391.4014
1177.768,392.4523
1178.25,392.6896
1178.732,392.6957
1179.214,392.7925
1179.697,393.6372
1180.179,395.1037
1180.661,396.2948
1181.143,396.8546
1181.625,396.9845
1182.107,396.2441
1182.589,395.7862
1183.071,396.8736
1183.553,398.1475
1184.036,398.229
1184.518,397.5324
1185.0,396.8848
1185.482,396.4366
1185.964,396.3809
1186.446,397.5036
1186.928,397.8227
1187.41,396.0051
1187.892,394.5785
1188.375,394.9712
1188.857,395.9272
1189.339,396.7436
1189.821,397.0742
1190.303,395.6466
1190.785,391.8815
1191.267,389.9027
1191.749,390.4835
1192.232,390.7068
1192.714,390.0981
1193.196,389.0547
1193.678,387.5904
1194.16,386.3887
1194.642,386.5267
1195.124,387.343
1195.606,385.743
1196.089,381.8812
1196.571,380.3525
1197.053,381.2434
1197.535,381.6637
1198.017,380.9168
1198.499,380.2434
1198.981,380.4377
1199.463,380.7108
1199.945,379.8894
1200.427,378.5155
1200.91,377.7847
1201.392,377.2955
1201.874,375.9315
1202.356,373.9844
1202.838,372.7738
1203.32,372.5195
1203.802,371.9146
1204.284,369.8906
1204.767,368.2314
1205.249,368.494
1205.731,369.4633
1206.213,370.7303
1206.695,371.6649
1207.177,371.3064
1207.659,370.0924
1208.141,369.3149
1208.624,369.2581
1209.106,369.0899
1209.588,367.9839
1210.07,367.6938
1210.552,369.7505
1211.034,371.3169
1211.516,370.5173
1211.998,368.9442
1212.48,368.1835
1212.963,367.9673
1213.445,367.2422
1213.927,365.7922
1214.409,364.8934
1214.891,364.5757
1215.373,364.8165
1215.855,365.822
1216.337,366.2802
1216.819,365.3943
1217.302,364.2099
1217.784,364.0558
1218.266,364.5367
1218.748,364.3822
1219.23,363.7442
1219.712,363.3513
1220.194,363.2141
1220.676,363.1651
1221.159,363.1472
1221.641,363.0443
1222.123,362.7843
1222.605,362.6594
1223.087,363.0753
1223.569,363.6627
1224.051,364.0598
1224.533,364.3169
1225.016,364.484
1225.498,364.5626
1225.98,364.5222
1226.462,364.3716
1226.944,364.108
1227.426,363.39
1227.908,363.5654
1228.39,366.7312
1228.872,368.7271
1229.354,366.3837
1229.837,363.5881
1230.319,363.5329
1230.801,365.0713
1231.283,366.1884
1231.765,366.883
1232.247,366.8692
1232.729,365.7792
1233.211,365.1473
1233.694,365.1553
1234.176,365.2355
1234.658,365.2576
1235.14,365.0328
1235.622,364.2819
1236.104,363.833
1236.586,365.5856
1237.068,368.6097
1237.551,368.6813
1238.033,366.4704
1238.515,364.6943
1238.997,363.6775
1239.479,363.3883
1239.961,363.7206
1240.443,364.1148
1240.925,364.2293
1241.407,364.2244
1241.89,363.9314
1242.372,363.9322
1242.854,365.1613
1243.336,366.7406
1243.818,367.835
1244.3,368.2957
1244.782,367.8317
1245.264,366.5138
1245.746,365.6861
1246.229,365.8597
1246.711,366.2463
1247.193,367.0899
1247.675,367.6063
1248.157,367.1303
1248.639,366.7311
1249.121,367.2313
1249.603,368.2113
1250.085,368.8782
1250.568,369.2739
1251.05,370.4254
1251.532,372.5451
1252.014,372.7189
1252.496,370.6339
1252.978,369.4098
1253.46,369.9775
1253.942,370.5289
1254.425,369.7408
1254.907,369.1541
1255.389,371.7897
1255.871,375.4353
1256.353,375.2216
1256.835,373.2998
1257.317,373.7162
1257.799,375.992
1258.281,378.3595
1258.764,380.1564
1259.246,380.462
1259.728,378.2073
1260.21,377.033
1260.692,379.8958
1261.174,382.5719
1261.656,382.2759
1262.138,381.8301
1262.62,383.9576
1263.103,387.075
1263.585,388.3583
1264.067,388.0803
1264.549,388.587
1265.031,389.9906
1265.513,391.8463
1265.995,394.2546
1266.477,396.5995
1266.96,398.734
1267.442,400.9137
1267.924,403.3118
1268.406,405.5428
1268.888,407.1071
1269.37,408.3053
1269.852,409.3774
1270.334,410.8437
1270.817,414.698
1271.299,419.9512
1271.781,423.7483
1272.263,425.9061
1272.745,427.8075
1273.227,429.9761
1273.709,432.8035
1274.191,436.5832
1274.673,441.0142
1275.156,446.7279
1275.638,452.2038
1276.12,456.1563
1276.602,459.5761
1277.084,463.2141
1277.566,467.4072
1278.048,473.1831
1278.53,480.9431
1279.012,486.461
1279.495,488.9993
1279.977,491.9946
1280.459,496.0781
1280.941,499.2655
1281.423,500.8475
1281.905,501.0753
1282.387,499.9773
1282.869,498.6791
1283.352,499.8718
1283.834,501.832
1284.316,500.8282
1284.798,496.8822
