Raman Shift,Intensity
97.94921,1.820587
98.43133,2.540878
98.91344,3.057327
99.39556,3.286285
99.87768,2.768219
100.3598,1.779419
100.8419,0.952164
101.324,0.427368
101.8061,0.070648
102.2883,0.112961
102.7704,0.038757
103.2525,0.446533
103.7346,1.404572
104.2167,2.430908
104.6988,3.324814
105.181,4.027115
105.6631,4.495407
106.1452,4.779022
106.6273,4.846161
107.1094,4.559479
107.5915,3.694763
108.0737,2.920547
108.5558,2.416565
109.0379,2.084229
109.52,1.825394
110.0021,1.510529
110.4842,1.115021
110.9664,0.957001
111.4485,0.972382
111.9306,1.201797
112.4127,1.720459
112.8948,2.351318
113.3769,3.096756
113.8591,4.015442
114.3412,5.375443
114.8233,6.125778
115.3054,5.798447
115.7875,5.180573
116.2696,4.979538
116.7517,5.309555
117.2339,5.794724
117.716,5.697632
118.1981,4.800903
118.6802,4.030167
119.1623,3.561356
119.6444,3.401855
120.1266,3.640137
120.6087,4.531128
121.0908,5.666412
121.5729,6.274368
122.055,6.28746
122.5371,5.954788
123.0193,5.365387
123.5014,4.478531
123.9835,3.63002
124.4656,2.94223
124.9477,2.388214
125.4298,1.986023
125.912,1.790009
126.3941,1.70755
126.8762,1.489151
127.3583,0.871201
127.8404,0.590149
128.3225,1.193863
128.8047,2.144104
129.2868,2.709579
129.7689,2.384521
130.251,1.237625
130.7331,0.264038
131.2152,0.619171
131.6974,1.239883
132.1795,1.42897
132.6616,1.29245
133.1437,1.064514
133.6258,0.94519
134.1079,0.953674
134.5901,0.957382
135.0722,1.023148
135.5543,1.035492
136.0364,0.913818
136.5185,0.656677
137.0006,0.323776
137.4828,0.053084999
137.9649,0.51236
138.447,0.754532
138.9291,0.571167
139.4112,0.237747
139.8933,0.065734997
140.3755,0.127945
140.8576,0.340424
141.3397,0.659668
141.8218,1.07695
142.3039,1.435349
142.786,1.651703
143.2681,1.75032
143.7503,1.799454
144.2324,1.693985
144.7145,1.698212
145.1966,2.08223
145.6787,2.844078
146.1608,3.636673
146.643,4.180443
147.1251,4.461784
147.6072,4.62677
148.0893,4.434448
148.5714,4.303032
149.0535,4.554581
149.5357,5.236107
150.0178,6.028549
150.4999,6.420517
150.982,6.158989
151.4641,6.04538
151.9462,6.171799
152.4284,6.434784
152.9105,6.757904
153.3926,7.111244
153.8747,7.513214
154.3568,8.232094
154.8389,9.285439
155.3211,10.11874
155.8032,10.51707
156.2853,10.73862
156.7674,11.07766
157.2495,11.6788
157.7316,12.50316
158.2138,13.41269
158.6959,14.62574
159.178,15.67119
159.6601,16.37079
160.1422,16.80405
160.6243,17.18806
161.1065,17.65878
161.5886,18.15745
162.0707,18.45791
162.5528,18.39493
163.0349,18.30928
163.517,18.48491
163.9991,18.8822
164.4813,19.11568
164.9634,18.92998
165.4455,18.38892
165.9276,17.69283
166.4097,16.77284
166.8918,15.77352
167.374,14.85998
167.8561,14.04651
168.3382,13.25513
168.8203,12.28294
169.3024,11.34776
169.7845,10.78706
170.2667,10.92908
170.7488,11.41251
171.2309,11.32111
171.713,10.2253
172.1951,9.337151
172.6772,9.172508
173.1594,9.456467
173.6415,9.806915
174.1236,9.993324
174.6057,10.07085
175.0878,10.36401
175.5699,11.11896
176.0521,11.8197
176.5342,12.37225
177.0163,12.77376
177.4984,13.00093
177.9805,12.99369
178.4626,12.75111
178.9448,12.89104
179.4269,13.89347
179.909,14.79809
180.3911,15.20014
180.8732,15.23618
181.3553,15.31006
181.8375,15.78284
182.3196,16.70975
182.8017,17.48004
183.2838,18.02885
183.7659,18.5194
184.248,19.02407
184.7301,19.54302
185.2123,20.01794
185.6944,20.35995
186.1765,20.5502
186.6586,21.10623
187.1407,22.22099
187.6228,23.52548
188.105,24.85007
188.5871,26.14905
189.0692,27.22463
189.5513,27.81828
190.0334,27.97408
190.5155,28.39672
190.9977,29.31565
191.4798,30.46379
191.9619,31.51564
192.444,32.40735
192.9261,33.36453
193.4082,34.6845
193.8904,36.28059
194.3725,37.91217
194.8546,39.65337
195.3367,41.36633
195.8188,42.65622
196.3009,43.2269
196.7831,43.95324
197.2652,45.70129
197.7473,48.13717
198.2294,50.38547
198.7115,51.71161
199.1936,52.41601
199.6758,53.80088
200.1579,56.18294
200.64,58.91386
201.1221,61.52335
201.6042,64.13033
202.0863,67.02151
202.5685,70.57539
203.0506,74.7378
203.5327,78.42445
204.0148,81.12371
204.4969,83.82722
204.979,86.81931
205.4612,90.09449
205.9433,93.6004
206.4254,97.31454
206.9075,101.2493
207.3896,105.1744
207.8717,109.1185
208.3539,113.0265
208.836,116.674
209.3181,120.2245
209.8002,124.09
210.2823,128.7125
210.7644,134.1882
211.2466,139.3132
211.7287,144.0712
212.2108,148.5306
212.6929,152.3842
213.175,155.8765
213.6571,159.7233
214.1393,164.6253
214.6214,170.7796
215.1035,176.7774
215.5856,182.7666
216.0677,188.4764
216.5498,193.708
217.032,198.5116
217.5141,203.1748
217.9962,207.8745
218.4783,212.592
218.9604,217.7877
219.4425,224.2253
219.9247,230.4993
220.4068,235.8152
220.8889,240.1242
221.371,243.748
221.8531,246.9173
222.3352,249.5658
222.8174,251.8772
223.2995,254.4676
223.7816,256.3081
224.2637,256.5576
224.7458,255.2086
225.2279,252.916
225.71,250.2283
226.1922,246.9271
226.6743,242.2826
227.1564,235.745
227.6385,228.2197
228.1206,220.5544
228.6027,212.7987
229.0849,204.5859
229.567,195.6337
230.0491,186.0538
230.5312,176.0696
231.0133,165.2302
231.4954,154.2908
231.9776,144.1006
232.4597,134.6958
232.9418,125.6885
233.4239,116.7405
233.906,108.0449
234.3881,99.95602
234.8703,92.60537
235.3524,85.86869
235.8345,79.56734
236.3166,73.68126
236.7987,68.16886
237.2808,62.9131
237.763,58.02206
238.2451,53.68671
238.7272,50.06525
239.2093,46.88436
239.6914,43.71666
240.1735,40.47023
240.6557,37.48804
241.1378,34.87854
241.6199,32.59599
242.102,30.68327
242.5841,29.21083
243.0662,27.96008
243.5484,26.51676
244.0305,24.73378
244.5126,23.18404
244.9947,22.23448
245.4768,21.46172
245.9589,20.47917
246.441,19.14394
246.9232,17.68993
247.4053,16.52811
247.8874,15.82618
248.3695,15.02452
248.8516,13.69388
249.3337,12.4276
249.8159,11.77586
250.298,11.89068
250.7801,12.35904
251.2622,12.50387
251.7443,12.22769
252.2264,11.82224
252.7086,11.22356
253.1907,10.58818
253.6728,10.07241
254.1549,9.698326
254.637,9.301407
255.1191,8.512001
255.6013,6.731094
256.0834,5.925293
256.5655,6.95536
257.0476,8.185982
257.5297,8.468559
258.0118,7.640457
258.494,6.409874
258.9761,5.745209
259.4582,5.953964
259.9403,5.968224
260.4224,5.767784
260.9045,5.434456
261.3867,4.912788
261.8688,4.255997
262.3509,3.687157
262.833,3.487015
263.3151,3.815392
263.7972,3.932961
264.2794,3.759735
264.7615,3.489471
265.2436,3.204056
265.7257,2.921104
266.2078,2.628036
266.6899,2.30294
267.1721,1.926064
267.6542,1.665535
268.1363,1.631325
268.6184,1.588768
269.1005,1.371933
269.5826,1.02594
270.0648,0.760155
270.5469,0.784767
271.029,1.122368
271.5111,1.047653
271.9932,0.148514
272.4753,0.666298
272.9575,0.97506
273.4396,0.87175
273.9217,0.659325
274.4038,0.52607
274.8859,0.469002
275.368,0.459427
275.8501,0.504036
276.3322,0.575729
276.8144,0.712776
277.2965,0.872246
277.7786,0.956993
278.2607,0.908867
278.7428,0.755005
279.2249,0.607208
279.7071,0.419434
280.1892,0.287476
280.6713,0.223457
281.1534,0.232262
281.6355,0.365837
282.1176,0.67408
282.5998,1.030556
283.0819,1.06498
283.564,0.542801
284.0461,0.191391
284.5282,0.289841
285.0103,0.612167
285.4925,0.821968
285.9746,0.803635
286.4567,0.680473
286.9388,0.669418
287.4209,0.819092
287.903,0.904427
288.3852,0.933533
288.8673,0.861763
289.3494,0.576225
289.8315,0.042732
290.3136,0.52684
290.7957,0.878296
291.2779,0.988205
291.76,1.027031
292.2421,0.945313
292.7242,0.835609
293.2063,0.765457
293.6884,0.74498
294.1706,0.817085
294.6527,1.087463
295.1348,1.548714
295.6169,1.754959
296.099,1.297302
296.5811,0.86422
297.0633,1.152046
297.5454,2.11499
298.0275,2.966209
298.5096,3.096573
298.9917,2.617546
299.4738,2.417412
299.956,2.552544
300.4381,2.90667
300.9202,3.558105
301.4023,4.425621
301.8844,5.149338
302.3665,5.521393
302.8487,5.630272
303.3308,5.759819
303.8129,5.843132
304.295,6.044632
304.7771,6.517105
305.2592,7.169357
305.7414,7.756943
306.2235,8.171616
306.7056,8.509071
307.1877,9.006531
307.6698,9.77404
308.1519,10.28819
308.6341,10.07158
309.1162,9.553947
309.5983,9.513977
310.0804,10.191
310.5625,11.19266
311.0446,12.05289
311.5268,12.78043
312.0089,13.42415
312.491,14.02892
312.9731,14.5368
313.4552,14.80156
313.9373,14.78915
314.4195,14.82658
314.9016,15.26926
315.3837,16.09099
315.8658,16.78667
316.3479,17.16358
316.83,17.50784
317.3121,18.11526
317.7943,18.97253
318.2764,19.75143
318.7585,20.19019
319.2406,20.37161
319.7227,20.73608
320.2048,21.2844
320.687,22.00716
321.1691,23.13791
321.6512,24.49889
322.1333,25.42873
322.6154,25.51762
323.0975,25.09675
323.5797,25.02011
324.0618,25.42207
324.5439,25.80511
325.026,25.83649
325.5081,25.7513
325.9902,26.11142
326.4724,27.19037
326.9545,28.39726
327.4366,28.70013
327.9187,27.95203
328.4008,27.37946
328.8829,27.29386
329.3651,27.45899
329.8472,27.65762
330.3293,27.81495
330.8114,27.87166
331.2935,27.76854
331.7756,27.49444
332.2578,27.14893
332.7399,26.62576
333.222,26.10561
333.7041,25.69518
334.1862,25.40268
334.6683,25.24171
335.1505,25.30043
335.6326,25.50198
336.1147,25.30654
336.5968,24.38804
337.0789,23.50291
337.561,22.94302
338.0432,22.62215
338.5253,22.40479
339.0074,22.258
339.4895,22.1294
339.9716,21.84708
340.4537,21.27515
340.9359,20.80228
341.418,20.43925
341.9001,20.28535
342.3822,20.56132
342.8643,21.3009
343.3464,22.10306
343.8286,22.42094
344.3107,22.03087
344.7928,21.77849
345.2749,21.65383
345.757,21.6723
346.2391,21.86773
346.7213,22.23528
347.2034,22.73682
347.6855,23.34854
348.1676,24.06715
348.6497,24.79986
349.1318,25.61996
349.614,26.35515
350.0961,26.8185
350.5782,27.12757
351.0603,27.55861
351.5424,28.27888
352.0245,29.2098
352.5067,30.01909
352.9888,30.51066
353.4709,31.12061
353.953,31.90384
354.4351,32.82581
354.9172,33.92027
355.3994,35.18893
355.8815,36.45426
356.3636,37.39078
356.8457,37.61121
357.3278,38.30656
357.8099,39.79881
358.292,41.48109
358.7741,42.98486
359.2563,44.2569
359.7384,45.38065
360.2205,46.41944
360.7026,47.34802
361.1847,48.43658
361.6668,49.59193
362.149,50.98572
362.6311,52.98491
363.1132,55.24886
363.5953,57.14478
364.0774,58.29272
364.5595,58.78714
365.0417,59.0029
365.5238,58.55779
366.0059,58.36064
366.488,58.92149
366.9701,59.56517
367.4522,59.67534
367.9344,59.04604
368.4165,57.8284
368.8986,56.20064
369.3807,54.06094
369.8628,51.77573
370.3449,49.36809
370.8271,46.81805
371.3092,44.00381
371.7913,40.99485
372.2734,37.96878
372.7555,35.06439
373.2376,32.28899
373.7198,29.7101
374.2019,27.33709
374.684,25.175
375.1661,23.3305
375.6482,21.65481
376.1303,19.90843
376.6125,17.91847
377.0946,15.89747
377.5767,14.34966
378.0588,13.427
378.5409,12.55145
379.023,11.5832
379.5052,10.58588
379.9873,9.556602
380.4694,8.498436
380.9515,7.562149
381.4336,6.976501
381.9157,6.731339
382.3979,6.381805
382.88,5.798096
383.3621,5.181213
383.8442,4.660385
384.3263,4.223045
384.8084,3.803642
385.2906,3.322563
385.7727,2.84758
386.2548,2.566635
386.7369,2.538986
387.219,2.495041
387.7011,2.265839
388.1833,1.926331
388.6654,1.56414
389.1475,1.169861
389.6296,0.803551
390.1117,0.47924
390.5938,0.209099
391.076,0.12648
391.5581,0.37001
392.0402,0.704605
392.5223,0.828979
393.0044,0.749825
393.4865,0.519302
393.9687,0.022621
394.4508,0.645737
394.9329,0.942589
395.415,0.838608
395.8971,0.624596
396.3792,0.570961
396.8614,0.65107
397.3435,0.570923
397.8256,0.001221
398.3077,0.457809
398.7898,0.248581
399.2719,0.454811
399.754,1.022133
400.2361,1.141319
400.7183,0.917526
401.2004,0.617279
401.6825,0.111221
402.1646,0.237038
402.6467,0.22818
403.1288,0.091514997
403.611,0.149986
404.0931,0.459991
404.5752,0.727737
405.0573,0.573441
405.5394,0.138641
406.0215,0.583481
406.5037,0.751564
406.9858,0.700653
407.4679,0.278214
407.95,0.348114
408.4321,0.776138
408.9142,0.734001
409.3964,0.351196
409.8785,0.231918
410.3606,0.627731
410.8427,0.978271
411.3248,1.319847
411.8069,1.552055
412.2891,1.517342
412.7712,1.203049
413.2533,0.826195
413.7354,0.690453
414.2175,0.868126
414.6996,0.989517
415.1818,1.090584
415.6639,1.102982
416.146,0.933357
416.6281,0.644463
417.1102,0.370041
417.5923,0.161751
418.0745,0.061202999
418.5566,0.257835
419.0387,0.944511
419.5208,1.49836
420.0029,1.656181
420.485,1.642593
420.9672,1.671036
421.4493,1.791649
421.9314,1.857529
422.4135,1.661392
422.8956,1.225128
423.3777,0.910904
423.8599,0.745758
424.342,0.756882
424.8241,1.03714
425.3062,1.51252
425.7883,1.9123
426.2704,2.1315
426.7526,2.207466
427.2347,2.13929
427.7168,1.915398
428.1989,1.762123
428.681,1.813469
429.1631,2.009537
429.6453,2.198395
430.1274,2.381683
430.6095,2.558495
431.0916,2.798134
431.5737,3.019112
432.0558,3.023308
432.538,2.743126
433.0201,2.369545
433.5022,2.122055
433.9843,2.02227
434.4664,1.891151
434.9485,1.513268
435.4307,1.277008
435.9128,1.561905
436.3949,2.240318
436.877,2.868446
437.3591,3.191467
437.8412,3.268898
438.3234,3.316498
438.8055,3.334053
439.2876,3.323059
439.7697,3.147972
440.2518,3.015633
440.7339,3.238739
441.216,3.821373
441.6982,4.370125
442.1803,4.401474
442.6624,3.825645
443.1445,3.390465
443.6266,3.035477
444.1087,2.886932
444.5909,3.145264
445.073,3.613899
445.5551,3.971786
446.0372,4.040596
446.5193,3.949265
447.0014,4.006615
447.4836,4.289169
447.9657,4.499474
448.4478,4.561531
448.9299,4.547234
449.412,4.469879
449.8941,4.341972
450.3763,4.220085
450.8584,4.134346
451.3405,4.090027
451.8226,4.104103
452.3047,4.152428
452.7868,4.24408
453.269,4.559204
453.7511,4.906784
454.2332,4.939667
454.7153,4.426987
455.1974,3.879242
455.6795,3.756599
456.1617,3.964806
456.6438,4.161705
457.1259,4.235268
457.608,4.239136
458.0901,4.319389
458.5722,4.501129
459.0544,4.513618
459.5365,4.183792
460.0186,3.759544
460.5007,3.390846
460.9828,3.101654
461.4649,2.983917
461.9471,3.136703
462.4292,3.468483
462.9113,3.59333
463.3934,3.416718
463.8755,3.154839
464.3576,2.724121
464.8398,2.304176
465.3219,2.060318
465.804,2.016243
466.2861,2.146904
466.7682,2.463432
467.2503,3.002136
467.7325,3.408348
468.2146,3.727791
468.6967,3.867386
469.1788,3.685295
469.6609,3.330574
470.143,2.99987
470.6252,2.776833
471.1073,2.658012
471.5894,2.698944
472.0715,2.989754
472.5536,3.03273
473.0357,2.363777
473.5179,1.764305
474.0,1.754089
474.4821,2.248734
474.9642,2.789139
475.4463,3.118866
475.9284,3.299362
476.4106,3.528824
476.8927,3.858345
477.3748,3.892662
477.8569,3.124969
478.339,2.132034
478.8211,1.898003
479.3033,2.693329
479.7854,3.37896
480.2675,3.177147
480.7496,2.532906
481.2317,2.290741
481.7138,2.611153
482.1959,3.073074
482.678,3.331367
483.1602,3.373856
483.6423,3.335457
484.1244,3.189148
484.6065,2.987801
485.0886,2.632629
485.5707,2.270653
486.0529,2.202461
486.535,2.537155
487.0171,3.024765
487.4992,3.247009
487.9813,3.097427
488.4634,2.970566
488.9456,2.839417
489.4277,2.742531
489.9098,2.741943
490.3919,2.79528
490.874,2.788338
491.3561,2.637917
491.8383,2.428551
492.3204,2.394363
492.8025,2.579445
493.2846,2.826294
493.7667,3.261246
494.2488,3.637589
494.731,3.77327
495.2131,3.670967
495.6952,3.479218
496.1773,3.168877
496.6594,2.849472
497.1415,2.907555
497.6237,3.441444
498.1058,3.907608
498.5879,3.98027
499.07,3.800919
499.5521,3.633499
500.0342,3.450218
500.5164,3.389565
500.9985,3.706413
501.4806,4.149612
501.9627,4.208374
502.4448,3.762283
502.9269,3.227043
503.4091,3.040573
503.8912,3.236855
504.3733,3.313904
504.8554,3.178856
505.3375,3.034622
505.8196,2.911583
506.3018,2.839531
506.7839,2.873444
507.266,3.030098
507.7481,3.239311
508.2302,3.365662
508.7123,3.313904
509.1945,3.427956
509.6766,4.025299
510.1587,4.508545
510.6408,4.541954
511.1229,4.312286
511.605,4.21151
512.0872,4.459732
512.5693,4.817032
513.0514,4.832901
513.5335,4.47171
514.0156,4.135262
514.4977,3.861069
514.9799,3.708748
515.462,3.815804
515.9441,4.111885
516.4262,4.206352
516.9083,3.662323
517.3904,2.991814
517.8726,2.921417
518.3547,3.422722
518.8368,3.944389
519.3189,4.254929
519.801,4.393776
520.2831,4.428177
520.7653,4.354561
521.2474,4.194603
521.7295,3.780273
522.2116,3.445824
522.6937,3.529732
523.1758,3.968765
523.658,4.443939
524.1401,4.749802
524.6222,4.88475
525.1043,4.840897
525.5864,4.433426
526.0685,4.134903
526.5507,4.071999
527.0328,4.086777
527.5149,4.054451
527.997,3.966278
528.4791,3.883766
528.9612,3.84304
529.4434,3.855179
529.9255,4.016136
530.4076,4.444122
530.8897,4.669365
531.3718,4.313316
531.8539,3.779419
532.3361,3.50177
532.8182,3.553528
533.3003,3.697777
533.7824,3.862885
534.2645,4.007866
534.7466,3.987976
535.2288,3.759872
535.7109,3.540779
536.193,3.503914
536.6751,3.634239
537.1572,3.762993
537.6393,3.995667
538.1215,4.116631
538.6036,3.973183
539.0857,3.679565
539.5678,3.338127
540.0499,3.032249
540.532,2.957428
541.0142,3.345802
541.4963,4.192635
541.9784,4.704254
542.4604,4.61879
542.9426,4.575523
543.4247,4.781616
543.9068,4.988419
544.3889,4.884628
544.871,4.410713
545.3531,3.891556
545.8353,3.737038
546.3174,3.913841
546.7995,3.913597
547.2816,3.597549
547.7637,3.328735
548.2458,3.419044
548.728,3.69635
549.2101,3.892693
549.6922,3.958305
550.1743,3.93103
550.6564,3.855652
551.1385,3.705482
551.6207,3.38974
552.1028,2.887634
552.5849,2.37265
553.067,1.98468
553.5491,1.723587
554.0313,1.61245
554.5134,1.708611
554.9955,1.862518
555.4776,2.067696
555.9597,2.297287
556.4418,2.544579
556.924,2.796547
557.4061,2.982307
557.8882,3.025139
558.3703,2.922905
558.8524,2.688629
559.3345,2.026001
559.8167,1.672249
560.2988,2.200623
560.7809,2.984947
561.263,3.185898
561.7451,2.545708
562.2272,1.853645
562.7094,1.917747
563.1915,2.491699
563.6736,2.741096
564.1557,2.543053
564.6378,2.151939
565.1199,1.615494
565.6021,1.04213
566.0842,0.857048
566.5663,1.43763
567.0484,1.864952
567.5305,1.704926
568.0126,1.280899
568.4948,0.94783
568.9769,0.789734
569.459,0.803291
569.9411,1.021004
570.4232,1.424232
570.9053,1.613243
571.3875,1.498154
571.8696,1.27047
572.3517,0.793602
572.8338,0.327888
573.3159,0.145302
573.798,0.270767
574.2802,0.474983
574.7623,0.593498
575.2444,0.6222
575.7265,0.548523
576.2086,0.3573
576.6907,0.164246
577.1729,0.00041199999
577.655,0.126495
578.1371,0.169411
578.6192,0.074059002
579.1013,0.143478
579.5834,0.744705
580.0656,1.426933
580.5477,1.654182
581.0298,1.414146
581.5119,0.978271
581.994,0.496582
582.4761,0.0070420001
582.9583,0.467514
583.4404,1.051033
583.9225,1.310844
584.4046,1.036484
584.8867,0.634895
585.3688,0.333145
585.851,0.144547
586.3331,0.013535
586.8152,0.217613
587.2973,0.375366
587.7794,0.168617
588.2615,0.507904
588.7437,0.828903
589.2258,0.387352
589.7079,0.266861
590.19,0.613823
590.6721,0.691559
591.1542,0.771271
591.6364,1.0084
592.1185,1.217903
592.6006,1.193047
593.0827,1.013794
593.5648,0.897552
594.0469,0.918167
594.5291,1.054321
595.0112,1.312813
595.4933,1.776321
595.9754,1.963554
596.4575,1.530151
596.9396,1.255302
597.4218,1.619598
597.9039,2.238083
598.386,2.472054
598.8681,2.108566
599.3502,1.645309
599.8323,1.842285
600.3145,2.670082
600.7966,2.979469
601.2787,2.541145
601.7608,1.958916
602.2429,1.479599
602.725,1.118256
603.2072,0.941116
603.6893,1.001465
604.1714,1.066124
604.6535,0.986771
605.1356,0.86808
605.6177,0.88781
606.0999,1.04081
606.582,1.141632
607.0641,1.061188
607.5462,0.834442
608.0283,0.598129
608.5104,0.247055
608.9926,0.050659001
609.4747,0.212364
609.9568,0.382683
610.4389,0.258095
610.921,0.101364
611.4031,0.391457
611.8853,0.385979
612.3674,0.27079
612.8495,0.448257
613.3316,0.948189
613.8137,1.465225
614.2958,1.996025
614.778,2.430618
615.2601,2.548462
615.7422,2.420265
616.2243,2.519073
616.7064,3.170906
617.1885,3.826981
617.6707,4.119087
618.1528,4.21357
618.6349,4.342545
619.117,4.5653
619.5991,4.951263
620.0812,5.622147
620.5634,6.631203
621.0455,7.58213
621.5276,8.524216
622.0097,9.302727
622.4918,9.810066
622.9739,10.16692
623.4561,10.43095
623.9382,10.64838
624.4203,11.0077
624.9023,11.67582
625.3845,12.54378
625.8666,13.37595
626.3487,14.17364
626.8308,14.89437
627.3129,15.45815
627.795,16.01594
628.2772,16.9142
628.7593,18.22527
629.2414,19.38127
629.7235,20.18355
630.2056,20.89726
630.6877,21.5544
631.1699,22.30563
631.652,23.4818
632.1341,25.22424
632.6162,27.26643
633.0983,29.23013
633.5804,31.18376
634.0626,32.6819
634.5447,33.16821
635.0268,33.91572
635.5089,35.74583
635.991,38.07855
636.4731,39.97266
636.9553,41.08167
637.4374,42.19029
637.9195,43.91557
638.4016,46.02968
638.8837,48.12381
639.3658,50.14801
639.848,52.24165
640.3301,54.48843
640.8122,56.86185
641.2943,59.30928
641.7764,61.649
642.2585,64.30724
642.7407,67.70041
643.2228,71.02261
643.7049,73.67134
644.187,75.83203
644.6691,78.05556
645.1512,80.60341
645.6334,83.44455
646.1155,86.46506
646.5976,89.64429
647.0797,93.29095
647.5618,97.53773
648.0439,101.9958
648.5261,106.5002
649.0082,110.9902
649.4903,115.1012
649.9724,118.437
650.4545,121.9766
650.9366,126.1497
651.4188,130.6962
651.9009,135.2561
652.383,139.8066
652.8651,144.542
653.3472,149.5841
653.8293,154.9509
654.3115,160.7958
654.7936,167.2655
655.2757,173.7585
655.7578,180.3913
656.2399,186.8561
656.722,192.8598
657.2042,198.5723
657.6863,204.407
658.1684,210.4571
658.6505,216.8017
659.1326,223.7573
659.6147,231.0705
660.0969,238.0105
660.579,244.383
661.0611,250.8163
661.5432,257.8958
662.0253,265.5813
662.5074,273.2735
662.9896,281.4926
663.4717,289.0117
663.9538,294.6975
664.4359,300.4666
664.918,308.2106
665.4001,317.5907
665.8823,326.713
666.3644,334.4536
666.8465,341.2945
667.3286,348.1981
667.8107,355.1529
668.2928,361.7086
668.775,367.6233
669.2571,373.3761
669.7392,379.3762
670.2213,385.5956
670.7034,391.5184
671.1855,397.1509
671.6677,402.4581
672.1498,407.4156
672.6319,411.9861
673.114,416.3976
673.5961,420.4839
674.0782,423.4858
674.5604,424.7057
675.0425,424.6429
675.5246,424.962
676.0067,425.8124
676.4888,426.4389
676.9709,427.1249
677.4531,427.031
677.9352,425.2885
678.4173,422.2513
678.8994,419.1701
679.3815,416.6574
679.8636,413.7523
680.3458,409.6611
680.8279,404.9057
681.31,400.3723
681.7921,396.1697
682.2742,391.6
682.7563,386.063
683.2385,379.7182
683.7206,373.2853
684.2027,366.7263
684.6848,360.1832
685.1669,354.0311
685.649,347.6202
686.1312,340.4519
686.6133,332.7095
687.0954,324.8511
687.5775,316.8002
688.0596,309.1773
688.5417,303.1141
689.0239,297.8382
689.506,291.453
689.9881,283.5975
690.4702,275.4547
690.9523,267.8522
691.4344,260.7401
691.9166,253.7047
692.3987,246.5978
692.8808,239.8135
693.3629,233.5451
693.845,227.4599
694.3271,221.2334
694.8093,214.9971
695.2914,209.243
695.7735,204.354
696.2556,199.4791
696.7377,193.253
697.2198,186.2103
697.702,180.2301
698.1841,175.6744
698.6662,171.585
699.1483,167.4319
699.6304,163.15
700.1125,158.5431
700.5947,153.1342
701.0768,148.1703
701.5589,143.7119
702.041,139.6642
702.5231,136.2689
703.0052,133.1993
703.4874,129.7323
703.9695,125.5528
704.4516,121.182
704.9337,117.2276
705.4158,113.682
705.8979,110.5388
706.3801,107.876
706.8622,105.0874
707.3442,101.7208
707.8264,98.04616
708.3085,94.71196
708.7906,91.6803
709.2727,89.05376
709.7548,86.98332
710.2369,85.1647
710.7191,83.72473
711.2012,82.32036
711.6833,80.31848
712.1654,77.51515
712.6475,74.52356
713.1296,72.01044
713.6118,69.90042
714.0939,67.68427
714.576,65.30656
715.0581,63.19659
715.5402,61.63914
716.0223,60.39948
716.5045,59.16418
716.9866,58.01472
717.4687,56.40323
717.9508,53.54543
718.4329,51.00977
718.915,49.92657
719.3972,49.51273
719.8793,48.54192
720.3614,46.74374
720.8435,44.84578
721.3256,43.58598
721.8077,42.74858
722.2899,41.55072
722.772,39.95618
723.2541,38.53085
723.7362,37.39333
724.2183,36.4536
724.7004,35.83624
725.1826,35.57405
725.6647,34.9771
726.1468,33.75392
726.6289,32.40939
727.111,30.91809
727.5931,29.55101
728.0753,28.68687
728.5574,28.30149
729.0395,28.04785
729.5216,27.67928
730.0037,27.13871
730.4858,26.45777
730.968,25.69381
731.4501,24.63231
731.9322,23.00357
732.4143,21.43023
732.8964,20.50448
733.3785,20.17296
733.8607,19.92609
734.3428,19.98431
734.8249,19.78793
735.307,18.96953
735.7891,17.99951
736.2712,17.27388
736.7534,16.78645
737.2355,16.32121
737.7176,15.74525
738.1997,15.20016
738.6818,15.05333
739.1639,15.21008
739.6461,14.67364
740.1282,13.1954
740.6103,11.93147
741.0924,11.62722
741.5745,11.84168
742.0566,11.61976
742.5388,10.82407
743.0209,10.09998
743.503,9.516968
743.9851,9.018852
744.4672,8.530678
744.9493,8.101158
745.4315,7.906158
745.9136,7.980301
746.3957,8.034576
746.8778,7.689659
747.3599,7.065514
747.842,6.650124
748.3242,6.459641
748.8063,6.109901
749.2884,5.369858
749.7705,4.652374
750.2526,4.522957
750.7347,5.040596
751.2169,5.183098
751.699,4.701454
752.1811,4.192581
752.6632,3.678535
753.1453,3.251213
753.6274,3.101456
754.1096,3.15239
754.5917,3.049576
755.0738,2.526085
755.5559,1.896027
756.038,1.681244
756.5201,1.756645
757.0023,1.509499
757.4844,0.81205
757.9665,0.238365
758.4486,0.22187
758.9307,0.613663
759.4128,0.90535
759.895,1.069489
760.3771,1.168648
760.8592,1.346062
761.3413,1.328644
761.8234,0.786873
762.3055,0.033218
762.7877,0.449585
763.2698,0.529381
763.7519,0.464378
764.234,0.363182
764.7161,0.286987
765.1982,0.357819
765.6804,0.554527
766.1625,0.739815
766.6446,0.866188
767.1267,1.004692
767.6088,1.279922
768.0909,1.71373
768.5731,1.763573
769.0552,1.027809
769.5373,0.565536
770.0194,0.805031
770.5015,1.233086
770.9836,1.476471
771.4658,1.547714
771.9479,1.628899
772.43,1.80069
772.9121,1.974289
773.3942,2.115379
773.8763,2.207794
774.3585,2.206421
774.8406,2.117065
775.3227,2.008507
775.8048,1.926102
776.2869,1.854858
776.769,1.750908
777.2512,1.600014
777.7333,1.528435
778.2154,1.638176
778.6975,1.648636
779.1796,1.216812
779.6617,0.667938
780.1439,0.6455
780.626,1.351074
781.1081,1.687706
781.5902,0.916145
782.0723,0.165932
782.5544,0.329758
783.0366,0.959778
783.5187,1.222954
784.0008,0.93042
784.4829,0.569183
784.965,0.60643
785.4471,0.905754
785.9293,1.146057
786.4114,1.33036
786.8935,1.003914
787.3756,0.162003
787.8577,1.19738
788.3398,1.069603
788.822,0.037613001
789.304,0.549171
789.7861,0.088577002
790.2682,0.493286
790.7504,0.399628
791.2325,0.196312
791.7146,0.0099109998
792.1967,0.062919997
792.6788,0.18145
793.1609,0.858833
793.6431,1.487869
794.1252,1.542046
794.6073,1.303223
795.0894,1.237511
795.5715,1.380066
796.0536,1.837563
796.5358,2.691383
797.0179,3.472771
797.5,3.46492
797.9821,2.616364
798.4642,2.204063
798.9464,2.399902
799.4285,2.710434
799.9106,3.20945
800.3927,3.630646
800.8748,3.641251
801.3569,3.355415
801.8391,3.362282
802.3212,4.251396
802.8033,4.828232
803.2854,4.033638
803.7675,2.864235
804.2496,2.552887
804.7318,3.044937
805.2139,3.580711
805.696,3.751305
806.1781,3.790138
806.6602,4.150703
807.1423,4.787811
807.6245,5.004234
808.1066,4.688744
808.5887,4.366768
809.0708,4.209358
809.5529,4.248314
810.035,4.614052
810.5172,5.405205
810.9993,5.856781
811.4814,5.766449
811.9635,5.600113
812.4456,5.402428
812.9277,5.243515
813.4099,5.204544
813.892,5.271156
814.3741,5.360077
814.8562,5.445808
815.3383,5.506836
815.8204,5.37397
816.3026,5.232094
816.7847,5.690399
817.2668,6.716736
817.7489,7.406403
818.231,7.218437
818.7131,6.550453
819.1953,6.102379
819.6774,5.83123
820.1595,6.139107
820.6416,7.523018
821.1237,8.526901
821.6058,8.402863
822.088,7.772758
822.5701,7.194206
823.0522,6.681946
823.5343,6.473877
824.0164,6.794144
824.4985,7.21756
824.9807,7.613281
825.4628,7.974007
825.9449,8.388077
826.427,8.789619
826.9091,8.889709
827.3912,8.435486
827.8734,7.841423
828.3555,7.798805
828.8376,8.156517
829.3197,8.224487
829.8018,7.940727
830.2839,7.739349
830.7661,7.861969
831.2482,8.094589
831.7303,8.053238
832.2124,7.661003
832.6945,7.622147
833.1766,8.420853
833.6588,8.869019
834.1409,8.422897
834.623,7.769257
835.1051,7.500961
835.5872,7.553772
836.0693,7.435722
836.5515,6.807335
837.0336,6.324356
837.5157,6.405495
837.9978,6.748009
838.4799,7.097992
838.962,7.385521
839.4442,7.519974
839.9263,7.427582
840.4084,7.212387
840.8905,7.063362
841.3726,6.976234
841.8547,6.81424
842.3369,6.565109
842.819,6.402817
843.3011,6.385071
843.7832,6.482635
844.2653,6.693604
844.7474,7.04335
845.2296,7.323059
845.7117,7.623466
846.1938,7.594246
846.6759,6.714928
847.158,5.908142
847.6401,5.882248
848.1223,6.395058
848.6044,6.924316
849.0865,7.421036
849.5686,7.573914
850.0507,6.945503
850.5328,6.123161
851.015,5.601418
851.4971,5.398003
851.9792,5.549622
852.4613,6.016983
852.9434,6.450829
853.4255,6.509331
853.9077,6.275116
854.3898,5.92662
854.8719,5.455376
855.354,5.050034
855.8361,4.697456
856.3182,4.603577
856.8004,5.026733
857.2825,5.766762
857.7646,6.190079
858.2467,6.191895
858.7288,6.082909
859.2109,5.725479
859.6931,5.412308
860.1752,5.311882
860.6573,5.286934
861.1394,5.115379
861.6215,4.771851
862.1036,4.573936
862.5858,4.826675
863.0679,5.114212
863.55,5.164375
864.0321,5.050613
864.5142,4.847511
864.9963,4.597542
865.4785,4.335522
865.9606,4.0606
866.4427,3.931026
866.9248,4.36343
867.4069,5.201988
867.889,5.57127
868.3712,5.421509
868.8533,5.100731
869.3354,4.692341
869.8175,4.379288
870.2996,4.455982
870.7817,4.929428
871.2639,5.078705
871.7459,4.751999
872.228,4.374817
872.7101,3.744228
873.1923,3.343128
873.6744,3.735588
874.1565,4.54229
874.6386,4.804863
875.1207,4.175022
875.6028,3.611935
876.085,3.533123
876.5671,3.551285
877.0492,3.326584
877.5313,3.022118
878.0134,3.0149
878.4955,3.35667
878.9777,3.637543
879.4598,3.472481
879.9419,3.138729
880.424,3.096058
880.9061,3.271603
881.3882,3.487667
881.8704,3.727165
882.3525,3.830566
882.8346,3.668877
883.3167,3.406605
883.7988,3.434586
884.2809,3.831749
884.7631,3.866013
885.2452,3.326309
885.7273,2.956371
886.2094,3.174778
886.6915,3.51442
887.1736,3.386299
887.6558,2.829803
888.1379,2.475334
888.62,2.483536
889.1021,2.496437
889.5842,2.422874
890.0663,2.356358
890.5485,2.395512
891.0306,2.487518
891.5127,2.526192
891.9948,2.482716
892.4769,2.379379
892.959,2.115719
893.4412,1.898037
893.9233,2.022781
894.4054,2.340816
894.8875,2.533897
895.3696,2.548939
895.8517,2.56292
896.3339,2.730785
896.816,2.88015
897.2981,2.583027
897.7802,1.900597
898.2623,1.394577
898.7444,1.110226
899.2266,1.131378
899.7087,1.579823
900.1908,2.132622
900.6729,2.281509
901.155,2.016998
901.6371,1.763149
902.1193,1.451466
902.6014,1.27697
903.0835,1.40712
903.5656,1.554855
904.0477,1.483921
904.5298,1.288223
905.012,1.240654
905.4941,1.488461
905.9762,1.539974
906.4583,0.976772
906.9404,0.502689
907.4225,0.641258
907.9047,1.084469
908.3868,1.453014
908.8689,1.650078
909.351,1.65778
909.8331,1.366928
910.3152,1.032597
910.7974,0.943611
911.2795,1.002728
911.7616,1.074883
912.2437,1.117619
912.7258,1.013683
913.2079,0.70734
913.6901,0.443287
914.1722,0.634056
914.6543,1.168358
915.1364,1.346653
915.6185,1.154137
916.1006,1.03603
916.5828,1.117531
917.0649,1.227997
917.547,1.220379
918.0291,1.135811
918.5112,1.126247
918.9933,1.214626
919.4755,1.321198
919.9576,1.526115
920.4397,1.642223
920.9218,1.553295
921.4039,1.352081
921.886,1.155296
922.3682,0.9645
922.8503,0.730087
923.3324,0.295704
923.8145,0.011654
924.2966,0.137054
924.7787,0.313282
925.2609,0.133762
925.743,0.191212
926.2251,0.133801
926.7072,0.470917
927.1893,1.061531
927.6714,1.227032
928.1536,1.234066
928.6357,1.42551
929.1178,1.639187
929.5999,1.449154
930.082,0.868134
930.5641,0.428001
931.0463,0.488049
931.5284,0.755806
932.0105,0.767178
932.4926,0.580677
932.9747,0.425049
933.4568,0.313896
933.939,0.296047
934.4211,0.400776
934.9032,0.466991
935.3853,0.298141
935.8674,0.043575
936.3495,0.194679
936.8317,0.101944
937.3138,0.105526
937.7959,0.411285
938.278,0.416592
938.7601,0.465248
939.2422,1.645638
939.7244,2.026356
940.2065,1.436562
940.6886,1.043213
941.1707,0.993225
941.6528,0.927452
942.1349,0.774235
942.6171,0.585865
943.0992,0.289124
943.5813,0.001881
944.0634,0.084472999
944.5455,0.771599
945.0276,1.206127
945.5098,0.745174
945.9919,0.266579
946.474,0.443092
946.9561,0.920124
947.4382,1.219723
947.9203,1.266758
948.4025,1.190006
948.8846,1.004055
949.3667,0.858089
949.8488,1.021633
950.3309,1.24268
950.813,1.003502
951.2952,0.454449
951.7773,0.223145
952.2594,0.498779
952.7415,0.843891
953.2236,0.798618
953.7057,0.580585
954.1878,0.802601
954.6699,1.36945
955.152,1.665363
955.6342,1.602642
956.1163,1.235477
956.5984,0.546562
957.0805,0.156727
957.5626,0.348415
958.0447,0.041232999
958.5269,0.143929
959.009,0.185616
959.4911,0.236629
959.9732,0.32037
960.4553,0.483929
960.9374,0.856846
961.4196,1.271561
961.9017,1.210316
962.3838,0.392151
962.8659,0.041809
963.348,0.102085
963.8301,0.378223
964.3123,0.880638
964.7944,1.281147
965.2765,1.247837
965.7586,0.860123
966.2407,0.479019
966.7228,0.011005
967.205,0.175781
967.6871,0.479229
968.1692,1.045597
968.6513,0.840549
969.1334,0.329559
969.6155,0.15094
970.0977,0.364117
970.5798,0.619709
971.0619,0.774586
971.544,0.916599
972.0261,1.173641
972.5082,1.399616
972.9904,1.425079
973.4725,1.280006
973.9546,1.027359
974.4367,0.703506
974.9188,0.420345
975.4009,0.243328
975.8831,0.181847
976.3652,0.387257
976.8473,0.673157
977.3294,0.492638
977.8115,0.070327997
978.2936,0.219723
978.7758,0.429688
979.2579,1.174988
979.74,1.020603
980.2221,0.29565
980.7042,0.154583
981.1863,0.520168
981.6685,0.785881
982.1506,0.835918
982.6327,0.792004
983.1148,0.718479
983.5969,0.648411
984.079,0.684731
984.5612,0.834442
985.0433,0.918163
985.5254,0.946362
986.0075,0.767235
986.4896,0.229996
986.9717,0.149502
987.4539,0.12265
987.936,0.798141
988.4181,1.080616
988.9002,0.816307
989.3823,0.732029
989.8644,1.005203
990.3466,1.096638
990.8287,0.682171
991.3108,0.19474
991.7929,0.079556003
992.275,0.26828
992.7571,0.342651
993.2393,0.078060001
993.7214,0.097770996
994.2035,0.801201
994.6856,1.328747
995.1677,1.14547
995.6498,0.742188
996.132,0.737221
996.6141,1.101547
997.0962,1.243752
997.5783,0.843292
998.0604,0.558697
998.5425,0.616985
999.0247,0.774525
999.5068,0.991924
999.9889,1.148869
1000.471,1.071136
1000.953,0.75523
1001.435,0.39463
1001.917,0.025878999
1002.399,0.316639
1002.882,0.360329
1003.364,0.248028
1003.846,0.027912
1004.328,0.277325
1004.81,0.723503
1005.292,1.280598
1005.774,1.596867
1006.256,1.293003
1006.739,0.872833
1007.221,0.866936
1007.703,1.001694
1008.185,0.859825
1008.667,0.515221
1009.149,0.325237
1009.631,0.403801
1010.113,0.479218
1010.595,0.23827
1011.078,0.065125003
1011.56,0.0048179999
1012.042,0.290245
1012.524,0.547176
1013.006,0.722073
1013.488,0.831768
1013.97,0.883434
1014.452,0.856438
1014.935,0.722088
1015.417,0.493435
1015.899,0.071938001
1016.381,0.422245
1016.863,0.183601
1017.345,0.813416
1017.827,1.460285
1018.309,1.174786
1018.791,0.533451
1019.274,0.288429
1019.756,0.360081
1020.238,0.493412
1020.72,0.685776
1021.202,0.801502
1021.684,0.811466
1022.166,0.871532
1022.648,1.092171
1023.13,1.292801
1023.613,1.144253
1024.095,0.674606
1024.577,0.387398
1025.059,0.290199
1025.541,0.343708
1026.023,0.576122
1026.505,0.775536
1026.987,0.796753
1027.469,0.687077
1027.952,0.496517
1028.434,0.213104
1028.916,0.219654
1029.398,0.658901
1029.88,0.847126
1030.362,0.551277
1030.844,0.241074
1031.326,0.246227
1031.809,0.411682
1032.291,0.41378
1032.773,0.224987
1033.255,0.100307
1033.737,0.089119002
1034.219,0.025875
1034.701,0.228107
1035.183,0.372219
1035.666,0.141102
1036.148,0.28978
1036.63,0.581745
1037.112,0.725071
1037.594,0.732971
1038.076,0.48877
1038.558,0.291153
1039.04,0.146931
1039.522,0.113529
1040.005,0.291592
1040.487,0.586143
1040.969,0.817646
1041.451,1.00338
1041.933,1.041382
1042.415,0.774223
1042.897,0.573845
1043.379,0.540821
1043.861,0.565067
1044.344,0.610367
1044.826,0.646683
1045.308,0.632492
1045.79,0.555107
1046.272,0.471512
1046.754,0.294765
1047.236,0.242039
1047.718,0.500999
1048.201,0.782009
1048.683,0.849892
1049.165,0.783131
1049.647,0.722729
1050.129,0.684055
1050.611,0.672623
1051.093,0.696999
1051.575,0.737736
1052.057,0.86937
1052.54,0.940895
1053.022,0.751484
1053.504,0.455364
1053.986,0.361946
1054.468,0.527493
1054.95,0.653687
1055.432,0.678795
1055.914,0.649166
1056.396,0.432137
1056.879,0.310989
1057.361,0.655682
1057.843,1.181309
1058.325,1.310188
1058.807,0.969666
1059.289,0.843292
1059.771,1.496189
1060.253,1.85854
1060.736,1.24403
1061.218,0.478119
1061.7,0.15123
1062.182,0.141731
1062.664,0.19717
1063.146,0.260937
1063.628,0.259995
1064.11,0.034538001
1064.593,0.072350003
1065.075,0.118263
1065.557,0.445141
1066.039,1.012474
1066.521,1.51981
1067.003,1.38015
1067.485,0.616428
1067.967,0.118217
1068.449,0.350868
1068.932,0.666367
1069.414,0.767597
1069.896,0.861012
1070.378,1.258736
1070.86,1.65612
1071.342,1.498688
1071.824,0.833351
1072.306,0.379051
1072.788,0.457085
1073.271,0.647968
1073.753,0.87384
1074.235,1.002285
1074.717,0.977348
1075.199,0.824596
1075.681,0.448952
1076.163,0.040031001
1076.645,0.17762
1077.127,0.318794
1077.61,0.772957
1078.092,0.847431
1078.574,0.801956
1079.056,0.772583
1079.538,0.750969
1080.02,0.705475
1080.502,0.647793
1080.984,0.630611
1081.467,0.683487
1081.949,0.70248
1082.431,0.660664
1082.913,0.552425
1083.395,0.225563
1083.877,0.051991001
1084.359,0.14127
1084.841,0.619152
1085.323,0.77346
1085.806,0.39896
1086.288,0.163879
1086.77,0.492237
1087.252,0.856949
1087.734,1.057606
1088.216,1.107193
1088.698,0.928394
1089.18,0.646336
1089.662,0.496788
1090.145,0.526596
1090.627,0.634205
1091.109,0.94606
1091.591,1.111034
1092.073,0.836346
1092.555,0.486279
1093.037,0.287266
1093.519,0.274494
1094.002,0.531841
1094.484,1.023865
1094.966,1.279461
1095.448,0.966331
1095.93,0.666782
1096.412,0.550407
1096.894,0.526627
1097.376,0.626331
1097.859,0.728477
1098.341,0.593002
1098.823,0.273117
1099.305,0.227291
1099.787,0.675709
1100.269,1.163754
1100.751,1.859337
1101.233,2.22831
1101.715,1.744553
1102.198,1.003922
1102.68,0.596981
1103.162,0.502666
1103.644,0.481785
1104.126,0.559715
1104.608,0.523666
1105.09,0.117382
1105.572,0.125591
1106.054,0.113567
1106.537,0.463245
1107.019,0.594246
1107.501,0.608929
1107.983,0.855453
1108.465,1.476578
1108.947,1.643505
1109.429,0.828262
1109.911,0.20158
1110.394,0.134365
1110.876,0.178158
1111.358,0.012104
1111.84,0.235859
1112.322,0.070347004
1112.804,0.521698
1113.286,0.788422
1113.768,0.171379
1114.25,0.172951
1114.733,1.76432
1115.215,2.792114
1115.697,1.919334
1116.179,0.408104
1116.661,0.335217
1117.143,0.394928
1117.625,0.410839
1118.107,0.449223
1118.589,0.260677
1119.072,0.372948
1119.554,0.783356
1120.036,0.638168
1120.518,0.40242
1121.0,0.475685
1121.482,0.767651
1121.964,1.040188
1122.446,1.334995
1122.929,1.287228
1123.411,0.700848
1123.893,0.446075
1124.375,0.770187
1124.857,1.266445
1125.339,1.757927
1125.821,2.080811
1126.303,1.891579
1126.786,1.234196
1127.268,0.932518
1127.75,1.024181
1128.232,1.141903
1128.714,1.246521
1129.196,1.328316
1129.678,1.386948
1130.16,1.40358
1130.642,1.351814
1131.125,1.249275
1131.607,1.129452
1132.089,1.000916
1132.571,1.051651
1133.053,1.287056
1133.535,1.490269
1134.017,1.597618
1134.499,1.536423
1134.981,1.251091
1135.464,0.862549
1135.946,0.519257
1136.428,0.267258
1136.91,0.383785
1137.392,0.775253
1137.874,0.923889
1138.356,0.778694
1138.838,0.798367
1139.321,1.220875
1139.803,1.532402
1140.285,0.949127
1140.767,0.066982001
1141.249,0.103828
1141.731,0.637886
1142.213,0.719036
1142.695,0.402359
1143.177,0.248695
1143.66,0.434097
1144.142,0.818184
1144.624,1.444298
1145.106,1.895096
1145.588,1.536751
1146.07,0.908825
1146.552,0.647854
1147.034,0.658306
1147.516,0.721195
1147.999,0.781883
1148.481,0.835331
1148.963,0.885509
1149.445,0.909496
1149.927,0.875851
1150.409,0.828518
1150.891,0.801746
1151.373,0.778767
1151.856,0.734901
1152.338,0.680805
1152.82,0.630295
1153.302,0.588192
1153.784,0.608196
1154.266,0.717503
1154.748,0.877731
1155.23,1.18745
1155.713,1.426682
1156.195,1.421963
1156.677,1.290936
1157.159,1.176876
1157.641,1.088318
1158.123,0.991985
1158.605,0.856483
1159.087,0.773777
1159.569,0.74498
1160.052,0.783752
1160.534,1.059589
1161.016,1.217762
1161.498,0.924084
1161.98,0.444401
1162.462,0.341835
1162.944,0.651768
1163.426,0.940681
1163.908,1.281803
1164.391,1.439972
1164.873,1.272488
1165.355,1.274208
1165.837,1.786312
1166.319,2.29908
1166.801,2.161995
1167.283,1.545765
1167.765,1.099564
1168.247,0.822037
1168.73,0.872097
1169.212,1.266727
1169.694,1.429291
1170.176,1.229553
1170.658,1.073322
1171.14,1.312984
1171.622,1.596798
1172.104,1.221111
1172.587,0.488365
1173.069,0.45731
1173.551,0.958183
1174.033,1.422844
1174.515,1.713699
1174.997,1.756367
1175.479,1.535519
1175.961,1.197914
1176.443,0.78688
1176.926,0.548008
1177.408,0.90337
1177.89,1.488262
1178.372,1.890747
1178.854,2.05426
1179.336,1.881905
1179.818,1.433563
1180.3,0.922886
1180.782,0.404434
1181.265,0.120296
1181.747,0.399441
1182.229,0.750648
1182.711,0.902111
1183.193,0.925636
1183.675,0.789051
1184.157,0.626682
1184.639,0.708672
1185.122,1.057785
1185.604,1.343277
1186.086,1.604954
1186.568,1.603142
1187.05,0.974453
1187.532,0.48518
1188.014,0.543514
1188.496,0.805702
1188.979,1.039295
1189.461,1.21162
1189.943,1.219017
1190.425,1.047134
1190.907,0.74641
1191.389,0.048817001
1191.871,0.066630997
1192.353,1.283554
1192.835,2.333443
1193.318,2.543903
1193.8,2.209438
1194.282,1.603405
1194.764,0.850529
1195.246,0.428051
1195.728,0.330776
1196.21,0.581928
1196.692,1.155434
1197.174,1.544308
1197.657,1.621162
1198.139,1.517319
1198.621,1.297016
1199.103,1.104866
1199.585,1.135448
1200.067,1.329025
1200.549,1.645168
1201.031,1.937805
1201.514,1.904911
1201.996,1.595779
1202.478,1.135696
1202.96,0.625294
1203.442,0.474415
1203.924,1.075928
1204.406,1.631321
1204.888,1.329117
1205.37,0.953247
1205.853,1.295372
1206.335,1.838463
1206.817,1.902603
1207.299,1.602283
1207.781,1.401531
1208.263,1.392284
1208.745,1.444435
1209.227,1.682873
1209.709,1.745121
1210.192,1.362907
1210.674,1.017189
1211.156,0.896011
1211.638,0.975117
1212.12,1.376751
1212.602,1.930885
1213.084,1.938847
1213.566,1.224243
1214.049,0.843189
1214.531,0.845688
1215.013,1.033077
1215.495,1.439701
1215.977,1.688824
1216.459,1.582806
1216.941,1.177361
1217.423,0.422302
1217.906,0.380692
1218.388,0.041901
1218.87,1.118507
1219.352,1.397728
1219.834,0.881489
1220.316,0.506104
1220.798,0.46629
1221.28,0.338562
1221.762,0.115532
1222.245,0.489689
1222.727,0.332424
1223.209,0.077629
1223.691,0.639847
1224.173,1.093273
1224.655,0.93401
1225.137,0.457947
1225.619,0.340092
1226.101,0.613358
1226.584,0.640282
1227.066,0.018681001
1227.548,0.272144
1228.03,0.573174
1228.512,1.209599
1228.994,0.856403
1229.476,0.307335
1229.958,0.169392
1230.441,0.258797
1230.923,0.207363
1231.405,0.030169999
1231.887,0.0073429998
1232.369,0.136543
1232.851,0.261543
1233.333,0.335842
1233.815,0.567181
1234.297,1.041969
1234.78,1.606522
1235.262,2.211411
1235.744,2.575642
1236.226,2.070415
1236.708,1.003548
1237.19,0.661568
1237.672,0.890358
1238.154,1.080864
1238.636,1.194061
1239.119,1.155491
1239.601,0.966507
1240.083,0.718842
1240.565,0.453777
1241.047,0.359097
1241.529,0.875309
1242.011,1.365849
1242.493,1.019108
1242.975,0.434498
1243.458,0.444798
1243.94,0.799835
1244.422,0.790512
1244.904,0.327927
1245.386,0.084537998
1245.868,0.293156
1246.35,0.616421
1246.832,1.210949
1247.315,1.621788
1247.797,1.618576
1248.279,1.468899
1248.761,1.302036
1249.243,1.150669
1249.725,1.102734
1250.207,1.15329
1250.689,1.072895
1251.172,0.757946
1251.654,0.775867
1252.136,1.161205
1252.618,1.321323
1253.1,1.065319
1253.582,0.701084
1254.064,0.711929
1254.546,0.824146
1255.028,0.781818
1255.51,0.65337
1255.993,0.443718
1256.475,0.297928
1256.957,0.048308998
1257.439,0.213661
1257.921,0.196392
1258.403,0.098049
1258.885,0.30695
1259.367,0.204319
1259.85,0.161926
1260.332,0.453358
1260.814,0.69482
1261.296,0.628162
1261.778,0.54583
1262.26,0.715843
1262.742,0.973137
1263.224,1.096573
1263.707,1.068016
1264.189,0.925083
1264.671,0.561192
1265.153,0.445793
1265.635,0.73032
1266.117,0.924854
1266.599,0.921089
1267.081,0.766396
1267.563,0.462162
1268.046,0.253048
1268.528,0.515369
1269.01,0.973717
1269.492,0.901314
1269.974,0.577805
1270.456,0.835243
1270.938,1.345654
1271.42,1.469723
1271.902,1.233719
1272.385,0.89772
1272.867,0.610828
1273.349,0.513214
1273.831,0.920578
1274.313,1.242695
1274.795,1.083729
1275.277,0.861549
1275.759,0.92905
1276.242,0.997219
1276.724,0.564335
1277.206,0.106323
1277.688,0.016663
1278.17,0.992996
1278.652,1.31641
1279.134,0.66222
1279.616,0.426472
1280.099,0.859795
1280.581,1.118206
1281.063,0.768169
1281.545,0.533085
1282.027,0.78051
1282.509,1.126152
1282.991,0.918873
1283.473,0.37418
1283.955,0.0
