Raman Shift,Intensity
129.534,12136.0
130.922,12179.0
132.309,12632.0
133.696,12587.0
135.083,13031.0
136.47,13131.0
137.857,13523.0
139.243,13603.0
140.63,13842.0
142.016,14125.0
143.401,13682.0
144.787,13425.0
146.172,13404.0
147.557,13478.0
148.942,13106.0
150.327,13004.0
151.711,12915.0
153.096,13019.0
154.48,12995.0
155.863,13127.0
157.247,13029.0
158.63,13160.0
160.013,13184.0
161.396,13212.0
162.779,13366.0
164.161,13367.0
165.544,13331.0
166.926,13197.0
168.308,13267.0
169.689,13215.0
171.07,13076.0
172.452,12986.0
173.833,13077.0
175.213,13081.0
176.594,12977.0
177.974,13080.0
179.354,13032.0
180.734,13239.0
182.114,13387.0
183.493,13487.0
184.872,13652.0
186.251,14076.0
187.63,14235.0
189.008,14424.0
190.387,14617.227
191.765,14626.0
193.143,14800.0
194.52,14820.0
195.898,14779.0
197.275,14614.0
198.652,14674.0
200.029,14671.0
201.405,14626.0
202.782,14634.0
204.158,14694.0
205.534,14704.0
206.909,14687.533
208.285,14713.645
209.66,14689.266
211.035,14692.0
212.41,14639.0
213.784,14570.0
215.159,14512.0
216.533,14321.0
217.907,14156.0
219.281,13936.0
220.654,13658.0
222.027,13487.0
223.4,13075.0
224.773,13050.0
226.146,12771.0
227.518,12773.0
228.891,12682.0
230.263,12668.863
231.634,12798.0
233.006,12688.0
234.377,12966.0
235.748,12847.0
237.119,13134.0
238.49,13323.0
239.86,13644.0
241.231,14064.0
242.601,14383.0
243.97,14961.0
245.34,15633.0
246.709,16658.0
248.079,17746.0
249.448,19152.0
250.816,21448.0
252.185,23717.0
253.553,26460.0
254.921,28377.0
256.289,30117.0
257.657,31742.0
259.024,31788.0
260.391,32286.0
261.758,30190.0
263.125,28622.0
264.492,27486.0
265.858,24372.0
267.224,22502.0
268.59,21527.0
269.956,19549.0
271.321,18031.0
272.687,17383.0
274.052,17447.0
275.416,16145.0
276.781,15364.0
278.146,15056.0
279.51,14624.0
280.874,14285.0
282.237,14208.0
283.601,13923.0
284.964,13831.0
286.327,13492.0
287.69,13378.0
289.053,13302.0
290.416,13249.0
291.778,13187.828
293.14,13158.477
294.502,13024.0
295.863,13181.0
297.225,12928.0
298.586,13061.0
299.947,13016.0
301.308,13025.0
302.668,13011.0
304.029,13020.0
305.389,12909.0
306.749,12974.0
308.108,13255.0
309.468,13464.0
310.827,13180.0
312.186,13118.0
313.545,13155.0
314.903,13044.0
316.262,13104.53
317.62,13132.065
318.978,13121.0
320.336,13296.0
321.693,13172.0
323.051,13336.0
324.408,13196.0
325.765,13133.0
327.121,13091.0
328.478,13040.441
329.834,13040.0
331.19,13057.0
332.546,13064.119
333.902,13276.0
335.257,13142.0
336.612,13257.0
337.967,13336.0
339.322,13286.0
340.677,13420.0
342.031,13369.0
343.385,13354.0
344.739,13532.0
346.093,13657.0
347.446,13656.0
348.799,13642.0
350.153,13845.0
351.505,13969.0
352.858,14185.0
354.21,14111.0
355.563,14378.0
356.915,14405.0
358.267,14613.0
359.618,14676.0
360.969,14891.0
362.321,14961.0
363.672,15200.0
365.022,15290.0
366.373,15488.0
367.723,15638.0
369.073,15697.0
370.423,15829.0
371.773,15954.0
373.122,16048.0
374.471,16069.0
375.821,16385.0
377.169,16568.0
378.518,16368.0
379.866,16830.0
381.215,16666.0
382.563,16841.0
383.91,17133.0
385.258,17089.0
386.605,17154.0
387.952,17568.0
389.299,17915.0
390.646,17676.0
391.992,18180.0
393.339,18313.0
394.685,18608.0
396.031,18979.0
397.376,19244.0
398.722,19672.0
400.067,19968.0
401.412,20381.0
402.757,20505.0
404.101,20682.0
405.446,20849.389
406.79,21145.0
408.134,20878.0
409.478,20882.0
410.821,20538.0
412.165,20184.0
413.508,19702.0
414.851,18963.0
416.193,18846.0
417.536,18340.0
418.878,17900.0
420.22,17611.0
421.562,17371.0
422.904,17032.0
424.245,16791.646
425.586,16574.0
426.927,16333.0
428.268,16107.0
429.609,16015.0
430.949,15674.0
432.289,15616.0
433.629,15561.0
434.969,15677.0
436.309,15306.0
437.648,15262.0
438.987,15129.0
440.326,15171.0
441.665,15104.0
443.003,14960.0
444.342,14767.0
445.68,15130.0
447.018,14909.187
448.355,14834.0
449.693,14879.0
451.03,14763.0
452.367,14826.0
453.704,14758.0
455.041,14857.0
456.377,14641.0
457.713,14770.0
459.049,14757.0
460.385,14820.0
461.721,14823.0
463.056,14788.0
464.391,14850.987
465.726,15051.0
467.061,14876.0
468.395,15011.0
469.73,14929.0
471.064,14859.0
472.398,14942.0
473.731,14731.0
475.065,14788.464
476.398,14751.0
477.731,14786.0
479.064,14880.0
480.397,14897.0
481.729,14818.0
483.062,14848.0
484.394,14796.844
485.725,14822.0
487.057,14772.0
488.389,14760.0
489.72,14865.0
491.051,14800.0
492.382,14662.0
493.712,14892.0
495.043,14755.431
496.373,14844.0
497.703,14760.0
499.032,14816.0
500.362,14940.0
501.691,14922.0
503.02,14926.0
504.349,14970.0
505.678,14976.0
507.007,15051.0
508.335,15097.0
509.663,14964.661
510.991,15232.188
512.319,15402.651
513.646,15481.232
514.973,15192.871
516.3,15378.339
517.627,15373.918
518.954,15361.709
520.28,15613.834
521.607,15378.842
522.933,15626.772
524.259,15681.916
525.584,15825.26
526.91,15777.574
528.235,15788.868
529.56,15991.286
530.885,16087.878
532.209,15921.0
533.534,15663.0
534.858,15860.0
536.182,16012.0
537.506,16033.0
538.829,16066.0
540.152,16113.0
541.476,16057.0
542.799,16105.0
544.121,16320.0
545.444,15994.0
546.766,16294.0
548.088,16192.0
549.41,16177.0
550.732,16265.0
552.053,16439.0
553.375,16388.0
554.696,16452.0
556.017,16432.0
557.337,16551.0
558.658,16636.0
559.978,16630.0
561.298,16674.0
562.618,16713.0
563.938,16729.0
565.257,16744.0
566.576,16796.0
567.895,16905.0
569.214,16807.0
570.533,16910.0
571.851,17034.0
573.17,17076.0
574.488,16898.0
575.805,17116.0
577.123,16977.0
578.44,16965.0
579.758,17077.0
581.075,17100.0
582.391,17235.0
583.708,17050.0
585.024,17324.0
586.341,17208.0
587.657,17195.0
588.972,17408.0
590.288,17546.0
591.603,17624.0
592.918,17572.0
594.233,17600.0
595.548,17684.0
596.863,17742.865
598.177,18114.0
599.491,18004.0
600.805,18221.0
602.119,18448.0
603.432,18380.0
604.746,18536.0
606.059,18660.0
607.372,18934.0
608.685,19000.0
609.997,18881.0
611.309,19325.0
612.621,19160.0
613.933,19354.0
615.245,19296.0
616.557,19324.0
617.868,19544.0
619.179,19591.0
620.49,19581.0
621.801,19560.0
623.111,19338.0
624.421,19656.0
625.731,19616.0
627.041,19689.0
628.351,19362.0
629.66,19804.0
630.97,19556.0
632.279,19571.0
633.588,19777.0
634.896,19629.0
636.205,19638.0
637.513,19446.0
638.821,19394.662
640.129,19304.0
641.437,19319.0
642.744,19236.0
644.051,19383.0
645.358,19038.0
646.665,19033.0
647.972,19043.0
649.278,18784.0
650.584,18800.0
651.89,18678.0
653.196,18558.0
654.502,18626.0
655.807,18433.0
657.113,18610.0
658.418,18305.0
659.722,18422.0
661.027,18771.0
662.331,18213.0
663.636,18470.0
664.94,18520.0
666.244,18470.0
667.547,18360.0
668.851,18512.0
670.154,18666.0
671.457,18767.0
672.76,18898.545
674.062,18989.055
675.365,19133.0
676.667,19228.0
677.969,19376.0
679.271,19658.0
680.572,19870.0
681.874,20042.0
683.175,20479.621
684.476,20872.0
685.777,21374.0
687.077,21918.0
688.378,22457.0
689.678,23025.0
690.978,24140.0
692.278,24906.0
693.577,25878.0
694.877,26215.0
696.176,28151.0
697.475,28396.0
698.774,28790.0
700.072,28660.0
701.371,28501.0
702.669,27762.0
703.967,27010.0
705.265,26301.998
706.562,24951.0
707.86,24467.0
709.157,23279.0
710.454,22272.0
711.751,22278.0
713.047,21331.0
714.344,21195.0
715.64,20787.0
716.936,20565.0
718.232,20196.0
719.527,19966.0
720.823,20142.0
722.118,19952.0
723.413,20020.0
724.708,19818.0
726.002,19776.0
727.297,19635.0
728.591,20075.0
729.885,19570.0
731.179,20145.0
732.472,20062.0
733.766,19984.0
735.059,19972.0
736.352,20136.0
737.645,20262.0
738.937,20548.0
740.23,20626.0
741.522,20723.0
742.814,20600.0
744.106,20793.0
745.397,20899.0
746.689,21111.0
747.98,20810.0
749.271,20632.0
750.562,20738.0
751.853,20672.0
753.143,20823.0
754.433,20550.0
755.723,20516.0
757.013,20431.0
758.303,20294.0
759.592,20234.0
760.881,20000.0
762.17,20109.0
763.459,20076.0
764.748,19846.0
766.036,19842.0
767.325,19712.32
768.613,19649.418
769.901,19540.0
771.188,19584.0
772.476,19565.0
773.763,19572.0
775.05,19654.0
776.337,19593.748
777.624,19689.0
778.91,19560.277
780.196,19562.023
781.482,19615.0
782.768,19635.0
784.054,19689.352
785.339,19691.0
786.625,19810.0
787.91,19834.0
789.195,19895.312
790.479,20001.0
791.764,19904.0
793.048,19904.0
794.332,19849.0
795.616,19870.0
796.9,19954.0
798.183,19968.0
799.467,20025.0
800.75,19966.0
802.033,19956.0
803.316,19976.0
804.598,19724.0
805.88,19979.0
807.163,19578.0
808.445,19970.0
809.726,20011.0
811.008,19813.0
812.289,19922.0
813.57,19800.0
814.851,19786.0
816.132,19892.0
817.413,19994.0
818.693,19880.0
819.973,19957.0
821.253,20065.0
822.533,19890.0
823.813,19992.0
825.092,19995.984
826.371,20146.0
827.65,20129.0
828.929,20101.0
830.208,20298.0
831.486,20390.0
832.764,20416.0
834.042,20167.0
835.32,20232.0
836.598,20208.0
837.875,20285.0
839.152,20518.0
840.429,20521.0
841.706,20405.0
842.983,20764.0
844.259,20497.0
845.536,20469.0
846.812,20910.0
848.088,20556.0
849.363,20672.0
850.639,20576.0
851.914,20803.0
853.189,20830.0
854.464,20761.0
855.739,20736.0
857.013,20787.508
858.288,20769.842
859.562,20904.0
860.836,20918.0
862.11,21004.0
863.383,21084.787
864.656,21014.252
865.93,21241.869
867.203,21397.076
868.475,21483.76
869.748,21296.93
871.02,21463.303
872.292,21488.105
873.564,21583.0
874.836,21614.0
876.108,21667.002
877.379,21667.0
878.65,21707.0
879.922,21874.0
881.192,21769.0
882.463,22016.0
883.733,21832.0
885.004,22083.0
886.274,22128.0
887.544,22012.0
888.813,22038.0
890.083,22137.598
891.352,22279.0
892.621,22401.0
893.89,22442.0
895.159,22592.0
896.427,22697.0
897.695,22713.0
898.964,22807.0
900.232,22966.0
901.499,22984.5
902.767,23140.0
904.034,23056.0
905.301,23219.0
906.568,23164.0
907.835,23266.0
909.102,23258.541
910.368,23352.0
911.634,23258.0
912.9,23240.0
914.166,23307.0
915.432,23241.0
916.697,23364.0
917.962,23012.0
919.227,22811.0
920.492,23019.0
921.757,22848.0
923.021,22864.0
924.285,22666.0
925.55,22710.0
926.813,22496.0
928.077,22566.0
929.341,22557.795
930.604,22551.711
931.867,22481.0
933.13,22672.0
934.393,22324.0
935.655,22394.0
936.918,22531.0
938.18,22346.0
939.442,22720.0
940.703,22525.0
941.965,22616.0
943.226,22884.0
944.488,22709.0
945.749,22622.0
947.009,22876.0
948.27,23185.0
949.53,23004.0
950.791,23130.0
952.051,23181.0
953.311,23208.0
954.57,23190.0
955.83,23242.0
957.089,23392.0
958.348,23139.0
959.607,23310.0
960.866,23184.0
962.124,23252.0
963.383,23073.0
964.641,23008.0
965.899,23104.0
967.156,23093.0
968.414,23111.0
969.671,23065.0
970.928,22834.703
972.185,23150.439
973.442,23333.631
974.699,23391.4
975.955,22948.086
977.211,23151.805
978.468,23096.232
979.723,23030.006
980.979,23324.791
982.234,22954.346
983.49,23208.0
984.745,23715.0
986.0,23133.0
987.254,23644.0
988.509,23637.0
989.763,23270.0
991.017,23640.0
992.271,23628.0
993.525,23439.0
994.779,23621.061
996.032,23953.0
997.285,23652.0
998.538,23622.0
999.791,23641.0
1001.044,23456.0
1002.296,23938.0
1003.548,23579.0
1004.8,23826.0
1006.052,23814.0
1007.304,23816.0
1008.555,24214.0
1009.807,24026.855
1011.058,24222.0
1012.309,23946.0
1013.559,24065.0
1014.81,24123.0
1016.06,24146.0
1017.31,24128.0
1018.56,24296.0
1019.81,24290.0
1021.06,24079.0
1022.309,24256.0
1023.558,24352.0
1024.807,24192.0
1026.056,24505.0
1027.305,24144.0
1028.553,24219.0
1029.801,24315.0
1031.049,24411.0
1032.297,24288.0
1033.545,24129.0
1034.793,24412.0
1036.04,24465.0
1037.287,24468.0
1038.534,24651.0
1039.781,24978.0
1041.027,24716.0
1042.274,24594.0
1043.52,24300.0
1044.766,24567.0
1046.012,24752.0
1047.257,24567.0
1048.503,24788.0
1049.748,24754.0
1050.993,24998.0
1052.238,24675.0
1053.483,25168.0
1054.727,25025.0
1055.971,24861.0
1057.216,25082.0
1058.459,25013.004
1059.703,25299.0
1060.947,25184.0
1062.19,25280.0
1063.433,25397.0
1064.676,25384.0
1065.919,25440.0
1067.162,25527.0
1068.404,25318.0
1069.646,25644.0
1070.888,25355.0
1072.13,25456.0
1073.372,25830.0
1074.613,25605.0
1075.855,25697.0
1077.096,25714.0
1078.337,25518.0
1079.578,25706.0
1080.818,25847.0
1082.059,25844.0
1083.299,25978.0
1084.539,26056.0
1085.779,26066.84
1087.018,26099.416
1088.258,26088.0
1089.497,26020.0
1090.736,25982.0
1091.975,25842.0
1093.213,25896.0
1094.452,25860.0
1095.69,25891.0
1096.928,25937.68
1098.166,25983.102
1099.404,26062.0
1100.642,26138.0
1101.879,26246.0
1103.116,26335.074
1104.353,26520.0
1105.59,26411.0
1106.827,26513.0
1108.063,26414.0
1109.299,26787.0
1110.536,26509.0
1111.771,26966.0
1113.007,26624.0
1114.243,26680.0
1115.478,26891.0
1116.713,26820.0
1117.948,26757.0
1119.183,26721.0
1120.418,26721.0
1121.652,26664.0
1122.886,26716.0
1124.12,26854.0
1125.354,26611.0
1126.588,26672.0
1127.821,26382.0
1129.055,26432.0
1130.288,26087.0
1131.521,26505.0
1132.753,26334.0
1133.986,26180.0
1135.218,25859.0
1136.45,25792.0
1137.682,26272.0
1138.914,25571.0
1140.146,26004.0
1141.377,25784.0
1142.609,25523.0
1143.84,25667.0
1145.071,25678.0
1146.301,25613.0
1147.532,25846.0
1148.762,25665.0
1149.992,25777.0
1151.222,25682.0
1152.452,25585.0
1153.682,25815.0
1154.911,25856.0
1156.14,25706.0
1157.369,25946.0
1158.598,25834.0
1159.827,25866.0
1161.055,25940.848
1162.284,25948.545
1163.512,26028.0
1164.74,26078.0
1165.967,26162.0
1167.195,26212.0
1168.422,26222.625
1169.65,26312.0
1170.877,26240.0
1172.103,26198.0
1173.33,26240.0
1174.557,26173.0
1175.783,26198.0
1177.009,26396.0
1178.235,26430.0
1179.461,26141.0
1180.686,26392.0
1181.912,26360.0
1183.137,26586.0
1184.362,26675.0
1185.587,26632.0
1186.811,26616.0
1188.036,26561.0
1189.26,26748.0
1190.484,26741.0
1191.708,26793.0
1192.932,26784.0
1194.155,26880.0
1195.378,26836.143
1196.602,26794.0
1197.825,26779.0
1199.047,26921.0
1200.27,26912.0
1201.492,26980.0
1202.715,26914.0
1203.937,27303.0
1205.159,26732.0
1206.38,27283.0
1207.602,27160.0
1208.823,27328.0
1210.044,26968.0
1211.265,27060.0
1212.486,27333.0
1213.707,27371.0
1214.927,27317.0
1216.147,27435.0
1217.367,27432.0
1218.587,27455.574
1219.807,27474.0
1221.027,27500.0
1222.246,27467.0
1223.465,27476.0
1224.684,27228.0
1225.903,27553.0
1227.121,27730.0
1228.34,27689.0
1229.558,27561.0
1230.776,27793.0
1231.994,27990.0
1233.212,27834.0
1234.429,27672.0
1235.646,27936.0
1236.864,27946.0
1238.081,27976.0
1239.297,28220.0
1240.514,27915.0
1241.73,28060.0
1242.947,28348.0
1244.163,27854.0
1245.378,28057.0
1246.594,28080.0
1247.81,28352.0
1249.025,28347.0
1250.24,28000.0
1251.455,28497.0
1252.67,28345.0
1253.885,28219.0
1255.099,28483.0
1256.313,28475.0
1257.527,28256.0
1258.741,28319.0
1259.955,28344.518
1261.168,28674.0
1262.382,28577.0
1263.595,28554.0
1264.808,28771.0
1266.021,28767.0
1267.233,28672.0
1268.446,28891.0
1269.658,28709.0
1270.87,28943.0
1272.082,28736.0
1273.294,28917.0
1274.505,29023.0
1275.716,28932.0
1276.928,28926.0
1278.139,29099.0
1279.349,29072.0
1280.56,29172.0
1281.77,29120.0
1282.981,29164.0
1284.191,29204.0
1285.401,29299.0
1286.61,29318.0
1287.82,29455.0
1289.029,29521.0
1290.239,29524.0
1291.448,29459.0
1292.656,29817.0
1293.865,29766.0
1295.073,29529.0
1296.282,29797.0
1297.49,29884.0
1298.698,29692.0
1299.906,29793.0
1301.113,30173.0
1302.32,30205.0
1303.528,30162.0
1304.735,30350.0
1305.942,30434.0
1307.148,30199.0
1308.355,30411.0
1309.561,30517.0
1310.767,30264.0
1311.973,30495.0
1313.179,30410.0
1314.384,30436.0
1315.59,30266.0
1316.795,30539.0
1318.0,30420.0
1319.205,30506.0
1320.41,30276.0
1321.614,30685.0
1322.819,30510.0
1324.023,30320.0
1325.227,30720.0
1326.431,30476.0
1327.634,30891.0
1328.838,30705.0
1330.041,30491.0
1331.244,30565.0
1332.447,30806.0
1333.65,31001.0
1334.852,31007.143
1336.055,30904.0
1337.257,31084.0
1338.459,30986.0
1339.661,31115.0
1340.862,30967.0
1342.064,31158.0
1343.265,31340.0
1344.466,31372.0
1345.667,31353.0
1346.868,31436.0
1348.068,31417.0
1349.269,31492.062
1350.469,31634.0
1351.669,31644.0
1352.869,31747.0
1354.069,31850.0
1355.268,31660.0
1356.468,31864.0
1357.667,31763.0
1358.866,31888.0
1360.065,32112.0
1361.263,31804.0
1362.462,32226.0
1363.66,31942.0
1364.858,31939.0
1366.056,32252.0
1367.254,32019.0
1368.451,32242.0
1369.649,32450.0
1370.846,32614.0
1372.043,32085.0
1373.24,32399.0
1374.436,32328.0
1375.633,32372.0
1376.829,32422.0
1378.025,32416.0
1379.221,32353.0
1380.417,32381.0
1381.613,32441.0
1382.808,32676.0
1384.003,32541.0
1385.199,32897.0
1386.393,32926.0
1387.588,32651.0
1388.783,32653.0
1389.977,33146.0
1391.171,32874.0
1392.365,33107.0
1393.559,33051.0
1394.753,32882.0
1395.946,33207.0
1397.14,33059.0
1398.333,33376.0
1399.526,33194.0
1400.719,33450.0
1401.911,33635.0
1403.104,33930.0
1404.296,33352.0
1405.488,33545.0
1406.68,33546.0
1407.872,33830.0
1409.063,33576.0
1410.255,33867.0
1411.446,33869.0
1412.637,33723.0
1413.828,34003.0
1415.018,33801.0
1416.209,34155.0
1417.399,34132.0
1418.589,34375.0
1419.779,34120.0
1420.969,34528.0
1422.159,34460.0
1423.348,34561.0
1424.537,34604.0
1425.726,34530.0
1426.915,34744.0
1428.104,34646.0
1429.293,34909.0
1430.481,34797.0
1431.669,35043.0
1432.857,35026.0
1434.045,35186.0
1435.233,35605.0
1436.42,35627.0
1437.608,36020.0
1438.795,36122.0
1439.982,36292.395
1441.169,36063.0
1442.355,36461.0
1443.542,36277.0
1444.728,36016.0
1445.914,36388.0
1447.1,36097.0
1448.286,36114.0
1449.472,36011.0
1450.657,35993.0
1451.842,35940.0
1453.027,36244.0
1454.212,36246.0
1455.397,36066.0
1456.581,36437.0
1457.766,36075.0
1458.95,36424.0
1460.134,36464.0
1461.318,36154.0
1462.501,36457.0
1463.685,36260.0
1464.868,36358.0
1466.051,36368.0
1467.234,35996.0
1468.417,36520.0
1469.6,36006.0
1470.782,36097.0
1471.965,36464.0
1473.147,36405.0
1474.329,36130.0
1475.51,36484.0
1476.692,36338.0
1477.873,36214.0
1479.055,36360.0
1480.236,36318.0
1481.416,36288.0
1482.597,36370.309
1483.778,36238.0
1484.958,36469.0
1486.138,36388.0
1487.318,36468.0
1488.498,36444.0
1489.678,36958.0
1490.857,36391.0
1492.037,36582.0
1493.216,36304.0
1494.395,36720.0
1495.574,36894.0
1496.752,36440.0
1497.931,36836.0
1499.109,36430.0
1500.287,36845.0
1501.465,36266.0
1502.643,36593.0
1503.82,36593.0
1504.998,36630.0
1506.175,36983.0
1507.352,36866.0
