Wavenumber (cm⁻¹),Intensity
200.0,9769.569703173616
201.00097751710655,9789.467270119952
202.0019550342131,9809.129736103634
203.00293255131965,9875.416111753868
204.0039100684262,9903.299720000048
205.00488758553274,9898.25681209104
206.0058651026393,9873.481185250137
207.00684261974584,9766.930113580554
208.0078201368524,9637.780371817618
209.00879765395894,9524.104966176206
210.00977517106548,9419.876619539884
211.01075268817203,9280.917453437361
212.01173020527858,9058.897188682091
213.01270772238513,8842.248134743295
214.01368523949168,8654.00907553748
215.01466275659823,8492.115366924765
216.01564027370478,8402.0839365964
217.01661779081132,8283.248448321869
218.01759530791787,8161.159732864102
219.01857282502445,8061.464020408456
220.019550342131,7963.071336981028
221.02052785923755,7914.205775498323
222.0215053763441,7880.98227088031
223.02248289345064,7857.437468617159
224.0234604105572,7851.75312110263
225.02443792766374,7842.046805523367
226.0254154447703,7777.950561375645
227.02639296187684,7759.937752472478
228.02737047898339,7807.589560440099
229.02834799608993,7765.111492933835
230.02932551319648,7772.308030511427
231.03030303030303,7787.3458884111815
232.03128054740958,7778.398747024818
233.03225806451613,7753.32655638137
234.03323558162268,7827.52648273489
235.03421309872923,7843.803585389393
236.03519061583577,7831.494329242604
237.03616813294232,7837.604254278538
238.03714565004887,7855.821739783162
239.03812316715542,7896.791131486696
240.03910068426197,7952.183362514479
241.04007820136852,8010.794408339775
242.04105571847506,8058.089202397745
243.0420332355816,8070.530012324907
244.0430107526882,8117.7938571795
245.04398826979474,8193.66765256171
246.0449657869013,8261.658972461028
247.04594330400784,8282.71810760008
248.04692082111438,8345.855466023831
249.04789833822093,8423.890581965956
250.04887585532748,8484.95132464373
251.04985337243403,8517.691608543635
252.05083088954058,8599.420711900506
253.05180840664713,8602.817319683367
254.05278592375367,8590.434517202659
255.05376344086022,8671.804101493692
256.05474095796677,8704.735421528203
257.0557184750733,8757.000445353631
258.05669599217987,8824.142479832955
259.0576735092864,8868.48240390553
260.05865102639297,8938.818601381663
261.0596285434995,8975.587683953776
262.06060606060606,9042.30600590221
263.0615835777126,9124.78537652779
264.06256109481916,9212.112222859303
265.0635386119257,9338.378126617763
266.06451612903226,9479.10114904551
267.0654936461388,9557.338491347016
268.06647116324535,9624.843594333033
269.0674486803519,9766.027946977449
270.06842619745845,9914.642865204223
271.069403714565,10057.121268122131
272.07038123167155,10176.326467166797
273.0713587487781,10311.191267223892
274.07233626588464,10535.483419961502
275.0733137829912,10686.227362692907
276.07429130009774,10919.311281954282
277.0752688172043,11128.959428709075
278.07624633431084,11237.74650874321
279.0772238514174,11481.799753966525
280.07820136852393,11634.683431080988
281.0791788856305,11876.103019919692
282.08015640273703,12093.873451418041
283.0811339198436,12329.065600005111
284.08211143695013,12531.99399508119
285.0830889540567,12729.52731671452
286.0840664711632,12849.40967005908
287.0850439882698,12890.974099622801
288.0860215053764,12936.063132375608
289.0869990224829,12941.032954881533
290.0879765395895,12839.993874197738
291.088954056696,12666.279899316341
292.0899315738026,12453.039189540783
293.0909090909091,12097.705652354267
294.09188660801567,11775.411086509948
295.0928641251222,11467.96160907709
296.09384164222877,11149.08593108959
297.0948191593353,10847.679264447257
298.09579667644186,10584.150665214474
299.0967741935484,10421.233200982262
300.09775171065496,10240.452684670325
301.0987292277615,9993.121948102185
302.09970674486806,9833.13175145335
303.1006842619746,9763.564121307218
304.10166177908116,9702.981828290667
305.1026392961877,9583.991765503559
306.10361681329425,9421.804750664603
307.1045943304008,9374.087841365514
308.10557184750735,9357.923403044233
309.1065493646139,9352.831247075
310.10752688172045,9333.095401684928
311.108504398827,9275.688144920105
312.10948191593354,9305.79689818108
313.1104594330401,9323.020365454533
314.11143695014664,9303.942120630598
315.1124144672532,9275.851821799099
316.11339198435974,9282.886853656706
317.1143695014663,9360.61845568417
318.11534701857283,9399.27491129676
319.1163245356794,9399.101220606815
320.11730205278593,9413.908948346705
321.1182795698925,9454.964674832108
322.119257086999,9488.101236620578
323.1202346041056,9580.024777852394
324.1212121212121,9690.158814900717
325.1221896383187,9716.841129367423
326.1231671554252,9723.318769467158
327.12414467253177,9777.512250144235
328.1251221896383,9838.819026978743
329.12609970674487,9877.879013550199
330.1270772238514,9899.354695505044
331.12805474095796,9871.574584372946
332.1290322580645,9864.011272356825
333.13000977517106,9884.117395778878
334.1309872922776,9884.419768579059
335.13196480938416,9792.380919262683
336.1329423264907,9760.659658323917
337.13391984359725,9726.030429531684
338.1348973607038,9664.361162714325
339.13587487781035,9605.419369583788
340.1368523949169,9628.915638214652
341.13782991202345,9626.906621208169
342.13880742913,9572.319746061698
343.13978494623655,9503.538496459263
344.1407624633431,9480.910890055178
345.14173998044964,9450.15528957236
346.1427174975562,9541.964833007189
347.14369501466274,9597.267394533083
348.1446725317693,9531.20687115996
349.14565004887584,9472.8787571238
350.1466275659824,9523.708908496734
351.14760508308893,9527.728393618218
352.1485826001955,9571.36182292828
353.14956011730203,9663.429607421347
354.1505376344086,9575.61963034261
355.1515151515151,9598.374436496862
356.1524926686217,9601.24916617
357.1534701857282,9610.69433534088
358.1544477028348,9659.578897865682
359.1554252199413,9602.873999903284
360.15640273704787,9580.956682557759
361.1573802541544,9539.610993962991
362.15835777126097,9551.396015086124
363.1593352883675,9667.656038282334
364.16031280547406,9647.093665178092
365.1612903225806,9695.061624706424
366.16226783968716,9702.247143315646
367.1632453567937,9691.12905830227
368.16422287390026,9770.67838749216
369.1652003910068,9779.725718530022
370.16617790811335,9752.861604336926
371.1671554252199,9727.946419694263
372.16813294232645,9704.358485911165
373.169110459433,9662.754962906462
374.17008797653955,9673.211440110805
375.1710654936461,9712.824877339544
376.1720430107527,9757.632146728136
377.17302052785925,9780.55407947147
378.1739980449658,9759.358230104606
379.17497556207235,9751.566092993893
380.1759530791789,9754.262260183179
381.17693059628544,9784.23454048283
382.177908113392,9844.668422616474
383.17888563049854,9901.276106751924
384.1798631476051,9899.479159660452
385.18084066471164,9873.001216485873
386.1818181818182,9914.027614659353
387.18279569892474,9987.82801736218
388.1837732160313,9941.793851246675
389.18475073313783,10013.837011076903
390.1857282502444,10038.843184410975
391.18670576735093,10073.395881850805
392.1876832844575,10166.419589807787
393.188660801564,10166.433520957411
394.1896383186706,10270.838581535692
395.1906158357771,10326.581284695927
396.1915933528837,10350.774933484838
397.1925708699902,10403.790439020959
398.19354838709677,10436.517395065941
399.1945259042033,10445.574216849833
400.19550342130987,10498.510777423147
401.1964809384164,10562.308617509783
402.19745845552296,10600.851348783011
403.1984359726295,10682.067416935886
404.19941348973606,10693.901237127888
405.2003910068426,10753.728207769727
406.20136852394916,10821.291254960834
407.2023460410557,10825.706775166605
408.20332355816225,10856.465336051158
409.20430107526886,10907.948032465492
410.2052785923754,10943.491646120969
411.20625610948196,10967.331923776377
412.2072336265885,10982.802469472614
413.20821114369505,10948.601382860325
414.2091886608016,10923.033447652751
415.21016617790815,10893.282672906067
416.2111436950147,10807.69523071795
417.21212121212125,10679.964555511551
418.2130987292278,10657.916311522393
419.21407624633434,10611.130797445925
420.2150537634409,10547.36940948315
421.21603128054744,10520.327300884876
422.217008797654,10558.0580474476
423.21798631476054,10582.906165164502
424.2189638318671,10432.530386181097
425.21994134897363,10486.527143338562
426.2209188660802,10605.974538416665
427.22189638318673,10553.046937019793
428.2228739002933,10518.980947796206
429.2238514173998,10507.425479694064
430.2248289345064,10555.281629266146
431.2258064516129,10609.290903506835
432.2267839687195,10612.483092704382
433.227761485826,10609.835212664211
434.22873900293257,10680.586038628657
435.2297165200391,10736.789303181533
436.23069403714567,10769.662302986506
437.2316715542522,10802.350266265441
438.23264907135876,10822.795739247818
439.2336265884653,10883.975445853033
440.23460410557186,10944.655950719025
441.2355816226784,11012.492592889466
442.23655913978496,11087.11979578591
443.2375366568915,11128.014190750268
444.23851417399806,11150.43460891104
445.2394916911046,11241.455075317077
446.24046920821115,11301.590657004637
447.2414467253177,11338.821694210917
448.24242424242425,11526.004146694075
449.2434017595308,11555.235710962728
450.24437927663735,11645.091613673727
451.2453567937439,11681.697821726508
452.24633431085044,11680.551701475888
453.247311827957,11860.78752581113
454.24828934506354,11995.534476860059
455.2492668621701,12005.578944062541
456.25024437927664,12039.621874584209
457.2512218963832,12145.36688682801
458.25219941348973,12233.139096686617
459.2531769305963,12273.869520181235
460.25415444770283,12317.426239695871
461.2551319648094,12365.659591212563
462.2561094819159,12437.182520653874
463.2570869990225,12555.33354610602
464.258064516129,12694.173956730576
465.2590420332356,12801.137312042885
466.2600195503421,13032.839274137279
467.26099706744867,13307.418574665726
468.2619745845552,13492.991259160042
469.26295210166177,13727.167173710324
470.2639296187683,14037.876497383071
471.26490713587486,14466.910216012835
472.2658846529814,14887.151473258795
473.26686217008796,15220.228822660623
474.2678396871945,15624.78313791911
475.26881720430106,16115.246062879014
476.2697947214076,16531.274333022488
477.27077223851416,16887.860752156925
478.2717497556207,17212.859626643603
479.27272727272725,17410.12128415455
480.2737047898338,17319.11279798406
481.27468230694035,17016.898006349715
482.2756598240469,16661.85088996029
483.27663734115345,16307.683532056628
484.27761485826,15916.612884119433
485.27859237536654,15473.866866859984
486.2795698924731,15152.041849078743
487.28054740957964,14867.364594443934
488.2815249266862,14599.885828143124
489.2825024437928,14455.670224384885
490.28347996089934,14573.938109921415
491.2844574780059,14623.033350961488
492.28543499511244,14708.316684319549
493.286412512219,14899.716886158902
494.28739002932554,15198.870344278244
495.2883675464321,15630.69003467734
496.28934506353863,16087.923353058062
497.2903225806452,16664.20603575755
498.29130009775173,17330.998029128048
499.2922776148583,18053.442162370862
500.2932551319648,18854.133375347734
501.2942326490714,19761.645519328053
502.2952101661779,20706.673771993406
503.2961876832845,21601.299768279197
504.297165200391,22541.226310753915
505.29814271749757,23542.968812640138
506.2991202346041,24036.215057364512
507.30009775171067,24277.606773548763
508.3010752688172,24280.905792422487
509.30205278592376,23841.17549214368
510.3030303030303,22940.963807521384
511.30400782013686,22022.16321241806
512.3049853372434,20753.76307391231
513.3059628543499,19557.158053524454
514.3069403714564,18477.40418253235
515.307917888563,17502.743414202563
516.3088954056695,16727.09217903593
517.3098729227761,15981.997018191689
518.3108504398826,15392.512512464295
519.3118279569892,14940.456039303883
520.3128054740957,14583.650661388387
521.3137829912023,14283.5958703815
522.3147605083088,13950.506897160809
523.3157380254154,13664.569009723082
524.3167155425219,13476.247950608327
525.3176930596285,13323.202926689475
526.318670576735,13142.570937461427
527.3196480938416,12966.058182566381
528.3206256109481,12867.932867036792
529.3216031280547,12770.332432411722
530.3225806451612,12726.368985018498
531.3235581622678,12687.110054853292
532.3245356793743,12548.930943041434
533.3255131964809,12482.777731004573
534.3264907135874,12443.051888769467
535.327468230694,12426.826860264122
536.3284457478005,12426.497888958436
537.3294232649071,12420.686871866186
538.3304007820136,12372.585721005027
539.3313782991202,12328.83545220355
540.3323558162267,12368.534682104171
541.3333333333333,12368.234277616486
542.3343108504398,12324.572479420129
543.3352883675464,12368.596281272283
544.3362658846529,12339.708507812638
545.3372434017595,12290.773285631472
546.338220918866,12305.843257749624
547.3391984359725,12348.71065600682
548.3401759530791,12372.638492178341
549.3411534701856,12451.594847306798
550.3421309872922,12453.466953068435
551.3431085043987,12437.51964154259
552.3440860215054,12501.393528135195
553.345063538612,12592.427400660154
554.3460410557185,12563.18300388513
555.347018572825,12613.0844374532
556.3479960899316,12641.543523187796
557.3489736070381,12675.276531030846
558.3499511241447,12751.354267507972
559.3509286412512,12826.865612698031
560.3519061583578,12804.794198949976
561.3528836754643,12963.096934959738
562.3538611925709,13020.760478954995
563.3548387096774,13074.158445176017
564.355816226784,13159.223727589782
565.3567937438905,13184.740818245287
566.3577712609971,13276.620263503823
567.3587487781036,13355.090563777218
568.3597262952102,13402.000486390289
569.3607038123167,13480.23633967594
570.3616813294233,13573.833145502877
571.3626588465298,13544.67377226913
572.3636363636364,13404.838811638474
573.3646138807429,13402.625759432676
574.3655913978495,13417.287577645293
575.366568914956,13362.150938823972
576.3675464320626,13274.873999845495
577.3685239491691,13259.18628619738
578.3695014662757,13194.67429824065
579.3704789833822,13133.85280899202
580.3714565004888,13025.10588013746
581.3724340175953,12928.200636103898
582.3734115347019,12988.556806495611
583.3743890518084,12898.624662466647
584.375366568915,12902.360129963961
585.3763440860215,12854.692222356047
586.377321603128,12782.64522711508
587.3782991202346,12789.577300033692
588.3792766373411,12793.3111699061
589.3802541544477,12851.855495195243
590.3812316715542,12858.93036851239
591.3822091886608,12791.197506037754
592.3831867057673,12743.578812921962
593.3841642228739,12804.677592497632
594.3851417399804,12814.991207757768
595.386119257087,12811.84281071753
596.3870967741935,12809.774252029094
597.3880742913001,12834.679250451965
598.3890518084066,12881.059476958395
599.3900293255132,12905.681983258726
600.3910068426197,12896.001235048874
601.3919843597263,12935.522741975023
602.3929618768328,12949.758148374567
603.3939393939394,12960.142851539666
604.3949169110459,13008.442458298383
605.3958944281525,13043.138432037013
606.396871945259,13029.807231615187
607.3978494623656,13077.608731557499
608.3988269794721,13141.41271438921
609.3998044965787,13178.112615252632
610.4007820136852,13197.692349198063
611.4017595307918,13209.275403875154
612.4027370478983,13196.36939785676
613.4037145650049,13213.486518210184
614.4046920821114,13261.185965707213
615.405669599218,13295.206976339463
616.4066471163245,13288.787382985363
617.4076246334312,13321.968992192436
618.4086021505377,13376.529736033886
619.4095796676443,13358.346858566998
620.4105571847508,13392.442874678749
621.4115347018574,13474.344298846909
622.4125122189639,13454.777824100856
623.4134897360705,13536.114604506962
624.414467253177,13475.453311814163
625.4154447702836,13517.970731973983
626.4164222873901,13598.745024016273
627.4173998044967,13604.841912979284
628.4183773216032,13623.156960862618
629.4193548387098,13658.975532047292
630.4203323558163,13636.703203236977
631.4213098729228,13617.912708099524
632.4222873900294,13672.413976097982
633.423264907136,13757.894903603756
634.4242424242425,13714.442137303331
635.425219941349,13617.339634176233
636.4261974584556,13638.460979461599
637.4271749755621,13658.05852619172
638.4281524926687,13722.175783768598
639.4291300097752,13837.802483079993
640.4301075268818,13771.178266053756
641.4310850439883,13776.524645469086
642.4320625610949,13825.423832886952
643.4330400782014,13820.72381050034
644.434017595308,13786.511300779033
645.4349951124145,13783.50239187142
646.4359726295211,13789.483656335638
647.4369501466276,13843.274311635136
648.4379276637342,13889.120620608805
649.4389051808407,13910.936199988404
650.4398826979473,13912.46641037105
651.4408602150538,13904.185182389769
652.4418377321604,13910.428438076866
653.4428152492669,13966.359320385338
654.4437927663735,13942.284873455028
655.44477028348,13956.152470940613
656.4457478005866,14003.299646779942
657.4467253176931,13998.923784844448
658.4477028347997,13979.973171194453
659.4486803519062,14080.691775194184
660.4496578690128,14046.77985332985
661.4506353861193,14040.940806203234
662.4516129032259,14094.516757666393
663.4525904203324,14065.928765033554
664.453567937439,13969.5996746557
665.4545454545455,14006.03072127624
666.455522971652,14011.633381574542
667.4565004887586,14070.86870208397
668.4574780058651,14137.10259330361
669.4584555229717,14104.758590151063
670.4594330400782,14055.90129964762
671.4604105571848,14127.940074697635
672.4613880742913,14103.137989449464
673.4623655913979,14089.90706706546
674.4633431085044,14096.974132817018
675.464320625611,14088.502426105812
676.4652981427175,14173.500344687824
677.4662756598241,14251.924222539345
678.4672531769306,14196.827787023733
679.4682306940372,14177.709148426677
680.4692082111437,14211.796934075688
681.4701857282503,14216.961013105945
682.4711632453568,14191.354427471208
683.4721407624634,14163.669818780249
684.4731182795699,14241.802325578283
685.4740957966765,14230.672258490313
686.475073313783,14183.41274312748
687.4760508308896,14210.410746252497
688.4770283479961,14264.00563686527
689.4780058651027,14297.69459362088
690.4789833822092,14264.928457149123
691.4799608993158,14277.90320300583
692.4809384164223,14342.983226329474
693.4819159335289,14401.54961758217
694.4828934506354,14417.615454350804
695.483870967742,14411.682086034889
696.4848484848485,14431.360293853282
697.485826001955,14441.785455455858
698.4868035190616,14515.668824169192
699.4877810361681,14604.753437705234
700.4887585532747,14596.74366361489
701.4897360703812,14603.016835533203
702.4907135874878,14625.445497780462
703.4916911045943,14671.052307850774
704.4926686217009,14667.85676525173
705.4936461388074,14669.784038633927
706.494623655914,14722.018937935065
707.4956011730205,14687.998968406184
708.4965786901271,14708.585467080222
709.4975562072336,14799.499834829612
710.4985337243402,14813.259196562449
711.4995112414467,14836.92962445784
712.5004887585533,14935.19803029695
713.5014662756598,14948.556084268423
714.5024437927664,14950.322515000864
715.5034213098729,14900.517564334288
716.5043988269795,14888.56567719064
717.505376344086,14890.685108407883
718.5063538611926,14912.335424413115
719.5073313782991,15000.023195568507
720.5083088954057,15047.897390826181
721.5092864125122,15035.60416928382
722.5102639296188,15106.462980800638
723.5112414467253,15173.482611572495
724.5122189638319,15167.319455307435
725.5131964809384,15130.952728112163
726.514173998045,15147.897500135343
727.5151515151515,15169.65615262771
728.516129032258,15135.721438866252
729.5171065493646,15125.638034610714
730.5180840664711,15146.602373213233
731.5190615835777,15164.883436395388
732.5200391006842,15181.039688019768
733.5210166177908,15197.359373075153
734.5219941348973,15207.570365197227
735.5229716520039,15264.130033720485
736.5239491691104,15319.5678254107
737.524926686217,15329.11682210831
738.5259042033235,15311.921169705365
739.5268817204301,15317.674493735962
740.5278592375366,15389.985239826246
741.5288367546432,15422.232889673172
742.5298142717497,15430.212115033954
743.5307917888563,15443.717726205183
