Raman shift,Intensity
774.64409,151.9766
790.18748,166.89643
805.73086,151.9766
821.27425,113.99887
825.93727,107.21713
827.49161,105.86078
827.49161,104.50443
827.49161,132.98774
827.49161,131.63139
827.49161,130.27504
827.49161,128.91869
827.49161,127.56235
827.49161,126.206
827.49161,124.84965
827.49161,134.34408
827.49161,108.57348
829.04594,109.92982
829.04594,111.28617
829.04594,123.4933
829.04594,135.70043
830.60028,137.05678
830.60028,113.99887
830.60028,112.64252
830.60028,122.13695
832.15462,120.78061
832.15462,119.42426
832.15462,149.26391
832.15462,116.71156
832.15462,138.41313
832.15462,115.35522
832.15462,118.06791
832.15462,147.90756
833.70896,153.33295
833.70896,151.9766
833.70896,146.55121
833.70896,142.48217
833.70896,139.76947
833.70896,150.62026
833.70896,141.12582
833.70896,154.6893
835.2633,143.83852
835.2633,156.04565
835.2633,145.19487
835.2633,157.402
836.81764,156.04565
836.81764,160.11469
836.81764,158.75834
836.81764,147.90756
838.37198,161.47104
838.37198,162.82739
839.92632,164.18373
839.92632,166.89643
839.92632,165.54008
839.92632,168.25278
841.48066,168.25278
841.48066,169.60913
843.03499,169.60913
843.03499,170.96547
843.03499,172.32182
844.58933,172.32182
846.14367,172.32182
847.69801,172.32182
847.69801,173.67817
847.69801,175.03452
849.25235,175.03452
849.25235,176.39086
850.80669,175.03452
852.36103,173.67817
852.36103,173.67817
853.91537,175.03452
855.4697,173.67817
857.02404,173.67817
857.02404,175.03452
857.02404,176.39086
857.02404,177.74721
857.02404,179.10356
857.02404,172.32182
858.57838,180.45991
858.57838,179.10356
860.13272,180.45991
861.68706,180.45991
861.68706,181.81626
863.2414,181.81626
864.79574,181.81626
866.35008,181.81626
867.90441,181.81626
869.45875,181.81626
871.01309,181.81626
872.56743,188.59799
872.56743,189.95434
872.56743,188.59799
872.56743,181.81626
872.56743,183.1726
872.56743,184.52895
872.56743,185.8853
872.56743,187.24165
872.56743,191.31069
872.56743,192.66704
874.12177,192.66704
874.12177,194.02338
875.67611,194.02338
875.67611,195.37973
877.23045,194.02338
878.78479,192.66704
880.33912,191.31069
881.89346,188.59799
881.89346,189.95434
881.89346,191.31069
883.4478,188.59799
883.4478,187.24165
883.4478,185.8853
885.00214,185.8853
885.00214,184.52895
885.00214,183.1726
885.00214,181.81626
885.00214,179.10356
885.00214,180.45991
886.55648,177.74721
886.55648,176.39086
886.55648,175.03452
888.11082,173.67817
888.11082,170.96547
888.11082,181.81626
889.66516,172.32182
889.66516,169.60913
889.66516,168.25278
889.66516,166.89643
891.2195,164.18373
891.2195,162.82739
891.2195,161.47104
891.2195,160.11469
891.2195,165.54008
892.77384,157.402
892.77384,156.04565
892.77384,158.75834
894.32817,154.6893
895.88251,154.6893
897.43685,154.6893
898.99119,154.6893
900.54553,154.6893
902.09987,151.9766
902.09987,150.62026
902.09987,149.26391
902.09987,146.55121
902.09987,147.90756
902.09987,153.33295
902.09987,154.6893
902.09987,145.19487
902.09987,143.83852
903.65421,143.83852
903.65421,142.48217
903.65421,146.55121
905.20855,141.12582
905.20855,142.48217
906.76288,141.12582
908.31722,142.48217
909.87156,143.83852
911.4259,145.19487
912.98024,146.55121
914.53458,146.55121
914.53458,147.90756
914.53458,149.26391
914.53458,145.19487
916.08892,150.62026
916.08892,149.26391
917.64326,150.62026
919.19759,150.62026
919.19759,150.62026
920.75193,151.9766
920.75193,153.33295
922.30627,154.6893
923.86061,156.04565
925.41495,158.75834
925.41495,157.402
925.41495,160.11469
926.96929,161.47104
926.96929,158.75834
926.96929,162.82739
934.74098,149.26391
950.28437,132.98774
965.82776,147.90756
981.37115,137.05678
996.91453,105.86078
1012.45792,109.92982
1028.00131,138.41313
1043.5447,143.83852
1059.08808,161.47104
1074.63147,143.83852
1088.62052,141.12582
1088.62052,147.90756
1088.62052,146.55121
1088.62052,142.48217
1090.17486,143.83852
1090.17486,145.19487
1090.17486,139.76947
1090.17486,141.12582
1091.7292,141.12582
1093.28354,141.12582
1094.83788,141.12582
1094.83788,139.76947
1094.83788,138.41313
1094.83788,137.05678
1094.83788,128.91869
1094.83788,123.4933
1094.83788,120.78061
1094.83788,122.13695
1094.83788,127.56235
1096.39222,130.27504
1096.39222,120.78061
1096.39222,126.206
1096.39222,137.05678
1096.39222,132.98774
1096.39222,124.84965
1096.39222,135.70043
1097.94655,131.63139
1097.94655,134.34408
1097.94655,120.78061
1099.50089,120.78061
1099.50089,119.42426
1101.05523,119.42426
1102.60957,119.42426
1104.16391,119.42426
1104.16391,112.64252
1104.16391,113.99887
1104.16391,111.28617
1104.16391,118.06791
1104.16391,116.71156
1105.71825,115.35522
1105.71825,107.21713
1105.71825,111.28617
1107.27259,111.28617
1107.27259,97.72269
1107.27259,96.36635
1107.27259,93.65365
1107.27259,95.01
1107.27259,90.94096
1108.82693,86.87191
1108.82693,105.86078
1108.82693,107.21713
1108.82693,108.57348
1108.82693,109.92982
1108.82693,99.07904
1108.82693,92.2973
1108.82693,89.58461
1108.82693,88.22826
1108.82693,85.51556
1110.38126,105.86078
1110.38126,104.50443
1110.38126,84.15922
1110.38126,100.43539
1111.9356,104.50443
1111.9356,103.14809
1111.9356,101.79174
1111.9356,82.80287
1113.48994,82.80287
1115.04428,77.37748
1115.04428,74.66478
1115.04428,76.02113
1115.04428,78.73383
1115.04428,81.44652
1116.59862,73.30844
1116.59862,80.09017
1118.15296,69.23939
1118.15296,70.59574
1118.15296,71.95209
1121.26164,78.73383
1136.80502,99.07904
1152.34841,109.92982
1167.8918,103.14809
1183.43519,81.44652
1198.97858,101.79174
1206.75027,130.27504
1206.75027,131.63139
1208.30461,127.56235
1208.30461,128.91869
1209.85895,120.78061
1209.85895,127.56235
1209.85895,126.206
1209.85895,124.84965
1209.85895,123.4933
1209.85895,122.13695
1211.41329,120.78061
1212.96762,120.78061
1214.52196,119.42426
1214.52196,120.78061
1216.0763,119.42426
1217.63064,112.64252
1217.63064,116.71156
1217.63064,115.35522
1217.63064,113.99887
1217.63064,118.06791
1217.63064,111.28617
1217.63064,109.92982
1219.18498,108.57348
1219.18498,107.21713
1219.18498,105.86078
1219.18498,104.50443
1220.73932,103.14809
1222.29366,100.43539
1222.29366,103.14809
1222.29366,101.79174
1223.848,100.43539
1223.848,97.72269
1223.848,99.07904
1225.40233,96.36635
1225.40233,97.72269
1226.95667,96.36635
1228.51101,96.36635
1230.06535,95.01
1230.06535,96.36635
1231.61969,96.36635
1233.17403,96.36635
1234.72837,93.65365
1234.72837,95.01
1234.72837,90.94096
1234.72837,92.2973
1236.28271,90.94096
1236.28271,88.22826
1236.28271,86.87191
1236.28271,89.58461
1237.83705,85.51556
1237.83705,84.15922
1237.83705,86.87191
1239.39138,82.80287
1240.94572,84.15922
1242.50006,85.51556
1244.0544,86.87191
1245.60874,86.87191
1245.60874,85.51556
1247.16308,85.51556
1248.71742,84.15922
1250.27176,82.80287
1251.82609,81.44652
1253.38043,82.80287
1254.93477,82.80287
1256.48911,82.80287
1258.04345,82.80287
1259.59779,84.15922
1261.15213,96.36635
1261.15213,86.87191
1261.15213,85.51556
1262.70647,112.64252
1262.70647,111.28617
1262.70647,109.92982
1262.70647,86.87191
1262.70647,88.22826
1264.2608,108.57348
1264.2608,90.94096
1264.2608,92.2973
1264.2608,93.65365
1264.2608,113.99887
1264.2608,89.58461
1264.2608,95.01
1265.81514,105.86078
1265.81514,96.36635
1265.81514,97.72269
1265.81514,99.07904
1265.81514,113.99887
1265.81514,101.79174
1265.81514,103.14809
1265.81514,104.50443
1265.81514,107.21713
1267.36948,113.99887
1267.36948,100.43539
1268.92382,113.99887
1270.47816,118.06791
1270.47816,113.99887
1270.47816,115.35522
1270.47816,116.71156
1272.0325,126.206
1272.0325,119.42426
1272.0325,120.78061
1272.0325,122.13695
1272.0325,123.4933
1272.0325,124.84965
1273.58684,128.91869
1273.58684,126.206
1273.58684,127.56235
1275.14118,131.63139
1275.14118,128.91869
1275.14118,130.27504
1276.69551,126.206
1276.69551,132.98774
1278.24985,132.98774
1278.24985,134.34408
1279.80419,134.34408
1281.35853,134.34408
1282.91287,134.34408
1284.46721,134.34408
1286.02155,134.34408
1287.57589,135.70043
1289.13022,137.05678
1289.13022,138.41313
1290.68456,138.41313
1290.68456,139.76947
1292.2389,146.55121
1292.2389,143.83852
1292.2389,142.48217
1292.2389,146.55121
1292.2389,147.90756
1292.2389,139.76947
1292.2389,141.12582
1292.2389,145.19487
1293.79324,150.62026
1293.79324,149.26391
1293.79324,147.90756
1295.34758,150.62026
1296.90192,150.62026
1298.45626,150.62026
1300.0106,150.62026
1300.0106,151.9766
1300.0106,153.33295
1301.56494,153.33295
1303.11927,165.54008
1303.11927,154.6893
1303.11927,156.04565
1303.11927,157.402
1303.11927,158.75834
1303.11927,160.11469
1303.11927,161.47104
1303.11927,162.82739
1303.11927,164.18373
1303.11927,168.25278
1303.11927,166.89643
1303.11927,169.60913
1304.67361,170.96547
1304.67361,169.60913
1306.22795,170.96547
1307.78229,168.25278
1307.78229,170.96547
1309.33663,172.32182
1310.89097,172.32182
1312.44531,172.32182
1313.99965,172.32182
1315.55398,170.96547
1315.55398,157.402
1315.55398,158.75834
1315.55398,160.11469
1315.55398,156.04565
1317.10832,165.54008
1317.10832,166.89643
1317.10832,162.82739
1317.10832,161.47104
1317.10832,168.25278
1317.10832,169.60913
1317.10832,170.96547
1317.10832,164.18373
1317.10832,154.6893
1318.66266,153.33295
1320.217,146.55121
1320.217,145.19487
1320.217,143.83852
1320.217,142.48217
1320.217,151.9766
1321.77134,147.90756
1321.77134,150.62026
1321.77134,141.12582
1323.32568,149.26391
1323.32568,149.26391
1323.32568,139.76947
1324.88002,139.76947
1324.88002,138.41313
1326.43436,138.41313
1327.98869,139.76947
1329.54303,141.12582
1331.09737,142.48217
1332.65171,143.83852
1334.20605,143.83852
1335.76039,142.48217
1337.31473,141.12582
1338.86907,139.76947
1338.86907,139.76947
1340.4234,139.76947
1341.97774,138.41313
1343.53208,137.05678
1345.08642,135.70043
1346.64076,134.34408
1346.64076,132.98774
1348.1951,132.98774
1354.41245,160.11469
1369.95584,149.26391
1385.49923,151.9766
1401.04262,154.6893
1416.58601,147.90756
1432.12939,149.26391
1447.67278,138.41313
1463.21617,138.41313
1478.75956,153.33295
1494.30294,215.72495
1503.62898,225.21938
1503.62898,226.57573
1503.62898,223.86304
1505.18332,207.58686
1505.18332,208.94321
1505.18332,221.15034
1505.18332,222.50669
1505.18332,206.23051
1505.18332,204.87417
1505.18332,226.57573
1506.73765,203.51782
1506.73765,210.29956
1506.73765,202.16147
1506.73765,213.01225
1506.73765,200.80512
1506.73765,219.79399
1506.73765,199.44878
1506.73765,198.09243
1508.29199,218.43764
1508.29199,195.37973
1508.29199,196.73608
1508.29199,187.24165
1508.29199,188.59799
1508.29199,192.66704
1508.29199,217.0813
1508.29199,211.65591
1508.29199,214.3686
1508.29199,215.72495
1508.29199,194.02338
1509.84633,191.31069
1509.84633,189.95434
1509.84633,181.81626
1509.84633,198.09243
1509.84633,185.8853
1509.84633,184.52895
1509.84633,183.1726
1509.84633,180.45991
1511.40067,179.10356
1512.95501,169.60913
1512.95501,177.74721
1512.95501,168.25278
1512.95501,170.96547
1512.95501,172.32182
1512.95501,164.18373
1512.95501,165.54008
1512.95501,166.89643
1514.50935,176.39086
1514.50935,162.82739
1514.50935,160.11469
1514.50935,173.67817
1514.50935,157.402
1514.50935,161.47104
1516.06369,175.03452
1516.06369,153.33295
1516.06369,158.75834
1516.06369,156.04565
1516.06369,154.6893
1517.61803,151.9766
1517.61803,150.62026
1519.17236,149.26391
1520.7267,147.90756
1520.7267,146.55121
1520.7267,145.19487
1522.28104,156.04565
1522.28104,154.6893
1522.28104,153.33295
1522.28104,151.9766
1522.28104,145.19487
1522.28104,149.26391
1522.28104,147.90756
1522.28104,146.55121
1523.83538,150.62026
1523.83538,157.402
1525.38972,177.74721
1525.38972,158.75834
1526.94406,160.11469
1526.94406,161.47104
1526.94406,162.82739
1526.94406,164.18373
1526.94406,169.60913
1528.4984,165.54008
1528.4984,168.25278
1528.4984,166.89643
1528.4984,170.96547
1528.4984,172.32182
1528.4984,173.67817
1528.4984,175.03452
1528.4984,179.10356
1528.4984,181.81626
1528.4984,180.45991
1530.05274,176.39086
1530.05274,177.74721
1530.05274,183.1726
1530.05274,184.52895
1530.05274,189.95434
1531.60708,187.24165
1531.60708,185.8853
1531.60708,191.31069
1531.60708,192.66704
1531.60708,194.02338
1531.60708,195.37973
1531.60708,202.16147
1531.60708,188.59799
1533.16141,196.73608
1533.16141,211.65591
1533.16141,198.09243
1533.16141,203.51782
1533.16141,207.58686
1533.16141,206.23051
1533.16141,204.87417
1533.16141,200.80512
1533.16141,199.44878
1534.71575,208.94321
1534.71575,210.29956
1534.71575,214.3686
1534.71575,213.01225
1534.71575,219.79399
1536.27009,217.0813
1536.27009,218.43764
1536.27009,215.72495
1536.27009,221.15034
1536.27009,222.50669
1536.27009,223.86304
1536.27009,225.21938
1536.27009,229.28843
1537.82443,227.93208
1537.82443,237.42651
1537.82443,233.35747
1537.82443,232.00112
1537.82443,230.64477
1537.82443,226.57573
1537.82443,242.8519
1539.37877,234.71382
1539.37877,238.78286
1539.37877,240.13921
1539.37877,252.34634
1539.37877,241.49556
1539.37877,244.20825
1539.37877,236.07017
1539.37877,253.70269
1540.93311,248.27729
1540.93311,245.5646
1540.93311,246.92095
1540.93311,249.63364
1540.93311,250.98999
1540.93311,255.05903
1542.48745,265.90982
1542.48745,257.77173
1542.48745,259.12808
1542.48745,260.48442
1542.48745,261.84077
1542.48745,263.19712
1542.48745,264.55347
1542.48745,256.41538
1544.04179,271.33521
1544.04179,269.97886
1544.04179,268.62251
1544.04179,267.26616
1544.04179,274.0479
1544.04179,272.69155
1545.59612,278.11695
1545.59612,275.40425
1547.15046,283.54234
1547.15046,276.7606
1547.15046,279.47329
1547.15046,280.82964
1547.15046,282.18599
1547.15046,284.89868
1548.7048,287.61138
1548.7048,284.89868
1548.7048,286.25503
1548.7048,288.96773
1550.25914,294.39312
1550.25914,288.96773
1550.25914,290.32408
1550.25914,291.68042
1550.25914,293.03677
1551.81348,295.74947
1553.36782,297.10581
1554.92216,295.74947
1556.4765,294.39312
1558.03083,291.68042
1558.03083,293.03677
1558.03083,290.32408
1558.03083,288.96773
1559.58517,288.96773
1559.58517,287.61138
1559.58517,286.25503
1561.13951,282.18599
1561.13951,286.25503
1561.13951,284.89868
1561.13951,283.54234
1562.69385,279.47329
1562.69385,280.82964
1564.24819,278.11695
1565.80253,272.69155
1565.80253,276.7606
1565.80253,271.33521
1565.80253,269.97886
1567.35687,267.26616
1567.35687,274.0479
1567.35687,275.40425
1567.35687,265.90982
1567.35687,264.55347
1567.35687,268.62251
1568.91121,260.48442
1568.91121,263.19712
1568.91121,261.84077
1570.46554,248.27729
1570.46554,259.12808
1570.46554,257.77173
1570.46554,256.41538
1570.46554,249.63364
1570.46554,246.92095
1570.46554,250.98999
1572.01988,255.05903
1572.01988,242.8519
1572.01988,252.34634
1572.01988,244.20825
1572.01988,245.5646
1572.01988,238.78286
1572.01988,240.13921
1573.57422,241.49556
1573.57422,236.07017
1573.57422,237.42651
1573.57422,253.70269
1575.12856,248.27729
1575.12856,234.71382
1575.12856,233.35747
1575.12856,232.00112
1575.12856,230.64477
1576.6829,229.28843
1578.23724,229.28843
1578.23724,225.21938
1578.23724,227.93208
1578.23724,226.57573
1579.79158,223.86304
1579.79158,225.21938
1581.34592,223.86304
1581.34592,222.50669
1582.90026,221.15034
1584.45459,221.15034
1586.00893,221.15034
1587.56327,219.79399
1587.56327,221.15034
1589.11761,219.79399
1589.11761,217.0813
1589.11761,218.43764
1590.67195,232.00112
1606.21534,272.69155
1621.75872,233.35747
1637.30211,225.21938
1646.62815,249.63364
1646.62815,248.27729
1646.62815,246.92095
1648.18248,245.5646
1648.18248,244.20825
1648.18248,240.13921
1648.18248,242.8519
1648.18248,241.49556
1648.18248,237.42651
1648.18248,238.78286
1649.73682,237.42651
1651.29116,237.42651
1652.8455,233.35747
1652.8455,236.07017
1654.39984,226.57573
1654.39984,234.71382
1654.39984,233.35747
1654.39984,232.00112
1654.39984,230.64477
1654.39984,229.28843
1654.39984,227.93208
1654.39984,223.86304
1654.39984,225.21938
1655.95418,223.86304
1657.50852,223.86304
1659.06286,223.86304
1660.61719,223.86304
1660.61719,221.15034
1660.61719,222.50669
1660.61719,219.79399
1662.17153,218.43764
1662.17153,217.0813
1663.72587,211.65591
1663.72587,217.0813
1663.72587,215.72495
1663.72587,214.3686
1663.72587,213.01225
1665.28021,208.94321
1665.28021,211.65591
1665.28021,210.29956
1666.83455,207.58686
1666.83455,208.94321
1668.38889,211.65591
1668.38889,207.58686
1668.38889,206.23051
1669.94323,206.23051
1671.49757,206.23051
1671.49757,204.87417
1673.0519,203.51782
1673.0519,202.16147
1674.60624,202.16147
1676.16058,202.16147
1676.16058,200.80512
1677.71492,200.80512
1679.26926,200.80512
1680.8236,200.80512
1682.37794,196.73608
1682.37794,198.09243
1682.37794,199.44878
1682.37794,200.80512
1682.37794,195.37973
1683.93228,195.37973
1683.93228,194.02338
1683.93228,204.87417
1685.48661,194.02338
1687.04095,194.02338
1688.59529,192.66704
1688.59529,191.31069
1688.59529,189.95434
1688.59529,188.59799
1688.59529,187.24165
1688.59529,185.8853
1688.59529,184.52895
1688.59529,194.02338
1690.14963,183.1726
1690.14963,184.52895
1691.70397,181.81626
1693.25831,181.81626
1694.81265,181.81626
1696.36699,183.1726
1697.92133,184.52895
1699.47566,185.8853
1701.03,187.24165
1702.58434,187.24165
1704.13868,185.8853
1705.69302,187.24165
1707.24736,185.8853
1708.8017,185.8853
1710.35604,185.8853
1711.91037,177.74721
1711.91037,184.52895
1711.91037,183.1726
1711.91037,181.81626
1711.91037,180.45991
1711.91037,179.10356
1713.46471,176.39086
1713.46471,177.74721
1715.01905,175.03452
1715.01905,176.39086
1716.57339,175.03452
1718.12773,177.74721
1718.12773,175.03452
1719.68207,175.03452
1721.23641,175.03452
1722.79075,175.03452
1724.34508,175.03452
1725.89942,175.03452
1727.45376,164.18373
1727.45376,172.32182
1727.45376,170.96547
1727.45376,169.60913
1727.45376,168.25278
1727.45376,166.89643
1727.45376,165.54008
1727.45376,173.67817
1729.0081,162.82739
1729.0081,157.402
1730.56244,161.47104
1730.56244,158.75834
1730.56244,160.11469
1730.56244,156.04565
1732.11678,154.6893
1732.11678,153.33295
1733.67112,160.11469
1749.2145,170.96547
1764.75789,176.39086
1780.30128,177.74721
1789.62731,162.82739
1789.62731,160.11469
1789.62731,161.47104
1791.18165,164.18373
1792.73599,166.89643
1792.73599,165.54008
1794.29033,168.25278
1794.29033,173.67817
1795.84467,172.32182
1795.84467,175.03452
1795.84467,170.96547
1795.84467,169.60913
1795.84467,181.81626
1797.39901,176.39086
1797.39901,175.03452
1798.95335,180.45991
1798.95335,181.81626
1798.95335,177.74721
1798.95335,179.10356
1800.50768,183.1726
1800.50768,184.52895
1800.50768,185.8853
1800.50768,187.24165
1802.06202,187.24165
1802.06202,188.59799
1802.06202,189.95434
1802.06202,191.31069
1803.61636,191.31069
1803.61636,192.66704
1803.61636,198.09243
1803.61636,196.73608
1803.61636,195.37973
1803.61636,194.02338
1805.1707,199.44878
1806.72504,199.44878
1808.27938,198.09243
1809.83372,199.44878
1811.38806,199.44878
1811.38806,195.37973
1812.9424,198.09243
1814.49673,198.09243
1816.05107,196.73608
1816.05107,195.37973
1817.60541,195.37973
1817.60541,191.31069
1817.60541,194.02338
1817.60541,192.66704
1819.15975,191.31069
1819.15975,180.45991
1819.15975,179.10356
1819.15975,183.1726
1820.71409,191.31069
1820.71409,181.81626
1820.71409,177.74721
1820.71409,184.52895
1820.71409,164.18373
1822.26843,187.24165
1822.26843,185.8853
1822.26843,189.95434
1822.26843,176.39086
1822.26843,175.03452
1822.26843,173.67817
1822.26843,172.32182
1822.26843,162.82739
1822.26843,188.59799
1822.26843,165.54008
1822.26843,161.47104
1823.82277,170.96547
1823.82277,166.89643
1823.82277,158.75834
1823.82277,160.11469
1825.37711,169.60913
1825.37711,156.04565
1825.37711,157.402
1825.37711,168.25278
1825.37711,154.6893
1826.93144,165.54008
1842.47483,153.33295
1858.01822,134.34408
1873.56161,160.11469
1889.105,165.54008
1904.64838,127.56235
1920.19177,177.74721
1935.73516,157.402
1951.27855,162.82739
1966.82193,139.76947
1982.36532,156.04565
1997.90871,158.75834
2013.4521,139.76947
2028.99549,131.63139
2044.53887,111.28617
2060.08226,130.27504
2075.62565,139.76947
2091.16904,141.12582
2106.71243,139.76947
2122.25581,135.70043
2137.7992,141.12582
2153.34259,122.13695
2168.88598,128.91869
2184.42936,134.34408
2199.97275,172.32182
2215.51614,177.74721
2231.05953,139.76947
2246.60292,146.55121
2262.1463,146.55121
2277.68969,134.34408
2293.23308,116.71156
2293.23308,118.06791
2293.23308,123.4933
2294.78742,123.4933
2294.78742,120.78061
2294.78742,119.42426
2294.78742,122.13695
2296.34176,123.4933
2297.8961,123.4933
2299.45043,123.4933
2301.00477,124.84965
2301.00477,128.91869
2301.00477,127.56235
2301.00477,126.206
2302.55911,137.05678
2302.55911,128.91869
2304.11345,132.98774
2304.11345,138.41313
2304.11345,135.70043
2304.11345,128.91869
2304.11345,130.27504
2305.66779,131.63139
2305.66779,139.76947
2305.66779,134.34408
2307.22213,141.12582
2307.22213,145.19487
2308.77647,142.48217
2308.77647,143.83852
2308.77647,154.6893
2308.77647,175.03452
2308.77647,147.90756
2308.77647,146.55121
2308.77647,149.26391
2310.33081,157.402
2310.33081,156.04565
2310.33081,153.33295
2310.33081,162.82739
2310.33081,151.9766
2310.33081,150.62026
2310.33081,158.75834
2311.88514,160.11469
2311.88514,164.18373
2311.88514,161.47104
2311.88514,234.71382
2311.88514,236.07017
2311.88514,237.42651
2311.88514,170.96547
2311.88514,165.54008
2311.88514,238.78286
2311.88514,232.00112
2311.88514,230.64477
2313.43948,172.32182
2313.43948,240.13921
2313.43948,175.03452
2313.43948,166.89643
2313.43948,183.1726
2313.43948,168.25278
2313.43948,169.60913
2313.43948,229.28843
2313.43948,252.34634
2313.43948,173.67817
2313.43948,253.70269
2313.43948,255.05903
2313.43948,248.27729
2313.43948,250.98999
2313.43948,245.5646
2313.43948,244.20825
2313.43948,233.35747
2313.43948,241.49556
2313.43948,249.63364
2313.43948,242.8519
2314.99382,177.74721
2314.99382,176.39086
2314.99382,181.81626
2314.99382,180.45991
2314.99382,184.52895
2314.99382,185.8853
2314.99382,187.24165
2314.99382,188.59799
2314.99382,179.10356
2314.99382,246.92095
2314.99382,227.93208
2314.99382,196.73608
2314.99382,189.95434
2314.99382,256.41538
2314.99382,257.77173
2314.99382,259.12808
2314.99382,260.48442
2314.99382,261.84077
2314.99382,263.19712
2314.99382,264.55347
2314.99382,265.90982
2314.99382,272.69155
2314.99382,271.33521
2314.99382,269.97886
2314.99382,268.62251
2314.99382,267.26616
2316.54816,274.0479
2316.54816,275.40425
2316.54816,276.7606
2316.54816,278.11695
2316.54816,198.09243
2316.54816,280.82964
2316.54816,282.18599
2316.54816,283.54234
2316.54816,200.80512
2316.54816,213.01225
2316.54816,226.57573
2316.54816,202.16147
2316.54816,191.31069
2316.54816,192.66704
2316.54816,194.02338
2316.54816,195.37973
2316.54816,203.51782
2316.54816,199.44878
2318.1025,211.65591
2318.1025,279.47329
2318.1025,204.87417
2318.1025,206.23051
2318.1025,207.58686
2318.1025,208.94321
2318.1025,210.29956
2318.1025,284.89868
2318.1025,214.3686
2318.1025,215.72495
2318.1025,217.0813
2318.1025,218.43764
2318.1025,225.21938
2318.1025,219.79399
2319.65684,222.50669
2319.65684,221.15034
2319.65684,223.86304
2319.65684,297.10581
2319.65684,295.74947
2319.65684,294.39312
2319.65684,301.17486
2319.65684,286.25503
2319.65684,302.53121
2319.65684,298.46216
2321.21118,287.61138
2321.21118,290.32408
2321.21118,291.68042
2321.21118,309.31294
2321.21118,299.81851
2321.21118,303.88755
2321.21118,307.9566
2321.21118,305.2439
2321.21118,306.60025
2321.21118,288.96773
2321.21118,293.03677
2322.76552,324.23277
2322.76552,310.66929
2322.76552,322.87642
2324.31985,321.52007
2324.31985,269.97886
2324.31985,325.58912
2324.31985,312.02564
2325.87419,332.37086
2325.87419,313.38199
2325.87419,320.16373
2325.87419,335.08355
2325.87419,326.94546
2325.87419,333.7272
2327.42853,335.08355
2327.42853,331.01451
2327.42853,329.65816
2327.42853,328.30181
2327.42853,318.80738
2327.42853,317.45103
2327.42853,314.73833
2328.98287,316.09468
2328.98287,345.93433
2328.98287,336.4399
2328.98287,341.86529
2328.98287,343.22164
2328.98287,344.57799
2328.98287,335.08355
2328.98287,347.29068
2330.53721,348.64703
2330.53721,336.4399
2330.53721,340.50894
2332.09155,358.14146
2332.09155,336.4399
2332.09155,337.79625
2332.09155,339.15259
2332.09155,350.00338
2332.09155,355.42877
2332.09155,352.71607
2332.09155,354.07242
2332.09155,356.78512
2333.64589,351.35972
2333.64589,358.14146
2333.64589,355.42877
2333.64589,356.78512
2335.20023,350.00338
2335.20023,354.07242
2335.20023,351.35972
2335.20023,358.14146
2335.20023,347.29068
2335.20023,348.64703
2336.75457,343.22164
2336.75457,347.29068
2336.75457,345.93433
2336.75457,344.57799
2336.75457,352.71607
2338.3089,343.22164
2339.86324,343.22164
2341.41758,337.79625
2341.41758,341.86529
2341.41758,340.50894
2341.41758,339.15259
2341.41758,332.37086
2342.97192,333.7272
2342.97192,335.08355
2342.97192,336.4399
2342.97192,325.58912
2342.97192,331.01451
2342.97192,329.65816
2344.52626,328.30181
2344.52626,326.94546
2344.52626,322.87642
2344.52626,324.23277
2344.52626,320.16373
2344.52626,321.52007
2346.0806,317.45103
2346.0806,318.80738
2346.0806,316.09468
2346.0806,314.73833
2346.0806,312.02564
2346.0806,310.66929
2346.0806,309.31294
2346.0806,307.9566
2347.63494,306.60025
2347.63494,305.2439
2347.63494,303.88755
2347.63494,302.53121
2347.63494,313.38199
2347.63494,301.17486
2347.63494,299.81851
2347.63494,298.46216
2347.63494,290.32408
2349.18928,279.47329
2349.18928,297.10581
2349.18928,287.61138
2349.18928,288.96773
2349.18928,284.89868
2349.18928,295.74947
2349.18928,294.39312
2349.18928,293.03677
2349.18928,291.68042
2349.18928,286.25503
2350.74361,282.18599
2350.74361,268.62251
2350.74361,283.54234
2350.74361,276.7606
2350.74361,275.40425
2350.74361,278.11695
2350.74361,280.82964
2350.74361,274.0479
2352.29795,272.69155
2352.29795,269.97886
2352.29795,263.19712
2352.29795,256.41538
2352.29795,265.90982
2352.29795,264.55347
2352.29795,271.33521
2352.29795,267.26616
2353.85229,250.98999
2353.85229,244.20825
2353.85229,252.34634
2353.85229,261.84077
2353.85229,260.48442
2353.85229,259.12808
2353.85229,257.77173
2353.85229,253.70269
2353.85229,255.05903
2355.40663,240.13921
2355.40663,238.78286
2355.40663,241.49556
2355.40663,249.63364
2355.40663,237.42651
2355.40663,248.27729
2355.40663,246.92095
2355.40663,245.5646
2355.40663,218.43764
2355.40663,242.8519
2356.96097,233.35747
2356.96097,229.28843
2356.96097,230.64477
2356.96097,185.8853
2356.96097,236.07017
2356.96097,227.93208
2356.96097,234.71382
2356.96097,203.51782
2356.96097,221.15034
2358.51531,222.50669
2358.51531,223.86304
2358.51531,219.79399
2358.51531,218.43764
2358.51531,226.57573
2358.51531,215.72495
2358.51531,217.0813
2358.51531,173.67817
2358.51531,172.32182
2358.51531,210.29956
2358.51531,202.16147
2358.51531,225.21938
2358.51531,179.10356
2358.51531,204.87417
2358.51531,181.81626
2358.51531,183.1726
2358.51531,170.96547
2358.51531,232.00112
2358.51531,187.24165
2358.51531,177.74721
2358.51531,176.39086
2358.51531,184.52895
2360.06965,213.01225
2360.06965,211.65591
2360.06965,214.3686
2360.06965,208.94321
2360.06965,207.58686
2360.06965,206.23051
2360.06965,180.45991
2360.06965,188.59799
2360.06965,164.18373
2360.06965,175.03452
2360.06965,168.25278
2360.06965,199.44878
2360.06965,200.80512
2360.06965,169.60913
2360.06965,162.82739
2360.06965,166.89643
2361.62399,198.09243
2361.62399,189.95434
2361.62399,165.54008
2361.62399,161.47104
2361.62399,194.02338
2361.62399,160.11469
2363.17832,191.31069
2363.17832,195.37973
2363.17832,192.66704
2363.17832,196.73608
2363.17832,157.402
2363.17832,158.75834
2364.73266,156.04565
2364.73266,147.90756
2364.73266,145.19487
2366.287,146.55121
2366.287,143.83852
2366.287,149.26391
2366.287,154.6893
2367.84134,150.62026
2367.84134,138.41313
2367.84134,137.05678
2367.84134,142.48217
2367.84134,153.33295
2369.39568,151.9766
2369.39568,139.76947
2369.39568,135.70043
2369.39568,141.12582
2370.95002,131.63139
2370.95002,142.48217
2370.95002,132.98774
2370.95002,128.91869
2370.95002,134.34408
2370.95002,130.27504
2372.50436,127.56235
2374.0587,126.206
2374.0587,127.56235
2375.61303,126.206
2375.61303,124.84965
2377.16737,126.206
2378.72171,127.56235
2380.27605,128.91869
2381.83039,130.27504
2383.38473,128.91869
2384.93907,127.56235
2386.49341,126.206
2386.49341,124.84965
2388.04774,124.84965
2389.60208,124.84965
2391.15642,123.4933
2391.15642,120.78061
2391.15642,122.13695
2392.71076,120.78061
2394.2651,118.06791
2394.2651,119.42426
2402.03679,164.18373
2408.25415,185.8853
2417.58018,184.52895
2423.79754,168.25278
2439.34092,157.402
2454.88431,145.19487
2470.4277,122.13695
2485.97109,150.62026
2501.51448,176.39086
2517.05786,161.47104
2532.60125,151.9766
2548.14464,157.402
2563.68803,169.60913
2563.68803,164.18373
2563.68803,168.25278
2565.24237,166.89643
2565.24237,165.54008
2565.24237,164.18373
2566.79671,164.18373
2568.35104,164.18373
2569.90538,147.90756
2569.90538,149.26391
2569.90538,160.11469
2569.90538,154.6893
2569.90538,156.04565
2569.90538,157.402
2569.90538,158.75834
2569.90538,145.19487
2569.90538,161.47104
2569.90538,162.82739
2569.90538,146.55121
2569.90538,143.83852
2571.45972,150.62026
2571.45972,142.48217
2571.45972,141.12582
2571.45972,139.76947
2571.45972,154.6893
2573.01406,137.05678
2573.01406,154.6893
2573.01406,138.41313
2573.01406,151.9766
2574.5684,134.34408
2574.5684,154.6893
2574.5684,153.33295
2574.5684,135.70043
2574.5684,127.56235
2576.12274,132.98774
2576.12274,124.84965
2576.12274,128.91869
2576.12274,119.42426
2576.12274,126.206
2576.12274,123.4933
2577.67708,131.63139
2577.67708,116.71156
2577.67708,120.78061
2577.67708,122.13695
2577.67708,118.06791
2577.67708,130.27504
2579.23142,128.91869
2579.23142,115.35522
2580.78575,113.99887
2580.78575,115.35522
2582.34009,113.99887
2582.34009,112.64252
2583.89443,111.28617
2583.89443,112.64252
2585.44877,112.64252
2587.00311,111.28617
2588.55745,111.28617
2590.11179,112.64252
2591.66613,111.28617
2593.22046,109.92982
2593.22046,111.28617
2594.7748,130.27504
2610.31819,181.81626
2625.86158,184.52895
2625.86158,185.8853
2625.86158,180.45991
2627.41592,183.1726
2627.41592,181.81626
2628.97026,181.81626
2630.5246,181.81626
2632.07893,173.67817
2632.07893,175.03452
2632.07893,180.45991
2632.07893,177.74721
2632.07893,179.10356
2632.07893,176.39086
2632.07893,172.32182
2633.63327,165.54008
2633.63327,164.18373
2633.63327,166.89643
2633.63327,172.32182
2635.18761,161.47104
2635.18761,162.82739
2635.18761,168.25278
2635.18761,172.32182
2636.74195,169.60913
2636.74195,172.32182
2636.74195,154.6893
2636.74195,151.9766
2636.74195,160.11469
2638.29629,172.32182
2638.29629,170.96547
2638.29629,158.75834
2638.29629,156.04565
2638.29629,150.62026
2638.29629,153.33295
2639.85063,157.402
2639.85063,149.26391
2641.40497,151.9766
2641.40497,139.76947
2641.40497,137.05678
2641.40497,143.83852
2641.40497,142.48217
2641.40497,141.12582
2641.40497,147.90756
2642.95931,138.41313
2642.95931,135.70043
2642.95931,146.55121
2642.95931,145.19487
2644.51364,134.34408
2646.06798,132.98774
2647.62232,131.63139
2647.62232,130.27504
2647.62232,128.91869
2647.62232,120.78061
2647.62232,116.71156
2647.62232,118.06791
2647.62232,119.42426
2649.17666,122.13695
2649.17666,127.56235
2649.17666,115.35522
2650.731,124.84965
2650.731,123.4933
2650.731,126.206
2650.731,113.99887
2650.731,109.92982
2652.28534,111.28617
2652.28534,112.64252
2656.94835,115.35522
2672.49174,150.62026
2688.03513,149.26391
2703.57852,156.04565
2719.12191,132.98774
2734.66529,150.62026
2750.20868,149.26391
2765.75207,132.98774
2781.29546,109.92982
2796.83885,126.206
2812.38223,139.76947
2827.92562,135.70043
2843.46901,120.78061
2859.0124,141.12582
2874.55578,146.55121
2890.09917,101.79174
2905.64256,124.84965
2921.18595,122.13695
2933.62066,141.12582
2933.62066,142.48217
2935.175,139.76947
2936.72934,132.98774
2936.72934,134.34408
2936.72934,137.05678
2936.72934,138.41313
2936.72934,132.98774
2936.72934,131.63139
2936.72934,135.70043
2938.28367,131.63139
2939.83801,131.63139
2941.39235,131.63139
2942.94669,131.63139
2942.94669,130.27504
2942.94669,128.91869
2944.50103,124.84965
2944.50103,127.56235
2944.50103,128.91869
2944.50103,126.206
2946.05537,123.4933
2947.60971,122.13695
2947.60971,123.4933
2949.16405,118.06791
2949.16405,119.42426
2949.16405,120.78061
2950.71838,118.06791
2950.71838,115.35522
2950.71838,113.99887
2950.71838,112.64252
2950.71838,111.28617
2950.71838,109.92982
2950.71838,108.57348
2950.71838,116.71156
2950.71838,105.86078
2950.71838,107.21713
2952.27272,109.92982
2952.27272,104.50443
2952.27272,105.86078
2953.82706,104.50443
2955.3814,105.86078
2956.93574,107.21713
2958.49008,108.57348
2960.04442,109.92982
2961.59876,111.28617
2963.15309,109.92982
2964.70743,111.28617
2966.26177,111.28617
2967.81611,111.28617
2967.81611,108.57348
2969.37045,109.92982
2970.92479,105.86078
2970.92479,103.14809
2970.92479,108.57348
2970.92479,107.21713
2970.92479,104.50443
2972.47913,101.79174
2974.03347,101.79174
2975.58781,101.79174
2977.14214,100.43539
2978.69648,100.43539
2980.25082,101.79174
2981.80516,103.14809
2983.3595,104.50443
2983.3595,104.50443
2984.91384,105.86078
2986.46818,107.21713
2988.02252,107.21713
2989.57685,105.86078
2991.13119,104.50443
2992.68553,103.14809
2994.23987,101.79174
2995.79421,103.14809
2995.79421,104.50443
2997.34855,104.50443
2997.34855,105.86078
2997.34855,107.21713
2998.90289,107.21713
2998.90289,108.57348
2998.90289,109.92982
2998.90289,111.28617
2998.90289,104.50443
3000.45723,111.28617
3002.01156,115.35522
3002.01156,116.71156
3002.01156,111.28617
3003.5659,119.42426
3003.5659,113.99887
3003.5659,111.28617
3003.5659,118.06791
3005.12024,111.28617
3005.12024,112.64252
3005.12024,120.78061
3006.67458,111.28617
3006.67458,131.63139
3006.67458,122.13695
3006.67458,123.4933
3006.67458,124.84965
3006.67458,130.27504
3006.67458,127.56235
3006.67458,128.91869
3008.22892,131.63139
3008.22892,132.98774
3008.22892,126.206
3009.78326,134.34408
3009.78326,132.98774
3011.3376,134.34408
3011.3376,135.70043
3012.89194,137.05678
3012.89194,135.70043
3012.89194,138.41313
3014.44627,134.34408
3014.44627,138.41313
3016.00061,139.76947
3017.55495,139.76947
3019.10929,139.76947
3020.66363,139.76947
3022.21797,141.12582
3022.21797,142.48217
3029.98966,118.06791
3045.53305,132.98774
3061.07644,122.13695
3076.61983,153.33295
3092.16321,134.34408
3107.7066,149.26391
3123.24999,131.63139
3138.79338,157.402
3140.34772,161.47104
3141.90206,162.82739
3141.90206,160.11469
3141.90206,156.04565
3141.90206,157.402
3141.90206,154.6893
3143.45639,146.55121
3143.45639,153.33295
3143.45639,151.9766
3143.45639,150.62026
3143.45639,143.83852
3143.45639,149.26391
3143.45639,147.90756
3143.45639,142.48217
3143.45639,158.75834
3143.45639,145.19487
3145.01073,139.76947
3145.01073,142.48217
3145.01073,141.12582
3146.56507,138.41313
3148.11941,138.41313
3149.67375,138.41313
3151.22809,131.63139
3151.22809,135.70043
3151.22809,137.05678
3151.22809,134.34408
3151.22809,132.98774
3151.22809,138.41313
3152.78243,130.27504
3154.33677,132.98774
3154.33677,128.91869
3155.8911,128.91869
3155.8911,124.84965
3157.44544,127.56235
3157.44544,126.206
3157.44544,123.4933
3157.44544,128.91869
3157.44544,122.13695
3169.88015,142.48217
3185.42354,158.75834
3200.96693,161.47104
3216.51032,165.54008
3232.0537,151.9766
3247.59709,135.70043
3263.14048,146.55121
3278.68387,135.70043
3294.22726,179.10356
3309.77064,164.18373
3325.31403,172.32182
3333.08573,169.60913
3340.85742,164.18373
3348.62911,173.67817
3356.40081,191.31069
3364.1725,200.80512
3371.9442,191.31069
3379.71589,166.89643
3387.48758,147.90756
3395.25928,139.76947
3403.03097,143.83852
3410.80266,150.62026
3418.57436,154.6893
3426.34605,164.18373
3434.11775,168.25278
3441.88944,157.402
3449.66113,153.33295
3457.43283,165.54008
3465.20452,176.39086
3472.97622,170.96547
3480.74791,154.6893
3488.5196,146.55121
3496.2913,157.402
3504.06299,168.25278
3511.83469,165.54008
3519.60638,150.62026
3527.37807,139.76947
3535.14977,138.41313
3542.92146,138.41313
3550.69316,149.26391
3558.46485,164.18373
3566.23654,176.39086
3574.00824,180.45991
3581.77993,176.39086
3597.32332,143.83852
3612.86671,131.63139
3628.41009,139.76947
3643.95348,160.11469
3659.49687,137.05678
3675.04026,146.55121
3690.58365,165.54008
3706.12703,128.91869
3721.67042,145.19487
3737.21381,170.96547
3752.7572,172.32182
3768.30058,168.25278
3782.28963,143.83852
3782.28963,145.19487
3783.84397,146.55121
3783.84397,149.26391
3785.39831,147.90756
3785.39831,146.55121
3786.95265,147.90756
3788.50699,147.90756
3790.06133,147.90756
3791.61567,149.26391
3793.17001,151.9766
3793.17001,150.62026
3793.17001,153.33295
3794.72434,154.6893
3796.27868,156.04565
3797.83302,157.402
3799.38736,157.402
3799.38736,158.75834
3800.9417,158.75834
3802.49604,157.402
3804.05038,156.04565
3805.60472,156.04565
3807.15905,151.9766
3807.15905,154.6893
3807.15905,153.33295
3808.71339,151.9766
3808.71339,150.62026
3810.26773,149.26391
3810.26773,150.62026
3811.82207,149.26391
3811.82207,147.90756
3813.37641,145.19487
3813.37641,146.55121
3813.37641,147.90756
3814.93075,143.83852
3814.93075,141.12582
3814.93075,145.19487
3814.93075,141.12582
3814.93075,142.48217
3814.93075,139.76947
3814.93075,138.41313
3816.48509,137.05678
3818.03943,138.41313
3819.59376,139.76947
3821.1481,141.12582
3822.70244,141.12582
3824.25678,139.76947
3825.81112,138.41313
3827.36546,137.05678
3828.9198,137.05678
3830.47414,137.05678
3830.47414,141.12582
3832.02848,137.05678
3833.58281,138.41313
3835.13715,139.76947
3836.69149,141.12582
3838.24583,142.48217
3838.24583,141.12582
3839.80017,141.12582
3839.80017,139.76947
3839.80017,138.41313
3839.80017,137.05678
3839.80017,135.70043
3839.80017,134.34408
3839.80017,132.98774
3839.80017,131.63139
3839.80017,128.91869
3839.80017,130.27504
3839.80017,127.56235
3841.35451,126.206
3842.90885,120.78061
3842.90885,124.84965
3842.90885,123.4933
3842.90885,122.13695
3844.46319,123.4933
3844.46319,118.06791
3844.46319,119.42426
3846.01752,124.84965
3846.01752,116.71156
3846.01752,115.35522
3846.01752,113.99887
3847.57186,112.64252
3847.57186,111.28617
3847.57186,109.92982
3847.57186,108.57348
3847.57186,107.21713
3849.1262,105.86078
3849.1262,104.50443
3850.68054,103.14809
3850.68054,101.79174
3852.23488,101.79174
3852.23488,100.43539
3853.78922,100.43539
3853.78922,99.07904
3855.34356,97.72269
3856.8979,97.72269
3858.45223,99.07904
3860.00657,100.43539
3861.56091,99.07904
3863.11525,99.07904
3863.11525,97.72269
3863.11525,101.79174
3863.11525,100.43539
3863.11525,104.50443
3863.11525,105.86078
3863.11525,107.21713
3863.11525,103.14809
3864.66959,108.57348
3864.66959,109.92982
3864.66959,111.28617
3864.66959,112.64252
3864.66959,107.21713
3866.22393,113.99887
3867.77827,115.35522
3869.33261,116.71156
3869.33261,115.35522
3870.88694,116.71156
3870.88694,118.06791
3872.44128,118.06791
3873.99562,118.06791
3875.54996,118.06791
3877.1043,119.42426
3877.1043,120.78061
3877.1043,118.06791
3878.65864,120.78061
3878.65864,123.4933
3878.65864,124.84965
3878.65864,126.206
3878.65864,127.56235
3878.65864,128.91869
3878.65864,130.27504
3878.65864,131.63139
3878.65864,122.13695
3878.65864,132.98774
3880.21298,134.34408
3881.76732,134.34408
3883.32165,135.70043
3884.87599,135.70043
3886.43033,135.70043
3887.98467,135.70043
3889.53901,134.34408
3891.09335,131.63139
3891.09335,132.98774
3891.09335,128.91869
3891.09335,132.98774
3891.09335,130.27504
3892.64769,126.206
3892.64769,128.91869
3892.64769,127.56235
3894.20203,126.206
3894.20203,122.13695
3894.20203,124.84965
3894.20203,123.4933
3895.75637,120.78061
3897.3107,120.78061
3898.86504,119.42426
3900.41938,118.06791
3901.97372,116.71156
3903.52806,111.28617
3903.52806,113.99887
3903.52806,115.35522
3905.0824,112.64252
3906.63674,116.71156
3922.18012,131.63139
3937.72351,118.06791
3953.2669,138.41313
3968.81029,132.98774
3984.35368,139.76947
3999.89706,134.34408
