Wavenumber (cm⁻¹),Intensity
200.0,5034.1846639999985
201.00097751710655,4969.497653090908
202.0019550342131,4904.8106421818175
203.00293255131965,4840.123631272727
204.0039100684262,4775.436620363636
205.00488758553274,4720.606581528837
206.0058651026393,4680.288328234605
207.00684261974584,4639.970074940372
208.0078201368524,4590.112094296564
209.00879765395894,4539.275179641327
210.00977517106548,4498.614252109482
211.01075268817203,4480.65903772043
212.01173020527858,4462.703823331378
213.01270772238513,4456.283792254154
214.01368523949168,4452.535972273705
215.01466275659823,4449.233047671554
216.01564027370478,4446.900489782991
217.01661779081132,4444.567931894428
218.01759530791787,4464.378568102864
219.01857282502445,4489.155803082938
220.019550342131,4514.401831073314
221.02052785923755,4541.316394826979
222.0215053763441,4568.230958580644
223.02248289345064,4611.063438838709
224.0234604105572,4660.03177948387
225.02443792766374,4712.113414986088
226.0254154447703,4774.966833739379
227.02639296187684,4837.820252492668
228.02737047898339,4905.944035941349
229.02834799608993,4977.2063880821115
230.02932551319648,5045.540603683285
231.03030303030303,5094.139223272728
232.03128054740958,5142.7378428621705
233.03225806451613,5154.751330064517
234.03323558162268,5145.429146369502
235.03421309872923,5131.265917264456
236.03519061583577,5085.83863160388
237.03616813294232,5040.411345943304
238.03714565004887,4990.398771808406
239.03812316715542,4936.426744750734
240.03910068426197,4882.092173020528
241.04007820136852,4818.8390023460415
242.04105571847506,4755.585831671555
243.0420332355816,4714.060128289345
244.0430107526882,4690.931261505376
245.04398826979474,4669.519309812768
246.0449657869013,4685.4597997744195
247.04594330400784,4701.400289736071
248.04692082111438,4723.884807507332
249.04789833822093,4754.482087663735
250.04887585532748,4785.079367820137
251.04985337243403,4847.13940111437
252.05083088954058,4910.892860351907
253.05180840664713,4976.802042076248
254.05278592375367,5045.331485360704
255.05376344086022,5113.860928645162
256.05474095796677,5138.817884995113
257.0557184750733,5161.664696334311
258.05669599217987,5169.21256688172
259.0576735092864,5149.1267518279565
260.05865102639297,5129.040936774193
261.0596285434995,5067.942278295209
262.06060606060606,5000.099865939393
263.0615835777126,4930.433915284456
264.06256109481916,4857.5433731143685
265.0635386119257,4784.652830944281
266.06451612903226,4725.265909677419
267.0654936461388,4668.010496187683
268.06647116324535,4616.75705253177
269.0674486803519,4582.04755653959
270.06842619745845,4547.33806054741
271.069403714565,4529.336966396872
272.07038123167155,4516.364738205279
273.0713587487781,4503.043336430108
274.07233626588464,4488.783090408602
275.0733137829912,4474.5228443870965
276.07429130009774,4464.637175058275
277.0752688172043,4456.032233333333
278.07624633431084,4449.140987319648
279.0772238514174,4450.268848746823
280.07820136852393,4451.396710173998
281.0791788856305,4452.553749126099
282.08015640273703,4453.724612547409
283.0811339198436,4456.110986005865
284.08211143695013,4463.998969114369
285.0830889540567,4471.886952222873
286.0840664711632,4477.976648763065
287.0850439882698,4483.233243695015
288.0860215053764,4488.607049677419
289.0869990224829,4495.227555014662
290.0879765395895,4501.8480603519065
291.088954056696,4510.776441055718
292.0899315738026,4521.319376891496
293.0909090909091,4533.06262909091
294.09188660801567,4556.821951554253
295.0928641251222,4580.581274017596
296.09384164222877,4628.943612858111
297.0948191593353,4694.173698729229
298.09579667644186,4759.403784600347
299.0967741935484,4792.4721690322585
300.09775171065496,4825.404929931574
301.0987292277615,4867.617445826002
302.09970674486806,4919.175195190615
303.1006842619746,4970.721707851417
304.10166177908116,5005.841764782013
305.1026392961877,5040.96182171261
306.10361681329425,5070.178351417399
307.1045943304008,5093.564689638319
308.10557184750735,5116.951027859238
309.1065493646139,5143.836954854351
310.10752688172045,5171.0874066236565
311.108504398827,5228.155395131967
312.10948191593354,5328.469157790814
313.1104594330401,5428.78292044966
314.11143695014664,5616.682966791794
315.1124144672532,5813.187585833826
316.11339198435974,6064.715382032489
317.1143695014663,6394.451813343111
318.11534701857283,6724.188244653733
319.1163245356794,7177.7590647038105
320.11730205278593,7659.341279835775
321.1182795698925,8140.5056320860185
322.119257086999,8620.773683855325
323.1202346041056,9101.041735624629
324.1212121212121,9463.494557575756
325.1221896383187,9800.157329814268
326.1231671554252,10043.580859011956
327.12414467253177,10091.444523949169
328.1251221896383,10139.308188886384
329.12609970674487,9944.567127131959
330.1270772238514,9657.983780582594
331.12805474095796,9334.527010987284
332.1290322580645,8886.098892903217
333.13000977517106,8437.670774819151
334.1309872922776,7970.511370525896
335.13196480938416,7496.433563917881
336.1329423264907,7051.493947059925
337.13391984359725,6702.625986461387
338.1348973607038,6353.758025862849
339.13587487781035,6089.142818416424
340.1368523949169,5872.903327038126
341.13782991202345,5670.471939472142
342.13880742913,5554.512577908115
343.13978494623655,5438.553216344088
344.1407624633431,5357.113317771262
345.14173998044964,5295.0790974780075
346.1427174975562,5244.027842950598
347.14369501466274,5259.024834604105
348.1446725317693,5274.021826257614
349.14565004887584,5312.907362780056
350.1466275659824,5371.727123953076
351.14760508308893,5431.911187777122
352.1485826001955,5519.417723378295
353.14956011730203,5606.9242589794685
354.1505376344086,5711.305004301071
355.1515151515151,5829.491921212118
356.1524926686217,5947.678838123165
357.1534701857282,6059.073557610946
358.1544477028348,6170.129851022481
359.1554252199413,6251.780267049852
360.15640273704787,6298.205484175952
361.1573802541544,6344.630701302051
362.15835777126097,6331.93386916129
363.1593352883675,6316.6077822795705
364.16031280547406,6288.911109553351
365.1612903225806,6246.684449503724
366.16226783968716,6204.457789454096
367.1632453567937,6161.491520703815
368.16422287390026,6118.407246217012
369.1652003910068,6064.757622162271
370.16617790811335,5992.714787831871
371.1671554252199,5920.67195350147
372.16813294232645,5847.809323870972
373.169110459433,5774.821246451616
374.17008797653955,5709.674704105574
375.1710654936461,5657.895638611928
376.1720430107527,5606.116573118278
377.17302052785925,5575.919854252199
378.1739980449658,5552.087580547409
379.17497556207235,5554.103988590423
380.1759530791789,5624.36716497361
381.17693059628544,5694.630341356796
382.177908113392,5861.250008578696
383.17888563049854,6055.500426252205
384.1798631476051,6277.765567809618
385.18084066471164,6572.2153471915235
386.1818181818182,6866.665126573429
387.18279569892474,7228.065870967744
388.1837732160313,7620.665669208212
389.18475073313783,8001.647572785925
390.1857282502444,8331.301740684263
391.18670576735093,8660.9559085826
392.1876832844575,8854.825801642228
393.188660801564,8986.835197067448
394.1896383186706,9068.577502669374
395.1906158357771,8935.259578614934
396.1915933528837,8801.941654560496
397.1925708699902,8549.612585552306
398.19354838709677,8215.259669032266
399.1945259042033,7874.205130576746
400.19550342130987,7468.885710830901
401.1964809384164,7063.566291085057
402.19745845552296,6696.518841184762
403.1984359726295,6355.319999190628
404.19941348973606,6023.6846723550725
405.2003910068426,5778.779237660731
406.20136852394916,5533.873802966391
407.2023460410557,5339.347723002933
408.20332355816225,5194.828470920821
409.20430107526886,5050.587553806447
410.2052785923754,4970.84443967155
411.20625610948196,4891.101325536652
412.2072336265885,4828.042728238512
413.20821114369505,4781.2249277302035
414.2091886608016,4734.502680840663
415.21016617790815,4698.094125610947
416.2111436950147,4661.685570381231
417.21212121212125,4631.469993575757
418.2130987292278,4610.103207573802
419.21407624633434,4588.736421571847
420.2150537634409,4582.514177978494
421.21603128054744,4577.71401031476
422.217008797654,4571.752639953079
423.21798631476054,4564.16515029521
424.2189638318671,4556.577660637341
425.21994134897363,4547.036784502594
426.2209188660802,4537.323837664486
427.22189638318673,4527.557488711632
428.2228739002933,4517.678481243402
429.2238514173998,4507.799473775171
430.2248289345064,4500.873617837731
431.2258064516129,4494.578430193547
432.2267839687195,4487.377867956989
433.227761485826,4478.3094120430105
434.22873900293257,4469.240956129032
435.2297165200391,4461.966557951726
436.23069403714567,4455.062469524024
437.2316715542522,4448.730615894428
438.23264907135876,4444.298968113392
439.2336265884653,4439.867320332356
440.23460410557186,4437.133695249267
441.2355816226784,4435.015786979472
442.23655913978496,4435.941089032258
443.2375366568915,4446.70023601173
444.23851417399806,4457.459382991203
445.2394916911046,4456.305357508084
446.24046920821115,4450.938809045793
447.2414467253177,4447.106208973607
448.24242424242425,4452.594969090909
449.2434017595308,4458.0837292082115
450.24437927663735,4463.4253388739
451.2453567937439,4468.685515765395
452.24633431085044,4473.058836492669
453.247311827957,4472.25260916129
454.24828934506354,4471.446381829912
455.2492668621701,4487.043243491991
456.25024437927664,4511.525729092413
457.2512218963832,4535.654153736071
458.25219941348973,4553.217585524927
459.2531769305963,4570.781017313783
460.25415444770283,4607.618960437928
461.2551319648094,4659.998232070381
462.2561094819159,4709.877871171066
463.2570869990225,4717.664395198436
464.258064516129,4725.4509192258065
465.2590420332356,4738.638952101662
466.2600195503421,4756.097000977517
467.26099706744867,4773.555049853372
468.2619745845552,4771.661094490713
469.26295210166177,4768.982518694037
470.2639296187683,4756.670147448681
471.26490713587486,4733.205632883676
472.2658846529814,4709.7411183186705
473.26686217008796,4661.2276800938425
474.2678396871945,4611.830400563051
475.26881720430106,4581.782560132341
476.2697947214076,4573.698511707647
477.27077223851416,4565.614463282954
478.2717497556207,4544.217500535679
479.27272727272725,4520.847037818182
480.2737047898338,4504.627461098729
481.27468230694035,4500.410823288367
482.2756598240469,4496.194185478006
483.27663734115345,4480.15294127378
484.27761485826,4462.434522746072
485.27859237536654,4449.108479472141
486.2795698924731,4447.171788172043
487.28054740957964,4445.235096871945
488.2815249266862,4446.19864457478
489.2825024437928,4447.976580840665
490.28347996089934,4450.300533528837
491.2844574780059,4454.006472609971
492.28543499511244,4457.7124116911045
493.286412512219,4461.822133671705
494.28739002932554,4466.042023889015
495.2883675464321,4473.393093348974
496.28934506353863,4494.2519433196485
497.2903225806452,4515.110793290323
498.29130009775173,4542.736254529815
499.2922776148583,4573.392912672532
500.2932551319648,4610.035996387096
501.2942326490714,4671.69973488172
502.2952101661779,4733.363473376344
503.2961876832845,4812.978370584255
504.297165200391,4900.452255838786
505.29814271749757,4988.483660277617
506.2991202346041,5081.643796973609
507.30009775171067,5174.803933669601
508.3010752688172,5260.239748258066
509.30205278592376,5340.536483038125
510.3030303030303,5414.457179272727
511.30400782013686,5432.808340328445
512.3049853372434,5451.1595013841625
513.3059628543499,5441.756975460563
514.3069403714564,5414.262394514626
515.307917888563,5386.485871577714
516.3088954056695,5323.348253747801
517.3098729227761,5260.210635917889
518.3108504398826,5184.989300480939
519.3118279569892,5098.174440344087
520.3128054740957,5011.75374396872
521.3137829912023,4955.749852668622
522.3147605083088,4899.745961368525
523.3157380254154,4861.739942597188
524.3167155425219,4840.6674794044675
525.3176930596285,4819.595016211746
526.318670576735,4789.380645869014
527.3196480938416,4758.347219788858
528.3206256109481,4741.606264993157
529.3216031280547,4744.585134044965
530.3225806451612,4747.564003096774
531.3235581622678,4739.067329501467
532.3245356793743,4729.60869255132
533.3255131964809,4719.0241869614265
534.3264907135874,4706.917055898941
535.327468230694,4694.809924836455
536.3284457478005,4674.661226392964
537.3294232649071,4652.837794447705
538.3304007820136,4632.62731304008
539.3313782991202,4615.690453137831
540.3323558162267,4598.753593235583
541.3333333333333,4585.995766666668
542.3343108504398,4574.078648856306
543.3352883675464,4565.370865907211
544.3362658846529,4563.034969373637
545.3372434017595,4560.699072840063
546.338220918866,4567.964400347995
547.3391984359725,4578.647112684261
548.3401759530791,4592.243783788854
549.3411534701856,4615.070955949167
550.3421309872922,4637.898128109479
551.3431085043987,4671.2530670733095
552.3440860215054,4708.261287913979
553.345063538612,4755.624743228815
554.3460410557185,4834.929573967967
555.347018572825,4914.23440470712
556.3479960899316,4995.8531357732145
557.3489736070381,5078.732312469207
558.3499511241447,5158.177404488758
559.3509286412512,5218.132834713586
560.3519061583578,5278.088264938415
561.3528836754643,5288.224074424243
562.3538611925709,5271.797873212122
563.3548387096774,5249.644308188586
564.355816226784,5196.192724761259
565.3567937438905,5142.741141333932
566.3577712609971,5078.992355589438
567.3587487781036,5007.06139050635
568.3597262952102,4934.44429452199
569.3607038123167,4851.014179800582
570.3616813294233,4767.584065079174
571.3626588465298,4707.594632993155
572.3636363636364,4665.865802181816
573.3646138807429,4625.730240521843
574.3655913978495,4608.68382440033
575.366568914956,4591.637408278818
576.3675464320626,4573.041547597262
577.3685239491691,4552.677901223851
578.3695014662757,4532.314254850439
579.3704789833822,4522.059738674487
580.3714565004888,4512.122914744868
581.3724340175953,4501.4425363636365
582.3734115347019,4489.930293939394
583.3743890518084,4478.418051515151
584.375366568915,4468.389641755019
585.3763440860215,4458.400194127378
586.377321603128,4452.245712082112
587.3782991202346,4452.429851906159
588.3792766373411,4452.613991730205
589.3802541544477,4455.489807917888
590.3812316715542,4458.734776832845
591.3822091886608,4462.151663440861
592.3831867057673,4465.846872043011
593.3841642228739,4469.542080645161
594.3851417399804,4470.00544610873
595.386119257087,4470.045870200767
596.3870967741935,4468.7445806451615
597.3880742913001,4464.107051808407
598.3890518084066,4459.469522971652
599.3900293255132,4457.274733208211
600.3910068426197,4455.732186815249
601.3919843597263,4456.352216742913
602.3929618768328,4462.223390310851
603.3939393939394,4468.094563878788
604.3949169110459,4468.046956117001
605.3958944281525,4466.465065147756
606.396871945259,4463.628782166178
607.3978494623656,4455.669048989248
608.3988269794721,4447.709315812317
609.3998044965787,4454.719408535679
610.4007820136852,4468.172025857281
611.4017595307918,4480.425955041732
612.4027370478983,4487.931592458079
613.4037145650049,4495.4372298744265
614.4046920821114,4493.834422087976
615.405669599218,4486.262387522971
616.4066471163245,4479.613473333333
617.4076246334312,4480.705739999999
618.4086021505377,4481.798006666667
619.4095796676443,4484.131231237537
620.4105571847508,4487.261247894428
621.4115347018574,4493.057943619824
622.4125122189639,4520.120294774046
623.4134897360705,4547.182645928268
624.414467253177,4567.0358276168145
625.4154447702836,4580.071597861194
626.4164222873901,4593.139254275661
627.4173998044967,4608.118562506355
628.4183773216032,4623.09787073705
629.4193548387098,4636.093160387098
630.4203323558163,4647.248574346042
631.4213098729228,4658.462256447855
632.4222873900294,4672.354669411236
633.423264907136,4686.247082374616
634.4242424242425,4707.312363030305
635.425219941349,4738.128777184753
636.4261974584556,4768.9451913392
637.4271749755621,4797.717852238517
638.4281524926687,4826.327831671557
639.4291300097752,4852.9090732355835
640.4301075268818,4876.786871397851
641.4310850439883,4900.664669560119
642.4320625610949,4952.5965298443525
643.4330400782014,5006.602654816154
644.434017595308,5065.902937090912
645.4349951124145,5135.774491030305
646.4359726295211,5205.6460449697
647.4369501466276,5307.137642404696
648.4379276637342,5414.8262070185765
649.4389051808407,5532.262864023464
650.4398826979473,5668.743025431089
651.4408602150538,5805.223186838714
652.4418377321604,6004.97224970299
653.4428152492669,6216.681574013086
654.4437927663735,6474.2679242424265
655.44477028348,6874.341621212123
656.4457478005866,7274.41531818182
657.4467253176931,7871.6230653098755
658.4477028347997,8535.952904918868
659.4486803519062,9278.4237810088
660.4496578690128,10257.28357878006
661.4506353861193,11236.14337655132
662.4516129032259,12280.588890818884
663.4525904203324,13346.79395285366
664.453567937439,14405.37930459442
665.4545454545455,15421.918018181907
666.455522971652,16438.456731769395
667.4565004887586,17064.394198357808
668.4574780058651,17485.37651390033
669.4584555229717,17778.005102170056
670.4594330400782,17388.16559953076
671.4604105571848,16998.326096891462
672.4613880742913,16312.016815625171
673.4623655913979,15473.485244830383
674.4633431085044,14612.358116246267
675.464320625611,13416.7609408797
676.4652981427175,12221.16376551313
677.4662756598241,11159.259426111385
678.4672531769306,10199.984474166127
679.4682306940372,9260.637101536622
680.4692082111437,8593.709444997034
681.4701857282503,7926.781788457444
682.4711632453568,7399.55673740129
683.4721407624634,6977.461304060441
684.4731182795699,6555.365870719593
685.4740957966765,6301.234428993152
686.475073313783,6051.738220351901
687.4760508308896,5846.65022304985
688.4770283479961,5690.529801700876
689.4780058651027,5534.409380351904
690.4789833822092,5434.542832199412
691.4799608993158,5335.940100469207
692.4809384164223,5247.319494180013
693.4819159335289,5169.492568245732
694.4828934506354,5091.665642311452
695.483870967742,5025.643381548387
696.4848484848485,4961.185154060607
697.485826001955,4908.380137341153
698.4868035190616,4874.154714076247
699.4877810361681,4839.92929081134
700.4887585532747,4815.265665317694
701.4897360703812,4791.809358768329
702.4907135874878,4777.984929588691
703.4916911045943,4779.204736190691
704.4926686217009,4780.424542792691
705.4936461388074,4777.3349021427175
706.494623655914,4773.119465505377
707.4956011730205,4765.195499319649
708.4965786901271,4748.4220790263935
709.4975562072336,4731.648658733138
710.4985337243402,4726.619146158358
711.4995112414467,4724.566942052786
712.5004887585533,4719.75781368524
713.5014662756598,4708.521841055719
714.5024437927664,4697.285868426197
715.5034213098729,4681.949427886608
716.5043988269795,4664.878436997067
717.505376344086,4646.238494064515
718.5063538611926,4621.520635530791
719.5073313782991,4596.802776997067
720.5083088954057,4578.162520441837
721.5092864125122,4562.033489434994
722.5102639296188,4546.38466307241
723.5112414467253,4532.541682998721
724.5122189638319,4518.698702925031
725.5131964809384,4505.759931061583
726.514173998045,4493.392973955034
727.5151515151515,4480.764295878787
728.516129032258,4466.122277032257
729.5171065493646,4451.480258185728
730.5180840664711,4445.623710983382
731.5190615835777,4445.209626604105
732.5200391006842,4444.387389337544
733.5210166177908,4440.569815083841
734.5219941348973,4436.752240830137
735.5229716520039,4431.7031133919845
736.5239491691104,4425.528323323559
737.524926686217,4419.695535366569
738.5259042033235,4427.25447714565
739.5268817204301,4434.813418924731
740.5278592375366,4440.35139963907
741.5288367546432,4444.078000436122
742.5298142717497,4447.804601233175
743.5307917888563,4444.699039941349
744.5317693059628,4441.078304066471
745.5327468230694,4437.056013759531
746.5337243401759,4432.50645082698
747.5347018572825,4427.956887894428
748.535679374389,4421.798592699903
749.5366568914956,4415.528029102639
750.5376344086021,4411.386379156327
751.5386119257087,4409.98516462892
