Raman Shift,Intensity
118.766,90.0
120.163,20.0
121.56,70.0
122.957,130.0
124.353,112.0
125.749,165.0
127.145,101.0
128.541,161.0
129.937,204.0
131.332,220.0
132.727,193.0
134.121,296.0
135.516,307.0
136.91,332.0
138.304,392.0
139.698,421.0
141.091,489.0
142.484,471.0
143.877,421.0
145.27,428.0
146.663,364.0
148.055,385.0
149.447,364.0
150.839,335.0
152.23,336.0
153.621,357.0
155.012,338.0
156.403,374.0
157.794,454.0
159.184,472.0
160.574,422.0
161.964,416.0
163.353,454.0
164.743,360.0
166.132,449.0
167.52,400.0
168.909,436.0
170.297,429.0
171.685,439.0
173.073,464.0
174.461,434.0
175.848,483.0
177.235,456.0
178.622,451.0
180.008,479.0
181.395,547.0
182.781,497.0
184.167,560.0
185.552,544.0
186.938,525.0
188.323,552.0
189.708,554.0
191.092,556.0
192.477,620.0
193.861,601.0
195.245,656.0
196.629,658.0
198.012,610.0
199.395,720.0
200.778,717.0
202.161,777.0
203.543,776.0
204.925,851.0
206.307,904.0
207.689,1098.0
209.07,1148.0
210.452,1278.0
211.833,1206.0
213.213,1153.0
214.594,1078.0
215.974,958.0
217.354,916.0
218.734,896.0
220.113,864.0
221.493,853.0
222.872,884.0
224.251,812.0
225.629,841.0
227.007,868.0
228.385,850.0
229.763,883.0
231.141,918.0
232.518,939.0
233.895,952.0
235.272,953.0
236.649,924.0
238.025,890.0
239.401,945.0
240.777,923.0
242.153,900.0
243.528,893.0
244.903,904.0
246.278,913.0
247.653,921.0
249.027,948.0
250.402,867.0
251.775,1017.0
253.149,947.0
254.523,928.0
255.896,992.0
257.269,963.0
258.642,1013.0
260.014,965.0
261.386,1003.0
262.758,1036.0
264.13,1030.0
265.502,1034.0
266.873,1110.0
268.244,1119.0
269.615,1109.0
270.985,1054.0
272.356,1143.0
273.726,1131.0
275.096,1131.0
276.465,1136.0
277.835,1147.0
279.204,1203.0
280.573,1252.0
281.941,1228.0
283.31,1168.0
284.678,1314.0
286.046,1230.0
287.413,1338.0
288.781,1379.0
290.148,1285.0
291.515,1409.0
292.882,1366.0
294.248,1420.0
295.615,1437.0
296.981,1452.0
298.346,1446.0
299.712,1478.0
301.077,1584.0
302.442,1556.0
303.807,1560.0
305.172,1562.0
306.536,1592.0
307.9,1540.0
309.264,1539.0
310.628,1561.0
311.991,1477.0
313.354,1538.0
314.717,1590.0
316.08,1520.0
317.442,1580.0
318.804,1569.0
320.166,1529.0
321.528,1516.0
322.889,1573.0
324.251,1544.0
325.612,1558.0
326.972,1647.0
328.333,1634.0
329.693,1586.0
331.053,1672.0
332.413,1582.0
333.773,1713.0
335.132,1704.0
336.491,1698.0
337.85,1692.0
339.208,1667.0
340.567,1732.0
341.925,1676.0
343.283,1747.0
344.64,1796.0
345.998,1781.0
347.355,1782.0
348.712,1800.0
350.069,1877.0
351.425,1833.0
352.781,1787.0
354.137,1850.0
355.493,1900.0
356.849,1846.0
358.204,1888.0
359.559,1916.0
360.914,1950.0
362.268,1889.0
363.623,2001.0
364.977,1971.0
366.331,1942.0
367.684,1976.0
369.038,2029.0
370.391,2012.0
371.744,2019.0
373.097,2109.0
374.449,2015.0
375.801,2147.0
377.153,2071.0
378.505,2157.0
379.857,2102.0
381.208,2140.0
382.559,2162.0
383.91,2158.0
385.26,2233.0
386.611,2219.0
387.961,2229.0
389.311,2267.0
390.66,2199.0
392.01,2205.0
393.359,2284.0
394.708,2312.0
396.056,2295.0
397.405,2338.0
398.753,2409.0
400.101,2355.0
401.449,2412.0
402.796,2436.0
404.143,2362.0
405.49,2469.0
406.837,2432.0
408.184,2454.0
409.53,2454.0
410.876,2420.0
412.222,2531.0
413.568,2464.0
414.913,2534.0
416.258,2563.0
417.603,2606.0
418.948,2620.0
420.292,2664.0
421.637,2664.0
422.981,2713.0
424.324,2736.0
425.668,2873.0
427.011,2769.0
428.354,2892.0
429.697,2886.0
431.04,2958.0
432.382,2890.0
433.724,2914.0
435.066,2949.0
436.408,2945.0
437.749,2914.0
439.09,2999.0
440.431,2997.0
441.772,3121.0
443.113,3033.0
444.453,3190.0
445.793,3201.0
447.133,3288.0
448.472,3281.0
449.811,3306.0
451.151,3418.0
452.489,3388.0
453.828,3408.0
455.166,3395.0
456.505,3263.0
457.843,3378.0
459.18,3352.0
460.518,3311.0
461.855,3272.0
463.192,3263.0
464.529,3326.0
465.865,3267.0
467.202,3306.0
468.538,3251.0
469.873,3282.0
471.209,3341.0
472.544,3307.0
473.88,3445.0
475.214,3334.0
476.549,3372.0
477.884,3424.0
479.218,3419.0
480.552,3415.0
481.886,3425.0
483.219,3443.0
484.552,3533.0
485.885,3487.0
487.218,3557.0
488.551,3537.0
489.883,3546.0
491.215,3553.0
492.547,3603.0
493.879,3569.0
495.21,3718.0
496.542,3674.0
497.873,3682.0
499.203,3766.0
500.534,3781.0
501.864,3763.0
503.194,3760.0
504.524,3812.0
505.854,3839.0
507.183,3873.0
508.512,3918.0
509.841,3910.0
511.17,3908.0
512.498,3947.0
513.826,3968.0
515.154,3977.0
516.482,3966.0
517.81,4042.0
519.137,4041.0
520.464,4066.0
521.791,4059.0
523.118,4129.0
524.444,4086.0
525.77,4191.0
527.096,4104.0
528.422,4141.0
529.747,4181.0
531.072,4226.0
532.397,4207.0
533.722,4263.0
535.047,4203.0
536.371,4330.0
537.695,4341.0
539.019,4385.0
540.343,4416.0
541.666,4384.0
542.989,4455.0
544.312,4439.0
545.635,4456.0
546.957,4511.0
548.28,4642.0
549.602,4586.0
550.923,4621.0
552.245,4656.0
553.566,4581.0
554.887,4726.0
556.208,4685.0
557.529,4717.0
558.849,4827.0
560.17,4595.0
561.49,4786.0
562.809,4843.0
564.129,4853.0
565.448,4845.0
566.767,4906.0
568.086,4898.0
569.405,4961.0
570.723,4979.0
572.041,5015.0
573.359,5039.0
574.677,5122.0
575.994,5060.0
577.312,5157.0
578.629,5228.0
579.945,5187.0
581.262,5382.0
582.578,5314.0
583.894,5451.0
585.21,5604.0
586.526,5835.0
587.841,6188.0
589.157,6643.0
590.471,7164.0
591.786,6964.0
593.101,6536.0
594.415,6230.0
595.729,5860.0
597.043,5795.0
598.357,5731.0
599.67,5733.0
600.983,5897.0
602.296,5958.0
603.609,6243.0
604.921,6466.0
606.234,6671.0
607.546,6708.0
608.857,6238.0
610.169,6029.0
611.48,5963.0
612.791,5950.0
614.102,5974.0
615.413,5942.0
616.723,5976.0
618.034,5887.0
619.344,6071.0
620.653,6116.0
621.963,6100.0
623.272,6061.0
624.581,6048.0
625.89,6020.0
627.199,6231.0
628.507,6156.0
629.816,6186.0
631.124,6240.0
632.431,6286.0
633.739,6275.0
635.046,6203.0
636.353,6500.0
637.66,6424.0
638.967,6454.0
640.273,6450.0
641.579,6466.0
642.885,6492.0
644.191,6488.0
645.496,6471.0
646.802,6563.0
648.107,6529.0
649.412,6708.0
650.716,6667.0
652.021,6719.0
653.325,6793.0
654.629,6834.0
655.932,6854.0
657.236,6872.0
658.539,6801.0
659.842,6942.0
661.145,7041.0
662.448,7086.0
663.75,6900.0
665.052,7064.0
666.354,7110.0
667.656,7064.0
668.957,7200.0
670.258,7185.0
671.559,7219.0
672.86,7316.0
674.161,7182.0
675.461,7356.0
676.761,7371.0
678.061,7344.0
679.361,7360.0
680.66,7366.0
681.96,7523.0
683.259,7496.0
684.557,7620.0
685.856,7550.0
687.154,7643.0
688.453,7798.0
689.75,7645.0
691.048,7766.0
692.346,7778.0
693.643,7766.0
694.94,7888.0
696.237,7888.0
697.533,8018.0
698.83,7938.0
700.126,8068.0
701.422,7988.0
702.717,8058.0
704.013,8068.0
705.308,8088.0
706.603,8108.0
707.898,8328.0
709.192,8238.0
710.487,8338.0
711.781,8378.0
713.075,8258.0
714.368,8488.0
715.662,8448.0
716.955,8388.0
718.248,8578.0
719.541,8518.0
720.834,8658.0
722.126,8618.0
723.418,8548.0
724.71,8868.0
726.002,8628.0
727.293,8928.0
728.584,8838.0
729.875,8788.0
731.166,8908.0
732.457,8858.0
733.747,9028.0
735.037,8898.0
736.327,8898.0
737.617,9088.0
738.907,9008.0
740.196,9208.0
741.485,9278.0
742.774,9108.0
744.062,9248.0
745.351,9278.0
746.639,9398.0
747.927,9448.0
749.215,9318.0
750.502,9578.0
751.789,9608.0
753.076,9578.0
754.363,9708.0
755.65,9608.0
756.936,9738.0
758.223,9618.0
759.509,9838.0
760.794,9838.0
762.08,9888.0
763.365,9968.0
764.65,9928.0
765.935,9898.0
767.22,10118.0
768.504,9918.0
769.788,10048.0
771.072,10148.0
772.356,10098.0
773.64,10278.0
774.923,10248.0
776.206,10328.0
777.489,10278.0
778.772,10188.0
780.054,10468.0
781.337,10408.0
782.619,10558.0
783.9,10638.0
785.182,10608.0
786.463,10618.0
787.745,10658.0
789.025,10728.0
790.306,10798.0
791.587,10768.0
792.867,10918.0
794.147,10848.0
795.427,10938.0
796.707,10998.0
797.986,11038.0
799.265,11058.0
800.544,11008.0
801.823,11108.0
803.101,11258.0
804.38,10948.0
805.658,11228.0
806.936,11248.0
808.213,11288.0
809.491,11338.0
810.768,11408.0
812.045,11578.0
813.322,11448.0
814.599,11608.0
815.875,11658.0
817.151,11678.0
818.427,11818.0
819.703,11658.0
820.978,11718.0
822.253,12138.0
823.529,11858.0
824.803,11988.0
826.078,11888.0
827.352,12058.0
828.627,12298.0
829.901,12148.0
831.174,12258.0
832.448,12318.0
833.721,12218.0
834.994,12528.0
836.267,12408.0
837.54,12518.0
838.812,12608.0
840.085,12518.0
841.357,12568.0
842.629,12628.0
843.9,12738.0
845.172,12838.0
846.443,12608.0
847.714,12958.0
848.984,12918.0
850.255,12828.0
851.525,13018.0
852.795,12948.0
854.065,13118.0
855.335,13178.0
856.604,13188.0
857.874,13538.0
859.143,13388.0
860.411,13428.0
861.68,13358.0
862.948,13328.0
864.217,13718.0
865.484,13388.0
866.752,13648.0
868.02,13638.0
869.287,13738.0
870.554,13728.0
871.821,13828.0
873.088,13948.0
874.354,13948.0
875.62,13898.0
876.886,14038.0
878.152,14098.0
879.418,14158.0
880.683,14258.0
881.948,14188.0
883.213,14288.0
884.478,14398.0
885.742,14178.0
887.007,14508.0
888.271,14438.0
889.535,14558.0
890.798,14618.0
892.062,14618.0
893.325,14628.0
894.588,14768.0
895.851,14898.0
897.113,14848.0
898.376,14888.0
899.638,14978.0
900.9,15048.0
902.161,15268.0
903.423,15218.0
904.684,15158.0
905.945,15488.0
907.206,15418.0
908.467,15328.0
909.727,15718.0
910.987,15388.0
912.247,15718.0
913.507,15778.0
914.767,15788.0
916.026,15818.0
917.285,15868.0
918.544,15978.0
919.803,16058.0
921.062,16018.0
922.32,16268.0
923.578,15928.0
924.836,16308.0
926.094,16278.0
927.351,16478.0
928.608,16428.0
929.865,16538.0
931.122,16398.0
932.379,16658.0
933.635,16798.0
934.891,16908.0
936.147,16738.0
937.403,16728.0
938.659,16978.0
939.914,17008.0
941.169,17298.0
942.424,17248.0
943.679,17188.0
944.933,17628.0
946.188,17568.0
947.442,17638.0
948.696,17878.0
949.949,17888.0
951.203,17888.0
952.456,18258.0
953.709,18168.0
954.962,18838.0
956.214,19088.0
957.467,19588.0
958.719,20528.0
959.971,22578.0
961.222,27048.0
962.474,33188.0
963.725,38498.0
964.976,36988.0
966.227,30088.0
967.478,24358.0
968.729,21808.0
969.979,20368.0
971.229,19858.0
972.479,19258.0
973.728,18968.0
974.978,19058.0
976.227,18688.0
977.476,19058.0
978.725,19058.0
979.973,19008.0
981.222,19078.0
982.47,18828.0
983.718,19348.0
984.966,19228.0
986.213,19098.0
987.46,19308.0
988.708,19388.0
989.954,19478.0
991.201,19698.0
992.448,19478.0
993.694,19738.0
994.94,19648.0
996.186,19618.0
997.431,20048.0
998.677,19648.0
999.922,19908.0
1001.167,20148.0
1002.412,19908.0
1003.657,20218.0
1004.901,19948.0
1006.145,20438.0
1007.389,20338.0
1008.633,20398.0
1009.876,20548.0
1011.12,20288.0
1012.363,20698.0
1013.606,20648.0
1014.848,20658.0
1016.091,20908.0
1017.333,20948.0
1018.575,20788.0
1019.817,20868.0
1021.059,20928.0
1022.3,21078.0
1023.542,21258.0
1024.783,21208.0
1026.024,21268.0
1027.264,21378.0
1028.505,21358.0
1029.745,21658.0
1030.985,21308.0
1032.225,21478.0
1033.464,21858.0
1034.704,21488.0
1035.943,21758.0
1037.182,21888.0
1038.42,22218.0
1039.659,22208.0
1040.897,22248.0
1042.135,22618.0
1043.373,22628.0
1044.611,22348.0
1045.849,22838.0
1047.086,23178.0
1048.323,23448.0
1049.56,24558.0
1050.797,25368.0
1052.033,26438.0
1053.269,26118.0
1054.505,24428.0
1055.741,24108.0
1056.977,23788.0
1058.212,23508.0
1059.447,23698.0
1060.682,23138.0
1061.917,23298.0
1063.152,23658.0
1064.386,23158.0
1065.62,23618.0
1066.854,23238.0
1068.088,23758.0
1069.322,23488.0
1070.555,23638.0
1071.788,23888.0
1073.021,23918.0
1074.254,23778.0
1075.487,24368.0
1076.719,24348.0
1077.951,25098.0
1079.183,25748.0
1080.415,25458.0
1081.646,25558.0
1082.877,24928.0
1084.109,24638.0
1085.339,24878.0
1086.57,24228.0
1087.801,24608.0
1089.031,24558.0
1090.261,24408.0
1091.491,24688.0
1092.72,24308.0
1093.95,24958.0
1095.179,24818.0
1096.408,24728.0
1097.637,25208.0
1098.866,24638.0
1100.094,24958.0
1101.322,25168.0
1102.55,25058.0
1103.778,25118.0
1105.006,25228.0
1106.233,25228.0
1107.46,25438.0
1108.687,25318.0
1109.914,25208.0
1111.141,25708.0
1112.367,25428.0
1113.593,25468.0
1114.819,25688.0
1116.045,25488.0
1117.27,26018.0
1118.496,25598.0
1119.721,26008.0
1120.946,26138.0
1122.17,25978.0
1123.395,26108.0
1124.619,26058.0
1125.843,26328.0
1127.067,26428.0
1128.291,26158.0
1129.514,26478.0
1130.738,26398.0
1131.961,26478.0
1133.184,26738.0
1134.406,26878.0
1135.629,26558.0
1136.851,27038.0
1138.073,27008.0
1139.295,26978.0
1140.517,27268.0
1141.738,26998.0
1142.96,27368.0
1144.181,27218.0
1145.401,27288.0
1146.622,27488.0
1147.842,27388.0
1149.063,27468.0
1150.283,27708.0
1151.503,27368.0
1152.722,27848.0
1153.942,27638.0
1155.161,27768.0
1156.38,28048.0
1157.599,28058.0
1158.817,27948.0
1160.036,28438.0
1161.254,27998.0
1162.472,28748.0
1163.69,28178.0
1164.907,28508.0
1166.125,28638.0
1167.342,28418.0
1168.559,28608.0
1169.776,28698.0
1170.992,28758.0
1172.209,28758.0
1173.425,29048.0
1174.641,28918.0
1175.857,29098.0
1177.072,29118.0
1178.287,29158.0
1179.503,29518.0
1180.718,29208.0
1181.932,29758.0
1183.147,29718.0
1184.361,29458.0
1185.575,30078.0
1186.789,29778.0
1188.003,30118.0
1189.217,30078.0
1190.43,30008.0
1191.643,30338.0
1192.856,30628.0
1194.069,30148.0
1195.281,30468.0
1196.494,30378.0
1197.706,30638.0
1198.918,30848.0
1200.13,30288.0
1201.341,30828.0
1202.552,30748.0
1203.764,30958.0
1204.974,30998.0
1206.185,30968.0
1207.396,31248.0
1208.606,31278.0
1209.816,30968.0
1211.026,31768.0
1212.236,31428.0
1213.445,31048.0
1214.655,31748.0
1215.864,31518.0
1217.073,31848.0
1218.281,32008.0
1219.49,31788.0
1220.698,32138.0
1221.906,32288.0
1223.114,31618.0
1224.322,32398.0
1225.529,32438.0
1226.737,31958.0
1227.944,32868.0
1229.151,32048.0
1230.358,32628.0
1231.564,32768.0
1232.77,32558.0
1233.976,32668.0
1235.182,32758.0
1236.388,32768.0
1237.594,33058.0
1238.799,33068.0
1240.004,33098.0
1241.209,33258.0
1242.414,32878.0
1243.618,33718.0
1244.822,33228.0
1246.027,33428.0
1247.23,33678.0
1248.434,33238.0
1249.638,33588.0
1250.841,33748.0
1252.044,33548.0
1253.247,33658.0
1254.45,33978.0
1255.652,33698.0
1256.855,34008.0
1258.057,34288.0
1259.259,34608.0
1260.46,34418.0
1261.662,34158.0
1262.863,34528.0
1264.064,34818.0
1265.265,34738.0
1266.466,34938.0
1267.666,34868.0
1268.867,34558.0
1270.067,35358.0
1271.267,34768.0
1272.467,35328.0
1273.666,34888.0
1274.865,35008.0
1276.065,35608.0
1277.264,35108.0
1278.462,34918.0
1279.661,35548.0
1280.859,35358.0
1282.057,35658.0
1283.255,35868.0
1284.453,35688.0
1285.651,35968.0
1286.848,35858.0
1288.045,36128.0
1289.242,36138.0
1290.439,35818.0
1291.635,36018.0
1292.832,36368.0
1294.028,36198.0
