Raman shift,Intensity
407.82013,383.91207
407.82013,427.3152
407.82013,425.95885
407.82013,400.18824
407.82013,401.54459
407.82013,402.90094
407.82013,398.8319
407.82013,404.25729
407.82013,405.61363
407.82013,397.47555
407.82013,396.1192
407.82013,394.76285
407.82013,393.4065
407.82013,390.69381
407.82013,389.33746
407.82013,387.98111
407.82013,386.62477
407.82013,385.26842
407.82013,406.96998
407.82013,382.55572
407.82013,381.19937
409.37447,406.96998
410.92881,406.96998
412.48315,406.96998
414.03749,406.96998
415.59183,408.32633
417.14617,409.68268
418.70051,420.53346
418.70051,411.03903
418.70051,412.39537
418.70051,413.75172
418.70051,415.10807
418.70051,416.46442
418.70051,417.82076
418.70051,419.17711
418.70051,421.88981
420.25484,424.6025
420.25484,421.88981
420.25484,423.24615
421.80918,424.6025
423.36352,424.6025
423.36352,425.95885
423.36352,427.3152
424.91786,427.3152
426.4722,428.67155
426.4722,430.02789
426.4722,431.38424
426.4722,432.74059
428.02654,439.52233
428.02654,432.74059
428.02654,434.09694
428.02654,435.45328
428.02654,436.80963
428.02654,438.16598
428.02654,440.87868
429.58088,443.59137
429.58088,442.23502
431.13522,444.94772
431.13522,446.30407
432.68956,447.66041
434.24389,449.01676
434.24389,450.37311
435.79823,451.72946
437.35257,453.08581
437.35257,451.72946
438.90691,454.44215
440.46125,454.44215
442.01559,459.86754
442.01559,455.7985
443.56993,455.7985
443.56993,457.15485
443.56993,458.5112
443.56993,461.22389
445.12427,463.93659
445.12427,457.15485
445.12427,462.58024
445.12427,465.29294
446.6786,466.64928
448.23294,468.00563
449.78728,474.78737
449.78728,469.36198
449.78728,470.71833
449.78728,472.07467
449.78728,473.43102
449.78728,476.14372
451.34162,481.56911
451.34162,476.14372
451.34162,482.92546
452.89596,480.21276
452.89596,476.14372
452.89596,484.2818
452.89596,485.63815
452.89596,486.9945
454.4503,488.35085
454.4503,476.14372
454.4503,481.56911
454.4503,478.85641
454.4503,489.70719
454.4503,491.06354
454.4503,480.21276
454.4503,493.77624
454.4503,477.50006
454.4503,482.92546
456.00464,478.85641
456.00464,477.50006
456.00464,492.41989
456.00464,484.2818
456.00464,476.14372
456.00464,495.13259
456.00464,497.84528
457.55898,499.20163
457.55898,500.55798
457.55898,496.48893
457.55898,485.63815
459.11331,486.9945
459.11331,501.91432
459.11331,503.27067
459.11331,499.20163
459.11331,500.55798
459.11331,493.77624
460.66765,501.91432
460.66765,497.84528
460.66765,495.13259
460.66765,492.41989
460.66765,491.06354
460.66765,510.05241
460.66765,489.70719
460.66765,488.35085
460.66765,504.62702
460.66765,503.27067
460.66765,507.33972
460.66765,508.69606
462.22199,505.98337
462.22199,510.05241
462.22199,496.48893
462.22199,508.69606
462.22199,507.33972
462.22199,511.40876
462.22199,504.62702
463.77633,505.98337
463.77633,511.40876
463.77633,510.05241
465.33067,511.40876
465.33067,510.05241
466.88501,511.40876
466.88501,510.05241
468.43935,522.25954
468.43935,519.54685
468.43935,518.1905
468.43935,516.83415
468.43935,512.76511
468.43935,520.90319
468.43935,511.40876
468.43935,514.12145
468.43935,515.4778
468.43935,510.05241
468.43935,523.61589
469.99369,510.05241
469.99369,511.40876
469.99369,512.76511
469.99369,514.12145
469.99369,515.4778
469.99369,520.90319
469.99369,516.83415
469.99369,518.1905
469.99369,522.25954
469.99369,523.61589
469.99369,524.97224
469.99369,519.54685
471.54802,524.97224
473.10236,526.32858
474.6567,526.32858
476.21104,526.32858
477.76538,524.97224
479.31972,522.25954
479.31972,523.61589
480.87406,519.54685
480.87406,520.90319
482.4284,516.83415
482.4284,519.54685
482.4284,518.1905
483.98273,516.83415
483.98273,515.4778
483.98273,514.12145
485.53707,514.12145
485.53707,512.76511
487.09141,508.69606
487.09141,510.05241
487.09141,511.40876
487.09141,512.76511
487.09141,507.33972
487.09141,514.12145
488.64575,514.12145
488.64575,505.98337
488.64575,522.25954
488.64575,512.76511
490.20009,504.62702
490.20009,510.05241
490.20009,503.27067
490.20009,501.91432
490.20009,514.12145
491.75443,510.05241
491.75443,511.40876
491.75443,512.76511
491.75443,500.55798
491.75443,501.91432
491.75443,499.20163
491.75443,514.12145
493.30877,510.05241
493.30877,499.20163
493.30877,497.84528
493.30877,496.48893
494.86311,496.48893
494.86311,495.13259
494.86311,493.77624
494.86311,510.05241
494.86311,508.69606
494.86311,507.33972
496.41745,505.98337
496.41745,504.62702
496.41745,492.41989
496.41745,493.77624
497.97178,491.06354
497.97178,504.62702
497.97178,503.27067
497.97178,492.41989
497.97178,500.55798
497.97178,501.91432
499.52612,489.70719
499.52612,500.55798
499.52612,499.20163
501.08046,499.20163
501.08046,497.84528
501.08046,496.48893
501.08046,488.35085
502.6348,486.9945
502.6348,496.48893
502.6348,495.13259
504.18914,495.13259
504.18914,493.77624
504.18914,486.9945
505.74348,482.92546
505.74348,493.77624
505.74348,486.9945
505.74348,485.63815
505.74348,484.2818
507.29782,492.41989
507.29782,482.92546
507.29782,491.06354
508.85216,488.35085
508.85216,482.92546
508.85216,489.70719
508.85216,491.06354
510.40649,486.9945
510.40649,488.35085
510.40649,482.92546
511.96083,481.56911
511.96083,482.92546
511.96083,485.63815
511.96083,484.2818
513.51517,481.56911
513.51517,484.2818
513.51517,482.92546
515.06951,482.92546
515.06951,476.14372
515.06951,477.50006
515.06951,478.85641
515.06951,480.21276
515.06951,481.56911
516.62385,476.14372
516.62385,477.50006
516.62385,478.85641
516.62385,480.21276
516.62385,481.56911
518.17819,477.50006
518.17819,476.14372
518.17819,474.78737
519.73253,474.78737
519.73253,473.43102
519.73253,472.07467
519.73253,470.71833
519.73253,469.36198
519.73253,477.50006
519.73253,476.14372
521.28687,469.36198
521.28687,476.14372
521.28687,474.78737
522.8412,474.78737
522.8412,473.43102
522.8412,472.07467
522.8412,469.36198
524.39554,472.07467
524.39554,469.36198
525.94988,472.07467
525.94988,469.36198
525.94988,468.00563
527.50422,468.00563
527.50422,469.36198
527.50422,466.64928
527.50422,472.07467
527.50422,470.71833
529.05856,465.29294
529.05856,466.64928
529.05856,469.36198
529.05856,468.00563
530.6129,451.72946
530.6129,466.64928
530.6129,454.44215
530.6129,465.29294
530.6129,468.00563
530.6129,463.93659
530.6129,453.08581
530.6129,462.58024
530.6129,459.86754
530.6129,461.22389
532.16724,459.86754
532.16724,458.5112
532.16724,447.66041
532.16724,449.01676
532.16724,450.37311
532.16724,455.7985
532.16724,463.93659
532.16724,461.22389
532.16724,465.29294
532.16724,466.64928
532.16724,454.44215
532.16724,462.58024
533.72158,457.15485
533.72158,461.22389
533.72158,454.44215
533.72158,447.66041
533.72158,455.7985
533.72158,458.5112
533.72158,459.86754
535.27591,459.86754
535.27591,458.5112
535.27591,454.44215
535.27591,457.15485
535.27591,447.66041
536.83025,447.66041
536.83025,454.44215
538.38459,444.94772
538.38459,446.30407
538.38459,454.44215
538.38459,453.08581
539.93893,449.01676
539.93893,451.72946
539.93893,450.37311
539.93893,447.66041
539.93893,443.59137
541.49327,442.23502
541.49327,447.66041
541.49327,440.87868
541.49327,439.52233
541.49327,443.59137
543.04761,443.59137
543.04761,438.16598
543.04761,444.94772
543.04761,446.30407
543.04761,442.23502
544.60195,438.16598
544.60195,442.23502
544.60195,436.80963
544.60195,440.87868
544.60195,439.52233
546.15629,439.52233
546.15629,435.45328
546.15629,432.74059
546.15629,438.16598
546.15629,436.80963
546.15629,431.38424
546.15629,434.09694
547.71063,431.38424
547.71063,434.09694
547.71063,435.45328
549.26496,427.3152
549.26496,432.74059
549.26496,430.02789
549.26496,431.38424
549.26496,434.09694
549.26496,428.67155
550.8193,416.46442
550.8193,427.3152
550.8193,432.74059
550.8193,431.38424
550.8193,424.6025
550.8193,425.95885
550.8193,430.02789
550.8193,428.67155
550.8193,415.10807
550.8193,413.75172
552.37364,423.24615
552.37364,428.67155
552.37364,416.46442
552.37364,427.3152
552.37364,413.75172
552.37364,425.95885
552.37364,417.82076
553.92798,416.46442
553.92798,421.88981
553.92798,420.53346
553.92798,419.17711
553.92798,423.24615
553.92798,424.6025
553.92798,417.82076
553.92798,413.75172
555.48232,423.24615
555.48232,421.88981
555.48232,413.75172
555.48232,412.39537
555.48232,411.03903
555.48232,409.68268
555.48232,408.32633
555.48232,406.96998
555.48232,420.53346
555.48232,416.46442
555.48232,419.17711
557.03666,405.61363
557.03666,390.69381
557.03666,416.46442
557.03666,393.4065
558.591,411.03903
558.591,408.32633
558.591,406.96998
558.591,412.39537
558.591,413.75172
558.591,392.05016
558.591,398.8319
558.591,397.47555
558.591,396.1192
558.591,394.76285
558.591,393.4065
558.591,404.25729
558.591,416.46442
558.591,415.10807
558.591,409.68268
560.14534,400.18824
560.14534,398.8319
560.14534,405.61363
560.14534,393.4065
560.14534,402.90094
560.14534,401.54459
561.69967,404.25729
561.69967,400.18824
561.69967,401.54459
561.69967,393.4065
563.25401,394.76285
563.25401,393.4065
563.25401,402.90094
563.25401,404.25729
564.80835,397.47555
564.80835,394.76285
564.80835,398.8319
564.80835,396.1192
566.36269,400.18824
567.91703,398.8319
569.47137,397.47555
571.02571,397.47555
572.58005,398.8319
574.13438,400.18824
575.68872,401.54459
577.24306,400.18824
578.7974,398.8319
580.35174,405.61363
580.35174,401.54459
580.35174,400.18824
580.35174,404.25729
580.35174,402.90094
581.90608,406.96998
583.46042,406.96998
585.01476,406.96998
586.56909,406.96998
588.12343,408.32633
588.12343,406.96998
589.67777,408.32633
589.67777,409.68268
591.23211,409.68268
592.78645,408.32633
594.34079,409.68268
595.89513,411.03903
597.44947,412.39537
599.0038,413.75172
600.55814,415.10807
602.11248,408.32633
602.11248,405.61363
602.11248,404.25729
602.11248,402.90094
602.11248,401.54459
602.11248,409.68268
602.11248,412.39537
602.11248,406.96998
602.11248,413.75172
602.11248,411.03903
603.66682,401.54459
605.22116,401.54459
606.7755,401.54459
608.32984,400.18824
608.32984,390.69381
609.88418,398.8319
609.88418,386.62477
609.88418,392.05016
609.88418,389.33746
609.88418,393.4065
609.88418,387.98111
611.43852,397.47555
611.43852,394.76285
612.99285,397.47555
612.99285,396.1192
637.34952,381.79779
649.71356,381.79779
677.53265,381.79779
683.71467,367.41383
689.89669,371.90882
701.23039,367.41383
701.23039,371.90882
723.8978,371.90882
763.76372,373.06129
763.76372,375.77398
763.76372,366.27955
763.76372,367.6359
763.76372,368.99224
763.76372,370.34859
763.76372,371.70494
763.76372,374.41764
765.31805,377.13033
765.31805,364.9232
765.31805,375.77398
766.87239,378.48668
766.87239,377.13033
768.42673,383.91207
768.42673,379.84303
768.42673,386.62477
768.42673,385.26842
768.42673,387.98111
769.98107,382.55572
769.98107,387.98111
769.98107,381.19937
771.53541,387.98111
773.08975,387.98111
774.64409,387.98111
776.19843,387.98111
777.75277,387.98111
777.75277,389.33746
779.3071,392.05016
779.3071,389.33746
779.3071,390.69381
780.86144,392.05016
780.86144,394.76285
780.86144,393.4065
780.86144,396.1192
782.41578,397.47555
783.97012,398.8319
785.52446,398.8319
787.0788,398.8319
788.63314,398.8319
790.18748,397.47555
791.74181,396.1192
791.74181,397.47555
793.29615,394.76285
793.29615,396.1192
794.85049,394.76285
796.40483,389.33746
796.40483,394.76285
796.40483,393.4065
796.40483,392.05016
796.40483,390.69381
797.95917,389.33746
799.51351,389.33746
801.06785,389.33746
802.62219,387.98111
804.17652,386.62477
805.73086,382.55572
805.73086,386.62477
805.73086,385.26842
805.73086,383.91207
807.2852,381.19937
808.83954,379.84303
808.83954,381.19937
810.39388,379.84303
811.94822,379.84303
813.50256,378.48668
813.50256,379.84303
815.0569,378.48668
816.61123,378.48668
818.16557,370.34859
818.16557,378.48668
818.16557,377.13033
818.16557,375.77398
818.16557,374.41764
818.16557,373.06129
818.16557,371.70494
819.71991,368.99224
821.27425,368.99224
822.82859,362.21051
822.82859,368.99224
822.82859,367.6359
822.82859,366.27955
822.82859,364.9232
822.82859,363.56685
822.82859,360.85416
824.38293,358.14146
824.38293,360.85416
824.38293,359.49781
825.93727,356.78512
825.93727,358.14146
827.49161,355.42877
827.49161,356.78512
829.04594,354.07242
829.04594,355.42877
830.60028,352.71607
830.60028,354.07242
830.60028,351.35972
832.15462,350.00338
832.15462,351.35972
833.70896,350.00338
835.2633,350.00338
836.81764,350.00338
838.37198,348.64703
838.37198,350.00338
839.92632,348.64703
841.48066,348.64703
843.03499,344.57799
843.03499,348.64703
843.03499,347.29068
843.03499,345.93433
844.58933,343.22164
846.14367,341.86529
847.69801,341.86529
849.25235,341.86529
850.80669,341.86529
852.36103,343.22164
853.91537,344.57799
853.91537,343.22164
855.4697,345.93433
855.4697,344.57799
857.02404,345.93433
858.57838,345.93433
860.13272,347.29068
861.68706,348.64703
863.2414,350.00338
864.79574,351.35972
866.35008,352.71607
867.90441,354.07242
869.45875,354.07242
871.01309,354.07242
872.56743,354.07242
874.12177,351.35972
874.12177,352.71607
875.67611,351.35972
877.23045,351.35972
878.78479,350.00338
878.78479,348.64703
878.78479,351.35972
880.33912,347.29068
880.33912,345.93433
880.33912,344.57799
880.33912,348.64703
881.89346,343.22164
881.89346,344.57799
881.89346,340.50894
881.89346,341.86529
881.89346,339.15259
883.4478,339.15259
885.00214,339.15259
886.55648,337.79625
886.55648,336.4399
886.55648,339.15259
888.11082,336.4399
888.11082,335.08355
889.66516,333.7272
889.66516,332.37086
889.66516,335.08355
891.2195,331.01451
891.2195,329.65816
891.2195,332.37086
892.77384,328.30181
892.77384,329.65816
894.32817,325.58912
894.32817,324.23277
894.32817,322.87642
894.32817,326.94546
895.88251,321.52007
897.43685,321.52007
898.99119,321.52007
900.54553,322.87642
902.09987,322.87642
903.65421,325.58912
903.65421,324.23277
905.20855,328.30181
905.20855,326.94546
906.76288,328.30181
906.76288,329.65816
908.31722,331.01451
908.31722,329.65816
909.87156,331.01451
911.4259,332.37086
911.4259,331.01451
912.98024,332.37086
914.53458,333.7272
916.08892,336.4399
916.08892,335.08355
917.64326,337.79625
917.64326,336.4399
919.19759,339.15259
919.19759,337.79625
920.75193,339.15259
922.30627,340.50894
923.86061,340.50894
925.41495,341.86529
926.96929,343.22164
928.52363,341.86529
930.07797,340.50894
931.6323,339.15259
933.18664,339.15259
934.74098,339.15259
936.29532,339.15259
937.84966,340.50894
939.404,341.86529
939.404,340.50894
940.95834,341.86529
942.51268,341.86529
944.06701,343.22164
945.62135,343.22164
945.62135,344.57799
947.17569,344.57799
947.17569,345.93433
947.17569,347.29068
947.17569,348.64703
947.17569,350.00338
947.17569,351.35972
947.17569,352.71607
947.17569,354.07242
947.17569,355.42877
947.17569,356.78512
947.17569,358.14146
947.17569,359.49781
947.17569,360.85416
947.17569,362.21051
948.73003,362.21051
948.73003,363.56685
950.28437,363.56685
950.28437,364.9232
951.83871,364.9232
953.39305,364.9232
954.94739,364.9232
956.50173,364.9232
956.50173,366.27955
956.50173,367.6359
956.50173,368.99224
956.50173,370.34859
956.50173,371.70494
956.50173,373.06129
956.50173,374.41764
956.50173,375.77398
958.05606,378.48668
958.05606,377.13033
959.6104,378.48668
961.16474,381.19937
961.16474,382.55572
961.16474,383.91207
961.16474,379.84303
962.71908,385.26842
962.71908,383.91207
964.27342,386.62477
964.27342,387.98111
965.82776,387.98111
965.82776,389.33746
967.3821,390.69381
967.3821,392.05016
967.3821,389.33746
968.93644,392.05016
970.49077,392.05016
972.04511,392.05016
972.04511,394.76285
972.04511,396.1192
972.04511,393.4065
973.59945,396.1192
975.15379,397.47555
975.15379,396.1192
976.70813,397.47555
976.70813,398.8319
978.26247,400.18824
978.26247,398.8319
979.81681,400.18824
981.37115,401.54459
982.92548,401.54459
984.47982,401.54459
986.03416,400.18824
987.5885,398.8319
989.14284,400.18824
990.69718,401.54459
992.25152,401.54459
993.80586,400.18824
995.36019,400.18824
996.91453,400.18824
998.46887,400.18824
1000.02321,400.18824
1001.57755,400.18824
1003.13189,400.18824
1004.68623,398.8319
1006.24057,400.18824
1007.79491,400.18824
1009.34924,400.18824
1010.90358,400.18824
1012.45792,400.18824
1014.01226,398.8319
1015.5666,398.8319
1017.12094,398.8319
1018.67528,398.8319
1020.22962,398.8319
1021.78395,397.47555
1023.33829,398.8319
1024.89263,398.8319
1026.44697,397.47555
1028.00131,397.47555
1029.55565,397.47555
1031.10999,396.1192
1031.10999,393.4065
1031.10999,392.05016
1031.10999,390.69381
1031.10999,394.76285
1032.66433,390.69381
1032.66433,387.98111
1032.66433,389.33746
1034.21866,385.26842
1034.21866,386.62477
1035.773,381.19937
1035.773,385.26842
1035.773,382.55572
1037.32734,385.26842
1037.32734,382.55572
1038.88168,386.62477
1038.88168,382.55572
1040.43602,382.55572
1040.43602,387.98111
1041.99036,383.91207
1041.99036,387.98111
1043.5447,386.62477
1043.5447,383.91207
1045.09904,389.33746
1045.09904,383.91207
1045.09904,390.69381
1045.09904,386.62477
1045.09904,387.98111
1045.09904,385.26842
1046.65337,385.26842
1046.65337,387.98111
1046.65337,390.69381
1046.65337,393.4065
1046.65337,392.05016
1046.65337,386.62477
1048.20771,393.4065
1048.20771,396.1192
1048.20771,394.76285
1048.20771,397.47555
1048.20771,387.98111
1048.20771,389.33746
1049.76205,389.33746
1049.76205,390.69381
1049.76205,392.05016
1049.76205,393.4065
1049.76205,394.76285
1049.76205,396.1192
1049.76205,397.47555
1049.76205,398.8319
1051.31639,400.18824
1051.31639,401.54459
1051.31639,398.8319
1052.87073,404.25729
1052.87073,405.61363
1052.87073,402.90094
1054.42507,405.61363
1055.97941,408.32633
1055.97941,405.61363
1055.97941,411.03903
1055.97941,409.68268
1057.53375,405.61363
1057.53375,406.96998
1057.53375,411.03903
1059.08808,412.39537
1059.08808,413.75172
1059.08808,405.61363
1060.64242,419.17711
1060.64242,417.82076
1060.64242,415.10807
1062.19676,419.17711
1062.19676,416.46442
1063.7511,430.02789
1063.7511,428.67155
1063.7511,427.3152
1063.7511,419.17711
1063.7511,425.95885
1065.30544,423.24615
1065.30544,421.88981
1065.30544,420.53346
1065.30544,431.38424
1065.30544,432.74059
1065.30544,424.6025
1066.85978,432.74059
1068.41412,432.74059
1069.96846,432.74059
1071.5228,438.16598
1071.5228,434.09694
1071.5228,436.80963
1071.5228,435.45328
1071.5228,442.23502
1071.5228,439.52233
1071.5228,440.87868
1073.07713,443.59137
1073.07713,444.94772
1073.07713,446.30407
1073.07713,442.23502
1074.63147,447.66041
1076.18581,447.66041
1077.74015,447.66041
1079.29449,449.01676
1079.29449,450.37311
1079.29449,447.66041
1080.84883,451.72946
1082.40317,451.72946
1083.95751,453.08581
1083.95751,451.72946
1085.51184,454.44215
1085.51184,453.08581
1087.06618,454.44215
1087.06618,455.7985
1087.06618,458.5112
1087.06618,459.86754
1087.06618,461.22389
1087.06618,462.58024
1087.06618,463.93659
1087.06618,465.29294
1087.06618,466.64928
1087.06618,457.15485
1088.62052,468.00563
1090.17486,466.64928
1091.7292,465.29294
1093.28354,463.93659
1094.83788,465.29294
1096.39222,466.64928
1097.94655,466.64928
1099.50089,466.64928
1101.05523,466.64928
1101.05523,465.29294
1101.05523,463.93659
1101.05523,462.58024
1101.05523,461.22389
1101.05523,459.86754
1101.05523,458.5112
1101.05523,457.15485
1101.05523,455.7985
1101.05523,454.44215
1101.05523,453.08581
1101.05523,451.72946
1102.60957,451.72946
1104.16391,451.72946
1104.16391,447.66041
1104.16391,450.37311
1104.16391,449.01676
1104.16391,446.30407
1105.71825,451.72946
1105.71825,446.30407
1105.71825,444.94772
1107.27259,444.94772
1108.82693,444.94772
1110.38126,444.94772
1111.9356,444.94772
1113.48994,442.23502
1113.48994,443.59137
1115.04428,438.16598
1115.04428,439.52233
1115.04428,440.87868
1116.59862,438.16598
1116.59862,436.80963
1118.15296,434.09694
1118.15296,435.45328
1119.7073,431.38424
1119.7073,432.74059
1121.26164,430.02789
1121.26164,428.67155
1121.26164,431.38424
1122.81598,425.95885
1122.81598,427.3152
1122.81598,428.67155
1124.37031,425.95885
1125.92465,424.6025
1127.47899,423.24615
1127.47899,420.53346
1127.47899,421.88981
1129.03333,419.17711
1129.03333,420.53346
1130.58767,419.17711
1130.58767,417.82076
1132.14201,415.10807
1132.14201,416.46442
1132.14201,417.82076
1133.69635,412.39537
1133.69635,413.75172
1133.69635,415.10807
1135.25069,412.39537
1136.80502,412.39537
1138.35936,412.39537
1138.35936,409.68268
1138.35936,411.03903
1139.9137,408.32633
1141.46804,408.32633
1143.02238,406.96998
1143.02238,404.25729
1143.02238,402.90094
1143.02238,401.54459
1143.02238,405.61363
1143.02238,408.32633
1144.57672,400.18824
1146.13106,400.18824
1147.6854,400.18824
1149.23973,401.54459
1150.79407,402.90094
1152.34841,404.25729
1153.90275,402.90094
1155.45709,401.54459
1157.01143,400.18824
1158.56577,402.90094
1158.56577,404.25729
1158.56577,405.61363
1158.56577,406.96998
1158.56577,408.32633
1158.56577,400.18824
1158.56577,401.54459
1160.12011,408.32633
1161.67444,408.32633
1161.67444,409.68268
1163.22878,409.68268
1164.78312,409.68268
1166.33746,411.03903
1167.8918,411.03903
1169.44614,409.68268
1171.00048,408.32633
1172.55482,406.96998
1174.10915,408.32633
1175.66349,409.68268
1177.21783,409.68268
1178.77217,406.96998
1178.77217,405.61363
1178.77217,404.25729
1178.77217,402.90094
1178.77217,408.32633
1178.77217,409.68268
1180.32651,402.90094
1181.88085,402.90094
1183.43519,402.90094
1184.98953,402.90094
1186.54387,402.90094
1188.0982,402.90094
1189.65254,402.90094
1191.20688,401.54459
1191.20688,400.18824
1192.76122,398.8319
1192.76122,400.18824
1194.31556,398.8319
1194.31556,394.76285
1194.31556,393.4065
1194.31556,392.05016
1194.31556,390.69381
1194.31556,389.33746
1194.31556,396.1192
1194.31556,397.47555
1195.8699,387.98111
1195.8699,378.48668
1197.42424,375.77398
1197.42424,377.13033
1197.42424,379.84303
1197.42424,381.19937
1197.42424,382.55572
1197.42424,386.62477
1197.42424,385.26842
1197.42424,383.91207
1229.79311,392.58575
1281.30995,392.58575
1321.49308,402.47472
1379.28187,409.68268
1379.28187,411.03903
1413.19304,432.14163
1430.70877,432.14163
1477.07392,432.14163
1520.7267,394.76285
1520.7267,396.1192
1522.28104,397.47555
1522.28104,398.8319
1522.28104,400.18824
1522.28104,401.54459
1522.28104,402.90094
1523.83538,404.25729
1525.38972,404.25729
1526.94406,404.25729
1528.4984,406.96998
1528.4984,405.61363
1528.4984,408.32633
1530.05274,413.75172
1530.05274,409.68268
1530.05274,412.39537
1530.05274,411.03903
1530.05274,415.10807
1531.60708,415.10807
1533.16141,417.82076
1533.16141,415.10807
1533.16141,419.17711
1534.71575,428.67155
1534.71575,427.3152
1534.71575,425.95885
1534.71575,424.6025
1534.71575,423.24615
1534.71575,421.88981
1534.71575,420.53346
1534.71575,416.46442
1534.71575,415.10807
1536.27009,449.01676
1536.27009,430.02789
1536.27009,431.38424
1536.27009,446.30407
1536.27009,444.94772
1537.82443,443.59137
1537.82443,450.37311
1537.82443,434.09694
1537.82443,432.74059
1537.82443,447.66041
1537.82443,451.72946
1537.82443,453.08581
1539.37877,442.23502
1539.37877,454.44215
1539.37877,438.16598
1539.37877,439.52233
1539.37877,440.87868
1539.37877,435.45328
1539.37877,436.80963
1540.93311,462.58024
1540.93311,455.7985
1540.93311,459.86754
1540.93311,458.5112
1542.48745,466.64928
1542.48745,461.22389
1542.48745,463.93659
1542.48745,468.00563
1542.48745,465.29294
1542.48745,457.15485
1544.04179,469.36198
1545.59612,470.71833
1545.59612,474.78737
1547.15046,480.21276
1547.15046,473.43102
1547.15046,476.14372
1547.15046,472.07467
1547.15046,477.50006
1547.15046,478.85641
1548.7048,484.2818
1548.7048,481.56911
1550.25914,482.92546
1550.25914,486.9945
1550.25914,485.63815
1551.81348,495.13259
1551.81348,492.41989
1551.81348,491.06354
1551.81348,489.70719
1551.81348,488.35085
1551.81348,493.77624
1551.81348,507.33972
1553.36782,505.98337
1553.36782,504.62702
1553.36782,497.84528
1553.36782,499.20163
1553.36782,500.55798
1553.36782,496.48893
1554.92216,503.27067
1554.92216,501.91432
1565.80253,497.84528
1567.35687,497.84528
1568.91121,500.55798
1568.91121,501.91432
1568.91121,499.20163
1570.46554,501.91432
1572.01988,501.91432
1573.57422,503.27067
1575.12856,504.62702
1575.12856,505.98337
1576.6829,507.33972
1576.6829,505.98337
1576.6829,508.69606
1576.6829,510.05241
1576.6829,511.40876
1578.23724,512.76511
1579.79158,514.12145
1581.34592,515.4778
1582.90026,516.83415
1584.45459,524.97224
1584.45459,516.83415
1584.45459,518.1905
1586.00893,519.54685
1586.00893,526.32858
1586.00893,523.61589
1586.00893,527.68493
1587.56327,529.04128
1587.56327,530.39763
1587.56327,519.54685
1587.56327,522.25954
1589.11761,520.90319
1589.11761,531.75397
1589.11761,519.54685
1590.67195,533.11032
1592.22629,535.82302
1592.22629,534.46667
1593.78063,537.17937
1593.78063,549.3865
1593.78063,548.03015
1593.78063,538.53571
1593.78063,569.73171
1595.33497,546.6738
1595.33497,543.9611
1595.33497,539.89206
1595.33497,550.74284
1595.33497,552.09919
1595.33497,553.45554
1595.33497,568.37536
1595.33497,541.24841
1595.33497,571.08806
1595.33497,542.60476
1596.8893,556.16823
1596.8893,545.31745
1596.8893,554.81189
1596.8893,565.66267
1596.8893,571.08806
1596.8893,567.01902
1598.44364,558.88093
1598.44364,557.52458
1598.44364,564.30632
1598.44364,562.94997
1598.44364,561.59363
1598.44364,560.23728
1598.44364,571.08806
1598.44364,572.44441
1599.99798,572.44441
1599.99798,573.80076
1601.55232,575.1571
1601.55232,573.80076
1603.10666,583.29519
1603.10666,581.93884
1603.10666,580.58249
1603.10666,577.8698
1603.10666,579.22615
1603.10666,576.51345
1603.10666,575.1571
1604.661,583.29519
1606.21534,583.29519
1606.21534,584.65154
1607.76968,584.65154
1609.32401,584.65154
1610.87835,583.29519
1612.43269,584.65154
1613.98703,584.65154
1615.54137,583.29519
1617.09571,583.29519
1618.65005,584.65154
1620.20439,584.65154
1621.75872,584.65154
1623.31306,584.65154
1623.31306,580.58249
1623.31306,579.22615
1624.8674,583.29519
1624.8674,577.8698
1626.42174,565.66267
1626.42174,568.37536
1626.42174,583.29519
1626.42174,576.51345
1626.42174,575.1571
1626.42174,573.80076
1626.42174,572.44441
1626.42174,567.01902
1627.97608,569.73171
1627.97608,571.08806
1627.97608,583.29519
1627.97608,562.94997
1627.97608,564.30632
1629.53042,561.59363
1629.53042,558.88093
1629.53042,560.23728
1629.53042,557.52458
1631.08476,533.11032
1631.08476,556.16823
1631.08476,554.81189
1631.08476,553.45554
1631.08476,552.09919
1631.08476,531.75397
1632.6391,550.74284
1632.6391,531.75397
1632.6391,534.46667
1632.6391,530.39763
1634.19343,545.31745
1634.19343,530.39763
1634.19343,527.68493
1634.19343,529.04128
1634.19343,549.3865
1634.19343,543.9611
1634.19343,535.82302
1634.19343,546.6738
1634.19343,548.03015
1635.74777,542.60476
1635.74777,539.89206
1635.74777,537.17937
1635.74777,526.32858
1635.74777,527.68493
1635.74777,541.24841
1637.30211,526.32858
1637.30211,538.53571
1637.30211,524.97224
1638.85645,524.97224
1638.85645,523.61589
1640.41079,523.61589
1641.96513,523.61589
1643.51947,523.61589
1645.07381,523.61589
1646.62815,523.61589
1648.18248,523.61589
1649.73682,523.61589
1651.29116,522.25954
1652.8455,520.90319
1654.39984,519.54685
1654.39984,518.1905
1655.95418,515.4778
1655.95418,516.83415
1657.50852,514.12145
1657.50852,512.76511
1659.06286,511.40876
1660.61719,510.05241
1660.61719,508.69606
1660.61719,507.33972
1660.61719,504.62702
1660.61719,503.27067
1660.61719,497.84528
1660.61719,486.9945
1660.61719,488.35085
1662.17153,501.91432
1662.17153,505.98337
1662.17153,484.2818
1662.17153,500.55798
1662.17153,489.70719
1662.17153,499.20163
1662.17153,496.48893
1662.17153,485.63815
1663.72587,500.55798
1663.72587,491.06354
1663.72587,482.92546
1663.72587,495.13259
1665.28021,493.77624
1665.28021,481.56911
1665.28021,492.41989
1665.28021,478.85641
1665.28021,480.21276
1666.83455,466.64928
1666.83455,477.50006
1666.83455,468.00563
1666.83455,469.36198
1666.83455,465.29294
1666.83455,472.07467
1666.83455,470.71833
1668.38889,474.78737
1668.38889,476.14372
1668.38889,459.86754
1668.38889,473.43102
1668.38889,463.93659
1668.38889,462.58024
1669.94323,461.22389
1669.94323,457.15485
1669.94323,458.5112
1669.94323,455.7985
1671.49757,454.44215
1673.0519,454.44215
1674.60624,454.44215
1676.16058,454.44215
1677.71492,447.66041
1677.71492,454.44215
1677.71492,453.08581
1677.71492,451.72946
1677.71492,450.37311
1677.71492,449.01676
1679.26926,447.66041
1680.8236,447.66041
1682.37794,447.66041
1683.93228,446.30407
1685.48661,446.30407
1687.04095,444.94772
1688.59529,444.94772
1690.14963,443.59137
1691.70397,440.87868
1691.70397,443.59137
1691.70397,442.23502
1693.25831,440.87868
1694.81265,440.87868
1696.36699,439.52233
1696.36699,438.16598
1696.36699,436.80963
1696.36699,435.45328
1696.36699,434.09694
1696.36699,432.74059
1697.92133,432.74059
1699.47566,432.74059
1701.03,427.3152
1701.03,431.38424
1701.03,428.67155
1701.03,430.02789
1702.58434,427.3152
1702.58434,425.95885
1702.58434,424.6025
1704.13868,424.6025
1704.13868,423.24615
1705.69302,423.24615
1705.69302,421.88981
1705.69302,419.17711
1705.69302,420.53346
1707.24736,416.46442
1707.24736,415.10807
1707.24736,413.75172
1707.24736,417.82076
1708.8017,412.39537
1710.35604,412.39537
1711.91037,411.03903
1713.46471,409.68268
1715.01905,409.68268
1716.57339,409.68268
1718.12773,409.68268
1719.68207,409.68268
1721.23641,408.32633
1721.23641,409.68268
1722.79075,408.32633
1724.34508,405.61363
1724.34508,406.96998
1725.89942,405.61363
1725.89942,402.90094
1725.89942,404.25729
1727.45376,402.90094
1727.45376,401.54459
1729.0081,401.54459
1730.56244,400.18824
1730.56244,398.8319
1732.11678,396.1192
1732.11678,394.76285
1732.11678,393.4065
1732.11678,392.05016
1732.11678,390.69381
1732.11678,389.33746
1732.11678,397.47555
1733.67112,389.33746
1735.22546,389.33746
1735.22546,387.98111
1736.77979,387.98111
1738.33413,386.62477
1738.33413,383.91207
1738.33413,385.26842
1739.88847,381.19937
1739.88847,383.91207
1739.88847,382.55572
1739.88847,379.84303
1739.88847,378.48668
1741.44281,378.48668
1741.44281,377.13033
1741.44281,375.77398
1741.44281,374.41764
1742.99715,373.06129
1742.99715,371.70494
1744.55149,371.70494
1744.55149,370.34859
1744.55149,368.99224
1744.55149,367.6359
1746.10583,366.27955
1746.10583,364.9232
1747.66017,364.9232
1747.66017,363.56685
1747.66017,362.21051
1747.66017,360.85416
1749.2145,359.49781
1749.2145,358.14146
1749.2145,355.42877
1750.76884,354.07242
1750.76884,356.78512
1750.76884,352.71607
1750.76884,358.14146
1775.87156,381.79779
1816.05469,371.90882
1861.3895,357.52487
1885.08724,346.7369
1921.74611,368.99224
1923.30045,366.27955
1923.30045,367.6359
1924.85479,366.27955
1926.40913,360.85416
1926.40913,364.9232
1926.40913,359.49781
1926.40913,362.21051
1926.40913,363.56685
1927.96346,359.49781
1929.5178,359.49781
1931.07214,356.78512
1931.07214,358.14146
1932.62648,356.78512
1934.18082,355.42877
1934.18082,356.78512
1935.73516,354.07242
1935.73516,355.42877
1935.73516,352.71607
1937.2895,351.35972
1938.84384,340.50894
1938.84384,350.00338
1938.84384,348.64703
1940.39818,348.64703
1940.39818,347.29068
1940.39818,339.15259
1940.39818,337.79625
1940.39818,341.86529
1940.39818,343.22164
1940.39818,344.57799
1940.39818,345.93433
1976.78721,367.41383
2028.30404,371.90882
2074.6692,371.90882
2108.67031,371.90882
2143.70175,387.19177
2177.70286,397.08074
2206.55229,406.96971
2229.2197,406.96971
2291.67874,396.1192
2291.67874,394.76285
2293.23308,400.18824
2293.23308,401.54459
2293.23308,397.47555
2294.78742,401.54459
2294.78742,398.8319
2296.34176,402.90094
2297.8961,404.25729
2299.45043,412.39537
2299.45043,413.75172
2299.45043,411.03903
2299.45043,404.25729
2299.45043,405.61363
2299.45043,406.96998
2299.45043,408.32633
2299.45043,409.68268
2301.00477,413.75172
2302.55911,413.75172
2304.11345,413.75172
2305.66779,421.88981
2305.66779,415.10807
2307.22213,420.53346
2307.22213,423.24615
2307.22213,416.46442
2307.22213,417.82076
2308.77647,424.6025
2308.77647,427.3152
2308.77647,419.17711
2310.33081,431.38424
2310.33081,430.02789
2310.33081,428.67155
2310.33081,425.95885
2311.88514,431.38424
2311.88514,447.66041
2313.43948,446.30407
2313.43948,449.01676
2313.43948,432.74059
2313.43948,434.09694
2313.43948,435.45328
2313.43948,436.80963
2313.43948,438.16598
2313.43948,439.52233
2313.43948,440.87868
2313.43948,442.23502
2313.43948,443.59137
2314.99382,444.94772
2314.99382,457.15485
2314.99382,455.7985
2314.99382,450.37311
2316.54816,454.44215
2316.54816,451.72946
2316.54816,458.5112
2316.54816,453.08581
2318.1025,459.86754
2319.65684,461.22389
2319.65684,462.58024
2319.65684,465.29294
2321.21118,466.64928
2321.21118,463.93659
2322.76552,468.00563
2322.76552,473.43102
2322.76552,469.36198
2324.31985,470.71833
2324.31985,472.07467
2324.31985,476.14372
2324.31985,474.78737
2325.87419,478.85641
2325.87419,477.50006
2325.87419,481.56911
2325.87419,480.21276
2325.87419,482.92546
2327.42853,484.2818
2327.42853,485.63815
2327.42853,486.9945
2327.42853,482.92546
2328.98287,488.35085
2330.53721,488.35085
2332.09155,488.35085
2333.64589,491.06354
2333.64589,492.41989
2333.64589,493.77624
2333.64589,495.13259
2333.64589,496.48893
2333.64589,497.84528
2333.64589,499.20163
2333.64589,500.55798
2333.64589,489.70719
2335.20023,500.55798
2336.75457,499.20163
2338.3089,496.48893
2338.3089,497.84528
2339.86324,495.13259
2339.86324,493.77624
2341.41758,492.41989
2341.41758,491.06354
2341.41758,493.77624
2341.41758,488.35085
2341.41758,486.9945
2341.41758,485.63815
2341.41758,484.2818
2341.41758,482.92546
2341.41758,481.56911
2341.41758,489.70719
2341.41758,480.21276
2342.97192,477.50006
2342.97192,478.85641
2344.52626,474.78737
2344.52626,473.43102
2344.52626,472.07467
2344.52626,476.14372
2346.0806,469.36198
2346.0806,470.71833
2347.63494,461.22389
2347.63494,465.29294
2347.63494,463.93659
2347.63494,462.58024
2347.63494,468.00563
2349.18928,459.86754
2349.18928,430.02789
2349.18928,428.67155
2349.18928,427.3152
2349.18928,431.38424
2349.18928,424.6025
2349.18928,466.64928
2349.18928,423.24615
2349.18928,425.95885
2349.18928,432.74059
2349.18928,434.09694
2350.74361,435.45328
2350.74361,453.08581
2350.74361,454.44215
2350.74361,455.7985
2350.74361,421.88981
2350.74361,458.5112
2352.29795,457.15485
2352.29795,451.72946
2352.29795,421.88981
2352.29795,436.80963
2353.85229,450.37311
2353.85229,438.16598
2353.85229,439.52233
2353.85229,421.88981
2353.85229,449.01676
2353.85229,420.53346
2355.40663,447.66041
2355.40663,420.53346
2355.40663,442.23502
2355.40663,440.87868
2356.96097,446.30407
2356.96097,443.59137
2356.96097,420.53346
2356.96097,444.94772
2358.51531,420.53346
2360.06965,420.53346
2361.62399,420.53346
2363.17832,420.53346
2402.31626,422.25266
2419.83199,432.14163
2465.1668,427.64664
2487.83421,432.14163
2522.86565,427.64664
2551.71508,427.64664
2569.23081,432.14163
2590.11179,394.76285
2590.11179,396.1192
2591.66613,401.54459
2591.66613,402.90094
2591.66613,404.25729
2591.66613,400.18824
2591.66613,397.47555
2593.22046,398.8319
2593.22046,405.61363
2594.7748,408.32633
2594.7748,406.96998
2594.7748,409.68268
2596.32914,409.68268
2596.32914,411.03903
2597.88348,411.03903
2599.43782,411.03903
2600.99216,413.75172
2600.99216,412.39537
2602.5465,415.10807
2604.10084,416.46442
2604.10084,417.82076
2605.65517,417.82076
2605.65517,419.17711
2605.65517,420.53346
2605.65517,423.24615
2605.65517,421.88981
2605.65517,424.6025
2607.20951,424.6025
2608.76385,424.6025
2610.31819,423.24615
2611.87253,421.88981
2613.42687,423.24615
2614.98121,424.6025
2616.53555,424.6025
2618.08988,423.24615
2619.64422,423.24615
2621.19856,420.53346
2621.19856,419.17711
2621.19856,416.46442
2621.19856,417.82076
2621.19856,421.88981
2622.7529,415.10807
2624.30724,415.10807
2625.86158,416.46442
2627.41592,416.46442
2628.97026,415.10807
2630.5246,415.10807
2632.07893,416.46442
2632.07893,417.82076
2633.63327,417.82076
2633.63327,419.17711
2633.63327,420.53346
2633.63327,421.88981
2633.63327,423.24615
2635.18761,423.24615
2636.74195,424.6025
2636.74195,425.95885
2678.44649,416.85867
2723.78131,402.47472
2752.63074,402.47472
2775.29814,387.19177
2810.32959,381.79779
2839.17902,371.90882
2884.51383,371.90882
2902.02956,362.01985
2919.54528,357.52487
2948.39471,342.24192
2993.72952,336.84793
3040.09467,342.24192
3086.45982,357.52487
3091.61151,342.24192
3126.64295,346.7369
3146.56507,344.57799
3146.56507,343.22164
3148.11941,344.57799
3149.67375,344.57799
3151.22809,344.57799
3152.78243,345.93433
3154.33677,345.93433
3155.8911,347.29068
3155.8911,350.00338
3155.8911,351.35972
3155.8911,352.71607
3155.8911,354.07242
3155.8911,355.42877
3155.8911,348.64703
3155.8911,358.14146
3155.8911,356.78512
3155.8911,359.49781
3157.44544,362.21051
3157.44544,360.85416
3158.99978,363.56685
3158.99978,364.9232
3158.99978,362.21051
3160.55412,367.6359
3160.55412,366.27955
3162.10846,368.99224
3162.10846,370.34859
3162.10846,367.6359
3163.6628,371.70494
3165.21714,371.70494
3166.77148,371.70494
3168.32581,383.91207
3168.32581,382.55572
3168.32581,385.26842
3168.32581,371.70494
3169.88015,386.62477
3169.88015,371.70494
3169.88015,381.19937
3169.88015,385.26842
3169.88015,387.98111
3171.43449,379.84303
3171.43449,387.98111
3171.43449,389.33746
3171.43449,373.06129
3171.43449,371.70494
3172.98883,393.4065
3172.98883,392.05016
3172.98883,390.69381
3172.98883,378.48668
3172.98883,377.13033
3172.98883,375.77398
3172.98883,374.41764
3174.54317,393.4065
3174.54317,394.76285
3174.54317,396.1192
3176.09751,398.8319
3176.09751,397.47555
3177.65185,398.8319
3179.20619,401.54459
3179.20619,402.90094
3179.20619,400.18824
3180.76052,404.25729
3180.76052,405.61363
3180.76052,402.90094
3182.31486,406.96998
3182.31486,405.61363
3183.8692,408.32633
3183.8692,406.96998
3185.42354,408.32633
3186.97788,409.68268
3188.53222,409.68268
3190.08656,409.68268
3191.6409,409.68268
3193.19523,409.68268
3194.74957,411.03903
3194.74957,409.68268
3196.30391,411.03903
3196.30391,413.75172
3196.30391,415.10807
3196.30391,416.46442
3196.30391,417.82076
3196.30391,419.17711
3196.30391,420.53346
3196.30391,412.39537
3197.85825,421.88981
3197.85825,420.53346
3199.41259,421.88981
3200.96693,421.88981
3202.52127,423.24615
3204.07561,423.24615
3205.62995,421.88981
3207.18428,420.53346
3208.73862,423.24615
3208.73862,421.88981
3208.73862,419.17711
3208.73862,424.6025
3208.73862,425.95885
3208.73862,420.53346
3210.29296,427.3152
3210.29296,428.67155
3210.29296,430.02789
3210.29296,425.95885
3211.8473,430.02789
3213.40164,431.38424
3214.95598,432.74059
3214.95598,434.09694
3214.95598,435.45328
3214.95598,436.80963
3214.95598,431.38424
3216.51032,438.16598
3216.51032,436.80963
3218.06466,438.16598
3219.61899,438.16598
3221.17333,438.16598
3222.72767,439.52233
3224.28201,439.52233
3225.83635,439.52233
3227.39069,439.52233
3228.94503,440.87868
3230.49937,442.23502
3232.0537,442.23502
3232.0537,444.94772
3232.0537,446.30407
3232.0537,447.66041
3232.0537,449.01676
3232.0537,443.59137
3233.60804,450.37311
3233.60804,451.72946
3233.60804,447.66041
3235.16238,451.72946
3235.16238,450.37311
3235.16238,449.01676
3236.71672,447.66041
3236.71672,443.59137
3238.27106,446.30407
3238.27106,442.23502
3238.27106,444.94772
3239.8254,440.87868
3241.37974,439.52233
3242.93408,436.80963
3242.93408,435.45328
3242.93408,438.16598
3242.93408,432.74059
3242.93408,431.38424
3242.93408,430.02789
3242.93408,428.67155
3242.93408,427.3152
3242.93408,425.95885
3242.93408,434.09694
3242.93408,423.24615
3242.93408,421.88981
3242.93408,424.6025
3244.48841,421.88981
3246.04275,423.24615
3247.59709,424.6025
3249.15143,425.95885
3250.70577,425.95885
3252.26011,425.95885
3253.81445,424.6025
3253.81445,425.95885
3255.36879,424.6025
3255.36879,421.88981
3255.36879,420.53346
3255.36879,423.24615
3256.92313,419.17711
3258.47746,417.82076
3260.0318,416.46442
3261.58614,417.82076
3263.14048,416.46442
3264.69482,417.82076
3266.24916,419.17711
3266.24916,417.82076
3267.8035,420.53346
3269.35784,420.53346
3270.91217,420.53346
3272.46651,421.88981
3272.46651,420.53346
3274.02085,421.88981
3274.02085,423.24615
3275.57519,424.6025
3275.57519,423.24615
3277.12953,424.6025
3278.68387,424.6025
3278.68387,430.02789
3278.68387,425.95885
3278.68387,427.3152
3278.68387,428.67155
3278.68387,431.38424
3280.23821,431.38424
3281.79255,431.38424
3283.34688,439.52233
3283.34688,432.74059
3283.34688,434.09694
3283.34688,435.45328
3283.34688,436.80963
3283.34688,438.16598
3284.90122,440.87868
3284.90122,439.52233
3286.45556,440.87868
3288.0099,440.87868
3289.56424,439.52233
3291.11858,438.16598
3292.67292,436.80963
3294.22726,436.80963
3295.78159,435.45328
3297.33593,434.09694
3298.89027,434.09694
3300.44461,434.09694
3301.99895,434.09694
3303.55329,435.45328
3305.10763,436.80963
3306.66197,435.45328
3308.2163,434.09694
3309.77064,432.74059
3311.32498,432.74059
3312.87932,436.80963
3312.87932,432.74059
3312.87932,434.09694
3312.87932,435.45328
3312.87932,440.87868
3312.87932,438.16598
3312.87932,439.52233
3314.43366,440.87868
3315.988,442.23502
3317.54234,442.23502
3319.09668,442.23502
3320.65102,440.87868
3322.20535,439.52233
3323.75969,440.87868
3325.31403,439.52233
3325.31403,442.23502
3325.31403,440.87868
3325.31403,438.16598
3325.31403,435.45328
3325.31403,436.80963
3326.86837,435.45328
3326.86837,434.09694
3326.86837,432.74059
3328.42271,431.38424
3328.42271,432.74059
3329.97705,428.67155
3329.97705,430.02789
3331.53139,428.67155
3333.08573,427.3152
3334.64006,425.95885
3334.64006,427.3152
3336.1944,425.95885
3336.1944,423.24615
3337.74874,424.6025
3350.22601,447.42458
3367.74174,437.53561
3396.59117,432.14163
3437.22642,432.74059
3437.22642,431.38424
3437.22642,430.02789
3438.78076,432.74059
3438.78076,435.45328
3438.78076,434.09694
3440.3351,435.45328
3441.88944,435.45328
3443.44378,435.45328
3444.99812,438.16598
3444.99812,436.80963
3446.55246,449.01676
3446.55246,444.94772
3446.55246,447.66041
3446.55246,438.16598
3446.55246,439.52233
3446.55246,440.87868
3446.55246,442.23502
3446.55246,443.59137
3446.55246,450.37311
3446.55246,451.72946
3446.55246,446.30407
3448.1068,453.08581
3449.66113,453.08581
3449.66113,454.44215
3451.21547,454.44215
3452.76981,454.44215
3454.32415,454.44215
3455.87849,454.44215
3457.43283,454.44215
3458.98717,461.22389
3458.98717,454.44215
3458.98717,455.7985
3458.98717,457.15485
3458.98717,459.86754
3458.98717,458.5112
3460.54151,462.58024
3462.09584,462.58024
3463.65018,462.58024
3465.20452,461.22389
3466.75886,459.86754
3468.3132,458.5112
3469.86754,457.15485
3471.42188,457.15485
3472.97622,457.15485
3474.53055,458.5112
3476.08489,459.86754
3477.63923,461.22389
3479.19357,462.58024
3480.74791,461.22389
3480.74791,458.5112
3480.74791,457.15485
3480.74791,459.86754
3482.30225,455.7985
3483.85659,455.7985
3485.41093,455.7985
3485.41093,454.44215
3486.96527,454.44215
3488.5196,453.08581
3490.07394,453.08581
3491.62828,453.08581
3493.18262,451.72946
3493.18262,450.37311
3493.18262,449.01676
3493.18262,453.08581
3494.73696,446.30407
3494.73696,449.01676
3494.73696,447.66041
3494.73696,444.94772
3496.2913,443.59137
3496.2913,442.23502
3496.2913,440.87868
3497.84564,439.52233
3497.84564,438.16598
3497.84564,436.80963
3499.39998,435.45328
3500.95431,434.09694
3502.50865,432.74059
3504.06299,431.38424
3505.61733,431.38424
3507.17167,431.38424
3508.72601,432.74059
3510.28035,434.09694
3511.83469,434.09694
3513.38902,434.09694
3514.94336,432.74059
3516.4977,431.38424
3518.05204,431.38424
3519.60638,431.38424
3521.16072,431.38424
3522.71506,431.38424
3524.2694,431.38424
3525.82373,430.02789
3527.37807,430.02789
3528.93241,428.67155
3530.48675,427.3152
3532.04109,427.3152
3533.59543,427.3152
3535.14977,428.67155
3535.14977,430.02789
3536.70411,430.02789
3536.70411,431.38424
3536.70411,432.74059
3536.70411,434.09694
3536.70411,435.45328
3538.25844,435.45328
3538.25844,436.80963
3538.25844,438.16598
3539.81278,439.52233
3539.81278,440.87868
3539.81278,442.23502
3539.81278,443.59137
3541.36712,444.94772
3541.36712,446.30407
3542.92146,446.30407
3544.4758,446.30407
3546.03014,446.30407
3547.58448,450.37311
3547.58448,446.30407
3547.58448,451.72946
3547.58448,447.66041
3547.58448,449.01676
3549.13882,451.72946
3549.13882,453.08581
3550.69316,453.08581
3552.24749,454.44215
3553.80183,454.44215
3555.35617,453.08581
3556.91051,451.72946
3558.46485,450.37311
3560.01919,449.01676
3561.57353,447.66041
3563.12787,449.01676
3564.6822,449.01676
3566.23654,450.37311
3566.23654,455.7985
3566.23654,454.44215
3566.23654,453.08581
3566.23654,457.15485
3566.23654,451.72946
3567.79088,458.5112
3567.79088,457.15485
3569.34522,458.5112
3570.89956,458.5112
3572.4539,459.86754
3572.4539,461.22389
3574.00824,462.58024
3575.56258,465.29294
3575.56258,463.93659
3577.11691,466.64928
3577.11691,468.00563
3577.11691,465.29294
3578.67125,470.71833
3578.67125,469.36198
3591.3248,452.81856
3615.02254,447.42458
3626.35625,467.20251
3661.05121,462.58024
3661.05121,459.86754
3661.05121,463.93659
3662.60555,459.86754
3662.60555,461.22389
3662.60555,458.5112
3664.15989,458.5112
3665.71423,458.5112
3667.26856,453.08581
3667.26856,458.5112
3667.26856,457.15485
3667.26856,455.7985
3667.26856,451.72946
3667.26856,450.37311
3667.26856,449.01676
3667.26856,454.44215
3668.8229,449.01676
3670.37724,449.01676
3671.93158,449.01676
3673.48592,449.01676
3675.04026,449.01676
3676.5946,449.01676
3676.5946,447.66041
3678.14894,447.66041
3678.14894,444.94772
3678.14894,446.30407
3679.70327,443.59137
3681.25761,443.59137
3682.81195,443.59137
3684.36629,443.59137
3684.36629,442.23502
3685.92063,440.87868
3685.92063,442.23502
3687.47497,440.87868
3689.02931,439.52233
3689.02931,440.87868
3690.58365,439.52233
3692.13798,438.16598
3693.69232,436.80963
3693.69232,438.16598
3695.24666,436.80963
3696.801,436.80963
3698.35534,435.45328
3699.90968,432.74059
3699.90968,434.09694
3699.90968,430.02789
3699.90968,431.38424
3701.46402,431.38424
3703.01836,432.74059
3704.57269,432.74059
3706.12703,432.74059
3707.68137,431.38424
3709.23571,431.38424
3710.79005,431.38424
3712.34439,424.6025
3712.34439,430.02789
3712.34439,428.67155
3712.34439,427.3152
3712.34439,425.95885
3713.89873,420.53346
3713.89873,419.17711
3713.89873,423.24615
3713.89873,417.82076
3713.89873,421.88981
3713.89873,427.3152
3713.89873,428.67155
3715.45307,425.95885
3715.45307,416.46442
3717.00741,424.6025
3717.00741,425.95885
3717.00741,421.88981
3717.00741,420.53346
3717.00741,419.17711
3717.00741,417.82076
3717.00741,416.46442
3717.00741,415.10807
3717.00741,412.39537
3717.00741,423.24615
3717.00741,413.75172
3718.56174,415.10807
3720.11608,416.46442
3721.67042,417.82076
3723.22476,417.82076
3724.7791,416.46442
3726.33344,417.82076
3727.88778,419.17711
3729.44212,419.17711
3730.99645,413.75172
3730.99645,412.39537
3730.99645,417.82076
3730.99645,415.10807
3730.99645,416.46442
3730.99645,419.17711
3732.55079,411.03903
3734.10513,411.03903
3734.10513,408.32633
3734.10513,409.68268
3735.65947,405.61363
3735.65947,406.96998
3737.21381,405.61363
3737.21381,404.25729
3738.76815,404.25729
3740.32249,404.25729
3741.87683,404.25729
3743.43116,404.25729
3744.9855,404.25729
3746.53984,401.54459
3746.53984,404.25729
3746.53984,400.18824
3746.53984,402.90094
3748.09418,398.8319
3748.09418,392.05016
3748.09418,390.69381
3748.09418,397.47555
3748.09418,393.4065
3748.09418,394.76285
3748.09418,396.1192
3749.64852,389.33746
3751.20286,389.33746
3752.7572,390.69381
3754.31154,392.05016
3755.86587,393.4065
3757.42021,394.76285
3758.97455,393.4065
3760.52889,393.4065
3762.08323,393.4065
3762.08323,392.05016
3763.63757,392.05016
3763.63757,386.62477
3763.63757,387.98111
3763.63757,389.33746
3763.63757,390.69381
3765.19191,385.26842
3766.74625,383.91207
3768.30058,383.91207
3769.85492,385.26842
3771.40926,386.62477
3772.9636,387.98111
3774.51794,386.62477
3776.07228,386.62477
3777.62662,385.26842
3779.18096,383.91207
3780.7353,383.91207
3782.28963,383.91207
3783.84397,383.91207
3785.39831,383.91207
3786.95265,385.26842
3788.50699,383.91207
3790.06133,382.55572
3791.61567,382.55572
3793.17001,383.91207
3794.72434,385.26842
3796.27868,386.62477
3797.83302,386.62477
3799.38736,386.62477
3800.9417,385.26842
3802.49604,383.91207
3804.05038,382.55572
3805.60472,381.19937
3807.15905,379.84303
3808.71339,381.19937
3810.26773,382.55572
3811.82207,383.91207
3813.37641,385.26842
3814.93075,385.26842
3814.93075,383.91207
3814.93075,379.84303
3814.93075,382.55572
3814.93075,381.19937
3814.93075,377.13033
3814.93075,378.48668
3816.48509,374.41764
3816.48509,377.13033
3816.48509,375.77398
3818.03943,374.41764
3819.59376,374.41764
3821.1481,370.34859
3821.1481,374.41764
3821.1481,373.06129
3821.1481,371.70494
3822.70244,370.34859
3824.25678,366.27955
3824.25678,368.99224
3824.25678,363.56685
3824.25678,367.6359
3824.25678,362.21051
3824.25678,364.9232
3824.25678,370.34859
3825.81112,360.85416
3825.81112,362.21051
3825.81112,359.49781
3827.36546,359.49781
3828.9198,358.14146
3830.47414,358.14146
3832.02848,358.14146
3833.58281,359.49781
3835.13715,360.85416
3836.69149,362.21051
3838.24583,362.21051
3838.24583,360.85416
3838.24583,363.56685
3839.80017,364.9232
3839.80017,363.56685
3839.80017,366.27955
3841.35451,367.6359
3841.35451,366.27955
3842.90885,367.6359
3844.46319,367.6359
3846.01752,370.34859
3846.01752,368.99224
3846.01752,367.6359
3847.57186,371.70494
3847.57186,373.06129
3873.63705,392.58575
3902.48648,387.19177
3936.48759,406.96971
3947.82129,422.25266
3971.51904,422.25266
3982.85274,427.64664
