Raman Shift,Intensity
209.0,2.794
210.0,0.114
211.0,3.233
212.0,6.59
213.0,9.433
214.0,11.986
215.0,13.005
216.0,9.322
217.0,5.55
218.0,4.389
219.0,3.686
220.0,3.11
221.0,2.685
222.0,2.547
223.0,1.88
224.0,1.848
225.0,1.135
226.0,1.173
227.0,1.439
228.0,1.469
229.0,1.49
230.0,0.684
231.0,0.124
232.0,0.125
233.0,0.324
234.0,0.777
235.0,1.233
236.0,1.685
237.0,1.751
238.0,1.767
239.0,1.548
240.0,1.161
241.0,0.901
242.0,1.362
243.0,1.839
244.0,1.984
245.0,2.062
246.0,2.336
247.0,2.832
248.0,3.283
249.0,3.36
250.0,3.414
251.0,3.734
252.0,4.13
253.0,4.215
254.0,3.801
255.0,3.376
256.0,3.782
257.0,4.233
258.0,4.844
259.0,5.592
260.0,6.05
261.0,6.083
262.0,5.753
263.0,5.528
264.0,5.161
265.0,4.958
266.0,4.788
267.0,4.378
268.0,3.566
269.0,2.673
270.0,2.057
271.0,1.381
272.0,0.625
273.0,0.215
274.0,0.983
275.0,1.167
276.0,1.449
277.0,1.119
278.0,0.753
279.0,0.65
280.0,0.792
281.0,0.6
282.0,1.414
283.0,3.453
284.0,5.471
285.0,7.443
286.0,11.045
287.0,16.438
288.0,22.24
289.0,30.863
290.0,39.378
291.0,52.498
292.0,66.919
293.0,83.7
294.0,103.175
295.0,123.148
296.0,145.183
297.0,167.435
298.0,186.901
299.0,205.689
300.0,219.839
301.0,228.241
302.0,230.897
303.0,227.37
304.0,219.977
305.0,203.023
306.0,183.533
307.0,162.467
308.0,139.572
309.0,117.595
310.0,99.556
311.0,81.654
312.0,66.884
313.0,52.83
314.0,41.142
315.0,32.357
316.0,23.993
317.0,17.921
318.0,11.924
319.0,8.447
320.0,5.555
321.0,3.089
322.0,1.057
323.0,0.794
324.0,1.603
325.0,2.37
326.0,1.995
327.0,1.514
328.0,0.746
329.0,0.305
330.0,1.195
331.0,1.679
332.0,2.097
333.0,2.446
334.0,2.742
335.0,3.238
336.0,3.849
337.0,4.468
338.0,5.308
339.0,5.914
340.0,4.915
341.0,3.341
342.0,2.773
343.0,2.827
344.0,2.856
345.0,2.836
346.0,2.924
347.0,2.973
348.0,2.945
349.0,2.544
350.0,1.938
351.0,1.635
352.0,1.854
353.0,2.089
354.0,2.723
355.0,3.351
356.0,2.872
357.0,1.98
358.0,1.512
359.0,1.591
360.0,1.641
361.0,1.33
362.0,1.019
363.0,1.84
364.0,2.821
365.0,2.555
366.0,1.31
367.0,0.407
368.0,0.583
369.0,0.745
370.0,0.899
371.0,1.033
372.0,0.874
373.0,0.563
374.0,0.411
375.0,0.543
376.0,0.647
377.0,0.342
378.0,0.031
379.0,0.423
380.0,1.005
381.0,0.943
382.0,0.209
383.0,0.366
384.0,0.241
385.0,0.114
386.0,0.012
387.0,0.139
388.0,0.611
389.0,1.181
390.0,1.444
391.0,1.123
392.0,0.801
393.0,0.481
394.0,0.148
395.0,0.153
396.0,0.26
397.0,0.571
398.0,1.105
399.0,1.374
400.0,0.966
401.0,0.587
402.0,0.229
403.0,0.128
404.0,0.064
405.0,0.58
406.0,0.798
407.0,0.449
408.0,0.11
409.0,0.175
410.0,0.23
411.0,0.301
412.0,0.381
413.0,0.679
414.0,1.172
415.0,1.559
416.0,1.612
417.0,1.664
418.0,1.293
419.0,0.827
420.0,0.426
421.0,0.027
422.0,0.003
423.0,0.472
424.0,0.802
425.0,0.397
426.0,0.007
427.0,0.022
428.0,0.001
429.0,0.293
430.0,0.751
431.0,0.899
432.0,0.469
433.0,0.074
434.0,0.08
435.0,0.086
436.0,0.451
437.0,0.884
438.0,0.817
439.0,0.375
440.0,0.098
441.0,0.15
442.0,0.137
443.0,0.541
444.0,0.952
445.0,1.033
446.0,1.012
447.0,0.988
448.0,0.961
449.0,0.924
450.0,0.884
451.0,0.847
452.0,0.83
453.0,0.841
454.0,0.551
455.0,0.062
456.0,0.005
457.0,0.372
458.0,0.638
459.0,0.576
460.0,0.513
461.0,0.446
462.0,0.378
463.0,0.312
464.0,0.239
465.0,0.165
466.0,0.09
467.0,0.013
468.0,0.067
469.0,0.151
470.0,0.202
471.0,0.52
472.0,0.483
473.0,0.393
474.0,0.304
475.0,0.216
476.0,0.129
477.0,0.043
478.0,0.03
479.0,0.334
480.0,0.701
481.0,0.721
482.0,0.642
483.0,0.551
484.0,0.433
485.0,0.422
486.0,0.812
487.0,1.179
488.0,1.135
489.0,1.097
490.0,1.065
491.0,1.038
492.0,1.018
493.0,1.004
494.0,0.997
495.0,0.996
496.0,1.002
497.0,1.016
498.0,1.037
499.0,0.663
500.0,0.253
501.0,0.486
502.0,0.991
503.0,1.109
504.0,0.73
505.0,0.454
506.0,0.54
507.0,0.632
508.0,0.29
509.0,0.052
510.0,0.296
511.0,0.867
512.0,0.998
513.0,0.684
514.0,0.376
515.0,0.075
516.0,0.139
517.0,0.478
518.0,1.093
519.0,0.931
520.0,0.658
521.0,0.689
522.0,0.883
523.0,0.888
524.0,0.64
525.0,0.392
526.0,0.152
527.0,0.083
528.0,0.584
529.0,1.255
530.0,0.869
531.0,0.191
532.0,0.002
533.0,0.228
534.0,0.306
535.0,0.14
536.0,0.154
537.0,0.41
538.0,0.648
539.0,0.886
540.0,1.123
541.0,1.031
542.0,0.815
543.0,0.799
544.0,1.034
545.0,1.128
546.0,0.91
547.0,0.692
548.0,0.465
549.0,0.247
550.0,0.03
551.0,0.2
552.0,0.192
553.0,0.854
554.0,1.061
555.0,0.808
556.0,0.687
557.0,0.883
558.0,1.032
559.0,0.773
560.0,0.538
561.0,0.741
562.0,0.942
563.0,0.812
564.0,0.538
565.0,0.478
566.0,0.595
567.0,0.595
568.0,0.738
569.0,0.896
570.0,1.051
571.0,0.955
572.0,0.934
573.0,0.623
574.0,0.31
575.0,0.007
576.0,0.082
577.0,0.052
578.0,0.271
579.0,0.391
580.0,0.505
581.0,0.612
582.0,0.726
583.0,0.843
584.0,0.957
585.0,0.708
586.0,0.36
587.0,0.565
588.0,1.129
589.0,1.304
590.0,0.943
591.0,0.554
592.0,0.129
593.0,0.197
594.0,0.346
595.0,0.89
596.0,0.634
597.0,0.268
598.0,0.543
599.0,1.092
600.0,1.4
601.0,1.488
602.0,1.413
603.0,1.039
604.0,0.751
605.0,0.841
606.0,0.929
607.0,0.554
608.0,0.172
609.0,0.081
610.0,0.197
611.0,0.404
612.0,0.488
613.0,0.792
614.0,1.335
615.0,1.59
616.0,1.209
617.0,0.827
618.0,0.444
619.0,0.059
620.0,0.124
621.0,0.2
622.0,0.652
623.0,1.189
624.0,0.827
625.0,0.027
626.0,0.212
627.0,0.315
628.0,0.692
629.0,0.754
630.0,0.814
631.0,0.873
632.0,0.931
633.0,0.987
634.0,1.041
635.0,0.698
636.0,0.281
637.0,0.18
638.0,0.228
639.0,0.276
640.0,0.325
641.0,0.403
642.0,0.374
643.0,0.424
644.0,0.465
645.0,0.504
646.0,0.542
647.0,0.579
648.0,0.615
649.0,0.652
650.0,0.686
651.0,0.719
652.0,0.75
653.0,0.777
654.0,0.594
655.0,0.16
656.0,0.132
657.0,0.107
658.0,0.005
659.0,0.485
660.0,0.967
661.0,0.991
662.0,1.016
663.0,0.633
664.0,0.192
665.0,0.433
666.0,0.925
667.0,0.866
668.0,0.423
669.0,0.19
670.0,0.214
671.0,0.379
672.0,0.806
673.0,1.087
674.0,0.634
675.0,0.209
676.0,0.269
677.0,0.311
678.0,0.381
679.0,0.413
680.0,0.441
681.0,0.47
682.0,0.496
683.0,0.52
684.0,0.542
685.0,0.559
686.0,0.577
687.0,0.6
688.0,0.632
689.0,0.68
690.0,0.707
691.0,0.36
692.0,0.781
693.0,0.52
694.0,0.946
695.0,0.974
696.0,0.99
697.0,0.926
698.0,0.893
699.0,0.802
700.0,0.725
701.0,0.626
702.0,0.506
703.0,0.376
704.0,0.235
705.0,0.082
706.0,0.085
707.0,0.247
708.0,0.013
709.0,0.236
710.0,0.02
711.0,0.204
712.0,0.024
713.0,0.204
714.0,0.082
715.0,0.164
716.0,0.109
717.0,0.11
718.0,0.574
719.0,1.253
720.0,1.916
721.0,2.552
722.0,3.139
723.0,3.684
724.0,4.476
725.0,5.71
726.0,6.947
727.0,8.13
728.0,9.399
729.0,10.643
730.0,11.447
731.0,12.431
732.0,12.818
733.0,13.24
734.0,13.688
735.0,13.537
736.0,13.08
737.0,12.384
738.0,11.497
739.0,10.636
740.0,9.8
741.0,8.984
742.0,8.187
743.0,7.412
744.0,6.654
745.0,6.053
746.0,6.289
747.0,6.532
748.0,5.527
749.0,4.583
750.0,4.0
751.0,3.36
752.0,2.296
753.0,1.17
754.0,0.806
755.0,0.767
756.0,0.674
757.0,0.553
758.0,0.415
759.0,0.267
760.0,0.113
761.0,0.045
762.0,0.208
763.0,0.38
764.0,0.423
765.0,0.154
766.0,0.101
767.0,0.347
768.0,0.525
769.0,0.278
770.0,0.047
771.0,0.255
772.0,0.448
773.0,0.628
774.0,0.794
775.0,0.951
776.0,1.097
777.0,1.225
778.0,1.283
779.0,1.232
780.0,1.124
781.0,1.111
782.0,1.18
783.0,1.003
784.0,0.62
785.0,0.412
786.0,0.359
787.0,0.358
788.0,0.382
789.0,0.419
790.0,0.461
791.0,0.505
792.0,0.546
793.0,0.667
794.0,1.188
795.0,1.616
796.0,1.18
797.0,0.745
798.0,0.389
799.0,0.016
800.0,0.498
801.0,1.015
802.0,1.108
803.0,1.15
804.0,1.196
805.0,1.268
806.0,1.312
807.0,1.357
808.0,1.066
809.0,1.009
810.0,0.486
811.0,0.528
812.0,0.297
813.0,0.148
814.0,0.115
815.0,0.384
816.0,0.685
817.0,0.717
818.0,0.565
819.0,0.11
820.0,0.035
821.0,0.478
822.0,0.863
823.0,0.888
824.0,0.913
825.0,0.936
826.0,0.959
827.0,0.981
828.0,1.003
829.0,0.943
830.0,0.909
831.0,0.93
832.0,1.086
833.0,1.106
834.0,1.126
835.0,1.144
836.0,1.137
837.0,0.723
838.0,0.254
839.0,0.196
840.0,0.216
841.0,0.236
842.0,0.257
843.0,0.278
844.0,0.3
845.0,0.019
846.0,0.138
847.0,0.298
848.0,0.211
849.0,0.42
850.0,0.441
851.0,0.463
852.0,0.487
853.0,0.512
854.0,0.538
855.0,0.326
856.0,0.397
857.0,0.471
858.0,0.383
859.0,0.707
860.0,0.745
861.0,0.775
862.0,0.815
863.0,0.721
864.0,0.763
865.0,0.959
866.0,1.494
867.0,1.894
868.0,1.939
869.0,1.985
870.0,2.096
871.0,2.192
872.0,2.273
873.0,2.25
874.0,1.814
875.0,1.371
876.0,0.925
877.0,0.606
878.0,1.144
879.0,1.582
880.0,1.135
881.0,0.726
882.0,0.771
883.0,0.787
884.0,0.334
885.0,0.103
886.0,0.068
887.0,0.037
888.0,0.011
889.0,0.013
890.0,0.034
891.0,0.053
892.0,0.552
893.0,1.064
894.0,1.102
895.0,1.116
896.0,1.128
897.0,1.138
898.0,1.148
899.0,1.156
900.0,0.714
901.0,0.159
902.0,0.061
903.0,0.031
904.0,0.014
905.0,0.008
906.0,0.007
907.0,0.009
908.0,0.014
909.0,0.019
910.0,0.024
911.0,0.031
912.0,0.456
913.0,0.26
914.0,0.643
915.0,0.154
916.0,0.078
917.0,0.093
918.0,0.11
919.0,0.13
920.0,0.151
921.0,0.174
922.0,0.197
923.0,0.222
924.0,0.248
925.0,0.275
926.0,0.341
927.0,0.369
928.0,0.404
929.0,0.433
930.0,0.466
931.0,0.515
932.0,0.555
933.0,0.59
934.0,0.212
935.0,0.447
936.0,0.101
937.0,0.635
938.0,0.752
939.0,0.785
940.0,0.396
941.0,0.074
942.0,0.304
943.0,0.004
944.0,0.506
945.0,0.031
946.0,0.009
947.0,0.016
948.0,0.042
949.0,0.072
950.0,0.102
951.0,0.131
952.0,0.159
953.0,0.186
954.0,0.212
955.0,0.237
956.0,0.261
957.0,0.245
958.0,0.267
959.0,0.282
960.0,0.302
961.0,0.318
962.0,0.317
963.0,0.366
964.0,0.556
965.0,0.569
966.0,0.581
967.0,0.591
968.0,0.599
969.0,0.605
970.0,0.61
971.0,0.613
972.0,0.614
973.0,0.615
974.0,0.615
975.0,0.613
976.0,0.611
977.0,0.512
978.0,0.0
979.0,0.297
980.0,0.19
981.0,0.551
982.0,0.529
983.0,0.507
984.0,0.485
985.0,0.304
986.0,0.264
987.0,0.291
988.0,0.078
989.0,0.372
990.0,0.352
991.0,0.334
992.0,0.316
993.0,0.3
994.0,0.243
995.0,0.3
996.0,0.234
997.0,0.198
998.0,0.271
999.0,0.049
1000.0,0.048
1001.0,0.05
1002.0,0.056
1003.0,0.064
1004.0,0.091
1005.0,0.15
1006.0,0.184
1007.0,0.208
1008.0,0.238
1009.0,0.27
1010.0,0.301
1011.0,0.088
1012.0,0.191
1013.0,0.091
1014.0,0.495
1015.0,0.6
1016.0,0.661
1017.0,0.719
1018.0,0.765
1019.0,0.322
1020.0,0.024
1021.0,0.56
1022.0,1.06
1023.0,1.125
1024.0,1.299
1025.0,1.897
1026.0,2.25
1027.0,1.811
1028.0,1.527
1029.0,1.565
1030.0,1.797
1031.0,2.368
1032.0,2.739
1033.0,2.79
1034.0,2.813
1035.0,2.795
1036.0,3.01
1037.0,3.564
1038.0,3.922
1039.0,3.973
1040.0,3.931
1041.0,3.833
1042.0,4.081
1043.0,4.448
1044.0,4.831
1045.0,5.255
1046.0,5.102
1047.0,4.601
1048.0,4.454
1049.0,4.278
1050.0,3.981
1051.0,3.512
1052.0,2.479
1053.0,1.539
1054.0,1.404
1055.0,1.191
1056.0,0.9
1057.0,0.531
1058.0,0.108
1059.0,0.36
1060.0,0.876
1061.0,0.978
1062.0,0.575
1063.0,0.511
1064.0,0.71
1065.0,0.605
1066.0,0.296
1067.0,0.012
1068.0,0.228
1069.0,0.721
1070.0,2.069
1071.0,3.566
1072.0,6.009
1073.0,8.98
1074.0,12.024
1075.0,16.616
1076.0,21.466
1077.0,29.331
1078.0,38.261
1079.0,50.833
1080.0,65.436
1081.0,85.629
1082.0,109.865
1083.0,141.402
1084.0,176.995
1085.0,217.754
1086.0,257.285
1087.0,295.727
1088.0,319.392
1089.0,334.01
1090.0,324.901
1091.0,306.229
1092.0,270.808
1093.0,231.479
1094.0,191.441
1095.0,151.587
1096.0,119.191
1097.0,88.075
1098.0,67.475
1099.0,48.429
1100.0,36.234
1101.0,25.426
1102.0,17.917
1103.0,11.593
1104.0,7.198
1105.0,3.826
1106.0,1.54
1107.0,0.182
1108.0,0.549
1109.0,0.933
1110.0,1.223
1111.0,1.172
1112.0,1.094
1113.0,0.614
1114.0,0.148
1115.0,0.236
1116.0,0.596
1117.0,1.339
1118.0,2.006
1119.0,2.613
1120.0,3.157
1121.0,3.625
1122.0,4.016
1123.0,4.553
1124.0,4.777
1125.0,5.247
1126.0,5.463
1127.0,5.531
1128.0,5.025
1129.0,4.419
1130.0,4.312
1131.0,4.245
1132.0,4.137
1133.0,4.033
1134.0,3.484
1135.0,3.062
1136.0,3.024
1137.0,2.961
1138.0,2.869
1139.0,2.768
1140.0,2.659
1141.0,2.263
1142.0,1.671
1143.0,1.461
1144.0,1.393
1145.0,1.32
1146.0,1.256
1147.0,1.203
1148.0,1.16
1149.0,1.123
1150.0,1.196
1151.0,1.676
1152.0,1.784
1153.0,1.209
1154.0,0.641
1155.0,0.084
1156.0,0.093
1157.0,0.059
1158.0,0.306
1159.0,0.81
1160.0,0.85
1161.0,0.829
1162.0,0.814
1163.0,0.804
1164.0,0.798
1165.0,0.745
1166.0,0.719
1167.0,0.633
1168.0,0.568
1169.0,0.519
1170.0,0.009
1171.0,0.177
1172.0,0.192
1173.0,0.246
1174.0,0.79
1175.0,0.816
1176.0,0.829
1177.0,0.843
1178.0,0.859
1179.0,0.876
1180.0,0.895
1181.0,0.917
1182.0,0.645
1183.0,0.13
1184.0,0.362
1185.0,0.109
1186.0,0.587
1187.0,0.027
1188.0,0.005
1189.0,0.026
1190.0,0.059
1191.0,0.093
1192.0,0.126
1193.0,0.161
1194.0,0.195
1195.0,0.231
1196.0,0.343
1197.0,0.378
1198.0,0.413
1199.0,0.448
1200.0,0.52
1201.0,0.584
1202.0,0.617
1203.0,0.648
1204.0,0.679
1205.0,0.714
1206.0,0.748
1207.0,0.782
1208.0,0.814
1209.0,0.845
1210.0,0.413
1211.0,0.088
1212.0,0.48
1213.0,0.855
1214.0,0.331
1215.0,0.009
1216.0,0.007
1217.0,0.298
1218.0,0.856
1219.0,0.679
1220.0,1.014
1221.0,0.524
1222.0,1.069
1223.0,0.53
1224.0,0.088
1225.0,0.094
1226.0,0.099
1227.0,0.026
1228.0,0.03
1229.0,0.034
1230.0,0.038
1231.0,0.004
1232.0,0.021
1233.0,0.007
1234.0,0.559
1235.0,0.873
1236.0,0.33
1237.0,0.005
1238.0,0.011
1239.0,0.019
1240.0,0.028
1241.0,0.038
1242.0,0.049
1243.0,0.065
1244.0,0.082
1245.0,0.101
1246.0,0.285
1247.0,0.277
1248.0,0.275
1249.0,0.374
1250.0,0.217
1251.0,0.243
1252.0,0.27
1253.0,0.298
1254.0,0.336
1255.0,0.365
1256.0,0.412
1257.0,0.442
1258.0,0.508
1259.0,0.568
1260.0,0.598
1261.0,0.659
1262.0,0.688
1263.0,0.717
1264.0,0.745
1265.0,0.773
1266.0,0.799
1267.0,0.825
1268.0,0.534
1269.0,0.004
1270.0,0.326
1271.0,0.005
1272.0,0.406
1273.0,0.039
1274.0,0.023
1275.0,0.192
1276.0,0.025
1277.0,0.696
1278.0,0.147
1279.0,0.451
1280.0,1.013
1281.0,1.035
1282.0,1.039
1283.0,1.05
1284.0,1.058
1285.0,1.054
1286.0,1.056
1287.0,1.04
1288.0,1.041
1289.0,1.006
1290.0,0.977
1291.0,0.978
1292.0,0.949
1293.0,0.717
1294.0,0.16
1295.0,0.309
1296.0,0.06
1297.0,0.492
1298.0,0.03
1299.0,0.022
1300.0,0.012
1301.0,0.002
1302.0,0.282
1303.0,0.856
1304.0,1.036
1305.0,1.053
1306.0,1.072
1307.0,1.092
1308.0,1.114
1309.0,0.936
1310.0,0.398
1311.0,0.188
1312.0,0.215
1313.0,0.272
1314.0,0.345
1315.0,0.382
1316.0,0.411
1317.0,0.444
1318.0,0.478
1319.0,0.513
1320.0,0.943
1321.0,0.758
1322.0,1.099
1323.0,0.66
1324.0,0.699
1325.0,0.738
1326.0,0.777
1327.0,0.471
1328.0,0.051
1329.0,0.094
1330.0,0.009
1331.0,0.597
1332.0,1.026
1333.0,1.066
1334.0,1.105
1335.0,1.145
1336.0,1.184
1337.0,1.212
1338.0,1.16
1339.0,1.307
1340.0,1.051
1341.0,1.379
1342.0,1.473
1343.0,1.137
1344.0,0.613
1345.0,0.588
1346.0,0.609
1347.0,0.641
1348.0,0.672
1349.0,0.702
1350.0,0.732
1351.0,0.76
1352.0,0.787
1353.0,0.813
1354.0,0.839
1355.0,0.609
1356.0,0.062
1357.0,0.09
1358.0,0.072
1359.0,0.058
1360.0,0.065
1361.0,0.65
1362.0,0.98
1363.0,0.993
1364.0,1.005
1365.0,1.016
1366.0,1.027
1367.0,1.037
1368.0,1.047
1369.0,1.057
1370.0,1.074
1371.0,1.091
1372.0,1.104
1373.0,1.063
1374.0,1.033
1375.0,1.011
1376.0,0.74
1377.0,0.181
1378.0,0.056
1379.0,0.082
1380.0,0.673
1381.0,1.103
1382.0,1.117
1383.0,0.819
1384.0,0.259
1385.0,0.407
1386.0,0.478
1387.0,0.348
1388.0,1.259
1389.0,0.693
1390.0,0.832
1391.0,1.421
1392.0,0.989
1393.0,0.505
1394.0,0.51
1395.0,0.514
1396.0,0.515
1397.0,0.916
1398.0,1.538
1399.0,0.428
1400.0,0.316
1401.0,0.238
1402.0,0.489
1403.0,0.457
1404.0,0.886
1405.0,1.389
1406.0,1.352
1407.0,1.313
1408.0,1.273
1409.0,0.862
1410.0,0.237
1411.0,0.141
1412.0,0.208
1413.0,0.042
1414.0,0.716
1415.0,0.081
1416.0,0.091
1417.0,0.581
1418.0,0.529
1419.0,0.673
1420.0,0.639
1421.0,0.534
1422.0,0.39
1423.0,0.292
1424.0,0.249
1425.0,0.209
1426.0,0.171
1427.0,0.136
1428.0,0.104
1429.0,0.03
1430.0,0.005
1431.0,0.197
1432.0,0.774
1433.0,0.968
1434.0,0.966
1435.0,0.408
1436.0,0.024
1437.0,0.013
1438.0,0.002
1439.0,0.025
1440.0,0.054
1441.0,0.088
1442.0,0.126
1443.0,0.169
1444.0,0.215
1445.0,0.267
1446.0,0.323
1447.0,0.383
1448.0,0.447
1449.0,0.513
1450.0,0.584
1451.0,0.658
1452.0,0.725
1453.0,0.692
1454.0,0.767
1455.0,0.783
1456.0,0.302
1457.0,0.325
1458.0,0.413
1459.0,0.502
1460.0,0.591
1461.0,0.681
1462.0,1.259
1463.0,1.777
1464.0,1.272
1465.0,1.066
1466.0,1.175
1467.0,0.822
1468.0,0.325
1469.0,0.188
1470.0,0.005
1471.0,0.023
1472.0,1.232
1473.0,0.746
1474.0,1.402
1475.0,1.842
1476.0,1.895
1477.0,1.943
1478.0,1.984
1479.0,0.835
1480.0,0.071
1481.0,0.105
1482.0,0.135
1483.0,0.162
1484.0,0.77
1485.0,1.09
1486.0,1.076
1487.0,1.11
1488.0,1.14
1489.0,1.164
1490.0,1.052
1491.0,0.885
1492.0,0.683
1493.0,0.078
1494.0,0.049
1495.0,0.379
1496.0,1.56
1497.0,1.265
1498.0,0.052
1499.0,0.002
1500.0,0.0
