Raman shift,Intensity
789.42161,1519.69937
789.42161,1495.49107
791.63385,1518.13754
791.63385,1497.0529
793.84609,1517.35663
793.84609,1497.83381
796.05832,1515.79481
796.05832,1498.61473
798.27056,1513.45207
798.27056,1499.39564
800.48279,1508.76659
802.69503,1508.76659
804.90726,1507.20477
807.1195,1504.86203
809.33173,1501.73838
811.54397,1498.61473
813.75621,1494.71016
815.96844,1492.36742
818.18068,1490.02468
820.39291,1487.68195
822.60515,1485.33921
824.81738,1483.77738
827.02962,1481.43464
829.24186,1479.09191
831.45409,1478.31099
833.66633,1477.53008
835.87856,1478.31099
838.0908,1479.09191
840.30303,1479.87282
842.51527,1483.77738
842.51527,1476.74917
844.72751,1484.55829
844.72751,1475.18734
846.93974,1484.55829
846.93974,1475.18734
849.15198,1478.31099
851.36421,1479.09191
853.57645,1479.09191
855.78868,1480.65373
858.00092,1483.77738
860.21315,1486.12012
862.42539,1486.90103
864.63763,1487.68195
866.84986,1492.36742
866.84986,1480.65373
869.0621,1493.92925
869.0621,1481.43464
871.27433,1495.49107
871.27433,1482.21556
873.48657,1497.0529
873.48657,1482.99647
875.6988,1497.83381
875.6988,1484.55829
877.91104,1490.8056
880.12328,1492.36742
882.33551,1492.36742
884.54775,1491.58651
886.75998,1490.02468
888.97222,1489.24377
891.18445,1488.46286
893.39669,1487.68195
895.60892,1492.36742
895.60892,1481.43464
897.82116,1491.58651
897.82116,1480.65373
900.0334,1490.8056
900.0334,1481.43464
902.24563,1485.33921
904.45787,1485.33921
906.6701,1485.33921
908.88234,1485.33921
911.09457,1486.12012
913.30681,1486.12012
915.51905,1486.12012
917.73128,1490.02468
917.73128,1482.21556
919.94352,1490.8056
919.94352,1481.43464
922.15575,1491.58651
922.15575,1480.65373
924.36799,1492.36742
924.36799,1479.87282
926.58022,1492.36742
926.58022,1478.31099
928.79246,1490.02468
928.79246,1477.53008
931.0047,1483.77738
933.21693,1482.21556
935.42917,1481.43464
937.6414,1479.09191
939.85364,1477.53008
942.06587,1475.96825
944.27811,1472.8446
946.49034,1472.06369
948.70258,1472.8446
950.91482,1475.18734
953.12705,1476.74917
955.33929,1478.31099
957.55152,1479.87282
959.76376,1482.21556
961.97599,1483.77738
964.18823,1486.12012
966.40047,1487.68195
968.6127,1490.02468
970.82494,1492.36742
973.03717,1494.71016
975.24941,1497.83381
977.46164,1498.61473
979.67388,1498.61473
981.88611,1498.61473
984.09835,1503.3002
984.09835,1493.92925
986.31059,1504.08111
986.31059,1493.14834
988.52282,1504.86203
988.52282,1491.58651
990.73506,1503.3002
990.73506,1490.8056
992.94729,1502.51929
992.94729,1490.02468
995.15953,1500.95746
995.15953,1489.24377
997.37176,1500.17655
997.37176,1486.90103
999.584,1498.61473
999.584,1484.55829
1001.79624,1497.83381
1001.79624,1482.99647
1004.00847,1497.0529
1004.00847,1481.43464
1006.22071,1497.0529
1006.22071,1479.87282
1008.43294,1498.61473
1008.43294,1478.31099
1010.64518,1500.17655
1010.64518,1478.31099
1012.85741,1501.73838
1012.85741,1480.65373
1015.06965,1503.3002
1015.06965,1482.99647
1017.28189,1493.14834
1019.49412,1496.27199
1021.70636,1508.76659
1021.70636,1490.8056
1023.91859,1511.89024
1023.91859,1493.92925
1026.13083,1513.45207
1026.13083,1496.27199
1028.34306,1512.67116
1028.34306,1498.61473
1030.5553,1506.42385
1032.76753,1505.64294
1034.97977,1503.3002
1037.19201,1501.73838
1039.40424,1498.61473
1041.61648,1495.49107
1043.82871,1493.92925
1046.04095,1493.92925
1048.25318,1495.49107
1050.46542,1498.61473
1052.67766,1500.95746
1054.88989,1502.51929
1057.10213,1503.3002
1059.31436,1505.64294
1061.5266,1508.76659
1063.73883,1509.5475
1065.95107,1511.10933
1068.16331,1504.86203
1070.37554,1500.95746
1072.58778,1496.27199
1074.80001,1490.8056
1077.01225,1490.02468
1079.22448,1486.12012
1081.43672,1482.99647
1083.64895,1493.14834
1083.64895,1485.33921
1083.64895,1473.62552
1085.86119,1493.14834
1085.86119,1472.06369
1088.07343,1493.92925
1088.07343,1473.62552
1090.28566,1495.49107
1090.28566,1476.74917
1092.4979,1496.27199
1092.4979,1479.09191
1094.71013,1496.27199
1094.71013,1481.43464
1096.92237,1496.27199
1096.92237,1484.55829
1099.1346,1489.24377
1101.34684,1490.8056
1103.55908,1493.14834
1105.77131,1494.71016
1107.98355,1495.49107
1110.19578,1496.27199
1112.40802,1494.71016
1114.62025,1493.14834
1116.83249,1492.36742
1119.04472,1490.8056
1121.25696,1488.46286
1123.4692,1488.46286
1125.68143,1489.24377
1127.89367,1489.24377
1130.1059,1490.02468
1132.31814,1490.02468
1134.53037,1489.24377
1136.74261,1489.24377
1138.95485,1488.46286
1141.16708,1489.24377
1143.37932,1489.24377
1145.59155,1490.02468
1147.80379,1490.02468
1150.01602,1490.02468
1152.22826,1490.8056
1154.4405,1492.36742
1156.65273,1493.14834
1158.86497,1493.92925
1161.0772,1494.71016
1163.28944,1493.92925
1165.50167,1492.36742
1167.71391,1491.58651
1169.92614,1490.02468
1172.13838,1489.24377
1174.35062,1488.46286
1176.56285,1493.92925
1176.56285,1482.21556
1178.77509,1493.14834
1178.77509,1480.65373
1180.98732,1492.36742
1180.98732,1478.31099
1183.19956,1492.36742
1183.19956,1475.96825
1185.41179,1492.36742
1185.41179,1475.18734
1187.62403,1492.36742
1187.62403,1473.62552
1189.83627,1491.58651
1189.83627,1472.8446
1192.0485,1491.58651
1192.0485,1471.28278
1194.26074,1491.58651
1194.26074,1470.50186
1196.47297,1490.8056
1196.47297,1470.50186
1198.68521,1490.02468
1198.68521,1469.72095
1200.89744,1489.24377
1200.89744,1468.94004
1203.10968,1489.24377
1203.10968,1468.94004
1205.32192,1490.02468
1205.32192,1468.15913
1207.53415,1490.8056
1207.53415,1468.15913
1209.74639,1492.36742
1209.74639,1467.37821
1211.95862,1493.14834
1211.95862,1468.94004
1214.17086,1493.92925
1214.17086,1469.72095
1216.38309,1494.71016
1216.38309,1470.50186
1218.59533,1496.27199
1218.59533,1471.28278
1220.80756,1497.0529
1220.80756,1472.06369
1223.0198,1497.0529
1223.0198,1472.8446
1225.23204,1493.92925
1225.23204,1473.62552
1227.44427,1491.58651
1227.44427,1472.8446
1229.65651,1489.24377
1229.65651,1472.06369
1231.86874,1482.21556
1234.08098,1480.65373
1236.29321,1479.09191
1238.50545,1476.74917
1240.71769,1475.18734
1242.92992,1471.28278
1245.14216,1468.15913
1247.35439,1468.94004
1249.56663,1470.50186
1251.77886,1472.06369
1253.9911,1473.62552
1256.20333,1476.74917
1258.41557,1478.31099
1260.62781,1481.43464
1262.84004,1484.55829
1265.05228,1486.12012
1267.26451,1486.90103
1269.47675,1487.68195
1271.68898,1488.46286
1273.90122,1489.24377
1276.11346,1490.02468
1278.32569,1490.8056
1280.53793,1490.02468
1282.75016,1489.24377
1284.9624,1487.68195
1287.17463,1486.12012
1289.38687,1485.33921
1291.59911,1484.55829
1293.81134,1483.77738
1296.02358,1482.99647
1298.23581,1482.21556
1300.44805,1482.21556
1302.66028,1482.21556
1304.87252,1483.77738
1307.08475,1484.55829
1309.29699,1489.24377
1309.29699,1477.53008
1311.50923,1491.58651
1311.50923,1477.53008
1313.72146,1493.14834
1313.72146,1478.31099
1315.9337,1494.71016
1315.9337,1478.31099
1318.14593,1496.27199
1318.14593,1476.74917
1320.35817,1496.27199
1320.35817,1475.96825
1322.5704,1495.49107
1322.5704,1474.40643
1324.78264,1494.71016
1324.78264,1473.62552
1326.99488,1493.14834
1326.99488,1472.06369
1329.20711,1491.58651
1329.20711,1471.28278
1331.41935,1490.02468
1331.41935,1470.50186
1333.63158,1489.24377
1333.63158,1470.50186
1335.84382,1487.68195
1335.84382,1471.28278
1338.05605,1486.90103
1338.05605,1471.28278
1340.26829,1485.33921
1340.26829,1471.28278
1342.48052,1484.55829
1342.48052,1470.50186
1344.69276,1483.77738
1344.69276,1469.72095
1346.905,1483.77738
1346.905,1468.94004
1349.11723,1484.55829
1349.11723,1467.37821
1351.32947,1485.33921
1351.32947,1466.5973
1353.5417,1486.12012
1353.5417,1463.47365
1355.75394,1486.90103
1355.75394,1461.13091
1357.96617,1486.90103
1357.96617,1458.00726
1360.17841,1486.12012
1360.17841,1455.66452
1362.39065,1485.33921
1362.39065,1453.32178
1364.60288,1482.99647
1364.60288,1450.97904
1366.81512,1480.65373
1366.81512,1448.63631
1369.02735,1479.87282
1369.02735,1445.51266
1371.23959,1477.53008
1371.23959,1443.16992
1373.45182,1475.96825
1373.45182,1442.389
1375.66406,1474.40643
1375.66406,1443.95083
1377.8763,1473.62552
1377.8763,1446.29357
1380.08853,1472.8446
1380.08853,1449.41722
1382.30077,1474.40643
1382.30077,1452.54087
1384.513,1462.69274
1386.72524,1467.37821
1388.93747,1470.50186
1391.14971,1475.18734
1393.36194,1478.31099
1395.57418,1482.21556
1397.78642,1485.33921
1399.99865,1488.46286
1402.21089,1491.58651
1404.42312,1492.36742
1406.63536,1489.24377
1408.84759,1486.12012
1411.05983,1483.77738
1413.27207,1481.43464
1415.4843,1479.09191
1417.69654,1475.96825
1419.90877,1473.62552
1422.12101,1472.06369
1424.33324,1478.31099
1424.33324,1461.13091
1426.54548,1475.96825
1426.54548,1458.00726
1428.75772,1473.62552
1428.75772,1455.66452
1430.96995,1472.06369
1430.96995,1454.1027
1433.18219,1470.50186
1433.18219,1453.32178
1435.39442,1468.94004
1435.39442,1454.88361
1435.39442,1468.94004
1435.39442,1454.88361
1437.60666,1461.13091
1437.60666,1461.13091
1439.81889,1462.69274
1439.81889,1462.69274
1442.03113,1464.25456
1442.03113,1464.25456
1444.24336,1467.37821
1444.24336,1467.37821
1446.4556,1471.28278
1446.4556,1471.28278
1448.66784,1474.40643
1448.66784,1474.40643
1450.88007,1475.96825
1450.88007,1475.96825
1453.09231,1477.53008
1453.09231,1477.53008
1455.30454,1479.09191
1455.30454,1479.09191
1457.51678,1479.87282
1457.51678,1479.87282
1459.72901,1480.65373
1459.72901,1480.65373
1461.94125,1481.43464
1461.94125,1481.43464
1464.15349,1480.65373
1464.15349,1480.65373
1466.36572,1480.65373
1466.36572,1480.65373
1468.57796,1479.09191
1468.57796,1479.09191
1470.79019,1476.74917
1470.79019,1476.74917
1473.00243,1474.40643
1473.00243,1474.40643
1475.21466,1472.06369
1475.21466,1472.06369
1477.4269,1469.72095
1477.4269,1469.72095
1479.63913,1468.94004
1479.63913,1468.94004
1481.85137,1469.72095
1481.85137,1469.72095
1484.06361,1471.28278
1484.06361,1471.28278
1486.27584,1473.62552
1486.27584,1473.62552
1488.48808,1475.18734
1488.48808,1475.18734
1490.70031,1477.53008
1492.91255,1480.65373
1495.12478,1483.77738
1497.33702,1487.68195
1499.54926,1490.02468
1501.76149,1491.58651
1503.97373,1493.14834
1506.18596,1490.02468
1506.18596,1500.95746
1508.3982,1500.95746
1508.3982,1490.8056
1510.61043,1493.14834
1512.82267,1489.24377
1515.03491,1486.12012
1517.24714,1483.77738
1519.45938,1482.99647
1521.67161,1482.99647
1523.88385,1485.33921
1526.09608,1486.90103
1528.30832,1490.8056
1530.52055,1498.61473
1532.73279,1507.20477
1534.94503,1511.89024
1537.15726,1519.69937
1539.3695,1526.72759
1541.58173,1533.7558
1543.79397,1539.22219
1546.0062,1543.90767
1548.21844,1548.59314
1550.43068,1548.59314
1552.64291,1545.46949
1552.64291,1480.65373
1552.64291,1507.20477
1554.85515,1545.46949
1554.85515,1507.20477
1554.85515,1481.43464
1557.06738,1481.43464
1557.06738,1507.20477
1557.06738,1545.46949
1559.27962,1545.46949
1559.27962,1507.20477
1559.27962,1481.43464
1561.49185,1536.87945
1563.70409,1532.97489
1565.91633,1529.85124
1568.12856,1525.16576
1570.3408,1521.2612
1572.55303,1518.13754
1574.76527,1514.23298
1576.9775,1510.32842
1579.18974,1509.5475
1581.40197,1507.98568
1583.61421,1506.42385
1585.82645,1498.61473
1585.82645,1515.01389
1588.03868,1497.0529
1588.03868,1514.23298
1590.25092,1495.49107
1590.25092,1514.23298
1592.46315,1493.92925
1592.46315,1515.01389
1594.67539,1492.36742
1594.67539,1515.79481
1596.88762,1492.36742
1596.88762,1516.57572
1599.09986,1491.58651
1599.09986,1517.35663
1601.3121,1515.79481
1601.3121,1493.14834
1603.52433,1493.14834
1603.52433,1514.23298
1605.73657,1512.67116
1605.73657,1493.92925
1607.9488,1509.5475
1607.9488,1493.14834
1610.16104,1500.17655
1612.37327,1496.27199
1614.58551,1494.71016
1616.79774,1493.14834
1619.00998,1490.8056
1621.22222,1489.24377
1623.43445,1491.58651
1623.43445,1480.65373
1625.64669,1479.87282
1625.64669,1490.8056
1627.85892,1479.09191
1627.85892,1493.14834
1630.07116,1479.09191
1630.07116,1494.71016
1632.28339,1478.31099
1632.28339,1497.83381
1634.49563,1478.31099
1634.49563,1498.61473
1636.70787,1482.21556
1636.70787,1502.51929
1638.9201,1493.92925
1641.13234,1486.12012
1641.13234,1508.76659
1643.34457,1486.90103
1643.34457,1511.10933
1645.55681,1513.45207
1645.55681,1489.24377
1647.76904,1491.58651
1647.76904,1513.45207
1649.98128,1511.89024
1649.98128,1493.14834
1649.98128,1493.14834
1649.98128,1511.89024
1652.19352,1511.10933
1652.19352,1493.14834
1652.19352,1511.10933
1652.19352,1493.14834
1654.40575,1492.36742
1654.40575,1509.5475
1654.40575,1509.5475
1654.40575,1492.36742
1656.61799,1507.98568
1656.61799,1490.8056
1656.61799,1507.98568
1656.61799,1490.8056
1658.83022,1507.20477
1658.83022,1489.24377
1658.83022,1489.24377
1658.83022,1507.20477
1661.04246,1487.68195
1661.04246,1505.64294
1661.04246,1487.68195
1661.04246,1505.64294
1663.25469,1485.33921
1663.25469,1504.86203
1663.25469,1504.86203
1663.25469,1485.33921
1665.46693,1504.86203
1665.46693,1504.86203
1665.46693,1484.55829
1665.46693,1484.55829
1667.67916,1482.99647
1667.67916,1482.99647
1667.67916,1506.42385
1667.67916,1506.42385
1669.8914,1507.20477
1669.8914,1480.65373
1669.8914,1480.65373
1669.8914,1507.20477
1672.10364,1479.09191
1672.10364,1507.98568
1672.10364,1479.09191
1672.10364,1507.98568
1674.31587,1478.31099
1674.31587,1508.76659
1674.31587,1478.31099
1674.31587,1508.76659
1676.52811,1509.5475
1676.52811,1477.53008
1676.52811,1509.5475
1676.52811,1477.53008
1678.74034,1508.76659
1678.74034,1476.74917
1678.74034,1508.76659
1678.74034,1476.74917
1680.95258,1507.20477
1680.95258,1476.74917
1680.95258,1507.20477
1680.95258,1476.74917
1683.16481,1475.96825
1683.16481,1504.86203
1683.16481,1504.86203
1683.16481,1475.96825
1685.37705,1475.96825
1685.37705,1475.96825
1685.37705,1501.73838
1685.37705,1501.73838
1687.58929,1499.39564
1687.58929,1476.74917
1687.58929,1476.74917
1687.58929,1499.39564
1689.80152,1497.83381
1689.80152,1476.74917
1689.80152,1497.83381
1689.80152,1476.74917
1692.01376,1496.27199
1692.01376,1476.74917
1692.01376,1496.27199
1692.01376,1476.74917
1694.22599,1478.31099
1694.22599,1493.92925
1694.22599,1493.92925
1694.22599,1478.31099
1696.43823,1492.36742
1696.43823,1478.31099
1696.43823,1478.31099
1696.43823,1492.36742
1698.65046,1490.8056
1698.65046,1479.87282
1698.65046,1490.8056
1698.65046,1479.87282
1700.8627,1490.8056
1700.8627,1490.8056
1700.8627,1480.65373
1700.8627,1480.65373
1703.07493,1482.21556
1703.07493,1491.58651
1703.07493,1482.21556
1703.07493,1491.58651
1705.28717,1486.90103
1705.28717,1486.90103
1707.49941,1487.68195
1707.49941,1487.68195
1709.71164,1487.68195
1709.71164,1487.68195
1711.92388,1488.46286
1711.92388,1488.46286
1714.13611,1488.46286
1714.13611,1488.46286
1716.34835,1489.24377
1716.34835,1489.24377
1718.56058,1490.02468
1718.56058,1490.02468
1720.77282,1490.8056
1720.77282,1490.8056
1722.98506,1490.02468
1722.98506,1490.02468
1725.19729,1490.02468
1725.19729,1490.02468
1727.40953,1488.46286
1727.40953,1488.46286
1729.62176,1488.46286
1729.62176,1488.46286
1731.834,1488.46286
1731.834,1488.46286
1734.04623,1488.46286
1734.04623,1488.46286
1736.25847,1489.24377
1736.25847,1489.24377
1738.47071,1490.02468
1738.47071,1490.02468
1740.68294,1490.8056
1740.68294,1490.8056
1742.89518,1491.58651
1742.89518,1491.58651
1745.10741,1490.02468
1745.10741,1490.02468
1747.31965,1488.46286
1747.31965,1488.46286
1749.53188,1487.68195
1749.53188,1487.68195
1751.74412,1486.12012
1751.74412,1486.12012
1753.95635,1485.33921
1753.95635,1485.33921
1756.16859,1479.87282
1756.16859,1492.36742
1756.16859,1479.87282
1756.16859,1492.36742
1758.38083,1492.36742
1758.38083,1492.36742
1758.38083,1477.53008
1758.38083,1477.53008
1760.59306,1493.14834
1760.59306,1478.31099
1760.59306,1478.31099
1760.59306,1493.14834
1762.8053,1480.65373
1762.8053,1493.14834
1762.8053,1480.65373
1762.8053,1493.14834
1765.01753,1486.90103
1765.01753,1486.90103
1767.22977,1488.46286
1767.22977,1488.46286
1769.442,1490.02468
1769.442,1490.02468
1771.65424,1492.36742
1771.65424,1492.36742
1773.86648,1499.39564
1773.86648,1489.24377
1773.86648,1489.24377
1773.86648,1499.39564
1776.07871,1500.95746
1776.07871,1490.8056
1776.07871,1490.8056
1776.07871,1500.95746
1778.29095,1491.58651
1778.29095,1500.95746
1778.29095,1500.95746
1778.29095,1491.58651
1780.50318,1500.17655
1780.50318,1490.8056
1780.50318,1500.17655
1780.50318,1490.8056
1782.71542,1493.14834
1782.71542,1493.14834
1784.92765,1490.8056
1784.92765,1490.8056
1787.13989,1488.46286
1787.13989,1488.46286
1789.35213,1498.61473
1789.35213,1481.43464
1789.35213,1498.61473
1789.35213,1481.43464
1791.56436,1499.39564
1791.56436,1478.31099
1791.56436,1499.39564
1791.56436,1478.31099
1793.7766,1474.40643
1793.7766,1500.95746
1793.7766,1474.40643
1793.7766,1500.95746
1795.98883,1501.73838
1795.98883,1472.06369
1795.98883,1472.06369
1795.98883,1501.73838
1798.20107,1470.50186
1798.20107,1502.51929
1798.20107,1502.51929
1798.20107,1470.50186
1800.4133,1504.08111
1800.4133,1468.94004
1800.4133,1468.94004
1800.4133,1504.08111
1802.62554,1505.64294
1802.62554,1467.37821
1802.62554,1505.64294
1802.62554,1467.37821
1804.83777,1506.42385
1804.83777,1468.15913
1804.83777,1468.15913
1804.83777,1506.42385
1807.05001,1505.64294
1807.05001,1505.64294
1807.05001,1469.72095
1807.05001,1469.72095
1809.26225,1504.08111
1809.26225,1471.28278
1809.26225,1504.08111
1809.26225,1471.28278
1811.47448,1500.95746
1811.47448,1472.8446
1811.47448,1500.95746
1811.47448,1472.8446
1813.68672,1475.18734
1813.68672,1498.61473
1813.68672,1498.61473
1813.68672,1475.18734
1815.89895,1477.53008
1815.89895,1497.0529
1815.89895,1477.53008
1815.89895,1497.0529
1818.11119,1488.46286
1818.11119,1488.46286
1820.32342,1486.90103
1820.32342,1486.90103
1822.53566,1486.12012
1822.53566,1486.12012
1824.7479,1486.90103
1824.7479,1486.90103
1826.96013,1489.24377
1826.96013,1489.24377
1829.17237,1490.8056
1829.17237,1490.8056
1831.3846,1491.58651
1831.3846,1491.58651
1833.59684,1492.36742
1833.59684,1492.36742
1835.80907,1493.14834
1835.80907,1493.14834
1838.02131,1494.71016
1838.02131,1494.71016
1840.23354,1495.49107
1840.23354,1495.49107
1842.44578,1495.49107
1842.44578,1495.49107
1844.65802,1494.71016
1844.65802,1494.71016
1846.87025,1492.36742
1846.87025,1492.36742
1849.08249,1490.02468
1849.08249,1490.02468
1851.29472,1486.90103
1851.29472,1486.90103
1853.50696,1484.55829
1853.50696,1484.55829
1855.71919,1481.43464
1855.71919,1481.43464
1857.93143,1479.87282
1857.93143,1479.87282
1860.14367,1478.31099
1860.14367,1478.31099
1862.3559,1487.68195
1862.3559,1473.62552
1862.3559,1473.62552
1862.3559,1487.68195
1864.56814,1487.68195
1864.56814,1472.06369
1864.56814,1487.68195
1864.56814,1472.06369
1866.78037,1488.46286
1866.78037,1470.50186
1866.78037,1488.46286
1866.78037,1470.50186
1868.99261,1488.46286
1868.99261,1468.94004
1868.99261,1468.94004
1868.99261,1488.46286
1871.20484,1490.02468
1871.20484,1468.94004
1871.20484,1490.02468
1871.20484,1468.94004
1873.41708,1491.58651
1873.41708,1470.50186
1873.41708,1470.50186
1873.41708,1491.58651
1875.62932,1493.14834
1875.62932,1472.06369
1875.62932,1493.14834
1875.62932,1472.06369
1877.84155,1472.8446
1877.84155,1494.71016
1877.84155,1472.8446
1877.84155,1494.71016
1880.05379,1473.62552
1880.05379,1495.49107
1880.05379,1495.49107
1880.05379,1473.62552
1882.26602,1475.18734
1882.26602,1475.18734
1882.26602,1497.0529
1882.26602,1497.0529
1884.47826,1475.96825
1884.47826,1475.96825
1884.47826,1498.61473
1884.47826,1498.61473
1886.69049,1499.39564
1886.69049,1477.53008
1886.69049,1477.53008
1886.69049,1499.39564
1888.90273,1498.61473
1888.90273,1477.53008
1888.90273,1477.53008
1888.90273,1498.61473
1891.11496,1496.27199
1891.11496,1476.74917
1891.11496,1496.27199
1891.11496,1476.74917
1893.3272,1493.92925
1893.3272,1475.96825
1893.3272,1475.96825
1893.3272,1493.92925
1895.53944,1474.40643
1895.53944,1474.40643
1895.53944,1492.36742
1895.53944,1492.36742
1897.75167,1490.02468
1897.75167,1473.62552
1897.75167,1490.02468
1897.75167,1473.62552
1899.96391,1488.46286
1899.96391,1472.06369
1899.96391,1472.06369
1899.96391,1488.46286
1902.17614,1486.12012
1902.17614,1486.12012
1902.17614,1472.06369
1902.17614,1472.06369
1904.38838,1478.31099
1904.38838,1478.31099
1906.60061,1477.53008
1906.60061,1477.53008
1908.81285,1478.31099
1908.81285,1478.31099
1911.02509,1480.65373
1911.02509,1480.65373
1913.23732,1484.55829
1913.23732,1484.55829
1915.44956,1487.68195
1915.44956,1487.68195
1917.66179,1488.46286
1917.66179,1488.46286
1919.87403,1490.02468
1919.87403,1490.02468
1922.08626,1490.8056
1922.08626,1490.8056
1924.2985,1492.36742
1924.2985,1492.36742
1926.51073,1493.14834
1926.51073,1493.14834
1928.72297,1492.36742
1928.72297,1492.36742
1930.93521,1490.8056
1930.93521,1490.8056
1933.14744,1489.24377
1933.14744,1489.24377
1935.35968,1487.68195
1935.35968,1487.68195
1937.57191,1486.90103
1937.57191,1486.90103
1939.78415,1486.90103
1939.78415,1486.90103
1941.99638,1486.90103
1941.99638,1486.90103
1944.20862,1490.02468
1944.20862,1482.99647
1944.20862,1490.02468
1944.20862,1482.99647
1946.42086,1489.24377
1946.42086,1489.24377
1946.42086,1482.21556
1946.42086,1482.21556
1948.63309,1486.12012
1948.63309,1486.12012
1950.84533,1485.33921
1950.84533,1485.33921
1953.05756,1484.55829
1953.05756,1484.55829
1955.2698,1483.77738
1955.2698,1483.77738
1957.48203,1481.43464
1957.48203,1481.43464
1959.69427,1479.09191
1959.69427,1479.09191
1961.90651,1476.74917
1961.90651,1476.74917
1964.11874,1475.18734
1964.11874,1475.18734
1966.33098,1473.62552
1968.54321,1472.06369
1970.75545,1469.72095
1972.96768,1469.72095
1975.17992,1470.50186
1977.39215,1472.06369
1979.60439,1473.62552
1981.81663,1475.18734
1984.02886,1475.96825
1986.2411,1478.31099
1988.45333,1480.65373
1990.66557,1482.21556
1992.8778,1483.77738
1995.09004,1484.55829
1997.30228,1485.33921
1999.51451,1486.12012
2001.72675,1486.90103
2003.93898,1486.90103
2006.15122,1486.12012
2008.36345,1485.33921
2010.57569,1483.77738
2012.78793,1482.99647
2015.00016,1481.43464
2017.2124,1479.87282
2019.42463,1479.87282
2021.63687,1479.09191
2023.8491,1478.31099
2026.06134,1482.99647
2026.06134,1472.06369
2028.27357,1482.99647
2028.27357,1470.50186
2030.48581,1482.21556
2030.48581,1469.72095
2032.69805,1480.65373
2032.69805,1468.15913
2034.91028,1479.87282
2034.91028,1468.15913
2037.12252,1473.62552
2039.33475,1473.62552
2041.54699,1473.62552
2043.75922,1473.62552
2045.97146,1474.40643
2048.1837,1476.74917
2050.39593,1478.31099
2052.60817,1480.65373
2054.8204,1482.21556
2057.03264,1483.77738
2059.24487,1484.55829
2061.45711,1486.12012
2063.66934,1487.68195
2065.88158,1489.24377
2068.09382,1488.46286
2070.30605,1486.90103
2072.51829,1484.55829
2074.73052,1481.43464
2076.94276,1480.65373
2079.15499,1479.09191
2081.36723,1476.74917
2083.57947,1472.8446
2085.7917,1471.28278
2088.00394,1469.72095
2090.21617,1470.50186
2092.42841,1472.06369
2094.64064,1472.8446
2096.85288,1474.40643
2099.06512,1475.96825
2101.27735,1478.31099
2103.48959,1479.09191
2105.70182,1479.87282
2107.91406,1480.65373
2110.12629,1481.43464
2112.33853,1482.21556
2114.55076,1482.99647
2116.763,1483.77738
2118.97524,1484.55829
2121.18747,1485.33921
2123.39971,1486.12012
2125.61194,1481.43464
2125.61194,1491.58651
2127.82418,1482.21556
2127.82418,1492.36742
2130.03641,1482.21556
2130.03641,1493.92925
2132.24865,1493.92925
2132.24865,1482.21556
2134.46089,1482.21556
2134.46089,1494.71016
2136.67312,1488.46286
2138.88536,1488.46286
2141.09759,1488.46286
2143.30983,1488.46286
2145.52206,1488.46286
2147.7343,1489.24377
2149.94654,1490.02468
2152.15877,1489.24377
2154.37101,1488.46286
2156.58324,1487.68195
2158.79548,1486.12012
2161.00771,1484.55829
2163.21995,1482.99647
2165.43218,1482.21556
2167.64442,1479.87282
2169.85666,1479.09191
2172.06889,1478.31099
2174.28113,1478.31099
2176.49336,1479.87282
2178.7056,1480.65373
2180.91783,1481.43464
2183.13007,1482.99647
2185.34231,1483.77738
2187.55454,1485.33921
2189.76678,1485.33921
2189.76678,1485.33921
2191.97901,1486.12012
2191.97901,1486.12012
2194.19125,1486.90103
2194.19125,1486.90103
2196.40348,1487.68195
2196.40348,1487.68195
2198.61572,1489.24377
2198.61572,1489.24377
2200.82795,1490.8056
2200.82795,1490.8056
2203.04019,1491.58651
2203.04019,1491.58651
2205.25243,1490.8056
2205.25243,1490.8056
2207.46466,1490.02468
2207.46466,1490.02468
2209.6769,1488.46286
2209.6769,1488.46286
2211.88913,1488.46286
2211.88913,1488.46286
2214.10137,1488.46286
2214.10137,1488.46286
2216.3136,1494.71016
2216.3136,1482.99647
2216.3136,1482.99647
2216.3136,1494.71016
2218.52584,1495.49107
2218.52584,1481.43464
2218.52584,1481.43464
2218.52584,1495.49107
2220.73808,1496.27199
2220.73808,1479.87282
2220.73808,1496.27199
2220.73808,1479.87282
2222.95031,1495.49107
2222.95031,1479.87282
2222.95031,1495.49107
2222.95031,1479.87282
2225.16255,1495.49107
2225.16255,1481.43464
2225.16255,1495.49107
2225.16255,1481.43464
2227.37478,1494.71016
2227.37478,1482.21556
2227.37478,1494.71016
2227.37478,1482.21556
2229.58702,1486.90103
2229.58702,1486.90103
2231.79925,1486.90103
2231.79925,1486.90103
2234.01149,1486.90103
2234.01149,1486.90103
2236.22373,1487.68195
2236.22373,1487.68195
2238.43596,1489.24377
2238.43596,1489.24377
2240.6482,1490.8056
2240.6482,1490.8056
2242.86043,1491.58651
2242.86043,1491.58651
2245.07267,1491.58651
2245.07267,1491.58651
2247.2849,1491.58651
2247.2849,1491.58651
2249.49714,1491.58651
2249.49714,1491.58651
2251.70937,1490.8056
2251.70937,1490.8056
2253.92161,1490.8056
2253.92161,1490.8056
2256.13385,1490.02468
2256.13385,1490.02468
2258.34608,1488.46286
2258.34608,1488.46286
2260.55832,1487.68195
2260.55832,1487.68195
2262.77055,1485.33921
2262.77055,1485.33921
2264.98279,1482.21556
2264.98279,1482.21556
2267.19502,1478.31099
2267.19502,1478.31099
2269.40726,1477.53008
2269.40726,1476.74917
2271.6195,1475.18734
2271.6195,1475.96825
2273.83173,1472.06369
2273.83173,1473.62552
2276.04397,1471.28278
2276.04397,1472.06369
2278.2562,1472.06369
2278.2562,1471.28278
2280.46844,1472.8446
2282.68067,1473.62552
2284.89291,1473.62552
2287.10514,1473.62552
2289.31738,1475.18734
2291.52962,1478.31099
2293.74185,1480.65373
2295.95409,1483.77738
2298.16632,1488.46286
2300.37856,1494.71016
2302.59079,1521.2612
2302.59079,1500.17655
2304.80303,1525.94667
2304.80303,1506.42385
2307.01527,1515.79481
2307.01527,1532.97489
2309.2275,1540.0031
2309.2275,1522.82302
2311.43974,1525.94667
2311.43974,1547.03132
2313.65197,1527.5085
2313.65197,1552.49771
2315.86421,1554.05953
2315.86421,1529.85124
2318.07644,1534.53671
2318.07644,1554.84045
2320.28868,1556.40227
2320.28868,1539.22219
2322.50092,1543.12675
2322.50092,1579.82966
2322.50092,1544.68858
2324.71315,1586.85787
2324.71315,1548.59314
2326.92539,1590.76243
2326.92539,1553.27862
2329.13762,1589.98152
2329.13762,1555.62136
2331.34986,1588.4197
2331.34986,1556.40227
2333.56209,1582.95331
2333.56209,1557.18318
2333.56209,1532.97489
2335.77433,1568.11596
2335.77433,1532.97489
2337.98656,1558.74501
2340.1988,1558.74501
2342.41104,1589.98152
2342.41104,1550.93588
2344.62327,1547.81223
2346.83551,1543.12675
2349.04774,1539.22219
2351.25998,1535.31763
2353.47221,1530.63215
2355.68445,1526.72759
2357.89669,1523.60393
2360.10892,1501.73838
2360.10892,1521.2612
2362.32116,1497.83381
2364.53339,1493.92925
2366.74563,1490.8056
2368.95786,1487.68195
2371.1701,1484.55829
2373.38234,1482.21556
2375.59457,1480.65373
2377.80681,1479.09191
2380.01904,1477.53008
2382.23128,1476.74917
2384.44351,1475.18734
2386.65575,1473.62552
2388.86798,1472.8446
2391.08022,1473.62552
2393.29246,1474.40643
2395.50469,1478.31099
2397.71693,1482.21556
2399.92916,1487.68195
2402.1414,1494.71016
2404.35363,1500.95746
2406.56587,1504.08111
2408.77811,1507.20477
2410.99034,1508.76659
2413.20258,1509.5475
2415.41481,1506.42385
2417.62705,1501.73838
2419.83928,1497.83381
2422.05152,1492.36742
2424.26375,1490.02468
2426.47599,1486.90103
2428.68823,1484.55829
2430.90046,1480.65373
2433.1127,1476.74917
2435.32493,1475.18734
2437.53717,1475.18734
2439.7494,1475.18734
2441.96164,1475.18734
2444.17388,1475.96825
2446.38611,1477.53008
2448.59835,1479.09191
2450.81058,1481.43464
2453.02282,1483.77738
2455.23505,1486.12012
2457.44729,1489.24377
2459.65953,1490.8056
2461.87176,1500.95746
2461.87176,1480.65373
2464.084,1481.43464
2464.084,1502.51929
2466.29623,1482.99647
2466.29623,1505.64294
2468.50847,1482.99647
2468.50847,1508.76659
2470.7207,1482.99647
2470.7207,1510.32842
2472.93294,1511.10933
2472.93294,1483.77738
2475.14517,1484.55829
2475.14517,1511.10933
2477.35741,1486.12012
2477.35741,1510.32842
2479.56965,1488.46286
2479.56965,1510.32842
2481.78188,1490.8056
2481.78188,1510.32842
2483.99412,1493.92925
2483.99412,1511.10933
2486.20635,1511.89024
2486.20635,1495.49107
2488.41859,1511.89024
2488.41859,1497.0529
2490.63082,1504.08111
2492.84306,1506.42385
2495.0553,1505.64294
2497.26753,1503.3002
2499.47977,1500.17655
2501.692,1497.0529
2503.90424,1494.71016
2506.11647,1493.14834
2508.32871,1490.8056
2510.54095,1486.90103
2512.75318,1483.77738
2514.96542,1482.21556
2517.17765,1480.65373
2519.38989,1479.87282
2521.60212,1479.09191
2523.81436,1479.87282
2526.02659,1481.43464
2528.23883,1482.21556
2530.45107,1482.99647
2532.6633,1484.55829
2534.87554,1485.33921
2537.08777,1479.09191
2537.08777,1490.8056
2539.30001,1492.36742
2539.30001,1479.09191
2541.51224,1493.14834
2541.51224,1478.31099
2543.72448,1477.53008
2543.72448,1494.71016
2545.93672,1476.74917
2545.93672,1497.0529
2548.14895,1475.96825
2548.14895,1498.61473
2550.36119,1475.18734
2550.36119,1498.61473
2552.57342,1474.40643
2552.57342,1499.39564
2554.78566,1474.40643
2554.78566,1500.17655
2556.99789,1500.95746
2556.99789,1474.40643
2559.21013,1475.18734
2559.21013,1500.95746
2561.42236,1475.96825
2561.42236,1500.17655
2563.6346,1477.53008
2563.6346,1497.83381
2565.84684,1495.49107
2565.84684,1477.53008
2568.05907,1477.53008
2568.05907,1493.14834
2570.27131,1486.12012
2572.48354,1482.99647
2574.69578,1479.87282
2576.90801,1476.74917
2579.12025,1472.8446
2581.33249,1468.15913
2583.54472,1464.25456
2585.75696,1463.47365
2587.96919,1465.81639
2590.18143,1467.37821
2592.39366,1468.94004
2594.6059,1469.72095
2596.81814,1472.06369
2599.03037,1477.53008
2601.24261,1482.21556
2603.45484,1486.12012
2605.66708,1490.8056
2607.87931,1493.14834
2610.09155,1494.71016
2612.30378,1495.49107
2614.51602,1488.46286
2614.51602,1500.17655
2616.72826,1489.24377
2616.72826,1500.95746
2618.94049,1490.02468
2618.94049,1500.95746
2621.15273,1490.02468
2621.15273,1500.17655
2623.36496,1495.49107
2625.5772,1493.92925
2627.78943,1489.24377
2627.78943,1497.83381
2630.00167,1487.68195
2630.00167,1498.61473
2632.21391,1489.24377
2634.42614,1486.90103
2636.63838,1485.33921
2638.85061,1483.77738
2641.06285,1482.21556
2643.27508,1479.87282
2645.48732,1469.72095
2645.48732,1485.33921
2647.69955,1469.72095
2647.69955,1482.99647
2649.91179,1471.28278
2649.91179,1481.43464
2652.12403,1475.96825
2654.33626,1475.96825
2656.5485,1476.74917
2658.76073,1479.09191
2660.97297,1481.43464
2663.1852,1483.77738
2665.39744,1484.55829
2667.60968,1485.33921
2669.82191,1487.68195
2672.03415,1489.24377
2674.24638,1490.8056
2676.45862,1491.58651
2678.67085,1490.8056
2680.88309,1490.02468
2683.09533,1489.24377
2685.30756,1487.68195
2687.5198,1486.12012
2689.73203,1486.12012
2691.94427,1486.12012
2694.1565,1487.68195
2696.36874,1488.46286
2698.58097,1490.02468
2700.79321,1490.8056
2703.00545,1490.8056
2705.21768,1490.02468
2707.42992,1488.46286
2709.64215,1486.90103
2711.85439,1483.77738
2714.06662,1480.65373
2716.27886,1478.31099
2718.4911,1475.96825
2720.70333,1474.40643
2722.91557,1472.06369
2725.1278,1471.28278
2727.34004,1472.06369
2729.55227,1465.81639
2729.55227,1479.87282
2731.76451,1465.03548
2731.76451,1482.21556
2733.97675,1467.37821
2733.97675,1483.77738
2736.18898,1468.15913
2736.18898,1485.33921
2738.40122,1469.72095
2738.40122,1486.90103
2740.61345,1488.46286
2740.61345,1471.28278
2742.82569,1489.24377
2742.82569,1472.06369
2745.03792,1474.40643
2745.03792,1489.24377
2747.25016,1480.65373
2749.46239,1480.65373
2751.67463,1483.77738
2753.88687,1485.33921
2756.0991,1487.68195
2758.31134,1489.24377
2760.52357,1489.24377
2762.73581,1487.68195
2764.94804,1484.55829
2767.16028,1481.43464
2769.37252,1479.09191
2771.58475,1476.74917
2773.79699,1474.40643
2776.00922,1472.8446
2778.22146,1470.50186
2780.43369,1470.50186
2782.64593,1472.06369
2784.85816,1474.40643
2787.0704,1476.74917
2789.28264,1477.53008
2791.49487,1479.09191
2793.70711,1480.65373
2795.91934,1482.21556
2798.13158,1482.99647
2800.34381,1484.55829
2802.55605,1485.33921
2804.76829,1486.12012
2806.98052,1487.68195
2809.19276,1490.02468
2811.40499,1490.8056
2813.61723,1492.36742
2815.82946,1493.92925
2818.0417,1494.71016
2820.25394,1496.27199
2822.46617,1497.83381
2824.67841,1497.83381
2826.89064,1497.0529
2829.10288,1496.27199
2831.31511,1494.71016
2833.52735,1493.14834
2835.73958,1491.58651
2837.95182,1490.02468
2840.16406,1488.46286
2842.37629,1486.12012
2844.58853,1481.43464
2846.80076,1477.53008
2849.013,1474.40643
2851.22523,1471.28278
2853.43747,1470.50186
2855.64971,1465.81639
2855.64971,1478.31099
2857.86194,1465.81639
2857.86194,1479.87282
2860.07418,1480.65373
2860.07418,1467.37821
2862.28641,1468.94004
2862.28641,1481.43464
2864.49865,1475.96825
2866.71088,1476.74917
2868.92312,1477.53008
2871.13536,1478.31099
2873.34759,1478.31099
2875.55983,1476.74917
2877.77206,1475.96825
2879.9843,1475.96825
2882.19653,1474.40643
2884.40877,1473.62552
2886.621,1473.62552
2888.83324,1472.8446
2891.04548,1471.28278
2893.25771,1469.72095
2895.46995,1468.94004
2897.68218,1468.15913
2899.89442,1467.37821
2902.10665,1466.5973
2904.31889,1467.37821
2906.53113,1468.15913
2908.74336,1468.94004
2910.9556,1470.50186
2913.16783,1471.28278
2915.38007,1472.8446
2917.5923,1473.62552
2919.80454,1475.18734
2922.01677,1479.09191
2924.22901,1480.65373
2926.44125,1483.77738
2928.65348,1485.33921
2930.86572,1486.90103
2933.07795,1486.90103
2935.29019,1485.33921
2937.50242,1485.33921
2939.71466,1483.77738
2941.9269,1482.99647
2944.13913,1482.21556
2946.35137,1478.31099
2948.5636,1475.96825
2950.77584,1473.62552
2952.98807,1472.06369
2955.20031,1471.28278
2957.41255,1470.50186
2959.62478,1464.25456
2959.62478,1476.74917
2961.83702,1477.53008
2961.83702,1463.47365
2964.04925,1475.96825
2964.04925,1464.25456
2966.26149,1470.50186
2968.47372,1471.28278
2970.68596,1472.8446
2972.89819,1474.40643
2975.11043,1477.53008
2977.32267,1479.09191
2979.5349,1482.21556
2981.74714,1482.99647
2983.95937,1486.12012
2986.17161,1488.46286
2988.38384,1488.46286
2990.59608,1488.46286
2992.80832,1486.90103
2995.02055,1485.33921
2997.23279,1485.33921
2999.44502,1484.55829
3001.65726,1486.12012
3003.86949,1486.90103
3006.08173,1489.24377
3008.29396,1490.02468
3010.5062,1490.02468
3012.71844,1489.24377
3014.93067,1497.83381
3014.93067,1482.21556
3017.14291,1498.61473
3017.14291,1480.65373
3019.35514,1495.49107
3019.35514,1479.09191
3021.56738,1494.71016
3021.56738,1477.53008
3023.77961,1493.92925
3023.77961,1477.53008
3025.99185,1486.90103
3028.20409,1485.33921
3030.41632,1486.12012
3032.62856,1487.68195
3034.84079,1490.02468
3037.05303,1493.92925
3039.26526,1496.27199
3041.4775,1497.83381
3043.68974,1497.0529
3045.90197,1497.0529
3048.11421,1495.49107
3050.32644,1493.92925
3052.53868,1490.8056
3054.75091,1488.46286
3056.96315,1486.12012
3059.17538,1484.55829
3061.38762,1486.12012
3063.59986,1488.46286
3065.81209,1490.02468
3068.02433,1490.8056
3070.23656,1493.14834
3072.4488,1495.49107
3074.66103,1495.49107
3076.87327,1493.92925
3079.08551,1491.58651
3081.29774,1490.02468
3083.50998,1488.46286
3085.72221,1492.36742
3085.72221,1483.77738
3087.93445,1483.77738
3087.93445,1492.36742
3090.14668,1486.90103
3092.35892,1487.68195
3094.57116,1489.24377
3096.78339,1491.58651
3098.99563,1493.92925
3101.20786,1494.71016
3103.4201,1495.49107
3105.63233,1495.49107
3107.84457,1494.71016
3110.0568,1493.92925
3112.26904,1492.36742
3114.48128,1491.58651
3116.69351,1492.36742
3118.90575,1492.36742
3121.11798,1484.55829
3121.11798,1497.83381
3123.33022,1485.33921
3123.33022,1500.17655
3125.54245,1486.12012
3125.54245,1501.73838
3127.75469,1486.90103
3127.75469,1502.51929
3129.96693,1488.46286
3129.96693,1502.51929
3132.17916,1489.24377
3132.17916,1502.51929
3134.3914,1502.51929
3134.3914,1490.8056
3136.60363,1491.58651
3136.60363,1502.51929
3138.81587,1491.58651
3138.81587,1500.95746
3141.0281,1496.27199
3143.24034,1495.49107
3145.45257,1494.71016
3147.66481,1493.14834
3149.87705,1492.36742
3152.08928,1492.36742
3154.30152,1491.58651
3156.51375,1490.02468
3158.72599,1488.46286
3160.93822,1488.46286
3163.15046,1489.24377
3165.3627,1490.8056
3167.57493,1491.58651
3169.78717,1493.92925
3171.9994,1497.0529
3174.21164,1502.51929
3176.42387,1507.98568
3178.63611,1510.32842
3180.84835,1511.10933
3183.06058,1509.5475
3185.27282,1518.91846
3185.27282,1502.51929
3187.48505,1520.48028
3187.48505,1500.95746
3189.69729,1520.48028
3189.69729,1500.17655
3191.90952,1518.91846
3191.90952,1497.83381
3194.12176,1518.13754
3194.12176,1496.27199
3196.33399,1517.35663
3196.33399,1496.27199
3198.54623,1517.35663
3198.54623,1497.0529
3200.75847,1515.79481
3200.75847,1497.83381
3202.9707,1513.45207
3202.9707,1500.17655
3205.18294,1505.64294
3207.39517,1506.42385
3209.60741,1508.76659
3211.81964,1509.5475
3214.03188,1511.10933
3216.24412,1512.67116
3218.45635,1515.01389
3220.66859,1514.23298
3222.88082,1513.45207
3225.09306,1513.45207
3227.30529,1511.10933
3227.30529,1511.10933
3229.51753,1508.76659
3229.51753,1508.76659
3231.72976,1506.42385
3231.72976,1506.42385
3233.942,1504.86203
3233.942,1504.86203
3236.15424,1504.08111
3236.15424,1504.08111
3238.36647,1503.3002
3238.36647,1503.3002
3240.57871,1501.73838
3240.57871,1501.73838
3242.79094,1500.95746
3242.79094,1500.95746
3245.00318,1500.17655
3245.00318,1500.17655
3247.21541,1500.17655
3247.21541,1500.17655
3249.42765,1501.73838
3249.42765,1501.73838
3251.63989,1503.3002
3251.63989,1503.3002
3253.85212,1505.64294
3253.85212,1505.64294
3256.06436,1507.20477
3256.06436,1507.20477
3258.27659,1509.5475
3258.27659,1509.5475
3260.48883,1512.67116
3260.48883,1512.67116
3262.70106,1514.23298
3262.70106,1514.23298
3264.9133,1515.79481
3264.9133,1516.57572
3267.12554,1515.79481
3267.12554,1517.35663
3269.33777,1517.35663
3269.33777,1515.01389
3271.55001,1521.2612
3271.55001,1511.89024
3271.55001,1524.38485
3271.55001,1511.89024
3273.76224,1525.16576
3273.76224,1511.10933
3273.76224,1522.04211
3273.76224,1511.10933
3275.97448,1522.82302
3275.97448,1525.94667
3275.97448,1509.5475
3275.97448,1509.5475
3278.18671,1526.72759
3278.18671,1510.32842
3278.18671,1510.32842
3280.39895,1510.32842
3280.39895,1510.32842
3280.39895,1527.5085
3282.61118,1511.89024
3282.61118,1527.5085
3282.61118,1511.89024
3284.82342,1512.67116
3284.82342,1526.72759
3284.82342,1512.67116
3287.03566,1515.79481
3287.03566,1525.94667
3287.03566,1515.79481
3289.24789,1519.69937
3289.24789,1517.35663
3291.46013,1520.48028
3293.67236,1522.82302
3295.8846,1524.38485
3298.09683,1525.94667
3300.30907,1527.5085
3302.52131,1529.85124
3304.73354,1529.07032
3306.94578,1529.07032
3309.15801,1529.85124
3311.37025,1530.63215
3313.58248,1531.41306
3315.79472,1532.19398
3318.00696,1532.97489
3320.21919,1532.97489
3322.43143,1532.19398
3324.64366,1531.41306
3326.8559,1529.85124
3329.06813,1528.28941
3331.28037,1525.16576
3333.4926,1522.04211
3335.70484,1520.48028
3337.91708,1519.69937
3340.12931,1518.91846
3342.34155,1518.91846
3344.55378,1520.48028
3346.76602,1522.82302
3348.97825,1525.16576
3351.19049,1527.5085
3353.40273,1529.85124
3355.61496,1531.41306
3357.8272,1522.82302
3357.8272,1540.0031
3360.03943,1542.34584
3360.03943,1524.38485
3362.25167,1525.16576
3362.25167,1544.68858
3364.4639,1525.94667
3364.4639,1546.25041
3366.67614,1525.16576
3366.67614,1546.25041
3368.88837,1523.60393
3368.88837,1544.68858
3371.10061,1522.82302
3371.10061,1543.90767
3373.31285,1522.04211
3373.31285,1543.12675
3375.52508,1520.48028
3375.52508,1540.78402
3377.73732,1519.69937
3377.73732,1539.22219
3379.94955,1519.69937
3379.94955,1536.09854
3382.16179,1519.69937
3382.16179,1532.97489
3384.37402,1527.5085
3386.58626,1526.72759
3388.7985,1525.16576
3391.01073,1522.04211
3393.22297,1516.57572
3395.4352,1512.67116
3397.64744,1509.5475
3399.85967,1508.76659
3402.07191,1509.5475
3404.28415,1511.89024
3406.49638,1515.01389
3408.70862,1518.13754
3410.92085,1523.60393
3413.13309,1525.16576
3415.34532,1525.94667
3417.55756,1527.5085
3419.76979,1528.28941
3421.98203,1529.85124
3424.19427,1529.85124
3426.4065,1525.94667
3428.61874,1523.60393
3430.83097,1522.82302
3433.04321,1519.69937
3435.25544,1515.01389
3437.46768,1511.89024
3439.67992,1504.86203
3439.67992,1518.91846
3441.89215,1504.86203
3441.89215,1518.91846
3444.10439,1519.69937
3444.10439,1505.64294
3446.31662,1512.67116
3448.52886,1514.23298
3450.74109,1515.01389
3452.95333,1517.35663
3455.16557,1518.91846
3457.3778,1520.48028
3459.59004,1521.2612
3461.80227,1519.69937
3464.01451,1518.13754
3466.22674,1516.57572
3468.43898,1515.01389
3470.65121,1513.45207
3472.86345,1511.10933
3475.07569,1509.5475
3477.28792,1508.76659
3479.50016,1503.3002
3479.50016,1514.23298
3481.71239,1502.51929
3481.71239,1515.01389
3483.92463,1502.51929
3483.92463,1517.35663
3486.13686,1503.3002
3486.13686,1518.91846
3488.3491,1504.86203
3488.3491,1520.48028
3490.56134,1520.48028
3490.56134,1505.64294
3492.77357,1507.20477
3492.77357,1519.69937
3494.98581,1515.79481
3497.19804,1515.79481
3499.41028,1514.23298
3501.62251,1511.10933
3503.83475,1509.5475
3506.04698,1509.5475
3508.25922,1509.5475
3510.47146,1504.08111
3510.47146,1515.01389
3512.68369,1514.23298
3512.68369,1504.08111
3514.89593,1509.5475
3517.10816,1508.76659
3519.3204,1508.76659
3521.53263,1509.5475
3523.74487,1510.32842
3525.95711,1511.10933
3528.16934,1511.10933
3530.38158,1511.10933
3532.59381,1511.10933
3534.80605,1507.98568
3534.80605,1515.79481
3537.01828,1507.20477
3537.01828,1516.57572
3539.23052,1507.20477
3539.23052,1517.35663
3541.44276,1507.98568
3541.44276,1517.35663
3543.65499,1508.76659
3543.65499,1517.35663
3545.86723,1508.76659
3545.86723,1516.57572
3548.07946,1512.67116
3550.2917,1512.67116
3552.50393,1512.67116
3554.71617,1512.67116
3556.9284,1512.67116
3559.14064,1514.23298
3561.35288,1515.79481
3563.56511,1516.57572
3565.77735,1518.13754
3567.98958,1506.42385
3567.98958,1525.94667
3570.20182,1529.07032
3570.20182,1506.42385
3572.41405,1531.41306
3572.41405,1506.42385
3574.62629,1506.42385
3574.62629,1532.97489
3576.83853,1507.20477
3576.83853,1533.7558
3579.05076,1525.16576
3579.05076,1507.20477
3579.05076,1532.19398
3581.263,1507.20477
3581.263,1529.07032
3583.47523,1507.98568
3583.47523,1524.38485
3585.68747,1520.48028
3587.8997,1519.69937
3590.11194,1518.13754
3592.32417,1513.45207
3594.53641,1509.5475
3596.74865,1506.42385
3598.96088,1506.42385
3601.17312,1505.64294
3603.38535,1505.64294
3605.59759,1505.64294
3607.80982,1506.42385
3610.02206,1505.64294
3612.2343,1505.64294
3614.44653,1505.64294
3616.65877,1505.64294
3618.871,1504.86203
3621.08324,1503.3002
3623.29547,1501.73838
3625.50771,1499.39564
3627.71995,1497.0529
3629.93218,1494.71016
3632.14442,1492.36742
3634.35665,1490.8056
3636.56889,1489.24377
3638.78112,1488.46286
3640.99336,1487.68195
3643.20559,1486.90103
3645.41783,1482.99647
3645.41783,1491.58651
3647.63007,1483.77738
3647.63007,1492.36742
3649.8423,1484.55829
3649.8423,1493.14834
3652.05454,1485.33921
3652.05454,1492.36742
3654.26677,1489.24377
3656.47901,1490.8056
3658.69124,1491.58651
3660.90348,1492.36742
3663.11572,1493.92925
3665.32795,1497.0529
3667.54019,1499.39564
3669.75242,1501.73838
3671.96466,1503.3002
3674.17689,1504.08111
3676.38913,1504.86203
3678.60137,1504.86203
3680.8136,1504.08111
3683.02584,1501.73838
3685.23807,1500.95746
3687.45031,1498.61473
3689.66254,1496.27199
3691.87478,1494.71016
3694.08701,1493.92925
3696.29925,1493.14834
3698.51149,1491.58651
3700.72372,1489.24377
3702.93596,1487.68195
3705.14819,1486.90103
3707.36043,1486.90103
3709.57266,1488.46286
3711.7849,1490.8056
3713.99714,1493.92925
3716.20937,1496.27199
3718.42161,1497.0529
3720.63384,1498.61473
3722.84608,1500.95746
3725.05831,1504.86203
3727.27055,1507.98568
3729.48278,1509.5475
3731.69502,1508.76659
3733.90726,1507.20477
3736.11949,1504.86203
3738.33173,1503.3002
3740.54396,1500.95746
3742.7562,1499.39564
3744.96843,1497.83381
3747.18067,1497.0529
3749.39291,1496.27199
3751.60514,1497.0529
3753.81738,1497.0529
3756.02961,1496.27199
3758.24185,1495.49107
3760.45408,1495.49107
3762.66632,1494.71016
3764.87856,1495.49107
3767.09079,1494.71016
3769.30303,1494.71016
3771.51526,1495.49107
3773.7275,1495.49107
3775.93973,1495.49107
3778.15197,1495.49107
3780.3642,1494.71016
3782.57644,1494.71016
3784.78868,1493.92925
3787.00091,1493.92925
3789.21315,1493.92925
3791.42538,1493.14834
3793.63762,1492.36742
3795.84985,1491.58651
3798.06209,1491.58651
3800.27433,1490.8056
3802.48656,1490.02468
3804.6988,1489.24377
3806.91103,1490.02468
3809.12327,1490.8056
3811.3355,1490.8056
3813.54774,1490.02468
3815.75998,1489.24377
3817.97221,1488.46286
3820.18445,1487.68195
3822.39668,1486.90103
3824.60892,1486.12012
3826.82115,1486.12012
3829.03339,1486.12012
3831.24562,1486.90103
3831.24562,1486.90103
3833.45786,1486.12012
3833.45786,1486.12012
3835.6701,1485.33921
3835.6701,1485.33921
3837.88233,1484.55829
3837.88233,1484.55829
3840.09457,1482.99647
3840.09457,1482.99647
3842.3068,1482.21556
3842.3068,1482.21556
3844.51904,1480.65373
3844.51904,1480.65373
3846.73127,1480.65373
3846.73127,1479.09191
3848.94351,1479.87282
3848.94351,1478.31099
3851.15575,1479.09191
3851.15575,1476.74917
3853.36798,1475.96825
3853.36798,1477.53008
3855.58022,1474.40643
3855.58022,1475.96825
3857.79245,1472.8446
3860.00469,1472.8446
3862.21692,1472.06369
3864.42916,1472.8446
3866.64139,1473.62552
3868.85363,1473.62552
3871.06587,1473.62552
3873.2781,1474.40643
3875.49034,1474.40643
3877.70257,1475.18734
3879.91481,1475.96825
3882.12704,1477.53008
3884.33928,1479.09191
3886.55152,1479.09191
3888.76375,1479.09191
3890.97599,1472.8446
3890.97599,1483.77738
3893.18822,1472.06369
3893.18822,1483.77738
3895.40046,1471.28278
3895.40046,1483.77738
3897.61269,1472.06369
3897.61269,1482.99647
3899.82493,1477.53008
3902.03717,1475.96825
3904.2494,1476.74917
3906.46164,1478.31099
3908.67387,1480.65373
3910.88611,1482.99647
3913.09834,1483.77738
3915.31058,1485.33921
3917.52281,1486.12012
3919.73505,1484.55829
3921.94729,1482.21556
3924.15952,1480.65373
3926.37176,1478.31099
3928.58399,1477.53008
3930.79623,1476.74917
3933.00846,1476.74917
3935.2207,1478.31099
3937.43294,1484.55829
3937.43294,1470.50186
3939.64517,1486.90103
3939.64517,1471.28278
3941.85741,1489.24377
3941.85741,1472.06369
3944.06964,1490.8056
3944.06964,1472.8446
3946.28188,1492.36742
3946.28188,1474.40643
3948.49411,1475.96825
3948.49411,1493.92925
3950.70635,1494.71016
3950.70635,1478.31099
3952.91858,1492.36742
3952.91858,1479.87282
3955.13082,1486.90103
3957.34306,1486.12012
3959.55529,1484.55829
3961.76753,1482.99647
3963.97976,1481.43464
3966.192,1480.65373
3968.40423,1479.09191
3970.61647,1478.31099
3972.82871,1478.31099
3975.04094,1477.53008
3977.25318,1478.31099
3979.46541,1479.09191
3981.67765,1479.09191
3983.88988,1479.87282
3986.10212,1480.65373
3988.31436,1480.65373
3990.52659,1479.87282
3992.73883,1479.09191
3994.95106,1478.31099
