Raman Shift,Intensity
209.0,2.83
210.0,5.716
211.0,4.923
212.0,4.163
213.0,4.773
214.0,6.178
215.0,7.049
216.0,6.371
217.0,5.712
218.0,5.073
219.0,4.453
220.0,3.214
221.0,1.366
222.0,0.042
223.0,1.903
224.0,3.744
225.0,3.443
226.0,2.446
227.0,1.959
228.0,2.268
229.0,2.578
230.0,2.061
231.0,1.553
232.0,1.599
233.0,1.956
234.0,2.206
235.0,2.162
236.0,2.127
237.0,2.104
238.0,2.096
239.0,2.119
240.0,2.188
241.0,2.333
242.0,2.621
243.0,2.821
244.0,2.818
245.0,2.704
246.0,2.818
247.0,3.286
248.0,3.708
249.0,3.748
250.0,3.694
251.0,3.507
252.0,3.219
253.0,2.855
254.0,2.432
255.0,1.88
256.0,1.233
257.0,0.509
258.0,0.552
259.0,0.966
260.0,1.072
261.0,0.54
262.0,0.039
263.0,0.27
264.0,0.534
265.0,0.597
266.0,0.541
267.0,0.529
268.0,0.56
269.0,0.635
270.0,0.381
271.0,0.144
272.0,0.932
273.0,2.63
274.0,4.661
275.0,7.92
276.0,11.289
277.0,18.248
278.0,25.737
279.0,37.546
280.0,53.601
281.0,71.948
282.0,101.954
283.0,132.09
284.0,178.018
285.0,227.569
286.0,277.702
287.0,328.432
288.0,373.092
289.0,377.891
290.0,382.798
291.0,348.756
292.0,304.678
293.0,257.176
294.0,205.68
295.0,156.475
296.0,123.264
297.0,90.127
298.0,68.752
299.0,50.579
300.0,36.067
301.0,26.113
302.0,16.838
303.0,12.439
304.0,8.159
305.0,5.613
306.0,3.534
307.0,1.8
308.0,0.498
309.0,0.731
310.0,0.876
311.0,1.025
312.0,0.843
313.0,0.57
314.0,0.059
315.0,0.708
316.0,1.239
317.0,0.615
318.0,0.023
319.0,0.006
320.0,0.142
321.0,0.42
322.0,0.859
323.0,1.333
324.0,2.136
325.0,2.775
326.0,2.938
327.0,2.91
328.0,2.624
329.0,2.14
330.0,1.929
331.0,2.436
332.0,2.895
333.0,2.899
334.0,2.545
335.0,2.328
336.0,2.235
337.0,2.031
338.0,1.549
339.0,1.104
340.0,1.144
341.0,1.241
342.0,1.325
343.0,1.396
344.0,1.298
345.0,0.838
346.0,0.327
347.0,0.335
348.0,0.305
349.0,0.247
350.0,0.175
351.0,0.278
352.0,0.664
353.0,1.023
354.0,0.973
355.0,0.906
356.0,0.514
357.0,0.036
358.0,0.029
359.0,0.369
360.0,0.622
361.0,0.144
362.0,0.351
363.0,0.088
364.0,0.301
365.0,0.699
366.0,1.107
367.0,1.413
368.0,1.414
369.0,1.425
370.0,1.861
371.0,2.317
372.0,3.068
373.0,3.971
374.0,4.556
375.0,4.599
376.0,4.646
377.0,4.697
378.0,4.691
379.0,4.059
380.0,3.249
381.0,2.871
382.0,2.94
383.0,2.957
384.0,2.352
385.0,1.552
386.0,1.545
387.0,1.619
388.0,1.511
389.0,1.258
390.0,1.18
391.0,1.687
392.0,2.133
393.0,1.323
394.0,0.513
395.0,0.363
396.0,0.421
397.0,0.27
398.0,0.117
399.0,0.265
400.0,0.636
401.0,1.534
402.0,0.837
403.0,0.025
404.0,0.072
405.0,0.36
406.0,0.636
407.0,0.622
408.0,0.604
409.0,0.584
410.0,0.56
411.0,0.534
412.0,0.504
413.0,0.472
414.0,0.32
415.0,0.217
416.0,0.674
417.0,1.078
418.0,1.056
419.0,0.931
420.0,0.785
421.0,0.751
422.0,0.72
423.0,0.691
424.0,0.665
425.0,0.642
426.0,0.623
427.0,0.608
428.0,0.597
429.0,0.319
430.0,0.119
431.0,0.239
432.0,0.217
433.0,0.641
434.0,0.667
435.0,0.702
436.0,0.746
437.0,0.797
438.0,0.856
439.0,0.928
440.0,1.01
441.0,1.1
442.0,1.211
443.0,1.756
444.0,2.306
445.0,2.52
446.0,2.617
447.0,2.46
448.0,2.146
449.0,1.838
450.0,1.533
451.0,1.234
452.0,0.938
453.0,0.72
454.0,0.961
455.0,1.241
456.0,1.232
457.0,0.95
458.0,0.884
459.0,1.492
460.0,2.102
461.0,1.393
462.0,0.672
463.0,0.612
464.0,0.783
465.0,0.737
466.0,0.464
467.0,0.192
468.0,0.08
469.0,0.357
470.0,0.203
471.0,0.055
472.0,0.09
473.0,0.235
474.0,0.381
475.0,0.529
476.0,0.56
477.0,0.265
478.0,0.008
479.0,0.593
480.0,1.197
481.0,1.455
482.0,1.618
483.0,1.785
484.0,1.881
485.0,1.994
486.0,2.498
487.0,3.019
488.0,2.764
489.0,2.516
490.0,3.017
491.0,3.677
492.0,4.079
493.0,4.311
494.0,4.226
495.0,3.577
496.0,2.936
497.0,2.303
498.0,1.677
499.0,1.864
500.0,2.151
501.0,2.154
502.0,2.026
503.0,2.127
504.0,2.455
505.0,2.598
506.0,2.04
507.0,1.566
508.0,2.026
509.0,2.393
510.0,2.078
511.0,1.556
512.0,1.527
513.0,1.908
514.0,1.865
515.0,0.894
516.0,0.011
517.0,0.055
518.0,0.13
519.0,0.18
520.0,0.555
521.0,0.351
522.0,0.143
523.0,0.165
524.0,0.285
525.0,0.579
526.0,0.484
527.0,0.367
528.0,0.682
529.0,0.981
530.0,0.912
531.0,0.731
532.0,0.794
533.0,1.029
534.0,1.065
535.0,0.828
536.0,0.577
537.0,0.312
538.0,0.044
539.0,0.04
540.0,0.088
541.0,0.204
542.0,0.301
543.0,0.376
544.0,0.449
545.0,0.514
546.0,0.571
547.0,0.618
548.0,0.644
549.0,0.667
550.0,0.684
551.0,0.684
552.0,0.662
553.0,0.604
554.0,0.448
555.0,0.315
556.0,0.364
557.0,0.754
558.0,1.066
559.0,0.562
560.0,0.063
561.0,0.025
562.0,0.066
563.0,0.213
564.0,0.629
565.0,1.048
566.0,1.469
567.0,1.75
568.0,1.718
569.0,1.689
570.0,1.665
571.0,1.646
572.0,1.632
573.0,1.62
574.0,1.986
575.0,2.465
576.0,2.441
577.0,1.984
578.0,1.678
579.0,1.683
580.0,1.616
581.0,1.169
582.0,0.725
583.0,0.73
584.0,0.749
585.0,0.771
586.0,0.795
587.0,0.545
588.0,0.118
589.0,0.113
590.0,0.079
591.0,0.044
592.0,0.008
593.0,0.032
594.0,0.074
595.0,0.12
596.0,0.168
597.0,0.219
598.0,0.273
599.0,0.33
600.0,0.39
601.0,0.453
602.0,0.527
603.0,0.602
604.0,0.681
605.0,0.721
606.0,0.775
607.0,0.845
608.0,0.93
609.0,0.641
610.0,0.273
611.0,0.508
612.0,1.066
613.0,1.182
614.0,0.821
615.0,0.607
616.0,0.74
617.0,0.988
618.0,0.634
619.0,0.279
620.0,0.824
621.0,1.393
622.0,1.215
623.0,0.862
624.0,0.808
625.0,0.917
626.0,0.803
627.0,0.449
628.0,0.242
629.0,0.348
630.0,0.381
631.0,0.022
632.0,0.34
633.0,0.206
634.0,0.752
635.0,0.909
636.0,0.989
637.0,1.383
638.0,1.926
639.0,1.76
640.0,0.917
641.0,0.411
642.0,0.487
643.0,0.56
644.0,0.629
645.0,0.694
646.0,0.756
647.0,0.787
648.0,0.637
649.0,0.691
650.0,0.746
651.0,0.801
652.0,0.573
653.0,0.16
654.0,0.042
655.0,0.007
656.0,0.153
657.0,0.197
658.0,0.241
659.0,0.283
660.0,0.322
661.0,0.36
662.0,0.396
663.0,0.431
664.0,0.477
665.0,0.865
666.0,1.4
667.0,1.641
668.0,1.68
669.0,1.294
670.0,0.368
671.0,0.115
672.0,0.37
673.0,0.862
674.0,0.873
675.0,0.883
676.0,0.891
677.0,0.896
678.0,0.898
679.0,1.093
680.0,0.793
681.0,0.315
682.0,0.42
683.0,0.869
684.0,1.081
685.0,1.053
686.0,0.85
687.0,0.251
688.0,0.036
689.0,0.388
690.0,0.761
691.0,0.712
692.0,0.66
693.0,0.148
694.0,0.375
695.0,0.114
696.0,0.283
697.0,0.316
698.0,0.235
699.0,0.164
700.0,0.095
701.0,0.028
702.0,0.037
703.0,0.068
704.0,0.394
705.0,0.815
706.0,1.242
707.0,1.674
708.0,2.111
709.0,2.554
710.0,4.213
711.0,6.023
712.0,11.213
713.0,16.881
714.0,31.536
715.0,49.057
716.0,73.893
717.0,102.777
718.0,115.658
719.0,114.315
720.0,101.756
721.0,73.426
722.0,48.844
723.0,32.833
724.0,18.841
725.0,13.263
726.0,7.974
727.0,5.735
728.0,3.501
729.0,2.781
730.0,2.203
731.0,1.407
732.0,0.618
733.0,0.194
734.0,0.097
735.0,0.083
736.0,0.093
737.0,0.268
738.0,0.441
739.0,0.615
740.0,0.788
741.0,0.795
742.0,0.489
743.0,0.181
744.0,0.131
745.0,0.315
746.0,0.312
747.0,0.945
748.0,0.65
749.0,0.34
750.0,0.459
751.0,0.572
752.0,0.673
753.0,0.767
754.0,0.854
755.0,0.935
756.0,1.009
757.0,1.076
758.0,1.137
759.0,1.19
760.0,0.886
761.0,0.226
762.0,0.032
763.0,0.01
764.0,0.002
765.0,0.008
766.0,0.085
767.0,0.552
768.0,0.956
769.0,0.938
770.0,0.935
771.0,1.389
772.0,1.838
773.0,1.826
774.0,1.79
775.0,1.333
776.0,0.815
777.0,0.666
778.0,0.561
779.0,0.809
780.0,1.207
781.0,1.0
782.0,0.488
783.0,0.498
784.0,0.943
785.0,0.934
786.0,0.417
787.0,0.281
788.0,0.75
789.0,1.046
790.0,1.015
791.0,0.867
792.0,0.357
793.0,0.013
794.0,0.474
795.0,0.843
796.0,0.345
797.0,0.11
798.0,0.845
799.0,1.814
800.0,1.39
801.0,0.902
802.0,0.416
803.0,0.069
804.0,0.245
805.0,0.734
806.0,0.861
807.0,0.871
808.0,0.882
809.0,0.896
810.0,0.912
811.0,0.929
812.0,0.677
813.0,0.185
814.0,0.034
815.0,0.01
816.0,0.016
817.0,0.044
818.0,0.073
819.0,0.18
820.0,0.367
821.0,0.887
822.0,1.153
823.0,0.703
824.0,0.353
825.0,0.39
826.0,0.505
827.0,1.039
828.0,1.481
829.0,1.043
830.0,0.614
831.0,0.66
832.0,0.71
833.0,0.277
834.0,0.161
835.0,0.31
836.0,0.842
837.0,0.938
838.0,0.98
839.0,1.021
840.0,1.065
841.0,1.215
842.0,1.383
843.0,1.423
844.0,1.458
845.0,1.49
846.0,1.521
847.0,1.228
848.0,0.765
849.0,0.601
850.0,0.527
851.0,0.547
852.0,0.566
853.0,0.582
854.0,0.596
855.0,0.367
856.0,0.113
857.0,0.157
858.0,0.325
859.0,0.6
860.0,0.587
861.0,0.572
862.0,0.556
863.0,0.538
864.0,0.519
865.0,0.499
866.0,0.481
867.0,0.599
868.0,1.071
869.0,1.299
870.0,0.785
871.0,0.479
872.0,0.867
873.0,1.024
874.0,0.504
875.0,0.145
876.0,0.616
877.0,1.025
878.0,1.005
879.0,0.934
880.0,0.448
881.0,0.015
882.0,0.491
883.0,0.94
884.0,0.923
885.0,0.89
886.0,0.38
887.0,0.119
888.0,0.409
889.0,0.897
890.0,0.894
891.0,0.887
892.0,0.936
893.0,0.931
894.0,0.453
895.0,0.048
896.0,0.377
897.0,0.866
898.0,0.899
899.0,0.898
900.0,0.897
901.0,0.897
902.0,0.454
903.0,0.074
904.0,0.298
905.0,0.79
906.0,0.422
907.0,0.081
908.0,0.263
909.0,0.752
910.0,0.818
911.0,0.781
912.0,0.77
913.0,0.759
914.0,0.918
915.0,0.906
916.0,0.893
917.0,0.879
918.0,0.864
919.0,0.805
920.0,0.79
921.0,0.774
922.0,0.758
923.0,0.687
924.0,0.671
925.0,0.654
926.0,0.637
927.0,0.621
928.0,0.199
929.0,0.318
930.0,0.375
931.0,1.349
932.0,1.506
933.0,1.479
934.0,1.042
935.0,0.517
936.0,0.82
937.0,1.299
938.0,1.361
939.0,1.342
940.0,0.902
941.0,0.381
942.0,0.712
943.0,1.196
944.0,1.251
945.0,1.064
946.0,0.615
947.0,0.102
948.0,0.476
949.0,0.981
950.0,1.033
951.0,1.035
952.0,1.038
953.0,1.034
954.0,0.567
955.0,0.059
956.0,0.495
957.0,0.995
958.0,1.013
959.0,1.008
960.0,0.511
961.0,0.004
962.0,0.004
963.0,0.009
964.0,0.017
965.0,0.023
966.0,0.214
967.0,0.244
968.0,0.732
969.0,1.175
970.0,1.15
971.0,1.121
972.0,1.088
973.0,1.054
974.0,1.04
975.0,0.996
976.0,0.947
977.0,0.891
978.0,0.83
979.0,0.65
980.0,0.061
981.0,0.25
982.0,0.192
983.0,0.598
984.0,1.006
985.0,1.252
986.0,1.145
987.0,0.858
988.0,0.236
989.0,0.003
990.0,0.384
991.0,0.558
992.0,0.432
993.0,0.305
994.0,0.176
995.0,0.046
996.0,0.134
997.0,0.198
998.0,0.162
999.0,0.25
1000.0,0.12
1001.0,0.305
1002.0,0.691
1003.0,1.079
1004.0,1.467
1005.0,1.477
1006.0,1.364
1007.0,1.257
1008.0,1.155
1009.0,1.057
1010.0,0.964
1011.0,0.875
1012.0,0.765
1013.0,0.666
1014.0,0.607
1015.0,0.557
1016.0,0.516
1017.0,0.981
1018.0,1.454
1019.0,1.928
1020.0,2.378
1021.0,2.389
1022.0,2.423
1023.0,2.45
1024.0,2.46
1025.0,2.458
1026.0,2.316
1027.0,1.812
1028.0,1.405
1029.0,0.998
1030.0,0.74
1031.0,0.766
1032.0,0.971
1033.0,1.433
1034.0,1.36
1035.0,0.729
1036.0,0.355
1037.0,0.287
1038.0,0.699
1039.0,1.356
1040.0,2.003
1041.0,2.469
1042.0,2.071
1043.0,1.468
1044.0,1.646
1045.0,1.782
1046.0,1.814
1047.0,1.804
1048.0,1.762
1049.0,1.691
1050.0,1.589
1051.0,1.398
1052.0,0.673
1053.0,0.023
1054.0,0.31
1055.0,0.5
1056.0,0.31
1057.0,0.293
1058.0,0.688
1059.0,0.82
1060.0,0.32
1061.0,0.672
1062.0,2.274
1063.0,3.096
1064.0,3.211
1065.0,2.417
1066.0,1.035
1067.0,0.389
1068.0,0.011
1069.0,0.661
1070.0,1.657
1071.0,3.993
1072.0,6.781
1073.0,11.142
1074.0,15.625
1075.0,25.387
1076.0,36.563
1077.0,59.294
1078.0,88.691
1079.0,149.223
1080.0,239.429
1081.0,413.109
1082.0,635.549
1083.0,948.493
1084.0,1147.683
1085.0,1200.896
1086.0,1074.157
1087.0,786.557
1088.0,546.521
1089.0,335.715
1090.0,215.982
1091.0,133.383
1092.0,90.315
1093.0,56.657
1094.0,39.922
1095.0,25.145
1096.0,17.699
1097.0,10.678
1098.0,7.045
1099.0,3.845
1100.0,2.303
1101.0,0.884
1102.0,0.133
1103.0,0.734
1104.0,0.74
1105.0,0.798
1106.0,0.912
1107.0,0.474
1108.0,0.343
1109.0,0.759
1110.0,0.975
1111.0,1.154
1112.0,1.296
1113.0,1.399
1114.0,1.462
1115.0,2.013
1116.0,2.479
1117.0,2.415
1118.0,2.39
1119.0,2.519
1120.0,2.537
1121.0,2.428
1122.0,2.151
1123.0,1.95
1124.0,2.004
1125.0,2.109
1126.0,2.207
1127.0,2.282
1128.0,2.265
1129.0,2.186
1130.0,1.583
1131.0,0.972
1132.0,1.422
1133.0,1.761
1134.0,1.602
1135.0,1.337
1136.0,0.688
1137.0,0.433
1138.0,0.871
1139.0,0.804
1140.0,0.187
1141.0,0.111
1142.0,0.198
1143.0,0.098
1144.0,0.537
1145.0,0.977
1146.0,1.411
1147.0,1.31
1148.0,1.163
1149.0,0.543
1150.0,0.049
1151.0,0.029
1152.0,0.072
1153.0,0.515
1154.0,0.718
1155.0,0.647
1156.0,0.56
1157.0,0.504
1158.0,0.39
1159.0,0.313
1160.0,0.252
1161.0,0.197
1162.0,0.147
1163.0,0.182
1164.0,0.683
1165.0,1.034
1166.0,0.986
1167.0,0.936
1168.0,0.891
1169.0,0.848
1170.0,0.811
1171.0,0.408
1172.0,0.148
1173.0,0.176
1174.0,0.68
1175.0,0.665
1176.0,0.641
1177.0,0.629
1178.0,0.63
1179.0,0.648
1180.0,0.868
1181.0,1.373
1182.0,1.548
1183.0,1.454
1184.0,1.351
1185.0,1.272
1186.0,1.254
1187.0,1.323
1188.0,1.829
1189.0,2.271
1190.0,2.238
1191.0,2.193
1192.0,2.143
1193.0,1.948
1194.0,1.609
1195.0,1.589
1196.0,1.822
1197.0,1.967
1198.0,2.062
1199.0,1.644
1200.0,1.144
1201.0,0.612
1202.0,0.16
1203.0,0.091
1204.0,0.003
1205.0,0.11
1206.0,0.256
1207.0,0.436
1208.0,0.282
1209.0,0.005
1210.0,0.207
1211.0,0.496
1212.0,0.227
1213.0,0.064
1214.0,0.368
1215.0,0.858
1216.0,1.677
1217.0,2.982
1218.0,4.734
1219.0,7.63
1220.0,11.102
1221.0,14.598
1222.0,18.118
1223.0,22.735
1224.0,27.991
1225.0,35.654
1226.0,43.712
1227.0,52.475
1228.0,61.357
1229.0,70.313
1230.0,77.041
1231.0,82.814
1232.0,83.41
1233.0,83.007
1234.0,76.892
1235.0,70.111
1236.0,60.813
1237.0,52.227
1238.0,44.702
1239.0,37.918
1240.0,31.731
1241.0,26.394
1242.0,21.354
1243.0,17.366
1244.0,13.596
1245.0,10.818
1246.0,8.408
1247.0,6.814
1248.0,5.265
1249.0,3.738
1250.0,2.523
1251.0,1.515
1252.0,0.682
1253.0,0.082
1254.0,0.392
1255.0,0.622
1256.0,0.464
1257.0,0.335
1258.0,0.218
1259.0,0.079
1260.0,0.048
1261.0,0.122
1262.0,0.18
1263.0,0.241
1264.0,0.386
1265.0,0.96
1266.0,1.096
1267.0,0.521
1268.0,0.55
1269.0,1.0
1270.0,1.335
1271.0,1.563
1272.0,1.842
1273.0,1.995
1274.0,1.631
1275.0,1.677
1276.0,2.432
1277.0,2.479
1278.0,1.986
1279.0,1.931
1280.0,2.02
1281.0,2.111
1282.0,2.134
1283.0,1.946
1284.0,1.892
1285.0,2.176
1286.0,1.796
1287.0,0.952
1288.0,0.98
1289.0,1.213
1290.0,0.824
1291.0,0.521
1292.0,0.668
1293.0,0.552
1294.0,0.063
1295.0,0.106
1296.0,0.097
1297.0,0.115
1298.0,0.161
1299.0,0.228
1300.0,0.152
1301.0,0.342
1302.0,0.547
1303.0,0.395
1304.0,0.646
1305.0,1.092
1306.0,2.546
1307.0,4.068
1308.0,5.626
1309.0,7.795
1310.0,10.984
1311.0,14.458
1312.0,18.215
1313.0,22.467
1314.0,26.871
1315.0,31.301
1316.0,34.963
1317.0,36.129
1318.0,35.975
1319.0,34.356
1320.0,31.175
1321.0,27.335
1322.0,23.51
1323.0,19.881
1324.0,17.225
1325.0,14.588
1326.0,11.989
1327.0,10.13
1328.0,8.893
1329.0,7.914
1330.0,6.759
1331.0,5.433
1332.0,4.424
1333.0,4.209
1334.0,3.389
1335.0,2.071
1336.0,1.657
1337.0,1.492
1338.0,0.787
1339.0,0.243
1340.0,0.136
1341.0,0.044
1342.0,0.034
1343.0,0.52
1344.0,1.155
1345.0,0.692
1346.0,0.206
1347.0,0.293
1348.0,0.544
1349.0,0.506
1350.0,1.692
1351.0,3.398
1352.0,3.493
1353.0,3.752
1354.0,4.946
1355.0,5.907
1356.0,6.572
1357.0,8.034
1358.0,9.847
1359.0,11.517
1360.0,12.976
1361.0,14.663
1362.0,16.568
1363.0,18.552
1364.0,19.362
1365.0,19.673
1366.0,19.46
1367.0,18.917
1368.0,17.068
1369.0,15.241
1370.0,13.442
1371.0,12.087
1372.0,10.903
1373.0,8.617
1374.0,6.465
1375.0,4.838
1376.0,3.927
1377.0,3.547
1378.0,2.648
1379.0,1.551
1380.0,2.112
1381.0,2.226
1382.0,1.111
1383.0,0.963
1384.0,1.682
1385.0,2.548
1386.0,3.61
1387.0,5.18
1388.0,6.303
1389.0,6.853
1390.0,6.538
1391.0,5.252
1392.0,5.56
1393.0,5.945
1394.0,6.196
1395.0,5.826
1396.0,4.654
1397.0,3.746
1398.0,2.844
1399.0,1.752
1400.0,0.646
1401.0,0.188
1402.0,0.603
1403.0,0.619
1404.0,0.594
1405.0,0.601
1406.0,0.115
1407.0,0.869
1408.0,2.324
1409.0,5.603
1410.0,9.938
1411.0,15.282
1412.0,19.917
1413.0,21.639
1414.0,20.747
1415.0,16.956
1416.0,11.611
1417.0,5.711
1418.0,1.44
1419.0,1.469
1420.0,1.906
1421.0,1.146
1422.0,0.76
1423.0,3.613
1424.0,7.043
1425.0,12.001
1426.0,17.092
1427.0,22.325
1428.0,27.715
1429.0,33.017
1430.0,35.23
1431.0,37.201
1432.0,38.628
1433.0,36.403
1434.0,32.397
1435.0,27.844
1436.0,23.878
1437.0,21.6
1438.0,19.35
1439.0,17.064
1440.0,16.499
1441.0,16.763
1442.0,19.248
1443.0,21.948
1444.0,24.852
1445.0,30.163
1446.0,36.367
1447.0,42.196
1448.0,48.194
1449.0,54.361
1450.0,57.184
1451.0,58.365
1452.0,58.177
1453.0,57.356
1454.0,53.307
1455.0,48.272
1456.0,42.308
1457.0,36.399
1458.0,30.437
1459.0,23.372
1460.0,17.149
1461.0,11.757
1462.0,8.729
1463.0,5.99
1464.0,2.417
1465.0,0.544
1466.0,0.453
1467.0,0.63
1468.0,1.905
1469.0,1.72
1470.0,1.224
1471.0,0.217
1472.0,0.174
1473.0,0.278
1474.0,1.387
1475.0,2.371
1476.0,3.258
1477.0,4.394
1478.0,5.504
1479.0,4.629
1480.0,4.353
1481.0,5.524
1482.0,6.109
1483.0,6.101
1484.0,5.904
1485.0,5.459
1486.0,5.654
1487.0,6.021
1488.0,6.687
1489.0,6.816
1490.0,6.262
1491.0,4.002
1492.0,3.078
1493.0,2.961
1494.0,3.592
1495.0,3.755
1496.0,2.054
1497.0,1.447
1498.0,2.04
1499.0,0.528
1500.0,0.0
