Raman shift,Intensity
437.67615,1232.32346
437.67615,1234.6662
439.88838,1234.6662
442.10062,1233.88529
442.10062,1235.44711
444.31285,1233.88529
444.31285,1235.44711
446.52509,1233.88529
446.52509,1235.44711
448.73732,1233.88529
448.73732,1235.44711
450.94956,1233.88529
450.94956,1235.44711
453.1618,1235.44711
453.1618,1233.88529
455.37403,1235.44711
457.58627,1234.6662
459.7985,1234.6662
459.7985,1236.22803
462.01074,1234.6662
462.01074,1237.00894
464.22297,1234.6662
464.22297,1237.00894
466.43521,1237.78985
468.64745,1237.78985
468.64745,1235.44711
470.85968,1238.57077
473.07192,1237.78985
475.28415,1237.00894
475.28415,1238.57077
477.49639,1237.00894
477.49639,1239.35168
479.70862,1238.57077
481.92086,1239.35168
481.92086,1237.78985
484.1331,1240.13259
484.1331,1237.78985
486.34533,1238.57077
488.55757,1237.78985
488.55757,1239.35168
490.7698,1237.78985
490.7698,1239.35168
492.98204,1238.57077
495.19427,1239.35168
497.40651,1240.13259
499.61874,1238.57077
501.83098,1242.47533
501.83098,1238.57077
504.04322,1240.13259
504.04322,1243.25624
506.25545,1242.47533
506.25545,1244.81807
508.46769,1241.69442
508.46769,1245.59898
510.67992,1244.81807
510.67992,1243.25624
510.67992,1247.94172
512.89216,1250.28446
512.89216,1247.16081
512.89216,1244.81807
515.10439,1251.84628
515.10439,1247.94172
517.31663,1253.40811
519.52887,1255.75085
519.52887,1251.06537
521.7411,1258.09359
521.7411,1252.6272
523.95334,1260.43632
523.95334,1255.75085
526.16557,1257.31267
526.16557,1261.21724
528.37781,1263.55998
528.37781,1258.8745
530.59004,1265.90271
530.59004,1264.34089
530.59004,1261.99815
532.80228,1265.90271
535.01451,1266.68363
535.01451,1265.1218
537.22675,1266.68363
537.22675,1265.1218
539.43899,1266.68363
541.65122,1265.90271
543.86346,1262.77906
543.86346,1266.68363
546.07569,1260.43632
546.07569,1265.1218
548.28793,1258.8745
548.28793,1264.34089
550.50016,1255.75085
550.50016,1261.21724
552.7124,1254.96993
552.7124,1258.8745
554.92464,1251.06537
554.92464,1258.09359
557.13687,1251.84628
559.34911,1245.59898
559.34911,1251.06537
561.56134,1244.03716
561.56134,1251.06537
563.77358,1241.69442
563.77358,1247.16081
565.98581,1240.13259
565.98581,1244.03716
568.19805,1241.69442
568.19805,1237.78985
570.41029,1237.78985
570.41029,1241.69442
572.62252,1237.00894
572.62252,1240.13259
574.83476,1238.57077
574.83476,1236.22803
577.04699,1236.22803
577.04699,1237.78985
579.25923,1235.44711
579.25923,1237.78985
581.47146,1235.44711
581.47146,1237.78985
583.6837,1237.00894
585.89593,1235.44711
585.89593,1237.78985
588.10817,1236.22803
588.10817,1237.78985
590.32041,1236.22803
590.32041,1238.57077
592.53264,1237.78985
592.53264,1239.35168
594.74488,1237.78985
596.95711,1240.9135
596.95711,1237.78985
599.16935,1241.69442
599.16935,1238.57077
601.38158,1240.13259
601.38158,1242.47533
603.59382,1240.9135
603.59382,1244.03716
605.80606,1244.03716
640.02972,1244.08792
661.90385,1244.08792
704.36542,1244.08792
765.08702,1235.44711
767.29926,1235.44711
769.51149,1234.6662
771.72373,1234.6662
773.93596,1234.6662
776.1482,1234.6662
778.36044,1234.6662
780.57267,1234.6662
782.78491,1233.88529
784.99714,1234.6662
787.20938,1235.44711
789.42161,1235.44711
791.63385,1234.6662
793.84609,1234.6662
796.05832,1234.6662
798.27056,1234.6662
800.48279,1234.6662
802.69503,1233.10438
802.69503,1233.88529
804.90726,1233.10438
807.1195,1229.98073
807.1195,1232.32346
807.1195,1231.54255
807.1195,1230.76164
809.33173,1229.98073
811.54397,1229.19981
813.75621,1229.19981
815.96844,1228.4189
818.18068,1228.4189
820.39291,1228.4189
822.60515,1228.4189
824.81738,1229.19981
827.02962,1229.19981
829.24186,1229.19981
831.45409,1229.19981
833.66633,1229.19981
835.87856,1228.4189
838.0908,1228.4189
840.30303,1229.19981
842.51527,1229.98073
844.72751,1229.98073
846.93974,1229.98073
849.15198,1229.98073
851.36421,1229.98073
853.57645,1229.98073
855.78868,1229.98073
858.00092,1229.98073
860.21315,1229.98073
862.42539,1229.98073
864.63763,1229.98073
866.84986,1229.98073
869.0621,1230.76164
871.27433,1230.76164
873.48657,1229.98073
875.6988,1229.98073
877.91104,1229.98073
880.12328,1229.98073
882.33551,1229.98073
884.54775,1229.19981
884.54775,1228.4189
884.54775,1229.98073
886.75998,1227.63799
888.97222,1227.63799
891.18445,1227.63799
891.18445,1226.85707
893.39669,1228.4189
893.39669,1227.63799
893.39669,1226.07616
895.60892,1226.07616
895.60892,1227.63799
897.82116,1225.29525
897.82116,1226.85707
900.0334,1226.85707
900.0334,1225.29525
902.24563,1225.29525
902.24563,1227.63799
904.45787,1225.29525
904.45787,1227.63799
906.6701,1227.63799
906.6701,1226.07616
908.88234,1228.4189
908.88234,1226.07616
911.09457,1226.07616
911.09457,1228.4189
913.30681,1226.07616
913.30681,1228.4189
915.51905,1229.19981
915.51905,1226.85707
917.73128,1229.19981
917.73128,1227.63799
919.94352,1227.63799
922.15575,1227.63799
924.36799,1228.4189
926.58022,1228.4189
928.79246,1228.4189
931.0047,1227.63799
933.21693,1227.63799
935.42917,1227.63799
937.6414,1228.4189
939.85364,1227.63799
942.06587,1226.85707
944.27811,1226.85707
946.49034,1227.63799
948.70258,1227.63799
950.91482,1227.63799
953.12705,1228.4189
953.12705,1227.63799
955.33929,1229.19981
955.33929,1228.4189
957.55152,1229.98073
957.55152,1229.19981
959.76376,1229.98073
961.97599,1229.98073
961.97599,1230.76164
964.18823,1231.54255
964.18823,1232.32346
964.18823,1230.76164
966.40047,1232.32346
966.40047,1233.10438
968.6127,1233.88529
968.6127,1234.6662
970.82494,1235.44711
973.03717,1244.03716
973.03717,1238.57077
973.03717,1237.78985
973.03717,1237.00894
973.03717,1236.22803
975.24941,1239.35168
975.24941,1245.59898
975.24941,1246.37989
975.24941,1244.81807
975.24941,1243.25624
975.24941,1241.69442
975.24941,1240.9135
975.24941,1240.13259
977.46164,1248.72263
977.46164,1242.47533
977.46164,1247.16081
977.46164,1247.94172
977.46164,1251.06537
977.46164,1250.28446
977.46164,1249.50355
979.67388,1251.84628
979.67388,1252.6272
979.67388,1244.03716
979.67388,1244.81807
981.88611,1246.37989
981.88611,1256.53176
981.88611,1257.31267
981.88611,1258.09359
981.88611,1258.8745
981.88611,1254.96993
981.88611,1254.18902
981.88611,1245.59898
981.88611,1253.40811
981.88611,1247.16081
981.88611,1247.94172
981.88611,1255.75085
984.09835,1251.06537
984.09835,1250.28446
984.09835,1249.50355
984.09835,1248.72263
984.09835,1252.6272
984.09835,1253.40811
984.09835,1251.84628
984.09835,1259.65541
984.09835,1261.21724
984.09835,1263.55998
984.09835,1262.77906
984.09835,1261.99815
984.09835,1258.8745
986.31059,1255.75085
986.31059,1254.96993
986.31059,1256.53176
986.31059,1260.43632
986.31059,1257.31267
986.31059,1258.09359
986.31059,1258.8745
986.31059,1259.65541
986.31059,1254.18902
988.52282,1261.21724
988.52282,1260.43632
990.73506,1277.61641
990.73506,1266.68363
990.73506,1265.90271
990.73506,1265.1218
990.73506,1264.34089
990.73506,1261.99815
990.73506,1262.77906
990.73506,1276.83549
990.73506,1263.55998
990.73506,1267.46454
990.73506,1276.05458
990.73506,1275.27367
990.73506,1274.49275
990.73506,1273.71184
990.73506,1261.21724
992.94729,1282.30188
992.94729,1283.0828
992.94729,1283.86371
992.94729,1284.64462
992.94729,1268.24545
992.94729,1277.61641
992.94729,1279.17823
992.94729,1269.02636
992.94729,1281.52097
992.94729,1272.93093
992.94729,1272.15002
992.94729,1271.3691
992.94729,1282.30188
992.94729,1285.42553
992.94729,1279.95914
992.94729,1269.80728
992.94729,1270.58819
992.94729,1286.20645
992.94729,1280.74006
995.15953,1276.83549
995.15953,1291.67284
995.15953,1278.39732
995.15953,1286.20645
997.37176,1282.30188
997.37176,1289.3301
997.37176,1293.23466
997.37176,1286.98736
999.584,1299.48196
999.584,1284.64462
1001.79624,1307.29109
1001.79624,1300.26288
1001.79624,1293.23466
1004.00847,1313.53839
1004.00847,1301.8247
1006.22071,1315.88113
1006.22071,1308.072
1008.43294,1322.90935
1008.43294,1318.22387
1008.43294,1308.85292
1010.64518,1326.033
1010.64518,1316.66204
1012.85741,1327.59482
1015.06965,1332.2803
1015.06965,1326.81391
1015.06965,1333.84213
1017.28189,1330.71848
1017.28189,1335.40395
1017.28189,1328.37574
1019.49412,1330.71848
1019.49412,1332.2803
1019.49412,1336.96578
1021.70636,1337.74669
1023.91859,1336.18486
1023.91859,1331.49939
1026.13083,1335.40395
1026.13083,1329.93756
1028.34306,1331.49939
1028.34306,1325.25209
1030.5553,1329.93756
1030.5553,1326.033
1030.5553,1318.22387
1032.76753,1327.59482
1032.76753,1321.34752
1034.97977,1311.97657
1034.97977,1325.25209
1037.19201,1304.94835
1037.19201,1318.22387
1039.40424,1303.38653
1041.61648,1304.16744
1041.61648,1295.5774
1043.82871,1301.04379
1043.82871,1287.76827
1046.04095,1294.01557
1046.04095,1289.3301
1046.04095,1282.30188
1048.25318,1288.54918
1048.25318,1284.64462
1048.25318,1275.27367
1050.46542,1283.86371
1050.46542,1279.17823
1052.67766,1279.17823
1054.88989,1275.27367
1072.58778,1269.80728
1074.80001,1269.80728
1074.80001,1270.58819
1077.01225,1271.3691
1079.22448,1272.15002
1081.43672,1272.15002
1083.64895,1271.3691
1085.86119,1270.58819
1088.07343,1270.58819
1090.28566,1270.58819
1090.28566,1269.80728
1092.4979,1269.02636
1094.71013,1269.02636
1094.71013,1268.24545
1096.92237,1267.46454
1099.1346,1267.46454
1101.34684,1267.46454
1103.55908,1265.90271
1103.55908,1267.46454
1103.55908,1266.68363
1105.77131,1257.31267
1105.77131,1265.1218
1105.77131,1264.34089
1105.77131,1263.55998
1105.77131,1262.77906
1105.77131,1258.8745
1105.77131,1259.65541
1105.77131,1258.09359
1107.98355,1261.21724
1107.98355,1256.53176
1107.98355,1261.99815
1107.98355,1260.43632
1110.19578,1256.53176
1112.40802,1249.50355
1112.40802,1256.53176
1112.40802,1255.75085
1112.40802,1251.84628
1112.40802,1250.28446
1112.40802,1251.06537
1114.62025,1252.6272
1114.62025,1253.40811
1114.62025,1254.96993
1114.62025,1254.18902
1114.62025,1249.50355
1116.83249,1248.72263
1119.04472,1247.94172
1121.25696,1247.16081
1123.4692,1244.81807
1123.4692,1246.37989
1123.4692,1245.59898
1125.68143,1244.03716
1125.68143,1241.69442
1125.68143,1242.47533
1127.89367,1243.25624
1127.89367,1240.9135
1130.1059,1240.9135
1132.31814,1240.9135
1134.53037,1240.13259
1134.53037,1239.35168
1134.53037,1238.57077
1134.53037,1237.78985
1134.53037,1237.00894
1134.53037,1236.22803
1134.53037,1235.44711
1136.74261,1235.44711
1138.95485,1235.44711
1138.95485,1234.6662
1141.16708,1234.6662
1143.37932,1233.88529
1143.37932,1233.10438
1145.59155,1233.10438
1145.59155,1232.32346
1147.80379,1232.32346
1147.80379,1231.54255
1150.01602,1231.54255
1152.22826,1231.54255
1154.4405,1230.76164
1156.65273,1229.98073
1158.86497,1229.98073
1161.0772,1229.98073
1163.28944,1230.76164
1165.50167,1231.54255
1165.50167,1232.32346
1167.71391,1232.32346
1169.92614,1233.10438
1169.92614,1233.88529
1172.13838,1234.6662
1172.13838,1235.44711
1174.35062,1235.44711
1176.56285,1235.44711
1176.56285,1236.22803
1178.77509,1237.00894
1178.77509,1237.78985
1178.77509,1238.57077
1180.98732,1238.57077
1183.19956,1239.35168
1185.41179,1240.13259
1185.41179,1240.9135
1187.62403,1240.9135
1189.83627,1241.69442
1189.83627,1242.47533
1192.0485,1242.47533
1192.0485,1243.25624
1194.26074,1244.03716
1194.26074,1244.81807
1196.47297,1244.03716
1198.68521,1244.03716
1200.89744,1244.03716
1203.10968,1244.03716
1205.32192,1244.81807
1205.32192,1244.03716
1205.32192,1244.81807
1207.53415,1244.81807
1207.53415,1242.47533
1207.53415,1244.03716
1209.74639,1243.25624
1209.74639,1241.69442
1209.74639,1243.25624
1209.74639,1244.81807
1211.95862,1243.25624
1211.95862,1240.9135
1211.95862,1244.03716
1214.17086,1240.9135
1214.17086,1242.47533
1214.17086,1241.69442
1214.17086,1238.57077
1214.17086,1242.47533
1216.38309,1240.9135
1216.38309,1238.57077
1216.38309,1237.00894
1216.38309,1240.9135
1218.59533,1238.57077
1218.59533,1237.00894
1220.80756,1238.57077
1220.80756,1235.44711
1223.0198,1238.57077
1223.0198,1237.00894
1223.0198,1233.88529
1225.23204,1236.22803
1225.23204,1233.10438
1227.44427,1235.44711
1227.44427,1232.32346
1229.65651,1234.6662
1229.65651,1230.76164
1231.86874,1233.10438
1231.86874,1230.76164
1234.08098,1232.32346
1234.08098,1229.98073
1236.29321,1232.32346
1236.29321,1229.19981
1238.50545,1228.4189
1238.50545,1230.76164
1240.71769,1228.4189
1240.71769,1229.98073
1242.92992,1229.19981
1242.92992,1227.63799
1245.14216,1228.4189
1247.35439,1228.4189
1249.56663,1227.63799
1249.56663,1229.19981
1251.77886,1226.85707
1256.20333,1227.63799
1258.41557,1228.4189
1260.62781,1228.4189
1262.84004,1227.63799
1265.05228,1226.07616
1265.05228,1228.4189
1267.26451,1226.07616
1267.26451,1228.4189
1269.47675,1226.07616
1269.47675,1228.4189
1271.68898,1227.63799
1273.90122,1227.63799
1276.11346,1227.63799
1278.32569,1226.07616
1278.32569,1228.4189
1280.53793,1226.07616
1280.53793,1228.4189
1282.75016,1228.4189
1284.9624,1228.4189
1287.17463,1228.4189
1289.38687,1229.19981
1289.38687,1227.63799
1291.59911,1227.63799
1291.59911,1229.19981
1293.81134,1229.19981
1293.81134,1227.63799
1296.02358,1228.4189
1298.23581,1229.19981
1300.44805,1228.4189
1302.66028,1228.4189
1304.87252,1228.4189
1307.08475,1226.07616
1307.08475,1228.4189
1309.29699,1226.07616
1309.29699,1228.4189
1311.50923,1228.4189
1311.50923,1226.07616
1313.72146,1228.4189
1315.9337,1228.4189
1318.14593,1228.4189
1320.35817,1228.4189
1322.5704,1227.63799
1322.5704,1229.19981
1324.78264,1227.63799
1324.78264,1229.19981
1326.99488,1227.63799
1326.99488,1229.19981
1329.20711,1227.63799
1329.20711,1229.19981
1331.41935,1226.85707
1331.41935,1229.19981
1333.63158,1226.85707
1333.63158,1228.4189
1335.84382,1226.07616
1335.84382,1228.4189
1338.05605,1228.4189
1338.05605,1226.07616
1340.26829,1227.63799
1342.48052,1226.85707
1344.69276,1226.85707
1346.905,1227.63799
1349.11723,1226.07616
1349.11723,1227.63799
1351.32947,1226.07616
1351.32947,1228.4189
1353.5417,1228.4189
1355.75394,1228.4189
1357.96617,1227.63799
1357.96617,1229.19981
1360.17841,1227.63799
1360.17841,1229.19981
1362.39065,1227.63799
1362.39065,1229.19981
1364.60288,1228.4189
1366.81512,1226.07616
1366.81512,1228.4189
1369.02735,1226.85707
1369.02735,1228.4189
1371.23959,1225.29525
1371.23959,1226.85707
1373.45182,1225.29525
1373.45182,1227.63799
1375.66406,1224.51434
1375.66406,1226.85707
1377.8763,1226.07616
1377.8763,1224.51434
1380.08853,1225.29525
1382.30077,1225.29525
1384.513,1226.07616
1384.513,1224.51434
1386.72524,1226.07616
1386.72524,1224.51434
1388.93747,1225.29525
1391.14971,1225.29525
1393.36194,1227.63799
1393.36194,1225.29525
1395.57418,1228.4189
1395.57418,1226.07616
1397.78642,1226.85707
1397.78642,1228.4189
1399.99865,1226.85707
1402.21089,1229.19981
1402.21089,1227.63799
1404.42312,1229.19981
1404.42312,1227.63799
1406.63536,1229.19981
1406.63536,1227.63799
1408.84759,1229.19981
1408.84759,1227.63799
1411.05983,1228.4189
1413.27207,1228.4189
1415.4843,1227.63799
1417.69654,1227.63799
1419.90877,1228.4189
1422.12101,1227.63799
1424.33324,1228.4189
1424.33324,1226.85707
1426.54548,1228.4189
1426.54548,1226.85707
1428.75772,1227.63799
1430.96995,1227.63799
1433.18219,1227.63799
1435.39442,1228.4189
1437.60666,1228.4189
1439.81889,1229.19981
1442.03113,1228.4189
1442.03113,1229.98073
1444.24336,1228.4189
1444.24336,1229.98073
1446.4556,1229.19981
1446.4556,1231.54255
1448.66784,1231.54255
1448.66784,1229.98073
1450.88007,1229.19981
1450.88007,1231.54255
1453.09231,1232.32346
1455.30454,1230.76164
1455.30454,1232.32346
1457.51678,1230.76164
1457.51678,1232.32346
1459.72901,1231.54255
1461.94125,1231.54255
1461.94125,1233.10438
1464.15349,1231.54255
1464.15349,1233.10438
1466.36572,1233.10438
1466.36572,1231.54255
1468.57796,1231.54255
1468.57796,1233.10438
1470.79019,1233.10438
1470.79019,1231.54255
1473.00243,1231.54255
1473.00243,1233.10438
1475.21466,1233.88529
1475.21466,1231.54255
1477.4269,1233.10438
1477.4269,1231.54255
1479.63913,1233.10438
1479.63913,1231.54255
1481.85137,1233.10438
1481.85137,1231.54255
1484.06361,1233.88529
1484.06361,1231.54255
1486.27584,1233.88529
1486.27584,1231.54255
1488.48808,1234.6662
1488.48808,1232.32346
1490.70031,1234.6662
1490.70031,1232.32346
1492.91255,1234.6662
1495.12478,1235.44711
1495.12478,1233.88529
1497.33702,1235.44711
1497.33702,1233.88529
1499.54926,1235.44711
1499.54926,1233.88529
1501.76149,1235.44711
1503.97373,1235.44711
1506.18596,1234.6662
1508.3982,1234.6662
1510.61043,1234.6662
1510.61043,1236.22803
1512.82267,1235.44711
1512.82267,1233.88529
1515.03491,1234.6662
1517.24714,1235.44711
1517.24714,1232.32346
1519.45938,1232.32346
1521.67161,1233.88529
1521.67161,1231.54255
1523.88385,1233.10438
1523.88385,1231.54255
1526.09608,1231.54255
1528.30832,1232.32346
1528.30832,1234.6662
1530.52055,1234.6662
1530.52055,1232.32346
1532.73279,1234.6662
1534.94503,1236.22803
1537.15726,1234.6662
1537.15726,1236.22803
1539.3695,1234.6662
1541.58173,1235.44711
1541.58173,1237.78985
1543.79397,1236.22803
1543.79397,1237.78985
1546.0062,1236.22803
1546.0062,1237.78985
1548.21844,1236.22803
1548.21844,1237.78985
1550.43068,1238.57077
1552.64291,1238.57077
1554.85515,1237.78985
1554.85515,1236.22803
1557.06738,1237.78985
1557.06738,1235.44711
1559.27962,1237.78985
1559.27962,1235.44711
1561.49185,1237.00894
1561.49185,1234.6662
1563.70409,1236.22803
1563.70409,1234.6662
1565.91633,1236.22803
1565.91633,1234.6662
1568.12856,1236.22803
1568.12856,1233.88529
1570.3408,1235.44711
1570.3408,1233.88529
1572.55303,1235.44711
1572.55303,1233.88529
1574.76527,1235.44711
1576.9775,1234.6662
1576.9775,1232.32346
1579.18974,1234.6662
1579.18974,1232.32346
1581.40197,1232.32346
1583.61421,1233.88529
1583.61421,1231.54255
1585.82645,1233.10438
1585.82645,1231.54255
1588.03868,1232.32346
1588.03868,1230.76164
1590.25092,1231.54255
1592.46315,1232.32346
1594.67539,1232.32346
1596.88762,1233.10438
1596.88762,1231.54255
1599.09986,1233.10438
1599.09986,1231.54255
1601.3121,1233.88529
1601.3121,1231.54255
1603.52433,1233.10438
1603.52433,1231.54255
1605.73657,1233.10438
1605.73657,1231.54255
1607.9488,1233.10438
1607.9488,1231.54255
1610.16104,1231.54255
1612.37327,1231.54255
1614.58551,1233.10438
1614.58551,1231.54255
1616.79774,1233.10438
1619.00998,1233.10438
1619.00998,1231.54255
1621.22222,1232.32346
1623.43445,1232.32346
1623.43445,1230.76164
1625.64669,1230.76164
1627.85892,1232.32346
1627.85892,1230.76164
1630.07116,1232.32346
1630.07116,1230.76164
1632.28339,1232.32346
1632.28339,1230.76164
1634.49563,1231.54255
1636.70787,1231.54255
1638.9201,1232.32346
1641.13234,1232.32346
1643.34457,1232.32346
1645.55681,1232.32346
1647.76904,1232.32346
1649.98128,1232.32346
1652.19352,1232.32346
1654.40575,1231.54255
1656.61799,1231.54255
1656.61799,1233.10438
1658.83022,1231.54255
1658.83022,1233.10438
1661.04246,1233.10438
1661.04246,1231.54255
1663.25469,1231.54255
1663.25469,1233.10438
1665.46693,1233.10438
1665.46693,1231.54255
1667.67916,1231.54255
1667.67916,1233.10438
1669.8914,1233.10438
1669.8914,1231.54255
1672.10364,1233.10438
1672.10364,1231.54255
1674.31587,1231.54255
1674.31587,1233.10438
1676.52811,1232.32346
1678.74034,1232.32346
1678.74034,1230.76164
1680.95258,1230.76164
1680.95258,1232.32346
1683.16481,1230.76164
1683.16481,1232.32346
1685.37705,1231.54255
1687.58929,1229.98073
1687.58929,1231.54255
1689.80152,1229.19981
1689.80152,1231.54255
1692.01376,1229.19981
1694.22599,1228.4189
1694.22599,1229.98073
1696.43823,1229.98073
1696.43823,1228.4189
1698.65046,1230.76164
1698.65046,1228.4189
1700.8627,1230.76164
1703.07493,1229.19981
1705.28717,1230.76164
1705.28717,1230.76164
1707.49941,1230.76164
1707.49941,1230.76164
1709.71164,1230.76164
1709.71164,1229.19981
1709.71164,1231.54255
1711.92388,1229.19981
1711.92388,1231.54255
1711.92388,1230.76164
1714.13611,1231.54255
1714.13611,1231.54255
1714.13611,1229.19981
1716.34835,1230.76164
1716.34835,1231.54255
1718.56058,1231.54255
1718.56058,1229.19981
1718.56058,1230.76164
1720.77282,1230.76164
1720.77282,1231.54255
1722.98506,1231.54255
1722.98506,1230.76164
1725.19729,1230.76164
1725.19729,1232.32346
1725.19729,1229.98073
1727.40953,1232.32346
1727.40953,1230.76164
1727.40953,1230.76164
1729.62176,1230.76164
1729.62176,1232.32346
1729.62176,1230.76164
1731.834,1230.76164
1731.834,1231.54255
1734.04623,1231.54255
1734.04623,1231.54255
1736.25847,1232.32346
1736.25847,1232.32346
1738.47071,1232.32346
1738.47071,1232.32346
1740.68294,1231.54255
1740.68294,1233.10438
1742.89518,1233.10438
1742.89518,1230.76164
1742.89518,1233.10438
1745.10741,1232.32346
1745.10741,1230.76164
1745.10741,1232.32346
1747.31965,1232.32346
1747.31965,1230.76164
1747.31965,1232.32346
1749.53188,1231.54255
1751.74412,1231.54255
1753.95635,1231.54255
1756.16859,1231.54255
1758.38083,1230.76164
1760.59306,1229.98073
1762.8053,1229.19981
1765.01753,1229.19981
1767.22977,1229.19981
1769.442,1229.98073
1771.65424,1229.98073
1773.86648,1229.98073
1776.07871,1229.98073
1778.29095,1229.98073
1780.50318,1229.98073
1782.71542,1229.98073
1784.92765,1230.76164
1787.13989,1230.76164
1789.35213,1230.76164
1791.56436,1230.76164
1793.7766,1230.76164
1795.98883,1229.98073
1798.20107,1230.76164
1800.4133,1230.76164
1802.62554,1230.76164
1804.83777,1230.76164
1807.05001,1230.76164
1809.26225,1229.98073
1811.47448,1229.19981
1813.68672,1228.4189
1815.89895,1228.4189
1818.11119,1228.4189
1820.32342,1228.4189
1822.53566,1229.19981
1824.7479,1229.98073
1826.96013,1229.19981
1829.17237,1229.19981
1831.3846,1229.19981
1831.3846,1229.98073
1833.59684,1230.76164
1835.80907,1230.76164
1838.02131,1230.76164
1840.23354,1230.76164
1842.44578,1229.98073
1844.65802,1230.76164
1846.87025,1229.98073
1849.08249,1230.76164
1851.29472,1230.76164
1853.50696,1230.76164
1855.71919,1230.76164
1857.93143,1229.98073
1857.93143,1230.76164
1860.14367,1229.98073
1860.14367,1229.98073
1862.3559,1229.98073
1862.3559,1229.98073
1864.56814,1229.98073
1864.56814,1229.98073
1866.78037,1229.19981
1866.78037,1229.98073
1868.99261,1229.19981
1868.99261,1229.19981
1871.20484,1229.98073
1871.20484,1228.4189
1871.20484,1228.4189
1873.41708,1228.4189
1873.41708,1229.98073
1873.41708,1228.4189
1875.62932,1228.4189
1875.62932,1228.4189
1877.84155,1228.4189
1877.84155,1228.4189
1880.05379,1228.4189
1882.26602,1227.63799
1882.26602,1228.4189
1884.47826,1229.19981
1884.47826,1229.98073
1886.69049,1229.19981
1886.69049,1228.4189
1888.90273,1227.63799
1888.90273,1228.4189
1891.11496,1227.63799
1891.11496,1227.63799
1891.11496,1229.19981
1893.3272,1229.19981
1893.3272,1227.63799
1893.3272,1227.63799
1895.53944,1228.4189
1895.53944,1227.63799
1897.75167,1228.4189
1897.75167,1228.4189
1899.96391,1227.63799
1899.96391,1227.63799
1902.17614,1228.4189
1902.17614,1227.63799
1904.38838,1227.63799
1904.38838,1227.63799
1904.38838,1229.19981
1906.60061,1227.63799
1906.60061,1227.63799
1906.60061,1229.19981
1908.81285,1229.19981
1908.81285,1227.63799
1908.81285,1227.63799
1911.02509,1227.63799
1911.02509,1229.19981
1911.02509,1227.63799
1913.23732,1227.63799
1913.23732,1227.63799
1913.23732,1229.19981
1915.44956,1228.4189
1915.44956,1228.4189
1915.44956,1229.98073
1917.66179,1230.76164
1917.66179,1228.4189
1917.66179,1228.4189
1919.87403,1228.4189
1919.87403,1228.4189
1919.87403,1230.76164
1922.08626,1229.98073
1924.2985,1228.4189
1924.2985,1229.98073
1926.51073,1229.98073
1926.51073,1228.4189
1928.72297,1229.98073
1928.72297,1228.4189
1930.93521,1228.4189
1930.93521,1229.98073
1933.14744,1228.4189
1935.35968,1228.4189
1937.57191,1229.19981
1939.78415,1228.4189
1941.99638,1227.63799
1944.20862,1227.63799
1946.42086,1227.63799
1948.63309,1227.63799
1950.84533,1228.4189
1950.84533,1226.07616
1953.05756,1226.07616
1953.05756,1228.4189
1955.2698,1226.85707
1957.48203,1227.63799
1959.69427,1228.4189
1961.90651,1229.19981
1961.90651,1227.63799
1964.11874,1227.63799
1964.11874,1229.19981
1966.33098,1227.63799
1966.33098,1229.19981
1968.54321,1227.63799
1968.54321,1229.19981
1970.75545,1227.63799
1970.75545,1229.19981
1972.96768,1229.19981
1972.96768,1227.63799
1975.17992,1228.4189
1977.39215,1229.19981
1979.60439,1229.98073
1979.60439,1228.4189
1981.81663,1228.4189
1984.02886,1229.19981
1986.2411,1229.19981
1986.2411,1227.63799
1988.45333,1227.63799
1988.45333,1229.19981
1990.66557,1228.4189
1992.8778,1228.4189
1995.09004,1228.4189
1997.30228,1227.63799
1999.51451,1227.63799
2001.72675,1227.63799
2003.93898,1226.85707
2006.15122,1226.85707
2006.15122,1228.4189
2008.36345,1227.63799
2008.36345,1229.19981
2010.57569,1227.63799
2010.57569,1229.19981
2012.78793,1227.63799
2012.78793,1229.19981
2015.00016,1227.63799
2015.00016,1229.19981
2017.2124,1229.19981
2017.2124,1227.63799
2019.42463,1229.19981
2019.42463,1227.63799
2021.63687,1229.19981
2021.63687,1227.63799
2023.8491,1229.19981
2023.8491,1227.63799
2026.06134,1229.19981
2026.06134,1227.63799
2028.27357,1229.19981
2028.27357,1227.63799
2030.48581,1229.19981
2030.48581,1227.63799
2032.69805,1229.19981
2032.69805,1227.63799
2034.91028,1228.4189
2037.12252,1228.4189
2039.33475,1229.19981
2039.33475,1227.63799
2041.54699,1229.19981
2041.54699,1227.63799
2043.75922,1229.19981
2043.75922,1227.63799
2045.97146,1228.4189
2048.1837,1228.4189
2050.39593,1226.85707
2050.39593,1229.19981
2052.60817,1226.85707
2052.60817,1228.4189
2054.8204,1226.85707
2054.8204,1228.4189
2057.03264,1226.85707
2059.24487,1229.19981
2061.45711,1226.85707
2061.45711,1229.19981
2063.66934,1227.63799
2063.66934,1229.19981
2065.88158,1227.63799
2068.09382,1226.85707
2070.30605,1226.85707
2070.30605,1228.4189
2072.51829,1226.85707
2072.51829,1228.4189
2074.73052,1226.07616
2076.94276,1226.85707
2076.94276,1225.29525
2079.15499,1226.85707
2079.15499,1225.29525
2081.36723,1226.07616
2083.57947,1226.07616
2085.7917,1226.07616
2088.00394,1226.85707
2088.00394,1225.29525
2090.21617,1226.85707
2090.21617,1225.29525
2092.42841,1226.85707
2092.42841,1225.29525
2094.64064,1226.85707
2096.85288,1226.07616
2096.85288,1228.4189
2099.06512,1228.4189
2099.06512,1226.07616
2101.27735,1226.85707
2101.27735,1228.4189
2103.48959,1226.85707
2103.48959,1228.4189
2105.70182,1228.4189
2107.91406,1227.63799
2107.91406,1229.19981
2110.12629,1229.19981
2110.12629,1227.63799
2112.33853,1227.63799
2112.33853,1229.19981
2114.55076,1228.4189
2116.763,1228.4189
2118.97524,1228.4189
2121.18747,1228.4189
2123.39971,1228.4189
2125.61194,1227.63799
2127.82418,1226.85707
2130.03641,1228.4189
2130.03641,1228.4189
2130.03641,1226.85707
2132.24865,1228.4189
2132.24865,1226.07616
2132.24865,1228.4189
2134.46089,1228.4189
2134.46089,1226.07616
2134.46089,1228.4189
2136.67312,1228.4189
2136.67312,1228.4189
2136.67312,1226.07616
2138.88536,1228.4189
2138.88536,1226.07616
2138.88536,1228.4189
2141.09759,1226.07616
2141.09759,1227.63799
2141.09759,1228.4189
2143.30983,1228.4189
2143.30983,1227.63799
2145.52206,1227.63799
2145.52206,1228.4189
2147.7343,1226.07616
2147.7343,1228.4189
2147.7343,1228.4189
2149.94654,1228.4189
2149.94654,1228.4189
2149.94654,1226.85707
2152.15877,1228.4189
2152.15877,1228.4189
2152.15877,1226.07616
2154.37101,1228.4189
2154.37101,1228.4189
2154.37101,1226.07616
2156.58324,1228.4189
2156.58324,1226.07616
2156.58324,1228.4189
2158.79548,1226.07616
2158.79548,1227.63799
2158.79548,1227.63799
2161.00771,1226.85707
2161.00771,1226.07616
2163.21995,1226.85707
2163.21995,1226.85707
2163.21995,1225.29525
2165.43218,1225.29525
2165.43218,1226.85707
2165.43218,1226.85707
2167.64442,1226.85707
2167.64442,1225.29525
2167.64442,1226.85707
2169.85666,1226.85707
2169.85666,1226.85707
2169.85666,1225.29525
2172.06889,1226.85707
2172.06889,1226.85707
2172.06889,1225.29525
2174.28113,1226.85707
2174.28113,1226.85707
2174.28113,1225.29525
2176.49336,1226.85707
2176.49336,1226.85707
2176.49336,1225.29525
2178.7056,1226.85707
2178.7056,1225.29525
2178.7056,1226.85707
2180.91783,1225.29525
2180.91783,1226.85707
2180.91783,1226.85707
2183.13007,1226.85707
2183.13007,1226.85707
2185.34231,1227.63799
2185.34231,1226.07616
2185.34231,1227.63799
2187.55454,1227.63799
2187.55454,1227.63799
2189.76678,1227.63799
2189.76678,1228.4189
2191.97901,1227.63799
2191.97901,1227.63799
2194.19125,1227.63799
2194.19125,1227.63799
2196.40348,1229.19981
2196.40348,1227.63799
2196.40348,1227.63799
2198.61572,1227.63799
2198.61572,1229.19981
2198.61572,1227.63799
2200.82795,1229.19981
2200.82795,1227.63799
2200.82795,1227.63799
2203.04019,1227.63799
2203.04019,1227.63799
2203.04019,1229.19981
2205.25243,1229.19981
2205.25243,1227.63799
2205.25243,1226.85707
2207.46466,1227.63799
2207.46466,1229.19981
2207.46466,1226.85707
2209.6769,1229.19981
2209.6769,1226.85707
2209.6769,1226.85707
2211.88913,1229.19981
2211.88913,1227.63799
2211.88913,1226.85707
2214.10137,1227.63799
2214.10137,1227.63799
2214.10137,1229.19981
2216.3136,1227.63799
2216.3136,1229.19981
2216.3136,1228.4189
2218.52584,1227.63799
2218.52584,1228.4189
2220.73808,1228.4189
2220.73808,1228.4189
2220.73808,1226.07616
2222.95031,1226.07616
2222.95031,1228.4189
2222.95031,1228.4189
2225.16255,1227.63799
2225.16255,1226.85707
2225.16255,1226.07616
2225.16255,1227.63799
2227.37478,1226.85707
2227.37478,1226.07616
2229.58702,1226.85707
2229.58702,1226.07616
2231.79925,1226.85707
2231.79925,1225.29525
2231.79925,1226.85707
2234.01149,1226.85707
2234.01149,1225.29525
2234.01149,1226.85707
2236.22373,1226.85707
2236.22373,1226.85707
2236.22373,1225.29525
2238.43596,1226.85707
2238.43596,1225.29525
2238.43596,1226.85707
2240.6482,1226.07616
2240.6482,1227.63799
2240.6482,1225.29525
2242.86043,1226.07616
2242.86043,1226.07616
2242.86043,1227.63799
2245.07267,1226.07616
2245.07267,1226.07616
2245.07267,1228.4189
2247.2849,1226.07616
2247.2849,1228.4189
2247.2849,1226.07616
2249.49714,1228.4189
2249.49714,1226.85707
2249.49714,1226.85707
2251.70937,1226.85707
2251.70937,1227.63799
2251.70937,1229.19981
2253.92161,1226.85707
2253.92161,1229.19981
2253.92161,1227.63799
2256.13385,1227.63799
2256.13385,1229.19981
2256.13385,1227.63799
2258.34608,1229.19981
2258.34608,1227.63799
2258.34608,1227.63799
2260.55832,1227.63799
2260.55832,1229.19981
2260.55832,1227.63799
2262.77055,1228.4189
2262.77055,1229.19981
2264.98279,1226.85707
2264.98279,1228.4189
2264.98279,1228.4189
2267.19502,1228.4189
2267.19502,1226.85707
2267.19502,1228.4189
2269.40726,1228.4189
2269.40726,1226.07616
2269.40726,1226.07616
2269.40726,1227.63799
2269.40726,1226.85707
2271.6195,1226.07616
2271.6195,1226.85707
2273.83173,1226.85707
2273.83173,1226.85707
2273.83173,1225.29525
2276.04397,1225.29525
2276.04397,1226.85707
2276.04397,1226.85707
2278.2562,1226.85707
2278.2562,1226.85707
2278.2562,1225.29525
2280.46844,1226.85707
2280.46844,1226.85707
2280.46844,1225.29525
2282.68067,1226.85707
2282.68067,1226.85707
2282.68067,1225.29525
2284.89291,1226.85707
2284.89291,1226.85707
2284.89291,1225.29525
2287.10514,1226.85707
2287.10514,1226.85707
2287.10514,1225.29525
2289.31738,1225.29525
2289.31738,1226.85707
2289.31738,1226.85707
2291.52962,1225.29525
2291.52962,1226.85707
2291.52962,1226.85707
2293.74185,1225.29525
2293.74185,1227.63799
2295.95409,1227.63799
2295.95409,1228.4189
2295.95409,1226.07616
2295.95409,1228.4189
2298.16632,1229.19981
2298.16632,1228.4189
2298.16632,1229.19981
2298.16632,1226.07616
2300.37856,1229.98073
2300.37856,1229.19981
2300.37856,1229.19981
2300.37856,1226.85707
2302.59079,1229.98073
2302.59079,1229.98073
2302.59079,1227.63799
2304.80303,1229.98073
2304.80303,1228.4189
2304.80303,1230.76164
2307.01527,1228.4189
2307.01527,1231.54255
2307.01527,1231.54255
2309.2275,1229.98073
2309.2275,1232.32346
2309.2275,1232.32346
2311.43974,1230.76164
2311.43974,1233.10438
2311.43974,1233.10438
2313.65197,1232.32346
2313.65197,1233.88529
2313.65197,1233.10438
2313.65197,1233.10438
2313.65197,1230.76164
2315.86421,1232.32346
2315.86421,1234.6662
2315.86421,1234.6662
2315.86421,1232.32346
2318.07644,1233.10438
2318.07644,1235.44711
2318.07644,1233.88529
2318.07644,1232.32346
2318.07644,1235.44711
2320.28868,1233.88529
2320.28868,1236.22803
2320.28868,1236.22803
2320.28868,1233.88529
2320.28868,1233.10438
2320.28868,1234.6662
2320.28868,1235.44711
2322.50092,1237.00894
2322.50092,1236.22803
2324.71315,1237.78985
2324.71315,1237.00894
2326.92539,1237.78985
2329.13762,1237.78985
2331.34986,1237.78985
2333.56209,1237.78985
2335.77433,1237.78985
2337.98656,1237.78985
2340.1988,1237.78985
2342.41104,1235.44711
2342.41104,1237.00894
2342.41104,1236.22803
2342.41104,1234.6662
2344.62327,1233.88529
2346.83551,1233.88529
2349.04774,1233.88529
2351.25998,1233.88529
2353.47221,1233.88529
2355.68445,1233.10438
2355.68445,1232.32346
2357.89669,1232.32346
2360.10892,1232.32346
2362.32116,1231.54255
2364.53339,1231.54255
2366.74563,1229.98073
2366.74563,1229.19981
2366.74563,1228.4189
2366.74563,1230.76164
2368.95786,1227.63799
2371.1701,1227.63799
2373.38234,1226.07616
2373.38234,1226.85707
2375.59457,1226.07616
2377.80681,1225.29525
2380.01904,1225.29525
2382.23128,1225.29525
2384.44351,1225.29525
2386.65575,1226.07616
2388.86798,1225.29525
2391.08022,1225.29525
2393.29246,1225.29525
2393.29246,1226.07616
2395.50469,1226.07616
2397.71693,1226.07616
2399.92916,1226.85707
2402.1414,1229.19981
2402.1414,1227.63799
2402.1414,1228.4189
2404.35363,1229.98073
2406.56587,1229.98073
2408.77811,1229.98073
2410.99034,1229.98073
2413.20258,1229.98073
2415.41481,1229.19981
2417.62705,1229.19981
2419.83928,1229.19981
2422.05152,1228.4189
2424.26375,1227.63799
2426.47599,1227.63799
2428.68823,1227.63799
2430.90046,1227.63799
2433.1127,1226.85707
2435.32493,1226.85707
2437.53717,1226.85707
2439.7494,1226.07616
2441.96164,1226.07616
2444.17388,1226.07616
2446.38611,1226.85707
2448.59835,1227.63799
2450.81058,1226.85707
2453.02282,1226.85707
2455.23505,1226.85707
2457.44729,1226.85707
2459.65953,1226.85707
2461.87176,1226.07616
2464.084,1226.07616
2466.29623,1226.07616
2468.50847,1226.07616
2470.7207,1226.07616
2472.93294,1226.07616
2475.14517,1226.85707
2477.35741,1227.63799
2479.56965,1227.63799
2481.78188,1227.63799
2483.99412,1227.63799
2486.20635,1228.4189
2488.41859,1229.19981
2490.63082,1229.19981
2492.84306,1229.19981
2495.0553,1229.98073
2497.26753,1230.76164
2499.47977,1229.98073
2501.692,1229.19981
2503.90424,1229.19981
2506.11647,1228.4189
2506.11647,1229.19981
2508.32871,1228.4189
2510.54095,1227.63799
2512.75318,1227.63799
2514.96542,1228.4189
2517.17765,1228.4189
2519.38989,1227.63799
2521.60212,1228.4189
2523.81436,1229.19981
2526.02659,1228.4189
2528.23883,1228.4189
2530.45107,1228.4189
2532.6633,1228.4189
2534.87554,1229.19981
2537.08777,1228.4189
2539.30001,1229.19981
2539.30001,1228.4189
2541.51224,1230.76164
2543.72448,1230.76164
2543.72448,1229.19981
2545.93672,1229.19981
2545.93672,1230.76164
2548.14895,1229.98073
2550.36119,1229.19981
2552.57342,1228.4189
2552.57342,1229.98073
2554.78566,1228.4189
2556.99789,1228.4189
2556.99789,1229.98073
2559.21013,1229.98073
2559.21013,1228.4189
2561.42236,1229.98073
2561.42236,1228.4189
2563.6346,1229.98073
2563.6346,1228.4189
2565.84684,1229.98073
2565.84684,1228.4189
2568.05907,1229.98073
2568.05907,1228.4189
2570.27131,1229.98073
2570.27131,1228.4189
2572.48354,1229.98073
2572.48354,1228.4189
2574.69578,1229.19981
2576.90801,1229.19981
2579.12025,1229.19981
2579.12025,1226.85707
2581.33249,1228.4189
2581.33249,1226.07616
2583.54472,1228.4189
2583.54472,1226.07616
2585.75696,1227.63799
2585.75696,1225.29525
2587.96919,1226.85707
2587.96919,1225.29525
2590.18143,1226.07616
2592.39366,1226.85707
2592.39366,1225.29525
2594.6059,1226.85707
2594.6059,1225.29525
2596.81814,1226.85707
2599.03037,1228.4189
2599.03037,1226.07616
2601.24261,1228.4189
2601.24261,1226.07616
2603.45484,1227.63799
2605.66708,1229.19981
2605.66708,1227.63799
2607.87931,1229.19981
2607.87931,1227.63799
2610.09155,1229.19981
2610.09155,1227.63799
2612.30378,1229.19981
2612.30378,1227.63799
2614.51602,1229.19981
2614.51602,1227.63799
2616.72826,1229.19981
2616.72826,1227.63799
2618.94049,1229.19981
2618.94049,1227.63799
2621.15273,1229.19981
2621.15273,1227.63799
2623.36496,1228.4189
2625.5772,1229.19981
2627.78943,1229.19981
2630.00167,1229.19981
2632.21391,1229.98073
2632.21391,1228.4189
2634.42614,1228.4189
2634.42614,1229.98073
2636.63838,1228.4189
2636.63838,1229.98073
2638.85061,1229.98073
2638.85061,1228.4189
2641.06285,1229.19981
2643.27508,1227.63799
2643.27508,1229.19981
2645.48732,1227.63799
2645.48732,1229.19981
2647.69955,1229.19981
2647.69955,1227.63799
2649.91179,1227.63799
2649.91179,1229.19981
2652.12403,1227.63799
2654.33626,1227.63799
2656.5485,1227.63799
2660.97297,1228.4189
2660.97297,1226.85707
2663.1852,1229.19981
2665.39744,1229.19981
2665.39744,1227.63799
2667.60968,1229.19981
2667.60968,1227.63799
2669.82191,1227.63799
2669.82191,1229.19981
2672.03415,1227.63799
2674.24638,1229.19981
2674.24638,1229.98073
2676.45862,1229.19981
2676.45862,1229.19981
2678.67085,1229.98073
2678.67085,1228.4189
2678.67085,1228.4189
2680.88309,1229.98073
2680.88309,1228.4189
2680.88309,1228.4189
2683.09533,1228.4189
2683.09533,1229.19981
2685.30756,1229.19981
2685.30756,1227.63799
2685.30756,1227.63799
2687.5198,1229.19981
2687.5198,1227.63799
2687.5198,1227.63799
2689.73203,1227.63799
2689.73203,1227.63799
2689.73203,1229.19981
2691.94427,1228.4189
2691.94427,1227.63799
2694.1565,1228.4189
2694.1565,1228.4189
2696.36874,1228.4189
2696.36874,1228.4189
2698.58097,1228.4189
2698.58097,1229.19981
2700.79321,1228.4189
2700.79321,1229.19981
2703.00545,1228.4189
2703.00545,1228.4189
2703.00545,1229.98073
2705.21768,1228.4189
2705.21768,1228.4189
2705.21768,1229.98073
2707.42992,1228.4189
2707.42992,1229.98073
2707.42992,1228.4189
2709.64215,1229.98073
2709.64215,1228.4189
2709.64215,1228.4189
2711.85439,1228.4189
2711.85439,1228.4189
2711.85439,1229.98073
2714.06662,1228.4189
2714.06662,1228.4189
2714.06662,1229.98073
2716.27886,1228.4189
2716.27886,1229.98073
2716.27886,1228.4189
2718.4911,1228.4189
2718.4911,1228.4189
2718.4911,1229.98073
2720.70333,1228.4189
2720.70333,1229.98073
2720.70333,1228.4189
2722.91557,1228.4189
2722.91557,1229.98073
2722.91557,1228.4189
2725.1278,1228.4189
2725.1278,1229.98073
2725.1278,1228.4189
2727.34004,1228.4189
2727.34004,1229.98073
2727.34004,1228.4189
2729.55227,1228.4189
2729.55227,1229.98073
2729.55227,1228.4189
2731.76451,1228.4189
2731.76451,1229.98073
2731.76451,1228.4189
2733.97675,1228.4189
2733.97675,1228.4189
2733.97675,1229.98073
2736.18898,1229.98073
2736.18898,1228.4189
2736.18898,1228.4189
2738.40122,1228.4189
2738.40122,1229.98073
2738.40122,1228.4189
2740.61345,1229.19981
2740.61345,1229.98073
2740.61345,1228.4189
2742.82569,1229.19981
2742.82569,1228.4189
2745.03792,1228.4189
2745.03792,1229.19981
2747.25016,1227.63799
2747.25016,1229.19981
2747.25016,1227.63799
2749.46239,1227.63799
2749.46239,1227.63799
2749.46239,1229.19981
2751.67463,1228.4189
2751.67463,1229.19981
2753.88687,1228.4189
2753.88687,1228.4189
2753.88687,1229.98073
2756.0991,1228.4189
2756.0991,1229.98073
2756.0991,1228.4189
2758.31134,1228.4189
2758.31134,1230.76164
2758.31134,1228.4189
2760.52357,1228.4189
2760.52357,1230.76164
2760.52357,1228.4189
2762.73581,1229.98073
2762.73581,1228.4189
2762.73581,1228.4189
2764.94804,1228.4189
2764.94804,1229.19981
2767.16028,1228.4189
2767.16028,1228.4189
2769.37252,1227.63799
2769.37252,1227.63799
2769.37252,1229.19981
2771.58475,1229.19981
2771.58475,1226.85707
2771.58475,1227.63799
2773.79699,1226.85707
2773.79699,1229.19981
2773.79699,1226.85707
2776.00922,1226.85707
2776.00922,1226.85707
2776.00922,1228.4189
2778.22146,1227.63799
2778.22146,1228.4189
2780.43369,1227.63799
2780.43369,1226.85707
2782.64593,1226.85707
2782.64593,1226.85707
2784.85816,1226.85707
2784.85816,1227.63799
2787.0704,1226.85707
2787.0704,1229.19981
2787.0704,1226.85707
2789.28264,1227.63799
2789.28264,1227.63799
2789.28264,1229.19981
2791.49487,1229.19981
2791.49487,1227.63799
2791.49487,1227.63799
2793.70711,1227.63799
2793.70711,1229.19981
2793.70711,1227.63799
2795.91934,1228.4189
2795.91934,1227.63799
2795.91934,1227.63799
2795.91934,1229.98073
2798.13158,1228.4189
2798.13158,1229.19981
2800.34381,1228.4189
2800.34381,1229.98073
2800.34381,1228.4189
2802.55605,1228.4189
2802.55605,1229.98073
2802.55605,1228.4189
2804.76829,1229.19981
2804.76829,1229.98073
2806.98052,1231.54255
2806.98052,1229.98073
2806.98052,1229.19981
2809.19276,1229.98073
2809.19276,1231.54255
2809.19276,1229.19981
2811.40499,1231.54255
2811.40499,1229.98073
2811.40499,1229.19981
2813.61723,1232.32346
2813.61723,1229.98073
2813.61723,1229.98073
2815.82946,1229.98073
2815.82946,1230.76164
2815.82946,1232.32346
2818.0417,1230.76164
2818.0417,1230.76164
2818.0417,1233.10438
2820.25394,1230.76164
2820.25394,1233.10438
2820.25394,1230.76164
2822.46617,1233.10438
2822.46617,1231.54255
2822.46617,1231.54255
2824.67841,1231.54255
2824.67841,1233.10438
2824.67841,1231.54255
2826.89064,1233.10438
2826.89064,1231.54255
2826.89064,1231.54255
2829.10288,1231.54255
2829.10288,1233.10438
2829.10288,1231.54255
2831.31511,1233.10438
2831.31511,1231.54255
2831.31511,1232.32346
2833.52735,1232.32346
2833.52735,1232.32346
2833.52735,1230.76164
2835.73958,1232.32346
2835.73958,1232.32346
2835.73958,1230.76164
2837.95182,1232.32346
2837.95182,1230.76164
2837.95182,1229.98073
2837.95182,1231.54255
2840.16406,1229.19981
2840.16406,1230.76164
2840.16406,1231.54255
2842.37629,1229.19981
2842.37629,1230.76164
2842.37629,1231.54255
2844.58853,1229.98073
2844.58853,1230.76164
2844.58853,1229.19981
2844.58853,1229.98073
2846.80076,1230.76164
2846.80076,1228.4189
2846.80076,1228.4189
2849.013,1228.4189
2849.013,1229.98073
2849.013,1228.4189
2851.22523,1228.4189
2851.22523,1229.98073
2851.22523,1228.4189
2853.43747,1228.4189
2855.64971,1229.19981
2857.86194,1229.98073
2860.07418,1229.98073
2862.28641,1230.76164
2864.49865,1230.76164
2866.71088,1230.76164
2868.92312,1230.76164
2871.13536,1231.54255
2873.34759,1231.54255
2875.55983,1231.54255
2917.5923,1231.54255
2919.80454,1231.54255
2922.01677,1231.54255
2924.22901,1232.32346
2926.44125,1232.32346
2928.65348,1232.32346
2930.86572,1232.32346
2933.07795,1232.32346
2935.29019,1232.32346
2937.50242,1231.54255
2939.71466,1230.76164
2941.9269,1230.76164
2944.13913,1230.76164
2946.35137,1230.76164
2948.5636,1231.54255
2950.77584,1231.54255
2952.98807,1231.54255
2955.20031,1231.54255
2957.41255,1231.54255
2959.62478,1231.54255
2961.83702,1230.76164
2964.04925,1230.76164
2966.26149,1231.54255
2968.47372,1231.54255
2970.68596,1231.54255
2972.89819,1231.54255
2975.11043,1231.54255
2977.32267,1231.54255
2979.5349,1232.32346
2981.74714,1232.32346
2983.95937,1232.32346
2986.17161,1233.10438
2988.38384,1232.32346
2990.59608,1232.32346
2992.80832,1232.32346
2995.02055,1232.32346
2997.23279,1232.32346
2999.44502,1232.32346
3001.65726,1233.10438
3003.86949,1233.10438
3006.08173,1233.10438
3008.29396,1233.88529
3010.5062,1233.88529
3012.71844,1234.6662
3014.93067,1235.44711
3017.14291,1236.22803
3019.35514,1236.22803
3021.56738,1235.44711
3023.77961,1235.44711
3025.99185,1235.44711
3028.20409,1235.44711
3030.41632,1235.44711
3032.62856,1235.44711
3034.84079,1235.44711
3037.05303,1235.44711
3039.26526,1235.44711
3041.4775,1234.6662
3043.68974,1234.6662
3045.90197,1234.6662
3048.11421,1234.6662
3050.32644,1234.6662
3052.53868,1235.44711
3054.75091,1235.44711
3056.96315,1236.22803
3059.17538,1237.00894
3061.38762,1236.22803
3063.59986,1235.44711
3065.81209,1235.44711
3068.02433,1235.44711
3070.23656,1235.44711
3072.4488,1236.22803
3074.66103,1237.00894
3076.87327,1237.00894
3079.08551,1237.00894
3081.29774,1237.00894
3083.50998,1237.00894
3085.72221,1237.00894
3087.93445,1237.00894
3090.14668,1237.78985
3092.35892,1237.00894
3094.57116,1237.78985
3096.78339,1238.57077
3098.99563,1239.35168
3101.20786,1240.9135
3101.20786,1240.13259
3103.4201,1240.9135
3105.63233,1240.9135
3107.84457,1240.9135
3110.0568,1240.9135
3112.26904,1240.9135
3114.48128,1240.9135
3116.69351,1240.13259
3118.90575,1240.13259
3121.11798,1239.35168
3123.33022,1239.35168
3125.54245,1238.57077
3127.75469,1238.57077
3129.96693,1238.57077
3132.17916,1239.35168
3134.3914,1240.13259
3136.60363,1240.13259
3138.81587,1240.13259
3138.81587,1240.9135
3141.0281,1240.9135
3143.24034,1241.69442
3145.45257,1242.47533
3145.45257,1241.69442
3147.66481,1242.47533
3149.87705,1242.47533
3152.08928,1243.25624
3154.30152,1243.25624
3156.51375,1243.25624
3158.72599,1243.25624
3160.93822,1243.25624
3163.15046,1243.25624
3165.3627,1243.25624
3167.57493,1244.81807
3167.57493,1244.03716
3169.78717,1244.81807
3171.9994,1245.59898
3171.9994,1244.81807
3174.21164,1246.37989
3174.21164,1245.59898
3176.42387,1247.16081
3176.42387,1246.37989
3178.63611,1247.16081
3180.84835,1247.16081
3183.06058,1247.16081
3185.27282,1247.94172
3187.48505,1247.94172
3189.69729,1248.72263
3189.69729,1247.94172
3191.90952,1248.72263
3194.12176,1249.50355
3196.33399,1250.28446
3198.54623,1251.06537
3200.75847,1251.84628
3202.9707,1253.40811
3202.9707,1252.6272
3205.18294,1253.40811
3207.39517,1254.18902
3207.39517,1254.96993
3209.60741,1254.96993
3211.81964,1255.75085
3211.81964,1256.53176
3214.03188,1256.53176
3214.03188,1257.31267
3214.03188,1259.65541
3214.03188,1257.31267
3216.24412,1259.65541
3218.45635,1260.43632
3218.45635,1258.8745
3220.66859,1260.43632
3220.66859,1258.8745
3222.88082,1260.43632
3225.09306,1259.65541
3227.30529,1262.77906
3227.30529,1259.65541
3229.51753,1262.77906
3229.51753,1261.21724
3231.72976,1262.77906
3233.942,1262.77906
3236.15424,1262.77906
3238.36647,1263.55998
3238.36647,1261.99815
3240.57871,1261.99815
3240.57871,1263.55998
3242.79094,1261.99815
3242.79094,1264.34089
3245.00318,1265.1218
3245.00318,1262.77906
3247.21541,1265.90271
3247.21541,1263.55998
3249.42765,1263.55998
3249.42765,1265.90271
3251.63989,1264.34089
3251.63989,1265.90271
3253.85212,1265.90271
3253.85212,1264.34089
3256.06436,1265.90271
3256.06436,1264.34089
3258.27659,1265.90271
3258.27659,1264.34089
3260.48883,1263.55998
3260.48883,1265.90271
3262.70106,1265.90271
3262.70106,1264.34089
3264.9133,1265.90271
3267.12554,1263.55998
3267.12554,1265.1218
3269.33777,1262.77906
3269.33777,1265.1218
3271.55001,1261.99815
3271.55001,1264.34089
3273.76224,1261.99815
3273.76224,1263.55998
3275.97448,1262.77906
3275.97448,1261.21724
3278.18671,1261.99815
3280.39895,1261.99815
3282.61118,1262.77906
3284.82342,1262.77906
3284.82342,1261.21724
3287.03566,1262.77906
3287.03566,1261.21724
3289.24789,1262.77906
3289.24789,1261.21724
3291.46013,1262.77906
3291.46013,1260.43632
3293.67236,1262.77906
3293.67236,1261.21724
3295.8846,1261.99815
3298.09683,1262.77906
3298.09683,1260.43632
3300.30907,1260.43632
3300.30907,1262.77906
3302.52131,1260.43632
3302.52131,1262.77906
3304.73354,1261.99815
3306.94578,1261.21724
3309.15801,1261.21724
3311.37025,1261.21724
3311.37025,1262.77906
3313.58248,1262.77906
3313.58248,1260.43632
3315.79472,1260.43632
3315.79472,1262.77906
3318.00696,1260.43632
3318.00696,1262.77906
3320.21919,1262.77906
3320.21919,1260.43632
3322.43143,1261.99815
3322.43143,1260.43632
3324.64366,1259.65541
3324.64366,1261.99815
3326.8559,1261.99815
3326.8559,1259.65541
3329.06813,1261.99815
3329.06813,1259.65541
3331.28037,1261.21724
3331.28037,1259.65541
3333.4926,1258.8745
3333.4926,1261.21724
3335.70484,1258.8745
3335.70484,1261.21724
3337.91708,1259.65541
3340.12931,1258.09359
3340.12931,1259.65541
3342.34155,1258.09359
3342.34155,1259.65541
3344.55378,1258.09359
3344.55378,1259.65541
3346.76602,1258.09359
3346.76602,1260.43632
3348.97825,1260.43632
3348.97825,1258.8745
3351.19049,1260.43632
3353.40273,1261.21724
3353.40273,1259.65541
3355.61496,1261.21724
3355.61496,1259.65541
3357.8272,1261.99815
3357.8272,1259.65541
3360.03943,1261.99815
3360.03943,1259.65541
3362.25167,1261.21724
3364.4639,1261.21724
3366.67614,1262.77906
3366.67614,1260.43632
3366.67614,1262.77906
3368.88837,1261.99815
3368.88837,1261.99815
3371.10061,1259.65541
3371.10061,1261.99815
3371.10061,1261.99815
3373.31285,1261.21724
3373.31285,1261.99815
3373.31285,1259.65541
3375.52508,1261.99815
3375.52508,1259.65541
3375.52508,1261.21724
3377.73732,1261.99815
3377.73732,1259.65541
3377.73732,1261.21724
3379.94955,1261.21724
3379.94955,1259.65541
3379.94955,1261.99815
3382.16179,1261.21724
3382.16179,1261.21724
3384.37402,1261.99815
3384.37402,1259.65541
3384.37402,1261.21724
3386.58626,1259.65541
3386.58626,1261.21724
3386.58626,1261.21724
3388.7985,1261.99815
3388.7985,1259.65541
3388.7985,1261.21724
3391.01073,1259.65541
3391.01073,1261.21724
3391.01073,1261.21724
3393.22297,1258.8745
3393.22297,1261.21724
3393.22297,1261.21724
3393.22297,1260.43632
3393.22297,1259.65541
3395.4352,1258.8745
3395.4352,1258.8745
3395.4352,1260.43632
3397.64744,1258.09359
3397.64744,1258.8745
3397.64744,1260.43632
3397.64744,1258.8745
3399.85967,1259.65541
3399.85967,1257.31267
3399.85967,1258.09359
3402.07191,1259.65541
3402.07191,1257.31267
3402.07191,1257.31267
3404.28415,1257.31267
3404.28415,1257.31267
3404.28415,1259.65541
3406.49638,1256.53176
3406.49638,1256.53176
3406.49638,1258.8745
3408.70862,1256.53176
3408.70862,1258.8745
3408.70862,1256.53176
3410.92085,1256.53176
3410.92085,1256.53176
3413.13309,1256.53176
3415.34532,1256.53176
3417.55756,1256.53176
3419.76979,1257.31267
3421.98203,1256.53176
3424.19427,1256.53176
3426.4065,1256.53176
3428.61874,1256.53176
3430.83097,1256.53176
3433.04321,1256.53176
3435.25544,1256.53176
3437.46768,1256.53176
3439.67992,1257.31267
3441.89215,1257.31267
3444.10439,1257.31267
3446.31662,1256.53176
3448.52886,1255.75085
3450.74109,1254.96993
3450.74109,1255.75085
3452.95333,1254.96993
3455.16557,1254.18902
3457.3778,1254.18902
3459.59004,1253.40811
3461.80227,1252.6272
3464.01451,1252.6272
3466.22674,1252.6272
3468.43898,1252.6272
3470.65121,1252.6272
3472.86345,1252.6272
3475.07569,1252.6272
3477.28792,1251.84628
3477.28792,1250.28446
3477.28792,1251.06537
3479.50016,1251.06537
3479.50016,1249.50355
3479.50016,1249.50355
3481.71239,1248.72263
3481.71239,1249.50355
3483.92463,1247.94172
3483.92463,1250.28446
3483.92463,1247.94172
3486.13686,1247.94172
3486.13686,1247.94172
3486.13686,1250.28446
3488.3491,1247.16081
3488.3491,1247.94172
3490.56134,1247.16081
3490.56134,1247.94172
3492.77357,1248.72263
3492.77357,1245.59898
3492.77357,1247.16081
3494.98581,1247.94172
3494.98581,1247.16081
3497.19804,1247.16081
3497.19804,1244.81807
3497.19804,1247.16081
3499.41028,1247.16081
3499.41028,1247.16081
3499.41028,1245.59898
3501.62251,1244.03716
3503.83475,1245.59898
3503.83475,1244.03716
3506.04698,1245.59898
3506.04698,1244.03716
3508.25922,1245.59898
3508.25922,1244.03716
3510.47146,1245.59898
3510.47146,1244.03716
3512.68369,1245.59898
3512.68369,1244.03716
3514.89593,1245.59898
3514.89593,1244.03716
3517.10816,1245.59898
3517.10816,1244.03716
3519.3204,1244.03716
3519.3204,1245.59898
3521.53263,1244.81807
3523.74487,1244.81807
3523.74487,1243.25624
3525.95711,1244.03716
3528.16934,1242.47533
3528.16934,1244.81807
3530.38158,1241.69442
3530.38158,1244.03716
3532.59381,1244.03716
3532.59381,1240.9135
3534.80605,1243.25624
3534.80605,1240.9135
3537.01828,1241.69442
3539.23052,1241.69442
3539.23052,1239.35168
3541.44276,1239.35168
3541.44276,1241.69442
3543.65499,1240.9135
3545.86723,1240.9135
3548.07946,1240.9135
3550.2917,1240.9135
3552.50393,1240.13259
3554.71617,1240.9135
3554.71617,1238.57077
3556.9284,1238.57077
3559.14064,1239.35168
3559.14064,1237.78985
3561.35288,1239.35168
3561.35288,1237.78985
3563.56511,1240.13259
3563.56511,1237.78985
3565.77735,1237.78985
3565.77735,1239.35168
3567.98958,1239.35168
3567.98958,1237.78985
3570.20182,1237.78985
3570.20182,1239.35168
3572.41405,1238.57077
3574.62629,1237.78985
3576.83853,1237.78985
3579.05076,1237.78985
3583.47523,1238.57077
3583.47523,1237.00894
3585.68747,1236.22803
3585.68747,1238.57077
3585.68747,1237.00894
3587.8997,1236.22803
3587.8997,1238.57077
3587.8997,1235.44711
3587.8997,1236.22803
3590.11194,1237.78985
3590.11194,1235.44711
3590.11194,1236.22803
3592.32417,1235.44711
3592.32417,1237.00894
3594.53641,1235.44711
3594.53641,1237.00894
3596.74865,1236.22803
3596.74865,1234.6662
3596.74865,1235.44711
3598.96088,1236.22803
3598.96088,1234.6662
3598.96088,1236.22803
3601.17312,1236.22803
3601.17312,1234.6662
3601.17312,1236.22803
3603.38535,1236.22803
3603.38535,1236.22803
3603.38535,1234.6662
3605.59759,1236.22803
3605.59759,1236.22803
3605.59759,1234.6662
3607.80982,1236.22803
3607.80982,1234.6662
3607.80982,1236.22803
3610.02206,1234.6662
3610.02206,1236.22803
3610.02206,1236.22803
3612.2343,1234.6662
3612.2343,1236.22803
3612.2343,1236.22803
3614.44653,1236.22803
3614.44653,1236.22803
3614.44653,1234.6662
3616.65877,1236.22803
3616.65877,1234.6662
3616.65877,1236.22803
3618.871,1235.44711
3618.871,1234.6662
3621.08324,1234.6662
3621.08324,1234.6662
3623.29547,1233.88529
3623.29547,1233.88529
3623.29547,1235.44711
3625.50771,1233.88529
3625.50771,1235.44711
3625.50771,1233.88529
3627.71995,1233.88529
3627.71995,1232.32346
3627.71995,1234.6662
3629.93218,1234.6662
3629.93218,1232.32346
3629.93218,1234.6662
3632.14442,1234.6662
3632.14442,1233.88529
3634.35665,1234.6662
3634.35665,1232.32346
3634.35665,1234.6662
3636.56889,1234.6662
3636.56889,1234.6662
3636.56889,1232.32346
3638.78112,1233.88529
3638.78112,1234.6662
3640.99336,1234.6662
3640.99336,1234.6662
3640.99336,1232.32346
3643.20559,1234.6662
3643.20559,1234.6662
3643.20559,1232.32346
3645.41783,1234.6662
3645.41783,1234.6662
3645.41783,1233.10438
3647.63007,1234.6662
3647.63007,1233.10438
3647.63007,1234.6662
3649.8423,1234.6662
3649.8423,1234.6662
3649.8423,1233.10438
3652.05454,1233.10438
3652.05454,1234.6662
3652.05454,1234.6662
3654.26677,1234.6662
3654.26677,1232.32346
3654.26677,1234.6662
3656.47901,1232.32346
3656.47901,1234.6662
3656.47901,1234.6662
3658.69124,1234.6662
3658.69124,1234.6662
3658.69124,1232.32346
3660.90348,1234.6662
3660.90348,1232.32346
3660.90348,1234.6662
3663.11572,1234.6662
3663.11572,1232.32346
3663.11572,1234.6662
3665.32795,1234.6662
3667.54019,1234.6662
3669.75242,1234.6662
3671.96466,1233.88529
3674.17689,1233.88529
3676.38913,1234.6662
3678.60137,1234.6662
3680.8136,1234.6662
3683.02584,1234.6662
3685.23807,1234.6662
3687.45031,1234.6662
3689.66254,1234.6662
3691.87478,1233.88529
3694.08701,1233.10438
3694.08701,1233.88529
3696.29925,1232.32346
3698.51149,1232.32346
3700.72372,1232.32346
3702.93596,1232.32346
3705.14819,1232.32346
3707.36043,1231.54255
3709.57266,1230.76164
3711.7849,1230.76164
3713.99714,1230.76164
3716.20937,1230.76164
3718.42161,1230.76164
3720.63384,1231.54255
3722.84608,1232.32346
3725.05831,1232.32346
3727.27055,1232.32346
3729.48278,1232.32346
3731.69502,1232.32346
3733.90726,1232.32346
3736.11949,1232.32346
3738.33173,1231.54255
3740.54396,1231.54255
3742.7562,1231.54255
3744.96843,1231.54255
3747.18067,1231.54255
3749.39291,1231.54255
3751.60514,1231.54255
3753.81738,1231.54255
3756.02961,1231.54255
3758.24185,1231.54255
3760.45408,1231.54255
3762.66632,1231.54255
3764.87856,1231.54255
3767.09079,1232.32346
3769.30303,1232.32346
3771.51526,1232.32346
3773.7275,1232.32346
3775.93973,1232.32346
3778.15197,1232.32346
3780.3642,1232.32346
3782.57644,1231.54255
3784.78868,1232.32346
3787.00091,1232.32346
3789.21315,1232.32346
3791.42538,1232.32346
3793.63762,1232.32346
3795.84985,1232.32346
3798.06209,1232.32346
3800.27433,1232.32346
3802.48656,1232.32346
3804.6988,1232.32346
3806.91103,1232.32346
3809.12327,1231.54255
3811.3355,1231.54255
3813.54774,1230.76164
3813.54774,1229.98073
3815.75998,1231.54255
3815.75998,1229.98073
3815.75998,1229.98073
3817.97221,1229.98073
3817.97221,1229.98073
3820.18445,1229.98073
3820.18445,1229.98073
3822.39668,1229.98073
3822.39668,1229.98073
3824.60892,1231.54255
3824.60892,1229.98073
3824.60892,1229.98073
3826.82115,1229.19981
3826.82115,1230.76164
3829.03339,1232.32346
3829.03339,1229.98073
3829.03339,1230.76164
3831.24562,1230.76164
3831.24562,1232.32346
3831.24562,1230.76164
3833.45786,1232.32346
3833.45786,1230.76164
3833.45786,1230.76164
3835.6701,1230.76164
3835.6701,1230.76164
3835.6701,1232.32346
3837.88233,1232.32346
3837.88233,1230.76164
3837.88233,1230.76164
3837.88233,1230.76164
3837.88233,1232.32346
3840.09457,1231.54255
3840.09457,1231.54255
3840.09457,1231.54255
3842.3068,1232.32346
3842.3068,1232.32346
3842.3068,1232.32346
3844.51904,1229.98073
3844.51904,1229.98073
3846.73127,1231.54255
3846.73127,1231.54255
3846.73127,1229.98073
3846.73127,1229.98073
3848.94351,1230.76164
3848.94351,1230.76164
3848.94351,1229.19981
3848.94351,1229.19981
3851.15575,1230.76164
3851.15575,1228.4189
3851.15575,1230.76164
3851.15575,1228.4189
3853.36798,1228.4189
3853.36798,1229.98073
3853.36798,1229.98073
3853.36798,1228.4189
3855.58022,1229.98073
3855.58022,1229.98073
3855.58022,1228.4189
3855.58022,1228.4189
3857.79245,1229.98073
3857.79245,1228.4189
3857.79245,1229.98073
3857.79245,1228.4189
3860.00469,1229.98073
3860.00469,1228.4189
3860.00469,1229.98073
3860.00469,1228.4189
3862.21692,1228.4189
3862.21692,1229.98073
3862.21692,1228.4189
3862.21692,1229.98073
3864.42916,1229.19981
3864.42916,1229.19981
3866.64139,1229.98073
3866.64139,1229.98073
3868.85363,1229.98073
3868.85363,1229.98073
3871.06587,1231.54255
3871.06587,1229.19981
3871.06587,1231.54255
3871.06587,1229.19981
3873.2781,1231.54255
3873.2781,1229.19981
3873.2781,1231.54255
3873.2781,1229.19981
3875.49034,1229.19981
3875.49034,1229.19981
3875.49034,1231.54255
3875.49034,1231.54255
3877.70257,1231.54255
3877.70257,1229.98073
3877.70257,1231.54255
3877.70257,1229.98073
3879.91481,1230.76164
3879.91481,1230.76164
3882.12704,1231.54255
3882.12704,1229.19981
3882.12704,1229.19981
3882.12704,1231.54255
3884.33928,1229.19981
3884.33928,1231.54255
3884.33928,1229.19981
3884.33928,1231.54255
3886.55152,1231.54255
3886.55152,1229.19981
3886.55152,1231.54255
3886.55152,1229.19981
3888.76375,1231.54255
3888.76375,1231.54255
3890.97599,1232.32346
3890.97599,1232.32346
3893.18822,1231.54255
3893.18822,1231.54255
3895.40046,1230.76164
3895.40046,1230.76164
3895.40046,1232.32346
3895.40046,1232.32346
3897.61269,1230.76164
3897.61269,1230.76164
3897.61269,1232.32346
3897.61269,1232.32346
3899.82493,1230.76164
3899.82493,1230.76164
3902.03717,1231.54255
3902.03717,1231.54255
3904.2494,1231.54255
3904.2494,1231.54255
3906.46164,1230.76164
3906.46164,1230.76164
3908.67387,1230.76164
3908.67387,1230.76164
3910.88611,1231.54255
3910.88611,1229.19981
3910.88611,1231.54255
3910.88611,1229.19981
3913.09834,1231.54255
3913.09834,1229.19981
3913.09834,1231.54255
3913.09834,1229.19981
3915.31058,1231.54255
3915.31058,1231.54255
3915.31058,1229.19981
3915.31058,1229.19981
3917.52281,1229.19981
3917.52281,1229.19981
3917.52281,1231.54255
3917.52281,1231.54255
3919.73505,1231.54255
3919.73505,1229.19981
3919.73505,1231.54255
3919.73505,1229.19981
3921.94729,1231.54255
3921.94729,1229.19981
3921.94729,1231.54255
3921.94729,1229.19981
3924.15952,1229.19981
3924.15952,1231.54255
3924.15952,1231.54255
3924.15952,1229.19981
3926.37176,1229.19981
3926.37176,1231.54255
3926.37176,1229.19981
3926.37176,1231.54255
3928.58399,1231.54255
3928.58399,1229.19981
3928.58399,1231.54255
3928.58399,1229.19981
3930.79623,1229.19981
3930.79623,1231.54255
3930.79623,1231.54255
3930.79623,1229.19981
3933.00846,1231.54255
3933.00846,1229.19981
3933.00846,1229.19981
3933.00846,1231.54255
3935.2207,1230.76164
3935.2207,1230.76164
3937.43294,1231.54255
3937.43294,1229.19981
3937.43294,1231.54255
3937.43294,1229.19981
3939.64517,1230.76164
3939.64517,1230.76164
3939.64517,1229.19981
3939.64517,1229.19981
3941.85741,1229.98073
3941.85741,1229.98073
3944.06964,1229.98073
3944.06964,1229.98073
3946.28188,1230.76164
3946.28188,1230.76164
3948.49411,1229.98073
3948.49411,1229.98073
3950.70635,1229.98073
3950.70635,1229.98073
3952.91858,1229.98073
3952.91858,1229.98073
3955.13082,1228.4189
3955.13082,1229.98073
3955.13082,1229.98073
3955.13082,1228.4189
3957.34306,1228.4189
3957.34306,1229.98073
3957.34306,1229.98073
3957.34306,1228.4189
3959.55529,1230.76164
3959.55529,1228.4189
3959.55529,1228.4189
3959.55529,1230.76164
3961.76753,1229.98073
3961.76753,1229.98073
3963.97976,1230.76164
3963.97976,1230.76164
3966.192,1231.54255
3966.192,1229.98073
3966.192,1231.54255
3966.192,1229.98073
3968.40423,1231.54255
3968.40423,1229.98073
3968.40423,1231.54255
3968.40423,1229.98073
3970.61647,1232.32346
3970.61647,1232.32346
3972.82871,1232.32346
3972.82871,1230.76164
3972.82871,1232.32346
3972.82871,1230.76164
3975.04094,1232.32346
3975.04094,1230.76164
3975.04094,1232.32346
3975.04094,1230.76164
3977.25318,1232.32346
3977.25318,1230.76164
3977.25318,1232.32346
3977.25318,1230.76164
3979.46541,1230.76164
3979.46541,1232.32346
3981.67765,1230.76164
3983.88988,1229.19981
3983.88988,1230.76164
3986.10212,1231.54255
3986.10212,1229.98073
3988.31436,1229.98073
3988.31436,1231.54255
3990.52659,1230.76164
3990.52659,1228.4189
3992.73883,1229.98073
3992.73883,1228.4189
3994.95106,1229.98073
3994.95106,1228.4189
3997.1633,1229.19981
