Raman Shift,Intensity
214.3785040343428,128.84
224.78145843945092,65.735
235.01908334044856,-42.07
245.41130867789616,60.476
255.63837774522108,-262.938
265.8602158678186,68.364
276.23642015571386,102.546
286.44772684514464,-13.147
296.8132434111685,10.518
307.0140349346475,15.776
317.209615658554,-218.239
327.399989574551,-173.539
337.7442627077253,28.923
347.9241537664129,10.518
358.09885002992814,-23.664
368.2683554736213,18.406
378.5914504125685,39.441
388.7505051753542,55.217
398.90438108190574,-152.504
409.0530820913264,49.958
419.196612158652,78.881
429.3349752349313,197.204
439.626465572117,0.0
449.75442592354375,31.553
459.8772311743669,223.497
469.994885259468,234.015
480.1073921097559,178.798
490.2147556521086,412.813
500.31697980943136,268.197
510.41406850063504,262.938
520.5060256406359,262.938
530.5928551403995,339.19
540.6745609068894,160.392
550.7511468431039,149.875
560.8226168481124,126.21
570.888974816975,349.708
580.9502246408374,283.973
590.8492821665859,336.561
600.9004070215597,207.721
610.9464353206786,63.105
620.9873709393651,425.96
631.0232177491416,851.92
641.0539796175653,1117.487
650.9230482019848,1532.93
660.9437310766662,1117.487
670.9593405290361,644.199
680.9698804110958,496.953
690.8190579752118,268.197
700.8195493193562,507.471
710.8149825658329,441.736
720.805361551138,344.449
730.6347081696804,354.967
740.6150689503047,255.05
750.4345613154874,197.204
760.404918953056,376.002
770.3702413346182,360.225
780.174941402227,323.414
790.1302832356378,252.421
799.925166080895,139.357
809.8705423523497,378.631
819.6556227125038,220.868
829.5910483782136,665.234
839.3663409610526,425.96
849.2918309472952,347.078
859.0573504311833,131.469
868.972919634427,291.861
878.7286806683987,402.295
888.6343439553166,391.778
898.3803611591502,265.568
908.12155022542,510.1
918.0124213310264,281.344
927.743888384779,268.197
937.4705381077074,178.798
947.3466501411676,291.861
957.0635996041163,307.638
966.7757425107702,-139.357
976.6371284824854,567.946
986.3395928168538,302.379
996.0372613373548,502.212
1005.7301375988682,949.207
1015.5719657306544,1175.334
1025.255192198514,696.786
1034.9336371072422,523.247
1044.6073039976543,333.932
1054.2761964070742,620.534
1063.9403178693246,433.848
1073.5996719147442,378.631
1083.4074711432768,404.925
1093.057225399156,336.561
1102.70222286418,473.289
1112.3424670547538,307.638
1121.9779614837898,281.344
1131.6087096607444,223.497
1141.2347150916105,478.548
1150.855981278939,215.609
1160.4725117218331,462.771
1170.0843099159465,210.351
1179.6913793534914,636.31
1189.293723523253,415.442
1198.739039559725,265.568
1208.3320185130287,339.19
1217.9202825891407,197.204
1227.5038352631818,283.973
1237.0826800068826,212.98
1246.6568202885535,-39.441
1256.226259573108,249.791
1265.639216696829,147.245
1275.1993388504195,99.917
1284.7547703264208,234.015
1294.3055145761757,170.91
1303.7000868433097,15.776
1313.241541245312,49.958
1322.778318700337,128.84
1332.310422646282,110.434
1341.686663866676,178.798
1351.2095051416618,244.533
1360.727683146746,228.756
1370.0902294598782,152.504
1379.5991650801443,328.673
1388.9526223370776,136.728
1398.4523290278594,257.679
1407.7967104575073,310.267
1417.287201648047,241.903
1426.7730533080105,97.287
1436.1038095471376,573.205
1445.5804658554116,199.833
1454.9021792800197,323.414
1464.369653600741,170.91
1473.6823373500883,170.91
1482.9905472474493,102.546
1492.444310209452,-15.776
1501.7435100404182,97.287
1511.1881242589734,231.386
1520.4783270994303,152.504
1529.764072276041,113.063
1539.1950247490097,113.063
1548.4717924494323,176.169
1557.7441121511074,89.399
1567.1614324998736,89.399
1576.4247941832873,376.002
1585.6837175051332,307.638
1594.9382056544855,110.434
1604.3374199708342,191.945
1613.5829759239496,247.162
1622.8241063047317,94.658
1632.0608142900164,207.721
1641.2931030535765,99.917
1650.6697762525291,176.169
1659.8931649322622,320.785
1669.1121439444323,173.539
1678.3267164506542,99.917
1687.53688560953,107.805
1696.7426545766284,457.512
1705.9440265045123,231.386
1715.1410045427183,76.252
1724.3335918377925,141.987
1733.5217915332687,49.958
1742.705606769683,-52.588
1751.8850406845886,189.315
1761.0600964125188,157.763
1770.230777085024,194.574
1779.397085830693,118.322
1788.55902577511,262.938
1797.7166000408906,202.462
1806.8698117476447,-68.364
1816.0186640120735,34.182
1825.163159947857,157.763
1834.1559155330324,31.553
1843.29177827917,-102.546
1852.4232939699289,239.274
1861.550465707216,494.324
1870.673296589972,170.91
1879.644751645923,389.149
1888.758979994156,281.344
1897.8688767172423,170.91
1906.974444902422,249.791
1915.9289277003045,189.315
1925.025917750907,289.232
1934.118588458099,102.546
1943.060390766601,202.462
1952.144501554074,260.309
1961.2243021666216,73.623
1970.153450902042,320.785
1979.224709758193,199.833
1988.1454604369865,107.805
1997.208189584475,234.015
2006.120554048888,178.798
2015.1747655127983,-31.553
2024.0787555828572,165.651
2033.12446136566,202.462
2042.0200888391555,210.351
2051.057300920809,57.846
2059.9445775734057,163.022
2068.9733079113576,141.987
2077.852245496608,42.07
2086.8725060258803,189.315
2095.743116275291,352.337
2104.6096010526526,144.616
2113.6172135316083,89.399
2122.4753884816528,399.666
2131.329446630596,7.888
2140.324437642892,65.735
2149.170203423979,-7.888
2158.011861050589,44.699
2166.994257105456,210.351
2175.8276397748195,128.84
2184.656922912145,-28.923
2193.48210937062,231.386
2202.303202000803,84.14
2211.2647105948345,147.245
2220.077557114586,262.938
2228.886318388424,184.057
2237.6909972563008,7.888
2246.4915965555265,165.651
2255.2881191208,181.427
2264.0805677841927,255.05
2272.8689453751285,191.945
2281.6532547204406,199.833
2290.5774032157133,118.322
2299.353517963282,152.504
2308.125572976198,57.846
2316.893571070781,341.82
2325.6575150607823,181.427
2334.273835606975,173.539
2343.029746164546,202.462
2351.781610997117,231.386
2360.5294329081007,52.588
2369.273214698267,-63.105
2378.0129591658333,168.28
2386.7486691064114,92.028
2395.48034731306,-52.588
2404.2079965762314,-107.805
2412.788641914361,99.917
2421.5083075861257,-255.05
2430.2239526247795,31.553
2438.9355798105607,173.539
2447.64319192111,78.881
2456.204142101211,49.958
2464.9037980916983,155.134
2473.5994472792227,310.267
2482.148638712344,92.028
2490.836348166158,99.917
2499.5200590665554,494.324
2508.0575159626023,141.987
2516.7333034706826,15.776
2525.405100652257,278.714
2533.930847154741,173.539
2542.5947372405863,118.322
2551.112711590584,97.287
2559.768705390503,268.197
2568.2789182109263,-2.629
2576.927026515033,131.469
2585.5711635713087,55.217
2594.069721988235,105.175
2602.5644435408976,131.469
2611.196813145194,168.28
2619.683804921093,131.469
2628.3083212822166,344.449
2636.7875938271245,157.763
2645.404267656864,160.392
2653.875831497382,215.609
2662.343576738021,155.134
2670.948539131641,44.699
2679.408591378582,57.846
2687.8648328054915,423.33
2696.4581076233444,236.644
2704.906671724595,-49.958
2713.351432764532,181.427
2721.792393310454,65.735
2730.370143142005,21.035
2738.8034471581705,44.699
2747.232958411034,170.91
2755.658679458633,94.658
2764.220946338093,78.881
2772.639031576786,134.098
2781.053334313052,65.735
2789.463857095703,49.958
2797.8706024712737,110.434
2806.2735729839987,47.329
2814.672771175843,0.0
2823.0681995864725,160.392
2831.459860753297,181.427
2839.847757211428,118.322
2848.231891493713,239.274
2856.612266130724,-99.917
2864.988883650767,94.658
2873.3617465798743,236.644
2881.7308574418275,-81.511
2890.096218758139,94.658
2898.457833048058,199.833
2906.815702828586,-105.175
2915.169830614461,44.699
2923.5202189181878,55.217
2931.8668702499926,244.533
2940.209787117892,28.923
2948.41001618022,262.938
2956.7455337723804,160.392
2965.077324369493,-21.035
2973.405390470638,163.022
2981.7297345726547,-26.294
2989.9117125592966,149.875
2998.2286820744484,202.462
3006.5419370261297,118.322
3014.8514799023105,215.609
3023.0189130185245,149.875
3031.3211009634906,218.239
3039.619584242202,155.134
3047.776149306213,-110.434
3056.067292329164,249.791
3064.2166442633534,128.84
3072.500456765243,126.21
3080.780576892153,205.092
3088.919096831967,113.063
3097.1919010483834,354.967
3105.3232317767324,228.756
3113.588729774354,184.057
3121.712880813,241.903
3129.9710822664056,297.12
3138.0880631202745,446.995
3146.338977686973,460.142
3154.448797844241,502.212
3162.692435164703,498.978
3170.7951040967964,453.826
3178.894230970407,389.55
3187.127000956163,328.943
3195.218990740796,294.793
3203.3074454664093,309.894
3211.5293695924192,397.037
3219.610701328027,528.506
3227.688504985643,528.506
3235.899604670318,386.519
3243.9702993997853,376.002
3252.03747301393,607.387
3260.1011278165533,462.771
3268.297848330192,310.267
3276.354412870096,344.449
3284.407465536773,352.337
3292.4570086259846,370.743
3300.5030444314834,465.401
3308.545575245,268.197
3316.720827896272,128.84
3324.756296283769,470.659
3332.788266581294,436.477
3340.816741072602,354.967
3348.8417220394404,244.533
3356.8632117615925,383.89
3364.8812125168406,394.407
3372.895726580995,510.1
3380.906756227865,670.492
3388.91430372934,470.659
3396.918371355256,520.618
3404.9189613735507,541.653
3412.9160760501472,357.596
3420.909717649003,176.074
3428.8998884321263,55.594
3436.886590659553,-10.689
3444.734546370892,-29.612
3452.714376952972,-8.025
3460.690745709508,47.234
3468.663654892749,129.318
3476.633106752961,231.386
3484.5991035384795,339.19
3492.4267178764712,420.701
3500.385869715596,483.806
3508.341573175334,262.938
3516.293830496281,152.504
3524.1079469444667,65.735
3532.0533770164475,89.399
3539.9953676218797,136.728
3547.7993978646555,147.245
3555.734574435446,155.134
3563.666318194715,-31.553
3571.460281747888,144.616
3579.385224652753,270.826
3587.30674138396,81.511
3595.090657713052,294.491
3603.00538673612,-176.169
3610.782634691175,107.805
3618.6905847266535,42.07
3626.461172873067,149.875
3634.362352626544,118.322
3642.1262895150494,86.77
3650.020707677235,189.315
3657.778001843908,81.511
3665.665667090652,163.022
3673.416327056992,126.21
3681.163701429177,73.623
3689.041282322214,102.546
3696.782035212709,115.693
3704.6528847781447,23.664
3712.3870246721344,181.427
3720.117889469839,105.175
3727.845481251112,99.917
3735.702951367959,207.721
3743.4239470074463,63.105
3751.141675895298,186.686
3758.989119491133,-89.399
3766.700264858686,286.603
3774.408149723422,168.28
3782.1127761528696,60.476
3789.814146212797,186.686
3797.644959575024,141.987
3805.339767031168,126.21
3813.03132434014,97.287
3820.7196335607214,34.182
3828.404696749953,92.028
3836.086515963114,136.728
3843.76509325378,-92.028
3851.4404306737633,68.364
3859.112530273167,504.841
3866.7813941003615,212.98
3874.4470242019815,94.658
3882.109422622947,139.357
3889.7685914064414,223.497
3897.4245325939337,-57.846
3905.0772482251705,194.574
3912.7267403381848,-110.434
3920.373010969284,231.386
3928.016062153074,184.057
3935.655895922435,-52.588
3943.292514308545,594.24
3950.925919340858,273.456
3958.424585178429,181.427
3966.051624900327,144.616
3973.675457311714,252.421
3981.296084435249,262.938
3988.913508291902,110.434
3996.396478310664,307.638
4004.007556831755,452.254
4011.615438103967,-139.357
4019.220124141517,44.699
4026.690583777876,34.182
4034.288940385857,115.693
4041.8841077570687,-15.776
4049.3452186808136,252.421
4056.934068499933,147.245
4064.519735065173,44.699
4071.971514814119,89.399
4079.550875675057,89.399
4086.996462302253,139.357
4094.5695253181984,194.574
4102.008926541021,136.728
4109.575699558212,147.245
4117.008923081237,531.135
4124.569413932906,52.588
4131.996467447912,65.735
4139.550683954272,31.553
4146.971575140262,73.623
4154.519525108568,-139.357
4161.93426163181,76.252
4169.475952856366,-34.182
4228.011654085007,276.085
4235.396210255021,92.028
4242.907210725418,73.623
4250.415076793586,210.351
4257.7904449892885,383.89
4265.292102093408,-7.888
4272.790630641473,231.386
4280.156827999919,141.987
4287.649159161061,147.245
4295.138367597785,78.881
4302.4954112134365,186.686
4309.978433811593,452.254
4317.329402006981,-13.147
4324.8062464273535,81.511
4332.151146724958,149.875
4339.621820615692,152.504
4346.960660525576,265.568
4354.425171522191,155.134
4361.757958542046,99.917
4369.216314267462,-5.259
4376.543055882612,47.329
4383.9952639471885,26.294
4391.315967630617,136.728
4398.762035632179,276.085
4406.07670884455,134.098
4413.516644368407,170.91
4420.825294558097,299.75
4428.130962180556,155.134
4435.561739780205,144.616
4442.861395497304,115.693
4450.1580741507205,-57.846
4457.579710724684,163.022
4464.870388562711,218.239
4472.158094827057,141.987
4479.570607232323,199.833
4486.852323743988,184.057
4494.131074158497,297.12
4501.534479210626,431.219
4508.807250907994,94.658
4516.077061971264,-26.294
4523.3439142079005,276.085
4530.735219799091,52.588
4537.996107969229,149.875
4545.254042757973,262.938
4552.509025966887,136.728
4559.888261734326,273.456
4567.13729547953,236.644
4574.383383072374,99.917
4581.626526308552,-21.035
4588.866726982291,89.399
4596.103986886381,89.399
4603.338307812148,65.735
4610.69653172473,89.399
4617.92492857972,194.574
4625.150391852971,128.84
4632.372923329975,278.714
4639.592524794789,97.287
4646.809198030001,155.134
4654.022944816745,152.504
4661.233766934747,176.169
4668.441666162253,105.175
4675.646644276094,399.666
4682.8487030516335,302.379
4690.047844262837,157.763
4697.244069682201,107.805
4704.437381080781,176.169
4711.627780228235,131.469
4718.815268892759,120.952
4725.999848841122,126.21
4733.181521838655,202.462
4740.3602896492885,-92.028
4747.536154035501,26.294
4754.583300303697,241.903
4761.753413983191,-39.441
4768.9206294863325,31.553
4776.084948569973,218.239
4783.246372989488,178.798
4790.404904498872,362.855
4797.435032206777,163.022
4804.5878338284165,236.644
4811.73774776268,391.778
4818.884775757928,107.805
4826.028919561082,-23.664
4833.044920461813,478.548
4840.183351639585,199.833
4847.3189038270575,294.491
4854.451578765569,157.763
4861.456318765864,-26.294
4868.58329482688,212.98
4875.707398824052,52.588
4882.703723295803,113.063
4889.822138682386,199.833
4896.937687177771,-5.259
4903.925611277555,76.252
4911.035481404608,81.511
4918.142489800703,205.092
4925.122028648751,194.574
4932.223368894192,268.197
4939.197342363797,26.294
4946.293021236786,92.028
4953.385846941688,136.728
4960.35146024984,-94.658
4967.43863475923,191.945
4974.398699333346,-170.91
4981.480229398396,173.539
4988.43475186592,147.245
4995.510644227063,115.693
5002.459631204903,102.546
5009.529892591847,47.329
5016.473350686378,60.476
5023.537987818112,157.763
5030.475923625207,310.267
5037.534943210041,120.952
5044.467363315067,218.239
5051.397052412052,49.958
5058.447683028528,86.77
5065.371866252855,141.987
5072.416896017057,0.0
5079.335579928018,102.546
5086.251540943114,152.504
5093.288206657562,57.846
5100.198678149784,89.399
5107.106431592307,70.993
5114.134748143202,231.386
5121.037021830118,102.546
5127.93658230202,13.147
5134.833431158368,-134.098
5141.85065500065,231.386
5148.742037069234,94.658
5155.630712341699,139.357
5162.516682412504,44.699
5169.522839786696,-13.147
5176.403355996677,86.77
5183.281171809234,31.553
5190.156288813778,70.993
5197.028708598496,15.776
5204.021081907653,31.553
5210.888063918697,23.664
5217.752353495271,310.267
5224.613952220541,60.476
5231.472861676462,31.553
5238.329083443728,-84.14
5245.182619101804,39.441
5252.033470228904,181.427
5258.881638402017,131.469
5265.727125196914,-34.182
5272.569932188097,52.588
5279.532181775125,270.826
5286.369586094326,113.063
5293.204315354014,176.169
5300.036371123795,-105.175
5306.865754971979,128.84
5313.692468465706,-7.888
5320.516513170878,73.623
5327.216103720151,118.322
5334.034863128356,-207.721
5340.850958410447,86.77
5347.664391127459,55.217
5354.475162839211,134.098
5361.283275104273,-31.553
5368.088729480027,281.344
5374.891527522632,120.952
5381.6916707870405,55.217
5388.489160826968,-10.518
5395.162686039381,39.441
5401.954921596684,76.252
5408.744508555763,52.588
5415.531448465517,-199.833
5422.31574287366,302.379
5428.976315601984,60.476
5435.7553708175255,165.651
5442.531785139763,181.427
5449.305560111599,-13.147
5456.076697274744,191.945
5462.724355191152,120.952
5469.490268392445,168.28
5476.253548375513,92.028
5482.893493883399,110.434
5489.651558992991,18.406
5496.406995464167,115.693
5503.039241977291,105.175
5509.789472642318,128.84
5516.5370792381145,-70.993
5523.161640139158,89.399
5529.904049975114,13.147
5536.643840300443,113.063
5543.260728941095,149.875
5549.995331531944,-283.973
5556.607128017575,310.267
5563.336548861262,-81.511
5569.943259067753,-131.469
5576.667504142417,189.315
5583.269133936614,118.322
5589.988209211173,86.77
5596.58476445092,186.686
5603.298675885118,21.035
5609.890162419251,31.553
5616.598915963696,194.574
5623.185339632037,18.406
5629.888941228186,65.735
5636.470307861637,65.735
5643.16876344182,28.923
5649.745078862296,73.623
5656.438394349752,-7.888
5663.009664370256,-7.888
5669.578436568787,184.057
5676.264076103718,92.028
5682.827811578958,134.098
5689.3890535265455,115.693
5696.067030305661,49.958
5702.623244186747,123.581
5709.176968824671,120.952
5715.847296014435,126.21
5722.39600122282,86.77
5728.942221462719,13.147
5735.4859581482815,-57.846
5742.146121627004,65.735
5748.684850350968,107.805
5755.221099782248,152.504
5761.754871330697,126.21
5768.404894310675,63.105
5774.933669330552,-42.07
5781.459970716278,-197.204
5787.983799873429,139.357
5794.505158206499,42.07
5801.142549523138,-49.958
5807.658925557145,134.098
5814.172834999641,73.623
5820.684279250832,-52.588
5827.193259709879,39.441
5833.699777774898,2.629
5840.203834842934,120.952
5846.7054323099655,-23.664
5853.204571570954,10.518
5859.701254019747,333.932
5866.195481049195,73.623
5872.687254051074,231.386
5879.176574416102,-49.958
5885.663443533944,52.588
5892.14786279323,-55.217
5898.629833581537,184.057
5905.109357285379,55.217
5911.586435290243,15.776
5918.061068980562,28.923
5924.533259739736,36.811
5931.003008950094,49.958
5937.470317992949,5.259
5943.935188248557,76.252
5950.397621096134,157.763
5956.857617913869,86.77
5963.315180078898,152.504
5969.7703089673305,34.182
5976.105705888956,42.07
5982.556016527509,152.504
5989.003897986593,207.721
5995.449351638199,39.441
6001.8923788532775,-13.147
6008.215900781644,173.539
6014.654123287393,165.651
6021.089923438405,68.364
6027.523302601519,131.469
6033.954262142564,84.14
6040.265942433929,278.714
6046.692110755517,-15.776
6053.115863521547,76.252
6059.420472023492,107.805
6065.839441620141,55.217
6072.255999718647,110.434
6078.553548309683,160.392
6084.965331270854,191.945
6091.374706782226,302.379
6097.665207314269,-97.287
6104.06981570238,186.686
6110.472020679961,184.057
6116.755484978421,123.581
6123.152930828903,378.631
6129.431725134898,352.337
6135.824417162912,184.057
6142.098546680769,173.539
6148.486490183052,31.553
6154.872039648391,-39.441
6161.139160374798,42.07
6167.519969269015,86.77
6173.782438208022,15.776
6180.158511808193,23.664
6186.416334137088,265.568
6192.787677712448,63.105
6199.040858600842,123.581
6205.291741972564,60.476
6211.656022022646,97.287
6217.902271670246,47.329
6224.261834810408,49.958
6230.503455884398,13.147
6236.742785809074,-15.776
6243.095304999864,92.028
6249.330014038809,49.958
6255.677829386121,99.917
6261.907922670827,163.022
6268.1357311500615,65.735
6274.476522051649,-31.553
6280.699722436162,-28.923
6286.920641805642,-10.518
6293.139281413962,291.861
6299.470738832184,-5.259
6305.684780516531,-47.329
6311.896546218988,-139.357
6318.106037189755,57.846
6324.428181717434,26.294
6330.633084905065,-5.259
6336.835717129172,-118.322
6343.036079636258,10.518
6349.234173671932,226.127
6355.544716640681,-10.518
6361.738235515753,134.098
6367.929489673777,81.511
6374.118480356665,86.77
6380.305208805476,139.357
6386.489676260331,152.504
6392.671883960451,60.476
6398.851833144166,-97.287
6405.143905470883,57.846
6411.319299566196,44.699
6417.492438877496,-10.518
6423.663324639478,131.469
6429.831958085924,134.098
6435.998340449718,63.105
6442.162472962846,-205.092
6448.324356856407,89.399
6454.483993360576,-73.623
6460.641383704664,78.881
6466.79652911704,168.28
6472.949430825232,94.658
6479.100090055821,141.987
6485.248508034543,55.217
6491.280888225534,55.217
6497.424868822251,13.147
6503.5666118162335,120.952
6509.706118429633,78.881
6515.843389883739,52.588
6521.978427398899,234.015
6528.111232194642,115.693
6534.241805489546,-128.84
6540.256680928833,336.561
6546.382836142315,168.28
6552.506763482961,105.175
6558.628464165849,15.776
6564.747939405184,42.07
6570.751928194237,194.574
6576.866997341494,52.588
6582.979844660076,10.518
6589.090471360658,136.728
6595.0857801617385,113.063
6601.192010321647,-7.888
6607.296023467985,-26.294
6613.39782080795,155.134
6619.384468430493,283.973
6625.481878753591,73.623
6631.577076864334,2.629
6637.5572509579,110.434
6643.64806916556,76.252
6649.623946782151,39.441
6655.71038980603,5.259
6661.794626582923,23.664
6667.764048126817,10.518
6673.843916808139,252.421
6679.809053455574,115.693
6685.884558743659,55.217
6691.957863728712,141.987
6697.916561697035,202.462
6703.985510351609,60.476
6709.939934962422,163.022
6716.004531971987,-186.686
6721.954687820689,189.315
6728.014937863976,139.357
6733.960829539363,76.252
6739.904610751524,92.028
6745.95836937274,-39.441
6751.897893261092,241.903
6757.947316561804,81.511
6763.8825876987685,5.259
6769.927680334353,2.629
6775.858703285812,199.833
6781.787623684751,-5.259
6787.826249230238,60.476
6793.750928258974,152.504
6799.673508107371,-84.14
6805.705676935038,149.875
6811.624022213946,339.19
6817.540271677499,73.623
6823.5659941374615,-57.846
6829.478015817709,-28.923
6835.387945040406,21.035
6841.407231460638,99.917
6847.312939671727,105.175
6853.216558775894,128.84
6859.118089881435,402.295
6865.017534095896,39.441
6871.026143398485,202.462
6876.921377827312,236.644
6882.814528703813,-18.406
6888.705597132364,92.028
6894.594584216582,157.763
6900.592544785228,147.245
6906.477333270021,-7.888
6912.360043737404,110.434
6918.240677287846,168.28
6924.119235021055,155.134
6929.995718035963,105.175
6935.870127430717,120.952
6941.742464302697,239.274
6947.6127297485,205.092
6953.480924863958,163.022
6959.347050744116,15.776
6965.21110848328,441.736
6971.073099174937,118.322
6976.93302391185,-5.259
6982.79088378598,0.0
6988.64667988853,65.735
6994.500413309928,89.399
7000.35208513985,360.225
7006.201696467178,165.651
7012.049248380063,173.539
7017.894741965851,26.294
7023.738178311156,63.105
7029.579558501813,297.12
7035.418883622879,155.134
7041.2561547586665,81.511
7047.091372992727,131.469
7052.924539407839,136.728
7058.645653010426,44.699
7064.474757695687,134.098
7070.301813785409,68.364
7076.126822359336,47.329
7081.949784496486,65.735
7087.660891581778,81.511
7093.479802640664,86.77
7099.296670474898,165.651
7105.111496160462,197.204
7110.814624476749,165.651
7116.625407570507,47.329
7122.434151718757,73.623
7128.2408579944895,-86.77
7133.936024250346,42.07
7139.73869639702,152.504
7145.53933386541,-73.623
7151.22854892195,47.329
7157.025158582874,-70.993
7162.819736753059,178.798
7168.503009933542,-10.518
7174.293566604632,57.846
7180.082094965896,78.881
7185.759435574095,115.693
7191.54394873148,36.811
7197.2173519438,-7.888
7202.997854073568,13.147
7208.667323984642,15.776
7214.443819257263,-23.664
7220.109359956041,-84.14
7225.881852536215,78.881
7231.54346810597,70.993
7237.311962152613,23.664
7242.969656670975,186.686
7248.734156337254,107.805
7254.387933876205,42.07
7260.148443309525,31.553
7265.798307935409,81.511
7271.554831277448,131.469
7277.20078705097,81.511
7282.953328437674,218.239
7288.59537941395,26.294
7294.235498085545,-55.217
7299.982093204053,123.581
7305.618313131272,92.028
7311.252603748333,31.553
7316.993261813666,128.84
7322.623659726734,63.105
7328.252131317968,-7.888
7333.9868615261075,2.629
7339.611446441268,36.811
7345.234108016753,28.923
7350.962919544712,13.147
7356.581700459581,163.022
7362.198561010817,99.917
7367.813502182726,68.364
7373.426524958988,157.763
7379.145517410223,141.987
7384.7546694986595,152.504
7390.361906157261,2.629
7395.967228366993,-26.294
7401.570637108154,28.923
7407.279835705631,-97.287
7412.879383697611,163.022
7418.477021176703,-5.259
7424.072749120482,134.098
7429.666568505905,21.035
7435.258480309247,139.357
7440.848485506111,-26.294
7446.436585071431,110.434
7452.022779979503,226.127
7457.607071203925,28.923
7463.296794702215,197.204
7468.877244915177,-44.699
7474.455794380043,268.197
7480.032444067743,131.469
7485.607194948596,147.245
7491.18004799222,0.0
7496.751004167574,94.658
7502.2129850032,-84.14
7507.7801867781745,168.28
7513.345494569261,60.476
7518.908909342786,63.105
7524.470432064445,110.434
7530.03006369928,149.875
7535.587805211653,-26.294
7541.1436575652915,123.581
7546.697621723266,73.623
7552.249698647978,113.063
7557.693172648,49.958
7563.241514237732,139.357
7568.787971459049,70.993
7574.332545271769,170.91
7579.87523663506,-26.294
7585.416046507413,89.399
7590.848475703144,47.329
7596.385561603231,120.952
7601.920768865631,70.993
7607.454098446255,78.881
7612.879194899509,136.728
7618.4088080453,-49.958
7623.936546354853,144.616
7629.462410781522,81.511
7634.880189328982,49.958
7640.402344837916,63.105
7645.9226293018255,-136.728
7651.334937948188,212.98
7656.851519109852,165.651
7662.260197498763,134.098
7667.773079083498,141.987
7673.284094334183,42.07
7678.687316594296,134.098
7684.194637864675,76.252
7689.7000956236625,-28.923
7695.097870006797,-7.888
7700.599639370841,-73.623
7705.993798107356,94.658
7711.491882781789,113.063
7716.882429503323,31.553
7722.376833188511,-73.623
7727.763771521855,134.098
7733.254497913214,223.497
7738.637831480286,-176.169
7744.124884268305,47.329
7749.504616686187,118.322
7754.987999556393,-18.406
7760.364134437317,113.063
7765.738489349154,-13.147
7771.216392021717,94.658
7776.587154788423,102.546
7782.061396717661,-28.923
7787.428570939446,10.518
7792.793969640064,57.846
7798.262745065967,52.588
7803.624560595526,57.846
7808.984603262106,13.147
7814.447920368751,205.092
7819.804385227417,39.441
7825.159079875983,49.958
7830.616946831127,-144.616
7835.968069024231,149.875
7841.317423654822,65.735
7846.665011598543,0.0
7852.115636126822,-57.846
7857.459658723532,189.315
7862.801917273948,134.098
7868.142412651388,15.776
7873.481145728587,47.329
7878.922746278997,42.07
7884.257922859626,270.826
7889.59133977185,63.105
7894.922997886111,31.553
7900.252898072242,115.693
7905.581041199541,65.735
7910.907428136696,170.91
7916.336446752692,15.776
7921.65928952102,-107.805
7926.980378718883,7.888
7932.29971521271,47.329
7937.617299868325,128.84
7942.933133550996,28.923
7948.247217125423,160.392
7953.559551455743,31.553
7958.870137405502,92.028
7964.178975837705,223.497
7969.486067614758,28.923
7974.791413598527,105.175
7980.0950146503055,-2.629
7985.396871630804,23.664
7990.696985400187,-10.518
7995.995356818043,55.217
8001.291986743403,28.923
8006.586876034729,47.329
8011.880025549901,-94.658
8017.067699705829,15.776
8022.357406311574,-7.888
8027.645375694708,99.917
8032.931608710882,97.287
8038.216106215201,-118.322
8043.498869062179,2.629
8048.779898105804,57.846
8053.955695240969,228.756
8059.233293192043,-86.77
8064.509159881611,2.629
8069.783296161415,197.204
8074.952338977277,57.846
8080.223050878609,212.98
8085.492034905405,118.322
8090.759291907168,-141.987
8095.921593616502,126.21
8101.185432936367,5.259
8106.447547759821,128.84
8111.604810570996,39.441
8116.863512715307,84.14
8122.120492886879,-105.175
8127.272724173963,-118.322
8132.526296659391,199.833
8137.778149690843,57.846
8142.925356813517,-7.888
8148.173807142077,10.518
8153.4205405305,-89.399
8158.562730834117,73.623
8163.806066493191,39.441
8168.944927307508,102.546
8174.184868536668,78.881
8179.32040309432,57.846
8184.55695318873,60.476
8189.689164718173,-97.287
8194.922326968728,239.274
8200.051218694258,21.035
8205.280996387602,73.623
8210.406571529322,163.022
8215.632967947844,-26.294
8220.7552297217,63.105
8225.978248143558,92.028
8231.097199761349,168.28
8236.316843460441,28.923
8241.43248812982,-60.476
8246.546496881761,26.294
8251.76110130029,-276.085
8256.871807891675,31.553
8261.98088093357,173.539
8267.190453365733,123.581
8272.296229025691,110.434
8277.400373499535,84.14
8282.604921225458,31.553
8287.705773086778,118.322
8292.804996120794,155.134
8298.004526406577,-21.035
8303.100461588281,149.875
8308.194770296956,-55.217
8313.28745331115,23.664
8318.48031600209,199.833
8323.569717486189,-10.518
8328.657495624051,18.406
8333.743651192239,57.846
8338.828184966831,244.533
8344.012739449463,65.735
8349.093999566121,-84.14
8354.17364022991,-23.664
8359.251662214898,-52.588
8364.328066294685,-13.147
8369.402853242376,70.993
8374.476023830553,18.406
8379.547578831349,-7.888
8384.718901354245,60.476
8389.787195221597,105.175
8394.853875830348,31.553
8399.91894395064,84.14
8404.98240035212,31.553
8410.044245803958,115.693
8415.104481074803,94.658
8420.163106932847,-13.147
8425.220124145773,115.693
8430.275533480788,-52.588
8435.32933570461,44.699
8440.381531583458,174.468
8445.432121883085,282.888
8450.48110736873,360.949
8455.528488805172,399.635
8460.473367100913,389.932
8465.51757477424,322.83
8470.560180674485,189.315
8475.601185564497,31.553
8480.64059020661,-2.629
8485.67839536271,-110.434
8490.714601794163,134.098
8495.749210261878,-68.364
8500.681576948675,-118.322
8505.713023691114,-110.434
8510.742874734438,15.776
8515.771130837642,31.553
8520.797792759218,163.022
8525.722375497866,-218.239
8530.745883175656,18.406
8535.7677989293,-197.204
8540.788123515384,47.329
8545.706498587671,44.699
8550.723674892208,260.309
8555.739262280982,-47.329
8560.652997083213,-31.553
8565.665440644778,65.735
8570.676297538128,-149.875
8575.585398634048,-105.175
8580.593116146138,65.735
8585.599249233324,60.476
8590.503723174297,-26.294
8595.506721317797,76.252
8600.508137275468,120.952
8605.40799060051,-168.28
8610.406276043708,-184.057
8615.303062904772,36.811
8620.298220771765,152.504
8625.191944046568,-39.441
8630.18397727198,-13.147
8635.074639834631,-92.028
8640.063551349394,-18.406
8644.951156070434,-60.476
8649.936948801806,-81.511
8654.821498548154,76.252
8659.804175419777,228.756
8664.685673054784,-44.699
8669.665236986599,165.651
8674.543685370048,-84.14
8679.520139278378,-94.658
8684.395541266465,-462.771
8689.2694364983,86.77
8694.241246509358,92.028
8699.112099609058,-305.008
8703.981448060618,15.776
8708.948620671701,28.923
8713.81493124642,39.441
8718.779005433622,-21.035
8723.642280973501,26.294
8728.504055374753,-70.993
8733.364329332315,-97.287
8738.32224658698,-115.693
8743.179491154478,-15.776
8748.035237374625,47.329
8752.889485940628,-5.259
8757.8412577103,-84.14
8762.692482517024,2.629
8767.542211760752,-15.776
8772.39044613298,-331.302
8777.336083836857,-63.105
8782.18130006664,-68.364
8787.02502351089,-126.21
8791.867254859393,78.881
8796.707994801498,-191.945
8801.547244026118,-21.035
8806.385003221756,134.098
8811.319956958603,-15.776
8816.154707786565,207.721
8820.987970662514,5.259
8825.819746273257,65.735
8830.650035305174,-68.364
8835.478838444196,13.147
8840.306156375878,119.77
8845.131989785303,207.309
8849.956339357173,268.144
8854.779205775758,294.654
8859.60058972489,279.219
8864.420491888006,214.216
8869.238912948098,92.028
8874.055853587757,-31.553
8878.871314489159,26.294
8883.685296334032,5.259
8888.497799803714,2.629
8893.308825579123,-21.035
8898.118374340735,-128.84
8902.926446768637,-31.553
8907.634964476681,13.147
8912.440116370435,81.511
8917.243793954342,-57.846
8922.045997906822,-189.315
8926.846728905857,2.629
8931.645987629043,-28.923
8936.443774753548,0.0
8941.142221650607,-44.699
8945.937097605834,42.07
8950.73050397759,92.028
8955.522441441404,-123.581
8960.215160665939,-10.518
8965.004192282166,-126.21
8969.791757000756,-149.875
8974.577855495572,-163.022
8979.26485751475,36.811
8984.048055470721,52.588
8988.829789208343,-170.91
8993.51251749025,110.434
8998.291354655303,21.035
9003.068729603765,-84.14
9007.747189991118,-15.776
9012.521672326067,21.035
9017.294694442531,13.147
9021.968892767374,94.658
9026.739026222178,-110.434
9031.41039612206,-212.98
9036.17764353675,-60.476
9040.943434050514,2.629
9045.610551571128,15.776
9050.373459984672,-326.043
9055.037755503963,78.881
9059.797784430888,-107.805
9064.45926050758,99.917
9069.216412558366,39.441
9073.87507174812,99.917
9078.629349530078,-31.553
9083.285194385431,-36.811
9088.036600502714,73.623
9092.689633573158,-76.252
9097.438170626783,-157.763
9102.088394458704,34.182
9106.73722909284,89.399
9111.481482183284,81.511
9116.12751137963,28.923
9120.868901881862,36.811
9125.512128179163,31.553
9130.153968412898,39.441
9134.891084617178,328.673
9139.53012574118,-184.057
9144.167782675046,-21.035
9148.9006303586,36.811
9153.535491965213,-155.134
9158.168971251744,-28.923
9162.801068836525,-163.022
9167.528243916331,-26.294
9172.157551197888,-110.434
9176.785478643267,-113.063
9181.412026869286,52.588
9186.13353953768,-18.406
9190.757302472506,60.476
9195.37968804908,23.664
9200.000696882766,21.035
9204.620329588544,-7.888
9209.334785850184,92.028
9213.951639506451,-92.028
9218.567118890363,15.776
9223.181224615444,-7.888
9227.79395729483,44.699
9232.40531754132,-155.134
9237.015305967328,15.776
9241.623923184923,47.329
9246.23116980579,-42.07
9250.932987640888,-21.035
9255.537466379788,-23.664
9260.140576367572,68.364
9264.742318214474,28.923
9269.342692530376,194.574
9273.941699924766,236.644
9278.539341006806,-49.958
9283.135616385269,-73.623
9287.730526668583,-60.476
9292.324072464791,-186.686
9296.91625438162,36.811
9301.411444872112,0.0
9306.00092923447,47.329
9310.589051525738,47.329
9315.175812352172,-89.399
9319.761212319692,105.175
9324.345252033823,-84.14
9328.927932099774,23.664
9333.509253122353,-81.511
9338.08921570604,34.182
9342.572446701386,57.846
9347.149722488744,-131.469
9351.7256416359,-49.958
9356.300204745894,181.427
9360.873412421412,-239.274
9365.350032145325,-26.294
9369.920558965528,31.553
9374.489732144635,134.098
9379.05755228394,13.147
9383.528899030936,-44.699
9388.09404305015,-86.77
9392.657835818722,42.07
9397.125240831178,-26.294
9401.6863610176,76.252
9406.246131739394,28.923
9410.80455359534,-18.406
9415.266701898625,42.07
9419.822455888205,-47.329
9424.281993052333,-297.12
9428.835081516963,236.644
9433.38682407955,160.392
9437.84243511156,102.546
9442.391515668474,-70.993
9446.84452129656,78.881
9451.390942182352,-78.881
9455.93602012123,0.0
9460.385108237591,-57.846
9464.927530014324,-47.329
9469.374018445214,57.846
9473.913786387537,36.811
9478.35767741084,-7.888
9482.894793843763,-26.294
9487.33608973474,42.07
9491.87055698055,-207.721
9496.30926001177,-15.776
9500.74668109923,-97.287
9505.277192831463,15.776
9509.71202445114,-44.699
9514.23989277796,-18.406
9518.672137195834,-215.609
9523.103102466685,-105.175
9527.62702390948,-5.259
9532.05540536064,94.658
9536.57668916292,92.028
9541.002489053764,-186.686
9545.42701258622,60.476
9549.850260312329,-110.434
9554.36630345335,399.666
9558.78697410632,-99.917
9563.206370618926,-76.252
9567.718482324255,47.329
9572.13530512818,110.434
9576.550855454823,-86.77
9580.965133854,-49.958
9585.47202083257,78.881
9589.883729992052,65.735
9594.294168883298,-42.07
9598.703338054846,76.252
9603.111238054931,5.259
9607.611613766734,113.063
9612.016950092931,55.217
9616.421018902103,-134.098
9620.823820741218,-113.063
9625.225356156909,-57.846
9629.625625695517,-65.735
9634.02462990307,-34.182
9638.422369325252,-113.063
9642.81884450748,34.182
9647.21405599481,297.12
9651.701478874824,-21.035
9656.094137748323,-39.441
9660.485534571855,-42.07
9664.875669889248,-110.434
9669.264544244,-15.776
9673.65215817932,-131.469
9678.03851223808,-207.721
9682.423606962846,78.881
9686.807442895892,-5.259
9691.19002057915,-52.588
9695.478134071804,5.259
9699.858223622705,-10.518
9704.23705653629,-81.511
9708.614633353289,168.28
9712.990954614088,-23.664
9717.36602085878,2.629
9721.739832627154,-78.881
9726.112390458671,-344.449
9730.483694892511,34.182
9734.760779687776,-34.182
9739.129605581998,60.476
9743.497179682729,52.588
9747.863502527893,-97.287
9752.228574655115,2.629
9756.499562339395,-5.259
9760.862161224974,10.518
9765.223510992222,-2.629
9769.583612177565,23.664
9773.849736751828,-212.98
9778.207368918504,15.776
9782.563754099236,-2.629
9786.918892829211,70.993
9791.18016259473,73.623
9795.532836519418,76.252
9799.884265585692,-163.022
9804.14190615754,78.881
9808.490873566669,107.805
9812.83859770701,10.518
9817.09261371952,-307.638
9821.437879345483,-23.664
9825.689490172908,15.776
9830.032299369228,2.629
9834.373867936378,-176.169
9838.621861899856,-105.175
9842.960977171238,-13.147
9847.206571054325,7.888
9851.543235108787,21.035
9855.786430944943,89.399
9860.12064585897,-49.958
9864.361445679362,-52.588
9868.693213527116,39.441
9872.931619360628,97.287
9877.26094221391,81.511
9881.49695608711,-276.085
9885.823836015392,144.616
9890.057459952584,268.197
9894.289902518456,89.399
9898.613135046206,-7.888
9902.843190697367,186.686
9907.163985452502,18.406
9911.391656207565,18.406
9915.61814808206,68.364
9919.935303126713,18.406
9924.15941311792,-5.259
9928.38234571751,49.958
9932.695865648708,65.735
9936.91641937277,-147.245
9941.135797191648,110.434
9945.445686598703,5.259
9949.662688544726,155.134
9953.878516069532,-57.846
9958.09316966365,78.881
9962.398234183594,-60.476
9966.61051589339,23.664
9970.821625153134,-81.511
9975.031562452265,23.664
9979.240328279942,52.588
9983.53937957713,-55.217
9987.745778488254,212.98
9991.95100740443,52.588
9996.155066813732,-28.923
10000.357957203963,-57.846
10004.55967906266,-5.259
10008.760232877092,39.441
10013.050897176752,34.182
10017.249090997648,5.259
10021.446118245014,39.441
10025.641979405023,-60.476
10029.83667496358,-57.846
10034.03020540632,-13.147
10038.222571218605,44.699
10042.413772885537,128.84
10046.603810891938,-234.015
10050.79268572236,-212.98
10054.980397861098,42.07
10059.16694779218,315.526
10063.352335999334,-23.664
10067.536562966066,-115.693
10071.719629175575,-84.14
10075.90153511081,39.441
10080.082281254454,99.917
10084.26186808891,-7.888
10088.440296096323,97.287
10092.52676786215,-55.217
10096.702904826674,-13.147
10100.877884398516,31.553
10105.051707058765,189.315
10109.224373288234,123.581
10113.395883567471,134.098
10117.475590772649,44.699
10121.64481569536,86.77
10125.812886097472,26.294
10129.979802458443,34.182
10134.145565257517,-13.147
10138.219652237512,57.846
10142.383134400929,-76.252
10146.545464428116,63.105
10150.706642797257,-123.581
10154.776246850048,123.581
10158.935148346747,0.0
10163.092899607942,-47.329
10167.159152430871,81.511
10171.314629631466,-99.917
10175.468958016776,-141.987
10179.531863747628,-5.259
10183.683920879565,149.875
10187.834830614069,-86.77
10191.894393383842,-10.518
10196.043034667582,-36.811
10200.190529969435,-89.399
10204.246753902304,191.945
10208.391983551395,141.987
10212.44599199288,52.588
10216.588957845182,-107.805
10220.640752609928,-89.399
10224.781456519388,76.252
10228.831039420063,73.623
10232.969483238625,44.699
10237.016856085897,63.105
10241.15304166346,-94.658
10245.19820626604,215.609
10249.332135450502,13.147
10253.375093615126,86.77
10257.506768252357,-15.776
10261.547521783785,47.329
10265.58718577827,-21.035
10269.715494418666,123.581
10273.752956473523,-7.888
10277.87901516247,107.805
10281.91427707755,5.259
10285.948451675904,-42.07
10290.0711512271,-7.888
10294.10312837192,-86.77
10298.13401952729,-55.217
10302.253364041218,26.294
10306.282060424935,-21.035
10310.309672144327,115.693
10314.425665714796,26.294
10318.451085340042,-7.888
10322.475421623927,-63.105
10326.498675003731,268.197
10330.610215200984,36.811
10334.631280043344,73.623
10338.651263301725,-21.035
10342.670165412448,81.511
10346.687986811625,42.07
10350.704727935088,-136.728
10354.80961387438,-23.664
10358.824171771252,99.917
10362.837650708272,-57.846
10366.850051120337,70.993
10370.86137344214,15.776
10374.871618108127,163.022
10378.880785552512,-102.546
10382.888876209276,-436.477
10386.984923052532,39.441
10390.990837530662,218.239
10394.995676531347,-155.134
10398.999440487634,2.629
10403.00212983234,47.329
10407.003744998048,-239.274
10411.004286417105,-21.035
10415.003754521616,97.287
10419.002149743475,-15.776
10422.999472514348,99.917
10426.995723265634,-94.658
10430.990902428544,-18.406
10434.985010434026,42.07
10438.889325180557,34.182
10442.881315942828,5.259
10446.872236829608,-94.658
10450.86208827093,-44.699
10454.85087069661,28.923
10458.838584536235,-23.664
10462.82523021915,-76.252
10466.810808174472,-15.776
10470.706785742112,52.588
10474.690253232264,-102.546
10478.672654271297,-65.735
10482.653989287404,60.476
10486.634258708573,34.182
10490.525047770485,55.217
10494.50321094102,31.553
10498.480309789697,-105.175
10502.45634474356,-215.609
10506.342995080442,-36.811
10510.316927143493,-63.105
10514.2897965821,13.147
10518.261603822417,-86.77
10522.144122034457,-13.147
10526.113829736623,68.364
10530.082476508169,-44.699
10533.961905709137,68.364
10537.92845544769,197.204
10541.89394552126,234.015
10545.770289396216,-7.888
10549.733684937964,42.07
10553.607981637546,-55.217
10557.569284306495,-163.022
10561.52952941227,73.623
10565.400746905443,15.776
10569.35890163298,-31.553
10573.22807600992,110.434
10577.184142013864,28.923
10581.05127489159,186.686
10585.005253824836,-173.539
10588.87034681866,-89.399
10592.822240332363,39.441
10596.685295055897,-39.441
10600.635104799476,-26.294
10604.496122864624,-21.035
10608.443850485746,-105.175
10612.302833502728,-47.329
10616.160811022752,-73.623
10620.10543022464,102.546
10623.9613750996,36.811
10627.903916281392,-86.77
10631.757830117263,-94.658
10635.61074043666,-7.888
10639.550179321655,21.035
10643.401060998756,-178.798
10647.250940343372,-102.546
10651.187280591832,86.77
10655.035133687184,-42.07
10658.881985632182,-155.134
10662.815230898605,34.182
10666.660058983602,13.147
10670.50388709854,89.399
10674.346715633475,-21.035
10678.275847672114,-34.182
10682.116655520924,-26.294
10685.956464967534,-47.329
10689.795276401208,120.952
10693.633090210977,-7.888
10697.557095575656,-49.958
10701.39289265285,34.182
10705.227693280882,352.337
10709.061497847986,-152.504
10712.894306742182,128.84
10716.726120351308,94.658
10720.55693906298,-15.776
10724.386763264632,-10.518
10728.302600658342,-31.553
10732.130414421008,81.511
10735.957234843503,123.581
10739.783062312445,28.923
10743.60789721425,-84.14
10747.431739935131,7.888
10751.254590861114,5.259
10755.076450378,47.329
10758.897318871408,305.008
10762.717196726757,0.0
10766.536084329256,186.686
10770.353982063916,49.958
10774.170890315563,-15.776
10777.98680946881,63.105
10781.801739908076,-339.19
10785.615682017564,-26.294
10789.341989100834,-70.993
10793.153978142976,123.581
10796.964979998098,-18.406
10800.774995049622,-168.28
10804.58402368077,21.035
10808.392066274577,-70.993
10812.199123213884,-70.993
10816.005194881312,-228.756
10819.723813349112,21.035
10823.52793799081,89.399
10827.331078498672,-63.105
10831.133235254529,34.182
10834.848029253728,-31.553
10838.64824198676,105.175
10842.447472103491,10.518
10846.24571998498,-2.629
10849.956695412544,7.888
10853.753002267928,-86.77
10857.548328021428,-34.182
10861.342673053316,-89.399
10865.049835794096,-92.028
10868.842242790466,178.798
10872.63367019626,10.518
10876.337982712816,178.798
10880.12747431772,-5.259
10883.82989575329,63.105
10887.617453039476,-312.896
10891.404032613404,36.811
10895.103609289945,-92.028
10898.88825677408,-70.993
10902.585945994537,23.664
10906.368662867266,52.588
10910.150403901262,36.811
10913.845253813895,73.623
10917.62506645972,-141.987
10921.318032531915,18.406
10925.095918264182,0.0
10928.787001936307,-84.14
10932.562962228116,84.14
10936.252164939066,0.0
10939.940438510435,-113.063
10943.713524449233,-107.805
10947.399919206764,-2.629
10951.171083372872,-34.182
10954.855600751816,-28.923
10958.62484461311,-147.245
10962.307486047235,-34.182
10965.989200819247,21.035
10969.755577991731,55.217
10973.435418958636,-63.105
10977.114334320191,-84.14
10980.877848072992,-99.917
10984.554891765896,-13.147
10988.231010908596,-31.553
10991.991664505884,2.629
10995.665914113146,-36.811
10999.33924022374,-49.958
11003.011643185791,-63.105
11006.768495629847,65.735
11010.439031890255,-18.406
11014.108646053544,-7.888
11017.777338467138,-99.917
11021.530395518184,-289.232
11025.197224058184,39.441
11028.863131897786,-170.91
11032.528119383707,18.406
11036.192186862492,118.322
11039.855334680517,2.629
11043.602720353196,-131.469
11047.264008520897,-197.204
11050.924378073953,39.441
11054.58382935806,120.952
11058.242362718707,-89.399
11061.899978501227,-147.245
11065.556677050785,21.035
11069.21245871235,120.952
11072.867323830738,39.441
11076.521272750586,-113.063
11080.174305816368,-44.699
11083.826423372368,120.952
11087.477625762698,-244.533
11091.127913331318,99.917
11094.777286422,13.147
11098.425745378345,-157.763
11102.073290543767,-42.07
11105.719922261547,65.735
11109.36564087477,-163.022
11113.010446726335,-68.364
11116.654340159006,15.776
11120.29732151534,-44.699
11123.93939113774,-81.511
11127.580549368427,-7.888
11131.22079654947,68.364
11134.77550763161,-63.105
11138.413954906267,-89.399
11142.051492148485,26.294
11145.688119699626,-92.028
11149.323837900913,-13.147
11152.958647093375,31.553
11156.508048620988,34.182
11160.141061938251,65.735
11163.773167260852,39.441
11167.40436492916,68.364
11170.950240228543,107.805
11174.579644697213,-5.259
11178.208142523734,31.553
11181.751381744987,-47.329
11185.378088371155,15.776
11189.003889365817,-36.811
11192.628785068173,92.028
11196.16850723805,205.092
11199.79161440632,0.0
11203.413817290922,28.923
11206.950910239968,-197.204
11210.571326582844,-270.826
11214.10667518314,28.923
11217.725306305692,-73.623
11221.343034819707,-21.035
11224.875759069631,-39.441
11228.49170435076,10.518
11232.022687482247,-102.546
11235.636850848638,-181.427
11239.166094148528,-23.664
11242.778476917028,-118.322
11246.305981670925,-89.399
11249.91658515709,73.623
11253.442352649325,-157.763
11257.05117816741,-155.134
11260.575209681025,23.664
11264.182258544,-28.923
11267.704555360804,70.993
11271.309828880325,52.588
11274.83039228086,-76.252
11278.350099642112,-5.259
11281.952723030843,15.776
11285.470698886753,170.91
11288.987819646914,26.294
11292.587795825824,234.015
11296.103186988752,136.728
11299.70139304264,84.14
11303.215055883851,-81.511
11306.727865201254,-26.294
11310.23982130582,-120.952
11313.834511810855,94.658
11317.34474212601,-5.259
11320.8541201677,262.938
11324.446172200132,-44.699
11327.953826352135,-84.14
11331.460629168672,-65.735
11334.96658095964,-76.252
11338.471682034791,36.811
11342.059356881087,63.105
11345.562737216636,-170.91
11349.06526777208,-99.917
11352.566948856567,-63.105
11356.067780779093,78.881
11359.56776384851,147.245
11363.1502007606,-97.287
11366.648466857394,2.629
11370.145885034064,2.629
11373.642455598843,-247.162
11377.138178859836,-94.658
11380.633055125,215.609
11384.1270847021,131.469
11387.620267898808,-131.469
11391.112605022612,165.651
11394.60409638087,-47.329
11398.094742280777,86.77
11401.584543029392,241.903
11405.073498933603,-2.629
11408.561610300185,-123.581
11412.048877435727,297.12
11415.5353006467,-36.811
11419.020880239405,-134.098
11422.505616520008,70.993
11425.989509794525,123.581
11429.472560368817,15.776
11432.954768548592,-173.539
11436.43613463944,2.629
11439.916658946764,-36.811
11443.313501961433,13.147
11446.79236364179,-60.476
11450.270384446749,336.561
11453.74756468115,7.888
11457.22390464968,21.035
11460.699404656869,-10.518
11464.091344754375,102.546
11467.565185732994,92.028
11471.038187655771,-34.182
11474.51035082668,-52.588
11477.981675549512,-13.147
11481.369541233144,89.399
11484.839209915755,-181.427
11488.30804105362,2.629
11491.693473394258,-44.699
11495.16065027576,-31.553
11498.626990514544,39.441
11502.092494413417,-55.217
11505.474679896604,65.735
11508.938531918346,-65.735
11512.401548500471,-149.875
11515.78130675673,-63.105
11519.242673239612,57.846
11522.620821260369,0.0
11526.080538823127,157.763
11529.5394224415,141.987
11532.915147579475,-218.239
11536.372384051368,-194.574
11539.74650183491,21.035
11543.202092336618,-65.735
11546.574603913472,-39.441
11550.028549620163,126.21
11553.399456136987,-10.518
11556.85175822272,2.629
11560.221060825072,10.518
11563.67172046279,5.259
11567.039420295116,-157.763
11570.488438656655,89.399
11573.854536862347,-15.776
11577.301915118398,-18.406
11580.666412839755,-2.629
11584.030120381583,44.699
11587.475050538147,-13.147
11590.837159300165,144.616
11594.280452266124,84.14
11597.64096338792,42.07
11601.000685734118,-68.364
11604.441534950183,92.028
11607.79966135666,2.629
11611.156999826935,26.294
11614.59540789372,-92.028
11617.951152122365,65.735
11621.306109253032,-81.511
11624.66027956261,-39.441
11628.09544335218,-84.14
11631.44802167594,-60.476
11634.799814015252,-68.364
11638.15082064648,-34.182
11641.58274474832,-7.888
11644.932161645294,73.623
11648.280793669244,42.07
11651.62864109602,-47.329
11654.975704201344,-44.699
11658.403590030808,-70.993
11661.749066206958,70.993
11665.093758894744,-149.875
11668.43766836938,-78.881
11671.780794905935,-23.664
11675.12313877933,-76.252
11678.4647002644,-55.217
11681.805479635816,-23.664
11685.145477168146,52.588
11688.484693135812,15.776
11691.904543291126,-89.399
11695.24217790648,102.546
11698.579031786354,73.623
11701.915105204676,-76.252
11705.25039843522,28.923
11708.584911751648,15.776
11711.918645427471,-18.406
11715.251599736104,84.14
11718.502511651865,21.035
11721.83392703817,92.028
11725.164563870054,-68.364
11728.4944224204,-89.399
11731.823502961994,310.267
11735.15180576744,57.846
11738.479331109273,78.881
11741.806079259855,89.399
11745.132050491462,49.958
11748.457245076206,-57.846
11751.70058915004,-55.217
11755.024250183047,73.623
11758.34713537819,110.434
11761.669245007088,44.699
11764.990579341233,-439.107
11768.230158619372,-10.518
11771.549962071174,84.14
11774.86899103535,-5.259
11778.187245782876,5.259
11781.423821624776,-215.609
11784.740547618409,-26.294
11788.05650020102,-78.881
11791.371679643096,-26.294
11794.605256223578,191.945
11797.91890903626,-120.952
11801.231789512534,47.329
11804.46312397414,-13.147
11807.774479408556,5.259
11811.085063309589,-70.993
11814.314157983485,105.175
11817.623218427994,-60.476
11820.850827315822,-15.776
11824.158365355152,63.105
11827.4651331948,49.958
11830.690506166697,68.364
11833.995753182851,226.127
11837.219642936305,76.252
11840.52337017791,-57.846
11843.745777735792,57.846
11847.047986250807,5.259
11850.26891263506,-170.91
11853.569603470474,26.294
11856.789049702087,123.581
11860.088223903953,-439.107
11863.30619100298,236.644
11866.603849616356,55.217
11869.820338601929,10.518
11873.11648267094,170.91
11876.331494561222,73.623
11879.545777396996,-92.028
11882.839660941268,81.511
11886.052468201013,-31.553
11889.26454715598,34.182
11892.55617250015,86.77
11895.766777396242,57.846
11899.056892350098,44.699
11902.26602420178,-13.147
11905.474428998024,-84.14
11908.682106985869,63.105
11911.969222890988,-178.798
11915.17542984806,28.923
11918.380910743392,-78.881
11921.66577540321,94.658
11924.869786778698,-81.511
11928.07307283808,-18.406
11931.27563382762,-60.476
11934.477469993468,141.987
11937.758600089848,2.629
11940.95896924119,60.476
11944.158614312782,21.035
11947.35753555032,-176.169
11950.55573319941,-47.329
11953.753207505528,21.035
11957.029868231695,-105.175
11960.225878519712,215.609
11963.42116620667,-31.553
11966.615731537608,18.406
11969.809574757444,-23.664
11973.002696111003,68.364
11976.195095842992,-55.217
11979.386774197992,70.993
11982.577731420495,244.533
11985.767967754866,-13.147
11988.957483445382,81.511
11992.146278736183,-36.811
11995.334353871312,123.581
11998.521709094712,18.406
12001.708344650193,26.294
12004.894260781464,5.259
12008.079457732136,2.629
12011.2639357457,81.511
12014.44769506553,118.322
12017.630735934905,105.175
12020.81305859698,-57.846
12023.994663294816,-120.952
12027.175550271351,0.0
12030.27622427429,36.811
12033.455694464548,-123.581
12036.634447655608,123.581
12039.812484089987,23.664
12042.989804010074,470.659
12046.166407658158,-31.553
12049.26290681064,-139.357
12052.4380965329,99.917
12055.612570703324,123.581
12058.786329563762,92.028
12061.880055974125,-36.811
12065.052402807443,81.511
12068.224035049663,-39.441
12071.394952942192,78.881
12074.485910333004,2.629
12077.655418093736,-5.259
12080.824212222367,139.357
12083.913099633974,-28.923
12087.080485047096,-26.294
12090.247157544738,-13.147
12093.333977055809,18.406
