Raman Shift,Intensity 
400,4.783636858
401,4.803906341
402,4.810275477
403,4.811376636
404,4.806384872
405,4.807417305
406,4.806055266
407,4.794164052
408,4.820741457
409,4.817637928
410,4.792669947
411,4.806863311
412,4.795615482
413,4.799797878
414,4.789569082
415,4.810511052
416,4.79000003
417,4.798269572
418,4.797590784
419,4.81354383
420,4.826614331
421,4.800523194
422,4.788914687
423,4.799522823
424,4.792640828
425,4.771892092
426,4.790125063
427,4.798560037
428,4.771815853
429,4.780186959
430,4.796339218
431,4.826470521
432,4.818110303
433,4.801483793
434,4.817470019
435,4.7826088
436,4.79756945
437,4.774366551
438,4.798338299
439,4.803543232
440,4.795250821
441,4.801791863
442,4.795613103
443,4.802825672
444,4.817271827
445,4.800325523
446,4.804384891
447,4.817307167
448,4.799053704
449,4.791360444
450,4.788909746
451,4.80074515
452,4.796522037
453,4.801174564
454,4.784911239
455,4.783253184
456,4.823004412
457,4.794780753
458,4.797512819
459,4.792403952
460,4.816057545
461,4.816827794
462,4.817898309
463,4.809643173
464,4.794374524
465,4.781248347
466,4.771823095
467,4.799988246
468,4.761307303
469,4.782544427
470,4.82366078
471,4.786317737
472,4.805519825
473,4.825765573
474,4.813472558
475,4.806225067
476,4.795482624
477,4.808837244
478,4.801838439
479,4.841233759
480,4.815609556
481,4.814943007
482,4.81892334
483,4.789815063
484,4.778993062
485,4.780802083
486,4.795139733
487,4.801258371
488,4.788866344
489,4.80377013
490,4.806165397
491,4.794044096
492,4.789291552
493,4.767401333
494,4.81212346
495,4.793527573
496,4.799346386
497,4.814645169
498,4.808371792
499,4.794870899
500,4.814648064
501,4.809824805
502,4.811687281
503,4.8066655
504,4.752135065
505,4.802934005
506,4.796809288
507,4.799490231
508,4.776592566
509,4.821179524
510,4.799005505
511,4.837094011
512,4.802505202
513,4.786124619
514,4.791716484
515,4.79171754
516,4.801560901
517,4.799355566
518,4.766494808
519,4.818864204
520,4.795659603
521,4.79232228
522,4.785024149
523,4.784116412
524,4.802322913
525,4.777226189
526,4.772184748
527,4.792035098
528,4.794473333
529,4.803170358
530,4.821406902
531,4.830714269
532,4.806474958
533,4.827613852
534,4.796168818
535,4.791819203
536,4.823268034
537,4.779773993
538,4.815920024
539,4.810637872
540,4.785174531
541,4.816040403
542,4.79753064
543,4.794659894
544,4.790556332
545,4.805631759
546,4.804474319
547,4.809370255
548,4.823827073
549,4.795334454
550,4.792659509
551,4.801122244
552,4.799483338
553,4.78223915
554,4.775233619
555,4.803082428
556,4.784857624
557,4.803640852
558,4.774674637
559,4.794364598
560,4.777513583
561,4.784260356
562,4.801197587
563,4.76540934
564,4.796817366
565,4.798010551
566,4.78273314
567,4.806968199
568,4.815191256
569,4.806975561
570,4.777550627
571,4.807451946
572,4.826992913
573,4.800110975
574,4.821982099
575,4.811236798
576,4.808651382
577,4.790836457
578,4.765729648
579,4.793682537
580,4.828515102
581,4.803949664
582,4.807656499
583,4.780601973
584,4.777076318
585,4.810363831
586,4.801308632
587,4.799693542
588,4.798819729
589,4.787084044
590,4.772836216
591,4.78649383
592,4.823849578
593,4.794240336
594,4.798494937
595,4.807839278
596,4.792510852
597,4.795225192
598,4.795960338
599,4.782483194
600,4.805067632
601,4.795029475
602,4.818877175
603,4.803815214
604,4.812011978
605,4.847712818
606,4.773772862
607,4.784318235
608,4.779404215
609,4.802865951
610,4.801676987
611,4.794176597
612,4.81400937
613,4.779614849
614,4.812072666
615,4.843940885
616,4.818636987
617,4.825416299
618,4.787745233
619,4.815496784
620,4.802037348
621,4.804791567
622,4.804374106
623,4.82246613
624,4.814746089
625,4.802141984
626,4.818478283
627,4.80694578
628,4.793014286
629,4.78421306
630,4.787857457
631,4.778434652
632,4.785335382
633,4.824845685
634,4.80090156
635,4.783152526
636,4.850843037
637,4.81970986
638,4.808754198
639,4.778964084
640,4.776721098
641,4.821065002
642,4.840479484
643,4.820688958
644,4.80443377
645,4.780776961
646,4.793135576
647,4.790799007
648,4.807511705
649,4.816976737
650,4.800702388
651,4.802559075
652,4.784478144
653,4.818307841
654,4.772477415
655,4.782217215
656,4.786563157
657,4.815820236
658,4.790576658
659,4.818513021
660,4.805062373
661,4.799318835
662,4.800668009
663,4.79398434
664,4.797245466
665,4.813321608
666,4.800697716
667,4.785567028
668,4.808321204
669,4.797264355
670,4.791647104
671,4.813757885
672,4.799737513
673,4.805050159
674,4.798817452
675,4.803728815
676,4.812313603
677,4.811902058
678,4.807358764
679,4.805860361
680,4.816123723
681,4.804457981
682,4.806949525
683,4.794683011
684,4.802732718
685,4.811809626
686,4.791842285
687,4.80495678
688,4.824776227
689,4.822017809
690,4.78160826
691,4.790581273
692,4.803412939
693,4.80136787
694,4.794548766
695,4.793862177
696,4.778890701
697,4.79672248
698,4.803788724
699,4.778873589
700,4.812902466
701,4.798413407
702,4.768673886
703,4.800592218
704,4.806364145
705,4.831604616
706,4.802144001
707,4.804375327
708,4.848915046
709,4.798255193
710,4.800709071
711,4.798487215
712,4.812757781
713,4.787142563
714,4.809396951
715,4.803453574
716,4.811143887
717,4.780650205
718,4.806439912
719,4.796539493
720,4.798910422
721,4.822105833
722,4.78856409
723,4.821897926
724,4.818859406
725,4.793530582
726,4.810646082
727,4.785079511
728,4.771899981
729,4.826418867
730,4.772916614
731,4.798889854
732,4.809387101
733,4.794990335
734,4.823130848
735,4.805687965
736,4.800997437
737,4.804320521
738,4.796352435
739,4.793390388
740,4.821403037
741,4.785424304
742,4.798412855
743,4.806147699
744,4.787337786
745,4.79338443
746,4.81166658
747,4.811952872
748,4.828847903
749,4.778956038
750,4.790156351
751,4.80635196
752,4.793041485
753,4.84923216
754,4.788872543
755,4.788313374
756,4.820586136
757,4.790384087
758,4.80869506
759,4.80213635
760,4.784645294
761,4.81061035
762,4.800049448
763,4.816365685
764,4.802334309
765,4.80063386
766,4.802862345
767,4.804827415
768,4.775105987
769,4.811543504
770,4.815982114
771,4.810716543
772,4.782795707
773,4.770919523
774,4.79813847
775,4.807362003
776,4.807113946
777,4.797482635
778,4.792112815
779,4.825843159
780,4.788207565
781,4.777859727
782,4.819005549
783,4.810004312
784,4.808075195
785,4.774070236
786,4.795634736
787,4.792934472
788,4.797953644
789,4.808385374
790,4.814566392
791,4.804445135
792,4.824411959
793,4.768967894
794,4.793223175
795,4.816752821
796,4.784053838
797,4.79499558
798,4.811855479
799,4.799448263
800,4.797282033
801,4.789902181
802,4.785491082
803,4.788895372
804,4.79156734
805,4.805987003
806,4.792118777
807,4.805757476
808,4.780508171
809,4.808057341
810,4.818844995
811,4.808817659
812,4.827000079
813,4.782270752
814,4.845067068
815,4.784749719
816,4.789459043
817,4.806599735
818,4.797765097
819,4.814490291
820,4.800744901
821,4.81695231
822,4.829296086
823,4.790176105
824,4.791596064
825,4.79391929
826,4.808194026
827,4.807471403
828,4.803100358
829,4.808912107
830,4.801535451
831,4.799586131
832,4.803360985
833,4.803169625
834,4.798449438
835,4.774713603
836,4.806875515
837,4.794608184
838,4.812406751
839,4.823546988
840,4.791493713
841,4.77651924
842,4.815700894
843,4.800078503
844,4.795802963
845,4.7930602
846,4.774511843
847,4.807306135
848,4.782024817
849,4.797675377
850,4.805565409
851,4.793174093
852,4.775178561
853,4.792049068
854,4.766742726
855,4.79839325
856,4.808112789
857,4.783133751
858,4.783866484
859,4.821705456
860,4.783254156
861,4.780512488
862,4.78962678
863,4.813971145
864,4.788081098
865,4.802175477
866,4.817184896
867,4.805043529
868,4.792233452
869,4.824970921
870,4.780266836
871,4.800825332
872,4.782163941
873,4.796675895
874,4.775535785
875,4.824333783
876,4.778481932
877,4.805467319
878,4.796921668
879,4.792182823
880,4.805417243
881,4.800167623
882,4.793453033
883,4.784180333
884,4.794862179
885,4.828065929
886,4.803951031
887,4.827287604
888,4.785992331
889,4.809633725
890,4.819802842
891,4.806931061
892,4.786180592
893,4.80229861
894,4.826382327
895,4.806381313
896,4.787720786
897,4.80649051
898,4.793386001
899,4.802773632
900,4.808894567
901,4.818016364
902,4.808584472
903,4.7963668
904,4.835857805
905,4.787833139
906,4.813440372
907,4.790098257
908,4.778460359
909,4.792821096
910,4.811948904
911,4.802309792
912,4.796969876
913,4.801648676
914,4.791231471
915,4.780356771
916,4.814415739
917,4.794631548
918,4.793070873
919,4.81814042
920,4.796954215
921,4.813350151
922,4.783851213
923,4.796537292
924,4.798228532
925,4.787983741
926,4.81485606
927,4.790649646
928,4.802403163
929,4.784476728
930,4.819880715
931,4.813739172
932,4.818220313
933,4.803772078
934,4.776427444
935,4.822920934
936,4.806087332
937,4.803482896
938,4.821550953
939,4.820378464
940,4.807010501
941,4.79659789
942,4.810701562
943,4.777509694
944,4.81595736
945,4.792419938
946,4.789972236
947,4.804238573
948,4.821836751
949,4.774882041
950,4.792111966
951,4.792111363
952,4.795276634
953,4.794701461
954,4.80208257
955,4.800102031
956,4.78580919
957,4.792259061
958,4.82931526
959,4.813543411
960,4.790951033
961,4.787390251
962,4.806894124
963,4.809346212
964,4.804856358
965,4.822443553
966,4.797391431
967,4.797532712
968,4.792506143
969,4.812136521
970,4.793145796
971,4.828075344
972,4.82693052
973,4.812342798
974,4.789720337
975,4.804903474
976,4.792845136
977,4.804161527
978,4.766076684
979,4.78804508
980,4.797475018
981,4.806591927
982,4.811393148
983,4.789263389
984,4.810195152
985,4.788694313
986,4.801541639
987,4.805238372
988,4.796125377
989,4.806438093
990,4.798292972
991,4.804730343
992,4.803087484
993,4.82424115
994,4.788425843
995,4.802456461
996,4.784010975
997,4.797524369
998,4.809454726
999,4.799020545
1000,4.802281264
1001,4.777784891
1002,4.81575704
1003,4.785295675
1004,4.796043552
1005,4.787198912
1006,4.778930507
1007,4.781962592
1008,4.777912789
1009,4.803004644
1010,4.803994983
1011,4.786439332
1012,4.78622656
1013,4.794941096
1014,4.808702964
1015,4.799327761
1016,4.772748497
1017,4.760305195
1018,4.812195002
1019,4.807275201
1020,4.803978856
1021,4.781614281
1022,4.800973315
1023,4.811353112
1024,4.812512054
1025,4.800541515
1026,4.781119442
1027,4.792675367
1028,4.806988833
1029,4.820851789
1030,4.791040737
1031,4.831826395
1032,4.780175409
1033,4.801435454
1034,4.797501429
1035,4.791996982
1036,4.795324078
1037,4.799852455
1038,4.806055886
1039,4.771878904
1040,4.780622642
1041,4.799198927
1042,4.807041653
1043,4.81203402
1044,4.797445473
1045,4.799713072
1046,4.805562864
1047,4.796616319
1048,4.790022211
1049,4.801495915
1050,4.797136386
1051,4.792937951
1052,4.809628047
1053,4.776043144
1054,4.802189913
1055,4.795862559
1056,4.797750982
1057,4.808270132
1058,4.769011383
1059,4.798656283
1060,4.783186988
1061,4.784797887
1062,4.810434318
1063,4.811132112
1064,4.810053352
1065,4.791739899
1066,4.813694953
1067,4.805677072
1068,4.773919202
1069,4.800392196
1070,4.793515038
1071,4.794617442
1072,4.773353689
1073,4.791661096
1074,4.79125608
1075,4.808004752
1076,4.806167439
1077,4.789069883
1078,4.790396251
1079,4.773213913
1080,4.803756972
1081,4.803237286
1082,4.810414953
1083,4.785424313
1084,4.776294019
1085,4.804840868
1086,4.798038844
1087,4.787442005
1088,4.826838779
1089,4.809439292
1090,4.782494992
1091,4.783625443
1092,4.799022717
1093,4.804655188
1094,4.799939714
1095,4.77434233
1096,4.802066759
1097,4.809938241
1098,4.793995515
1099,4.79975961
1100,4.800516913
1101,4.797466321
1102,4.80298297
1103,4.805053278
1104,4.806305176
1105,4.799229794
1106,4.795336038
1107,4.774473842
1108,4.794441626
1109,4.811439168
1110,4.80996993
1111,4.79270928
1112,4.783805795
1113,4.810962245
1114,4.784662385
1115,4.784110393
1116,4.82681739
1117,4.802372969
1118,4.791006475
1119,4.806907507
1120,4.810600243
1121,4.803569158
1122,4.778260823
1123,4.819005896
1124,4.82718464
1125,4.804186783
1126,4.812632555
1127,4.812614773
1128,4.810278889
1129,4.780555786
1130,4.800496869
1131,4.811586339
1132,4.792039482
1133,4.802605788
1134,4.794484361
1135,4.818454477
1136,4.790925144
1137,4.794628284
1138,4.800654081
1139,4.79192477
1140,4.828291657
1141,4.793479672
1142,4.78790746
1143,4.789967696
1144,4.777856798
1145,4.78477127
1146,4.797874364
1147,4.797786339
1148,4.796908716
1149,4.79549346
1150,4.787711987
1151,4.783253111
1152,4.778848358
1153,4.791480116
1154,4.777568695
1155,4.808540795
1156,4.786822949
1157,4.802010475
1158,4.791350559
1159,4.78620566
1160,4.796266127
1161,4.782019297
1162,4.834350943
1163,4.792875293
1164,4.823529477
1165,4.801463288
1166,4.788549965
1167,4.78653078
1168,4.796828675
1169,4.804496602
1170,4.799183573
1171,4.805437392
1172,4.79094816
1173,4.803935807
1174,4.813540489
1175,4.83694516
1176,4.815471413
1177,4.787349401
1178,4.802536977
1179,4.810671275
1180,4.784787752
1181,4.799832881
1182,4.810880829
1183,4.76493922
1184,4.811275244
1185,4.803897405
1186,4.789371947
1187,4.797447895
1188,4.823758006
1189,4.79230355
1190,4.819983073
1191,4.81421986
1192,4.787695285
1193,4.815523191
1194,4.810544654
1195,4.791903894
1196,4.801154614
1197,4.796084075
1198,4.79660152
1199,4.807364957
1200,4.796332318
1201,4.768313825
1202,4.813428962
1203,4.78744577
1204,4.801690305
1205,4.787290321
1206,4.80581588
1207,4.806748225
1208,4.787767611
1209,4.799216753
1210,4.821662764
1211,4.819422381
1212,4.785055701
1213,4.812146167
1214,4.809694625
1215,4.793717886
1216,4.822598857
1217,4.808128392
1218,4.78790712
1219,4.823097964
1220,4.812771701
1221,4.796878397
1222,4.795637356
1223,4.787799505
1224,4.790563808
1225,4.789440893
1226,4.801698691
1227,4.794082719
1228,4.780959018
1229,4.809734459
1230,4.785802225
1231,4.810078554
1232,4.789184139
1233,4.826389341
1234,4.785287529
1235,4.815963375
1236,4.788447089
1237,4.841081898
1238,4.797220796
1239,4.789419886
1240,4.810730227
1241,4.802043026
1242,4.794100915
1243,4.796089176
1244,4.806390709
1245,4.842175458
1246,4.788478983
1247,4.8069351
1248,4.796316994
1249,4.801561328
1250,4.793350327
1251,4.808989059
1252,4.818494974
1253,4.799472857
1254,4.786791178
1255,4.803769469
1256,4.806888328
1257,4.78752015
1258,4.803168881
1259,4.808866386
1260,4.818825787
1261,4.800578923
1262,4.824338093
1263,4.767780623
1264,4.792507506
1265,4.831733602
1266,4.819504067
1267,4.802768949
1268,4.808811866
1269,4.774041605
1270,4.802866664
1271,4.805071295
1272,4.824458809
1273,4.825627782
1274,4.80420085
1275,4.813853759
1276,4.788981801
1277,4.80848797
1278,4.778870238
1279,4.799217151
1280,4.806890022
1281,4.786410848
1282,4.776549175
1283,4.791820097
1284,4.788776814
1285,4.775788581
1286,4.785661733
1287,4.833023044
1288,4.766545312
1289,4.809804953
1290,4.800070663
1291,4.815890354
1292,4.793998172
1293,4.792910868
1294,4.830864631
1295,4.787442159
1296,4.801366461
1297,4.818994702
1298,4.789612449
1299,4.803948237
1300,4.801399045
1301,4.805366541
1302,4.819536234
1303,4.789017033
1304,4.835231044
1305,4.810783335
1306,4.791656552
1307,4.81855585
1308,4.802239621
1309,4.798936954
1310,4.826901528
1311,4.786245462
1312,4.799865775
1313,4.769678913
1314,4.814917499
1315,4.804554278
1316,4.793879936
1317,4.786427917
1318,4.796852468
1319,4.77845843
1320,4.807901218
1321,4.797898479
1322,4.815145176
1323,4.800571834
1324,4.817868065
1325,4.807552144
1326,4.787590087
1327,4.810652186
1328,4.803901445
1329,4.803516177
1330,4.816185755
1331,4.804585588
1332,4.805309827
1333,4.766687449
1334,4.821326043
1335,4.78543292
1336,4.802083164
1337,4.789470431
1338,4.78903721
1339,4.798540251
1340,4.788049656
1341,4.817141589
1342,4.808228312
1343,4.820091352
1344,4.797922437
1345,4.788864513
1346,4.831729383
1347,4.826411565
1348,4.819973048
1349,4.791842779
1350,4.804987298
1351,4.824052715
1352,4.829409663
1353,4.784194753
1354,4.795363886
1355,4.779246619
1356,4.805697155
1357,4.790505832
1358,4.818735066
1359,4.785907737
1360,4.817024693
1361,4.799277483
1362,4.818613428
1363,4.810723157
1364,4.817205828
1365,4.806742341
1366,4.808459675
1367,4.80629538
1368,4.787192584
1369,4.789653948
1370,4.797507431
1371,4.81949749
1372,4.773617612
1373,4.819465687
1374,4.795548812
1375,4.796168829
1376,4.790095423
1377,4.802720585
1378,4.811553472
1379,4.807987415
1380,4.793917487
1381,4.786346763
1382,4.813548238
1383,4.760731048
1384,4.818201372
1385,4.800481539
1386,4.809714693
1387,4.792701538
1388,4.813092844
1389,4.814230711
1390,4.809926373
1391,4.757711723
1392,4.844144592
1393,4.805211328
1394,4.81313851
1395,4.785284758
1396,4.803937321
1397,4.791007632
1398,4.813549169
1399,4.783693712
1400,4.796203531
1401,4.768476291
1402,4.80162545
1403,4.803359349
1404,4.814137983
1405,4.799307772
1406,4.826684306
1407,4.786628295
1408,4.813013995
1409,4.779379826
1410,4.787919749
1411,4.81153843
1412,4.804508338
1413,4.792281562
1414,4.780236821
1415,4.787889818
1416,4.7800858
1417,4.773752551
1418,4.797467027
1419,4.801805937
1420,4.789216211
1421,4.79996959
1422,4.815373133
1423,4.789093772
1424,4.778216294
1425,4.80942008
1426,4.809246732
1427,4.796039768
1428,4.822753615
1429,4.801584508
1430,4.82193829
1431,4.811017245
1432,4.808723744
1433,4.774880397
1434,4.79093994
1435,4.802317062
1436,4.791049726
1437,4.800540191
1438,4.814054534
1439,4.813688712
1440,4.788348457
1441,4.810407844
1442,4.786776295
1443,4.805522507
1444,4.78615274
1445,4.799399172
1446,4.799583363
1447,4.807503348
1448,4.818251712
1449,4.793130438
1450,4.806410204
1451,4.822171648
1452,4.777837189
1453,4.801955039
1454,4.800075601
1455,4.793225012
1456,4.818659741
1457,4.775822084
1458,4.823298015
1459,4.818470771
1460,4.787196808
1461,4.799871649
1462,4.810308951
1463,4.769769163
1464,4.786986084
1465,4.802199416
1466,4.813180422
1467,4.795166957
1468,4.78063445
1469,4.781252174
1470,4.803094287
1471,4.819077501
1472,4.844637814
1473,4.789676302
1474,4.806149907
1475,4.765666948
1476,4.791351488
1477,4.82369976
1478,4.798987792
1479,4.794996049
1480,4.794664308
1481,4.802575366
1482,4.794418303
1483,4.802766681
1484,4.796083696
1485,4.80113513
1486,4.802806785
1487,4.796105498
1488,4.782387364
1489,4.790927046
1490,4.800901997
1491,4.800943091
1492,4.774749126
1493,4.799948869
1494,4.791053202
1495,4.802078464
1496,4.790600782
1497,4.796626434
1498,4.788694573
1499,4.77487496
1500,4.837992392
1501,4.793525267
1502,4.787374546
1503,4.779592431
1504,4.78960492
1505,4.790780011
1506,4.797778586
1507,4.79405636
1508,4.821446191
1509,4.788068463
1510,4.796016892
1511,4.816206209
1512,4.821746511
1513,4.809646829
1514,4.817445024
1515,4.812218027
1516,4.808500448
1517,4.812463154
1518,4.799543624
1519,4.817841003
1520,4.785771358
1521,4.79843928
1522,4.803052187
1523,4.782616899
1524,4.807679943
1525,4.789402076
1526,4.794417101
1527,4.774343915
1528,4.802770844
1529,4.809405048
1530,4.787039963
1531,4.843614043
1532,4.781572477
1533,4.80839818
1534,4.799840908
1535,4.80870958
1536,4.789972777
1537,4.787413432
1538,4.805200234
1539,4.803913334
1540,4.786259913
1541,4.805280561
1542,4.809208897
1543,4.781008035
1544,4.807758678
1545,4.786464131
1546,4.80283531
1547,4.751774911
1548,4.810480529
1549,4.818930554
1550,4.802804249
1551,4.80105637
1552,4.8023367
1553,4.821094827
1554,4.816865079
1555,4.791199058
1556,4.815308893
1557,4.789393663
1558,4.80062169
1559,4.788416497
1560,4.794642544
1561,4.789333585
1562,4.793223484
1563,4.798042845
1564,4.805297403
1565,4.796865717
1566,4.794792897
1567,4.800187349
1568,4.819186718
1569,4.824210866
1570,4.777310489
1571,4.790233001
1572,4.809779338
1573,4.796036635
1574,4.82122877
1575,4.818032862
1576,4.805148304
1577,4.805457407
1578,4.793579355
1579,4.804972168
1580,4.807411618
1581,4.775712305
1582,4.783629487
1583,4.790047855
1584,4.817242625
1585,4.791661381
1586,4.814162305
1587,4.80716221
1588,4.814958171
1589,4.785895051
1590,4.828236267
1591,4.807747901
1592,4.81604535
1593,4.821822361
1594,4.791575689
1595,4.799415206
1596,4.814235132
1597,4.777107992
1598,4.794862292
1599,4.81430767
1600,4.795817822
1601,4.792572953
1602,4.824000251
1603,4.768742667
1604,4.818508166
1605,4.797034536
1606,4.807495771
1607,4.815484879
1608,4.821975426
1609,4.778647738
1610,4.768750063
1611,4.780550179
1612,4.801300207
1613,4.799103803
1614,4.79137513
1615,4.787367977
1616,4.821471012
1617,4.799038027
1618,4.770968483
1619,4.81398107
1620,4.809615675
1621,4.792055797
1622,4.817127761
1623,4.786718531
1624,4.79708637
1625,4.786711215
1626,4.800885589
1627,4.798377261
1628,4.822298605
1629,4.822526479
1630,4.792904687
1631,4.801261212
1632,4.800018397
1633,4.787444271
1634,4.7957401
1635,4.791750032
1636,4.800039623
1637,4.819386371
1638,4.805513464
1639,4.807875028
1640,4.818759602
1641,4.818374136
1642,4.792041271
1643,4.802867582
1644,4.784003253
1645,4.824691624
1646,4.813932195
1647,4.802289867
1648,4.805906065
1649,4.797977914
1650,4.770833077
1651,4.82105288
1652,4.805757478
1653,4.807675245
1654,4.79988953
1655,4.801471938
1656,4.818492994
1657,4.793188076
1658,4.818517115
1659,4.764828431
1660,4.767690266
1661,4.801101529
1662,4.79200891
1663,4.809299434
1664,4.800478014
1665,4.799070784
1666,4.787802346
1667,4.775888178
1668,4.81416615
1669,4.780373902
1670,4.815027395
1671,4.786670146
1672,4.805295036
1673,4.811108115
1674,4.756246151
1675,4.797662007
1676,4.802298275
1677,4.814606913
1678,4.810757817
1679,4.828183629
1680,4.830058752
1681,4.791317321
1682,4.834543595
1683,4.830706662
1684,4.840341508
1685,4.815789265
1686,4.824343594
1687,4.839198403
1688,4.863021571
1689,4.848206072
1690,4.879664171
1691,4.860743562
1692,4.918694834
1693,4.858451271
1694,4.886947409
1695,4.90374833
1696,4.915044024
1697,4.919983795
1698,4.928441286
1699,4.928067501
1700,4.967941428
1701,4.956456231
1702,4.958596958
1703,4.974611126
1704,4.975779877
1705,4.985259846
1706,5.002922941
1707,4.989480513
1708,4.995618111
1709,5.002666117
1710,5.027713114
1711,5.027954724
1712,5.041293523
1713,5.03227221
1714,5.077053511
1715,5.057919172
1716,5.039130339
1717,5.088818083
1718,5.064246856
1719,5.041311756
1720,5.049640394
1721,5.02269035
1722,5.009108508
1723,5.007063675
1724,5.006439283
1725,5.00176944
1726,4.966565347
1727,5.000534918
1728,4.952777704
1729,4.976036411
1730,4.963973319
1731,4.953436739
1732,4.933309453
1733,4.938456321
1734,4.92762088
1735,4.928560456
1736,4.88002674
1737,4.890974923
1738,4.900831121
1739,4.891693356
1740,4.879173251
1741,4.839761111
1742,4.867374887
1743,4.843927561
1744,4.869277362
1745,4.841674852
1746,4.826155873
1747,4.796361328
1748,4.824515597
1749,4.824722611
1750,4.853328604
1751,4.798148157
1752,4.796873031
1753,4.822884992
1754,4.838639659
1755,4.804580699
1756,4.820131821
1757,4.818680464
1758,4.831965679
1759,4.819031062
1760,4.805717543
1761,4.777922035
1762,4.787246187
1763,4.81080502
1764,4.787338496
1765,4.792579638
1766,4.795275122
1767,4.814641141
1768,4.802863435
1769,4.797135854
1770,4.793804944
1771,4.801935922
1772,4.792131787
1773,4.829456808
1774,4.797710008
1775,4.807451456
1776,4.812887297
1777,4.77370051
1778,4.792773761
1779,4.799818261
1780,4.790742455
1781,4.80283396
1782,4.788337079
1783,4.804567463
1784,4.761753104
1785,4.811150497
1786,4.784721939
1787,4.810723853
1788,4.817017888
1789,4.793167941
1790,4.784056282
1791,4.80589016
1792,4.80616012
1793,4.809864299
1794,4.767281048
1795,4.827092556
1796,4.79456703
1797,4.791061995
1798,4.78034203
1799,4.804817845
1800,4.809542879
1801,4.798008142
1802,4.796291613
1803,4.823477062
1804,4.826339808
1805,4.793346231
1806,4.783677402
1807,4.820643439
1808,4.766837234
1809,4.792366761
1810,4.800998118
1811,4.7907866
1812,4.829137396
1813,4.792525173
1814,4.79440696
1815,4.833955635
1816,4.782488661
1817,4.785406306
1818,4.817822346
1819,4.809186799
1820,4.78351081
1821,4.766847064
1822,4.781440749
1823,4.81256734
1824,4.795358871
1825,4.797011237
1826,4.805812844
1827,4.825344687
1828,4.805262676
1829,4.772904503
1830,4.787158557
1831,4.792253032
1832,4.81831279
1833,4.802666773
1834,4.803771245
1835,4.805893207
1836,4.775174524
1837,4.778620497
1838,4.79268572
1839,4.819840926
1840,4.796768441
1841,4.797516353
1842,4.753915273
1843,4.799631422
1844,4.801551193
1845,4.807797311
1846,4.79396899
1847,4.785490668
1848,4.778681267
1849,4.791615782
1850,4.814783426
1851,4.79186479
1852,4.827666699
1853,4.823520374
1854,4.809034422
1855,4.788791756
1856,4.806314654
1857,4.813440217
1858,4.816646087
1859,4.793579444
1860,4.792250979
1861,4.810699902
1862,4.796818064
1863,4.787784478
1864,4.801760377
1865,4.775109239
1866,4.776607532
1867,4.796693944
1868,4.795677262
1869,4.788201401
1870,4.784647483
1871,4.796566903
1872,4.817710106
1873,4.785214352
1874,4.815595286
1875,4.778725262
1876,4.794924566
1877,4.811279203
1878,4.827073315
1879,4.817244117
1880,4.791984025
1881,4.783989771
1882,4.815486506
1883,4.800250088
1884,4.783232142
1885,4.82525061
1886,4.818894617
1887,4.797032552
1888,4.783928883
1889,4.78212217
1890,4.813806132
1891,4.793426064
1892,4.782900307
1893,4.817061093
1894,4.794724372
1895,4.788250319
1896,4.817831725
1897,4.793061982
1898,4.797282641
1899,4.816371932
1900,4.816364154
1901,4.793480566
1902,4.783755027
1903,4.791906812
1904,4.812331626
1905,4.818605615
1906,4.794665017
1907,4.815395208
1908,4.81468325
1909,4.768264933
1910,4.798999607
1911,4.808399381
1912,4.790436311
1913,4.770661592
1914,4.803024873
1915,4.801528684
1916,4.815343855
1917,4.794312328
1918,4.807421186
1919,4.798007202
1920,4.806976863
1921,4.779517397
1922,4.806650477
1923,4.792338782
1924,4.812532208
1925,4.784598923
1926,4.827567553
1927,4.820946457
1928,4.799329892
1929,4.813502187
1930,4.815300421
1931,4.793179491
1932,4.793130818
1933,4.813231079
1934,4.782565416
1935,4.798546331
1936,4.800408774
1937,4.801474243
1938,4.808404438
1939,4.816650655
1940,4.811004921
1941,4.795446906
1942,4.807838373
1943,4.813110527
1944,4.798846674
1945,4.806041008
1946,4.812708156
1947,4.784514821
1948,4.799687437
1949,4.80662865
1950,4.800038969
1951,4.786344622
1952,4.813585472
1953,4.791229464
1954,4.807855627
1955,4.790923362
1956,4.811690408
1957,4.809955259
1958,4.777269319
1959,4.808845643
1960,4.820507104
1961,4.791426025
1962,4.79242101
1963,4.800884295
1964,4.792375807
1965,4.78766753
1966,4.805591051
1967,4.807994859
1968,4.775125709
1969,4.777843226
1970,4.786057678
1971,4.779767008
1972,4.803388083
1973,4.764598374
1974,4.800729318
1975,4.805513794
1976,4.7993501
1977,4.826576531
1978,4.810491064
1979,4.810456864
1980,4.773315585
1981,4.810320967
1982,4.780925592
1983,4.80437031
1984,4.797051801
1985,4.798961322
1986,4.802193911
1987,4.788146964
1988,4.843629409
1989,4.798376541
1990,4.776708706
1991,4.797269458
1992,4.814270087
1993,4.796155939
1994,4.796524481
1995,4.787176949
1996,4.75909873
1997,4.803181537
1998,4.771284938
1999,4.795649011
2000,4.804029266
2001,4.800504426
2002,4.804994307
2003,4.799450118
2004,4.784969217
2005,4.809621552
2006,4.82460458
2007,4.785041287
2008,4.805086059
2009,4.78017417
2010,4.786298122
2011,4.817887866
2012,4.796021255
2013,4.786575623
2014,4.791874062
2015,4.792496206
2016,4.80850084
2017,4.817693318
2018,4.809459513
2019,4.793292651
2020,4.796528777
2021,4.793802347
2022,4.79997209
2023,4.802245909
2024,4.803620835
2025,4.807155828
2026,4.775576934
2027,4.808516829
2028,4.785657501
2029,4.795338873
2030,4.783269943
2031,4.811954066
2032,4.796996324
2033,4.81777525
2034,4.752664541
2035,4.808238306
2036,4.800572445
2037,4.799806379
2038,4.804238083
2039,4.774695409
2040,4.812910753
2041,4.801208137
2042,4.789440872
2043,4.82254175
2044,4.80427016
2045,4.780515065
2046,4.785643183
2047,4.820246791
2048,4.830128251
2049,4.819592534
2050,4.792402093
2051,4.818263853
2052,4.784442525
2053,4.822685438
2054,4.806482032
2055,4.770089511
2056,4.784837632
2057,4.798037302
2058,4.80276897
2059,4.844107152
2060,4.788978792
2061,4.785219984
2062,4.807166126
2063,4.822629069
2064,4.803240896
2065,4.807659849
2066,4.808918978
2067,4.792050204
2068,4.794700453
2069,4.778456287
2070,4.813346824
2071,4.807925645
2072,4.816922873
2073,4.799541911
2074,4.804891916
2075,4.798695379
2076,4.78716483
2077,4.800848539
2078,4.818249235
2079,4.820619565
2080,4.830530255
2081,4.791374563
2082,4.789302484
2083,4.788855884
2084,4.802718337
2085,4.788561105
2086,4.816446826
2087,4.788482269
2088,4.773813632
2089,4.783316515
2090,4.786888328
2091,4.806858971
2092,4.804187805
2093,4.794002425
2094,4.796141306
2095,4.780554001
2096,4.805561308
2097,4.804133212
2098,4.798202935
2099,4.808955728
2100,4.777923291
2101,4.786586437
2102,4.793977437
2103,4.799216893
2104,4.787364463
2105,4.796884437
2106,4.796222988
2107,4.819609435
2108,4.799775762
2109,4.795255789
2110,4.764149944
2111,4.803727898
2112,4.802527105
2113,4.80343548
2114,4.802823152
2115,4.782789015
2116,4.77634973
2117,4.805350921
2118,4.812801572
2119,4.806748881
2120,4.777684974
2121,4.791310881
2122,4.791811993
2123,4.799686604
2124,4.79891963
2125,4.775041566
2126,4.79024765
2127,4.795498463
2128,4.794693731
2129,4.781963745
2130,4.817593991
2131,4.823761676
2132,4.787951696
2133,4.798042261
2134,4.78152795
2135,4.779310378
2136,4.804994426
2137,4.768860575
2138,4.778400236
2139,4.813698055
2140,4.776702792
2141,4.790320768
2142,4.799784623
2143,4.820333412
2144,4.79554036
2145,4.80973858
2146,4.794465602
2147,4.780352358
2148,4.823890895
2149,4.791689652
2150,4.808315833
2151,4.803600941
2152,4.807317967
2153,4.800485945
2154,4.799043026
2155,4.779907531
2156,4.788630412
2157,4.815109903
2158,4.797521235
2159,4.802587002
2160,4.798788149
2161,4.780097247
2162,4.820876839
2163,4.793479358
2164,4.806992116
2165,4.806139593
2166,4.795156484
2167,4.785942361
2168,4.80455629
2169,4.799101716
2170,4.809300389
2171,4.835804467
2172,4.805986397
2173,4.780249599
2174,4.800333364
2175,4.802589756
2176,4.806321136
2177,4.796665764
2178,4.797682075
2179,4.784931314
2180,4.787646873
2181,4.793832797
2182,4.783987571
2183,4.786974527
2184,4.796498099
2185,4.792199769
2186,4.81770991
2187,4.812231375
2188,4.78500723
2189,4.798724308
2190,4.809319749
2191,4.778175707
2192,4.782750347
2193,4.81209332
2194,4.813365725
2195,4.809119337
2196,4.783126844
2197,4.790163936
2198,4.789173777
2199,4.795630577
2200,4.792535964
2201,4.802066093
2202,4.796548042
2203,4.797179923
2204,4.811052406
2205,4.81557549
2206,4.820946147
2207,4.791650161
2208,4.830524349
2209,4.787005358
2210,4.811100497
2211,4.787780827
2212,4.77653138
2213,4.795108788
2214,4.815831502
2215,4.777811375
2216,4.8089674
2217,4.797811741
2218,4.786499382
2219,4.789685124
2220,4.805022329
2221,4.813124147
2222,4.792688946
2223,4.772600386
2224,4.820431376
2225,4.783534276
2226,4.813252223
2227,4.821576885
2228,4.79331509
2229,4.788704397
2230,4.783667157
2231,4.779253903
2232,4.828002713
2233,4.817349343
2234,4.807309276
2235,4.764945346
2236,4.804964897
2237,4.765451751
2238,4.826486212
2239,4.780367523
2240,4.803220474
2241,4.803600794
2242,4.8350958
2243,4.789790076
2244,4.78621553
2245,4.798741825
2246,4.788175564
2247,4.804699052
2248,4.819962955
2249,4.776336939
2250,4.801252569
2251,4.790299234
2252,4.797364717
2253,4.810329456
2254,4.783446582
2255,4.787034447
2256,4.845585047
2257,4.781883462
2258,4.800953516
2259,4.80166942
2260,4.843242708
2261,4.815126019
2262,4.831553457
2263,4.815457339
2264,4.829819448
2265,4.807160274
2266,4.788524575
2267,4.803465196
2268,4.806188919
2269,4.785269923
2270,4.818194178
2271,4.792913667
2272,4.799472782
2273,4.78308749
2274,4.792994404
2275,4.826851961
2276,4.818839175
2277,4.811226799
2278,4.807103615
2279,4.784672335
2280,4.79123621
2281,4.808273544
2282,4.781110456
2283,4.785277513
2284,4.790865704
2285,4.78803546
2286,4.787556019
2287,4.817120014
2288,4.820595477
2289,4.825707801
2290,4.801510502
2291,4.822514175
2292,4.808586663
2293,4.805110928
2294,4.80089429
2295,4.790673951
2296,4.828877395
2297,4.802284117
2298,4.801298147
2299,4.799006216
2300,4.790405818
2301,4.816763521
2302,4.783036825
2303,4.806981428
2304,4.779270042
2305,4.783506676
2306,4.792693253
2307,4.807508503
2308,4.809220932
2309,4.790076278
2310,4.809529646
2311,4.773301762
2312,4.812496237
2313,4.808986083
2314,4.795216807
2315,4.791437933
2316,4.82740685
2317,4.765727145
2318,4.79307878
2319,4.814808423
2320,4.812953503
2321,4.805566373
2322,4.777615081
2323,4.832995012
2324,4.798344378
2325,4.802151324
2326,4.808296557
2327,4.786819205
2328,4.826152546
2329,4.785724013
2330,4.81318434
2331,4.818869556
2332,4.79003561
2333,4.803461923
2334,4.796431444
2335,4.794438228
2336,4.774892113
2337,4.814388476
2338,4.809490719
2339,4.792659218
2340,4.80453303
2341,4.794341703
2342,4.802313901
2343,4.7880748
2344,4.797841183
2345,4.820630005
2346,4.825061038
2347,4.782481314
2348,4.798979119
2349,4.81483336
2350,4.810869268
2351,4.79223046
2352,4.784615213
2353,4.782413457
2354,4.794327582
2355,4.813073785
2356,4.799850539
2357,4.801949193
2358,4.798894542
2359,4.774370316
2360,4.800278331
2361,4.802916724
2362,4.785124325
2363,4.788687124
2364,4.796585326
2365,4.804363712
2366,4.825925566
2367,4.768752723
2368,4.800546142
2369,4.79498588
2370,4.812615326
2371,4.804138953
2372,4.784342938
2373,4.801500016
2374,4.821031454
2375,4.80735024
2376,4.815293995
2377,4.801582336
2378,4.816794715
2379,4.810006245
2380,4.800952921
2381,4.803849092
2382,4.776055668
2383,4.792569573
2384,4.794951307
2385,4.803409457
2386,4.814405276
2387,4.793637139
2388,4.797408911
2389,4.804194403
2390,4.811395628
2391,4.807094818
2392,4.799463951
2393,4.800415647
2394,4.823691019
2395,4.803995161
2396,4.792202506
2397,4.802449871
2398,4.806974898
2399,4.801607734
2400,4.792770816
2401,4.805009649
2402,4.788051222
2403,4.786798469
2404,4.819681411
2405,4.796162866
2406,4.78551461
2407,4.787861052
2408,4.788975749
2409,4.796727887
2410,4.817116361
2411,4.785798219
2412,4.786653046
2413,4.789377554
2414,4.806023633
2415,4.809714478
2416,4.814259077
2417,4.767462671
2418,4.804894028
2419,4.780410113
2420,4.813335333
2421,4.766283621
2422,4.811951389
2423,4.78279555
2424,4.791776055
2425,4.798078772
2426,4.794840779
2427,4.785718116
2428,4.813431824
2429,4.792008325
2430,4.801842583
2431,4.784346793
2432,4.788769089
2433,4.794111937
2434,4.799855812
2435,4.777735959
2436,4.814265426
2437,4.78583863
2438,4.826831309
2439,4.810048547
2440,4.781613667
2441,4.805563013
2442,4.80937083
2443,4.821632997
2444,4.803998126
2445,4.825321525
2446,4.794807499
2447,4.800841185
2448,4.79309406
2449,4.808246622
2450,4.80037596
2451,4.799093168
2452,4.844658113
2453,4.81358453
2454,4.793077474
2455,4.787688337
2456,4.791377714
2457,4.797507152
2458,4.805859334
2459,4.786375839
2460,4.791598528
2461,4.79931408
2462,4.803794319
2463,4.802227749
2464,4.793409357
2465,4.823331482
2466,4.804603811
2467,4.824258172
2468,4.801742207
2469,4.768339511
2470,4.827677278
2471,4.793180605
2472,4.807445
2473,4.777039767
2474,4.800697926
2475,4.800273215
2476,4.781281146
2477,4.771748315
2478,4.782721418
2479,4.794066497
2480,4.781564543
2481,4.809913005
2482,4.798189345
2483,4.785914187
2484,4.809335428
2485,4.814540085
2486,4.77434371
2487,4.803517827
2488,4.828830492
2489,4.780454312
2490,4.813014454
2491,4.787595526
2492,4.79888994
2493,4.805516867
2494,4.795331819
2495,4.812056979
2496,4.806300301
2497,4.817398202
2498,4.781900126
2499,4.796421881
2500,4.773578264
2501,4.779106815
2502,4.807888509
2503,4.815544556
2504,4.804368279
2505,4.770831757
2506,4.80072473
2507,4.811902645
2508,4.792541743
2509,4.790461181
2510,4.785472425
2511,4.813711309
2512,4.793792977
2513,4.797832609
2514,4.810939203
2515,4.807162043
2516,4.808137467
2517,4.774707226
2518,4.777971796
2519,4.816901806
2520,4.793824119
2521,4.801075181
2522,4.809211725
2523,4.795135518
2524,4.791550523
2525,4.798363576
2526,4.789167384
2527,4.804979109
2528,4.784666995
2529,4.791460723
2530,4.811936459
2531,4.77837704
2532,4.792886765
2533,4.779396363
2534,4.795223975
2535,4.782570689
2536,4.818111708
2537,4.795089793
2538,4.768018407
2539,4.807467116
2540,4.782736667
2541,4.77722147
2542,4.792562483
2543,4.799228904
2544,4.818353167
2545,4.796942764
2546,4.811577436
2547,4.798966919
2548,4.795728321
2549,4.811690246
2550,4.810159702
2551,4.814207295
2552,4.814118381
2553,4.823496085
2554,4.816203349
2555,4.795049872
2556,4.792124655
2557,4.795647269
2558,4.818471431
2559,4.804595668
2560,4.817470115
2561,4.790637775
2562,4.789159492
2563,4.779422417
2564,4.827084977
2565,4.795929561
2566,4.809136329
2567,4.777355454
2568,4.810213516
2569,4.806745209
2570,4.792436328
2571,4.797159946
2572,4.799090292
2573,4.803986752
2574,4.783603177
2575,4.786697428
2576,4.77173906
2577,4.816822697
2578,4.807336318
2579,4.802862589
2580,4.792690795
2581,4.805570092
2582,4.791117665
2583,4.783755165
2584,4.839536385
2585,4.794152118
2586,4.804913455
2587,4.824028537
2588,4.801120715
2589,4.807948122
2590,4.800523858
2591,4.812866519
2592,4.81845779
2593,4.813689723
2594,4.816095159
2595,4.804916624
2596,4.801313088
2597,4.784099454
2598,4.807255024
2599,4.793776708
2600,4.795668413
2601,4.796633135
2602,4.788224896
2603,4.800000779
2604,4.802455087
2605,4.80037384
2606,4.795970351
2607,4.79541551
2608,4.802686989
2609,4.808275841
2610,4.807957005
2611,4.785060561
2612,4.786442929
2613,4.81893634
2614,4.806986377
2615,4.771886415
2616,4.780729136
2617,4.821518912
2618,4.792805898
2619,4.811166062
2620,4.806361478
2621,4.8141518
2622,4.805002639
2623,4.796970862
2624,4.816766096
2625,4.796068833
2626,4.789678562
2627,4.79270895
2628,4.798506257
2629,4.797233941
2630,4.790894828
2631,4.79444817
2632,4.78954353
2633,4.793071804
2634,4.786193993
2635,4.821886395
2636,4.763870512
2637,4.812166628
2638,4.79080024
2639,4.792017762
2640,4.810388625
2641,4.810246204
2642,4.821157672
2643,4.798819096
2644,4.770723786
2645,4.801272134
2646,4.813228131
2647,4.800592276
2648,4.814523858
2649,4.801054079
2650,4.793372124
2651,4.788086977
2652,4.801216192
2653,4.786900296
2654,4.790285372
2655,4.795953013
2656,4.794826088
2657,4.792496068
2658,4.794200308
2659,4.794362433
2660,4.819315643
2661,4.796186893
2662,4.774624044
2663,4.775291858
2664,4.78644379
2665,4.797885115
2666,4.78148378
2667,4.800195195
2668,4.786505491
2669,4.776544636
2670,4.794941766
2671,4.794594354
2672,4.786156562
2673,4.797995987
2674,4.815006175
2675,4.778150796
2676,4.797106196
2677,4.799775577
2678,4.793005583
2679,4.785765364
2680,4.810173101
2681,4.785907684
2682,4.80947304
2683,4.79734537
2684,4.832003804
2685,4.788968099
2686,4.788660515
2687,4.802325462
2688,4.782683483
2689,4.812155197
2690,4.78027691
2691,4.807278096
2692,4.827551841
2693,4.823304849
2694,4.795194304
2695,4.809855029
2696,4.832690621
2697,4.817484358
2698,4.790696593
2699,4.781145099
2700,4.809266217
2701,4.820422535
2702,4.823294096
2703,4.805141645
2704,4.790966724
2705,4.829489637
2706,4.793108001
2707,4.821277083
2708,4.773807845
2709,4.802928858
2710,4.794352182
2711,4.824523908
2712,4.797961272
2713,4.831313156
2714,4.810678943
2715,4.800217878
2716,4.836705659
2717,4.789323533
2718,4.792577952
2719,4.797799775
2720,4.796664249
2721,4.802645805
2722,4.81570852
2723,4.804078591
2724,4.80676028
2725,4.823735439
2726,4.816794342
2727,4.813617407
2728,4.789360601
2729,4.815204002
2730,4.804810772
2731,4.809406531
2732,4.820048633
2733,4.815905278
2734,4.817223504
2735,4.808540986
2736,4.806697503
2737,4.79878402
2738,4.809786205
2739,4.804347549
2740,4.802200611
2741,4.824737783
2742,4.827275817
2743,4.810171747
2744,4.808173026
2745,4.819057616
2746,4.792109447
2747,4.836544677
2748,4.81434605
2749,4.806178396
2750,4.802963485
2751,4.825381093
2752,4.838658517
2753,4.801248965
2754,4.804984047
2755,4.819615939
2756,4.831303346
2757,4.836738136
2758,4.838375512
2759,4.856367976
2760,4.866205155
2761,4.866362263
2762,4.855654336
2763,4.839189518
2764,4.843805765
2765,4.831939201
2766,4.870040999
2767,4.85632333
2768,4.853876856
2769,4.87451278
2770,4.857545814
2771,4.860087566
2772,4.872047987
2773,4.877571414
2774,4.851469975
2775,4.873726381
2776,4.88737963
2777,4.891691046
2778,4.899705224
2779,4.910529859
2780,4.916945642
2781,4.906430407
2782,4.906318476
2783,4.897490556
2784,4.910677726
2785,4.892571215
2786,4.948829108
2787,4.922353508
2788,4.93078851
2789,4.912698308
2790,4.953837166
2791,4.921679494
2792,4.91473268
2793,4.966676553
2794,4.943873138
2795,4.980511435
2796,4.963584905
2797,4.949300714
2798,4.960854716
2799,5.000094648
2800,4.965938667
2801,4.964621156
2802,4.96286838
2803,5.004256553
2804,4.992478026
2805,5.001315258
2806,4.995483893
2807,5.000153733
2808,5.015495049
2809,4.983076278
2810,5.051027471
2811,5.01986351
2812,5.033001343
2813,5.020158895
2814,5.053449552
2815,5.017261024
2816,5.073886698
2817,5.041483142
2818,5.025827428
2819,5.054883804
2820,5.089598792
2821,5.073264759
2822,5.054929054
2823,5.087255022
2824,5.088794578
2825,5.091699158
2826,5.071279267
2827,5.088599111
2828,5.119574425
2829,5.111810127
2830,5.087495744
2831,5.091695774
2832,5.099658861
2833,5.10100027
2834,5.115326072
2835,5.093291676
2836,5.085836474
2837,5.06027797
2838,5.088941175
2839,5.098150237
2840,5.091246983
2841,5.111919364
2842,5.081623818
2843,5.105497638
2844,5.09813163
2845,5.10187923
2846,5.110894276
2847,5.078575995
2848,5.113239881
2849,5.10212469
2850,5.105952261
2851,5.081623096
2852,5.081277506
2853,5.07919781
2854,5.08361178
2855,5.082404101
2856,5.08598763
2857,5.065682914
2858,5.052363863
2859,5.082154268
2860,5.071621845
2861,5.052111251
2862,5.069616103
2863,5.045826115
2864,5.032724778
2865,5.064492298
2866,5.036901511
2867,5.057498883
2868,5.044543518
2869,5.029832213
2870,5.036971145
2871,5.028476538
2872,4.993360579
2873,5.003040099
2874,5.01354089
2875,5.008405703
2876,5.003763285
2877,5.022861562
2878,5.006752324
2879,4.973869314
2880,4.968576451
2881,4.973571048
2882,4.977042832
2883,4.976521121
2884,4.950659299
2885,4.972505937
2886,4.953494798
2887,4.942327108
2888,4.958862981
2889,4.940704837
2890,4.936878428
2891,4.923913734
2892,4.944425609
2893,4.925305203
2894,4.912169559
2895,4.934164528
2896,4.90817276
2897,4.93343552
2898,4.903542306
2899,4.917362876
2900,4.910150353
2901,4.911409148
2902,4.90647795
2903,4.87770711
2904,4.870926862
2905,4.889908279
2906,4.881533356
2907,4.89635189
2908,4.871419102
2909,4.871265228
2910,4.884799888
2911,4.866132697
2912,4.882095634
2913,4.827986752
2914,4.84720093
2915,4.8501207
2916,4.872623145
2917,4.85341982
2918,4.855077668
2919,4.837459736
2920,4.816497888
2921,4.840545002
2922,4.861580566
2923,4.850039319
2924,4.80478695
2925,4.865974623
2926,4.833888575
2927,4.842044064
2928,4.803646865
2929,4.858518041
2930,4.818246304
2931,4.842594837
2932,4.859432293
2933,4.819144729
2934,4.851998121
2935,4.835417522
2936,4.822584126
2937,4.82872034
2938,4.85471633
2939,4.850202588
2940,4.851853906
2941,4.834032949
2942,4.81632145
2943,4.831464572
2944,4.832077333
2945,4.851351436
2946,4.824120242
2947,4.848869957
2948,4.860917709
2949,4.821719835
2950,4.889196632
2951,4.829643825
2952,4.849829739
2953,4.858317958
2954,4.850512673
2955,4.868113037
2956,4.887940475
2957,4.887891791
2958,4.896811294
2959,4.880309124
2960,4.879538487
2961,4.859573808
2962,4.908748859
2963,4.890612248
2964,4.908017586
2965,4.894199663
2966,4.913087729
2967,4.933894556
2968,4.883314843
2969,4.93385792
2970,4.923876078
2971,4.939748506
2972,4.944472147
2973,4.959876725
2974,5.007028501
2975,4.982197783
2976,4.97180904
2977,5.006488459
2978,5.013255535
2979,5.023374487
2980,5.047465475
2981,5.037009828
2982,5.028376679
2983,5.048138945
2984,5.080319207
2985,5.079543627
2986,5.059719059
2987,5.099215243
2988,5.090591307
2989,5.12724464
2990,5.160739392
2991,5.143171482
2992,5.142228301
2993,5.164055673
2994,5.194189415
2995,5.200076872
2996,5.209631649
2997,5.234635865
2998,5.248006711
2999,5.271199399
3000,5.302471918
3001,5.312548804
3002,5.311423188
3003,5.352570585
3004,5.367027802
3005,5.360762144
3006,5.36325914
3007,5.40218446
3008,5.416539296
3009,5.41627968
3010,5.427851831
3011,5.475126959
3012,5.484971435
3013,5.531977737
3014,5.511988504
3015,5.550396552
3016,5.559331424
3017,5.565487284
3018,5.600236058
3019,5.62889808
3020,5.64870748
3021,5.657280146
3022,5.691619714
3023,5.709946002
3024,5.701514731
3025,5.733342747
3026,5.746924667
3027,5.767996261
3028,5.762931464
3029,5.785018755
3030,5.803046732
3031,5.848988287
3032,5.820554576
3033,5.836394575
3034,5.853545225
3035,5.88384198
3036,5.912104501
3037,5.908104452
3038,5.946499723
3039,5.953423485
3040,5.960597992
3041,5.967992026
3042,5.973019157
3043,5.994071713
3044,5.980560355
3045,5.978568989
3046,6.051946651
3047,6.022518858
3048,6.065494385
3049,6.070199146
3050,6.061902467
3051,6.071616113
3052,6.081023018
3053,6.092155541
3054,6.098407773
3055,6.116596014
3056,6.100495221
3057,6.106667313
3058,6.132696262
3059,6.105334939
3060,6.117306838
3061,6.097781475
3062,6.127841309
3063,6.10911495
3064,6.129446323
3065,6.130230255
3066,6.123670697
3067,6.125895163
3068,6.117219182
3069,6.10640713
3070,6.112127465
3071,6.124747025
3072,6.115217744
3073,6.097574683
3074,6.070420873
3075,6.102345535
3076,6.109176517
3077,6.120948678
3078,6.06150982
3079,6.109534271
3080,6.07195799
3081,6.059841356
3082,6.059507267
3083,6.05178851
3084,6.031767033
3085,6.047581705
3086,6.047770616
3087,6.012391502
3088,6.017987158
3089,6.007544469
3090,5.973892984
3091,5.995383138
3092,5.98618748
3093,5.988259348
3094,5.994287066
3095,5.950973945
3096,5.959383654
3097,5.943018837
3098,5.955576147
3099,5.904130204
3100,5.929686184
3101,5.891055002
3102,5.925545819
3103,5.903380869
3104,5.882500645
3105,5.872727986
3106,5.866989321
3107,5.856315402
3108,5.827400843
3109,5.82836817
3110,5.836887704
3111,5.840378484
3112,5.7941227
3113,5.790578068
3114,5.7863191
3115,5.803895907
3116,5.756362473
3117,5.729487708
3118,5.740851623
3119,5.757242825
3120,5.692866919
3121,5.721082828
3122,5.698074804
3123,5.713463869
3124,5.680683248
3125,5.688565141
3126,5.649915067
3127,5.673893197
3128,5.654751417
3129,5.673045328
3130,5.630081036
3131,5.616380426
3132,5.601338091
3133,5.598212104
3134,5.612377299
3135,5.538781664
3136,5.567277519
3137,5.560697085
3138,5.564678091
3139,5.531937488
3140,5.507182349
3141,5.489513638
3142,5.492806438
3143,5.51236622
3144,5.50303957
3145,5.483185045
3146,5.478026833
3147,5.472774451
3148,5.419468194
3149,5.426040569
3150,5.404949138
3151,5.419233117
3152,5.380409457
3153,5.377946414
3154,5.377097187
3155,5.357214657
3156,5.358355879
3157,5.359094259
3158,5.323674784
3159,5.357491378
3160,5.338891862
3161,5.32964348
3162,5.290337421
3163,5.305050278
3164,5.275841493
3165,5.28689301
3166,5.25906699
3167,5.277626562
3168,5.255457223
3169,5.237880967
3170,5.220838206
3171,5.231615272
3172,5.21385001
3173,5.219807502
3174,5.203696564
3175,5.19563598
3176,5.170722286
3177,5.159591407
3178,5.175213782
3179,5.172744383
3180,5.121742888
3181,5.152882076
3182,5.109785766
3183,5.110689048
3184,5.109785726
3185,5.126737828
3186,5.083267415
3187,5.122244654
3188,5.086333908
3189,5.076159221
3190,5.070461521
3191,5.071444999
3192,5.030641269
3193,5.031291053
3194,5.030025136
3195,5.024454164
3196,5.003621656
3197,5.009129543
3198,4.990932443
3199,4.998767611
3200,4.977418329
3201,4.986947653
3202,4.999366066
3203,4.964616129
3204,4.977863926
3205,4.949407544
3206,4.95606861
3207,4.974433919
3208,4.962295754
3209,4.943859379
3210,4.958456043
3211,4.950789843
3212,4.929284157
3213,4.945498207
3214,4.933869854
3215,4.884357066
3216,4.922935082
3217,4.898967464
3218,4.888724885
3219,4.905405946
3220,4.897111587
3221,4.878831796
3222,4.883952574
3223,4.906261332
3224,4.874706619
3225,4.879928621
3226,4.879699589
3227,4.893410382
3228,4.867268014
3229,4.876292369
3230,4.837449746
3231,4.894956616
3232,4.87701719
3233,4.857064816
3234,4.827855529
3235,4.861379483
3236,4.864780097
3237,4.837887559
3238,4.855291062
3239,4.864044086
3240,4.836301055
3241,4.823985567
3242,4.833858051
3243,4.846634167
3244,4.845134396
3245,4.823172185
3246,4.832061654
3247,4.824578574
3248,4.842576986
3249,4.814736884
3250,4.808839686
3251,4.83308682
3252,4.815445368
3253,4.823851604
3254,4.834600727
3255,4.809260383
3256,4.819743913
3257,4.845014735
3258,4.811357746
3259,4.818813829
3260,4.824182595
3261,4.826518048
3262,4.811065928
3263,4.793501719
3264,4.818742933
3265,4.830195086
3266,4.806073702
3267,4.813766415
3268,4.783679079
3269,4.817434611
3270,4.791744007
3271,4.842215642
3272,4.838697751
3273,4.807265234
3274,4.817330554
3275,4.81475517
3276,4.790509177
3277,4.812200662
3278,4.815105615
3279,4.8148588
3280,4.802927716
3281,4.813421855
3282,4.8013742
3283,4.786528255
3284,4.785092181
3285,4.808643551
3286,4.826819573
3287,4.803136549
3288,4.822421246
3289,4.79858299
3290,4.813590925
3291,4.802867215
3292,4.790099019
3293,4.803943021
3294,4.798836661
3295,4.796501503
3296,4.813121327
3297,4.805921488
3298,4.808245605
3299,4.807404793
3300,4.807931488
3301,4.789592851
3302,4.786297678
3303,4.807820992
3304,4.775226943
3305,4.810617324
3306,4.797383739
3307,4.812744614
3308,4.800115505
3309,4.812448356
3310,4.781342632
3311,4.806129059
3312,4.817136545
3313,4.794944869
3314,4.815559271
3315,4.811535159
3316,4.80669114
3317,4.808448245
3318,4.802904781
3319,4.79290856
3320,4.823637833
3321,4.771986661
3322,4.798226993
3323,4.801341184
3324,4.799460188
3325,4.812367726
3326,4.796307977
3327,4.816761757
3328,4.781325515
3329,4.798491861
3330,4.796424972
3331,4.806550264
3332,4.78665147
3333,4.81584689
3334,4.809103226
3335,4.80338167
3336,4.821302402
3337,4.814770675
3338,4.837890991
3339,4.816164749
3340,4.799061791
3341,4.803177069
3342,4.779635716
3343,4.827736637
3344,4.791117325
3345,4.812183738
3346,4.788804537
3347,4.788290117
3348,4.816190344
3349,4.804658459
3350,4.823523682
3351,4.80511072
3352,4.784477184
3353,4.802328843
3354,4.783989493
3355,4.784811273
3356,4.784962552
3357,4.802987855
3358,4.763481752
3359,4.80021637
3360,4.775869283
3361,4.785441973
3362,4.821916737
3363,4.806679585
3364,4.802607891
3365,4.789096949
3366,4.793246846
3367,4.7800189
3368,4.80994704
3369,4.798020387
3370,4.824195474
3371,4.815338796
3372,4.791597383
3373,4.802069193
3374,4.76342271
3375,4.799468838
3376,4.807256904
3377,4.802640683
3378,4.786999364
3379,4.788257706
3380,4.837633338
3381,4.789777579
3382,4.803009324
3383,4.817014665
3384,4.808157045
3385,4.802958709
3386,4.807817499
3387,4.804291571
3388,4.782871064
3389,4.840017188
3390,4.783049396
3391,4.809786659
3392,4.806591732
3393,4.793429949
3394,4.795750792
3395,4.80697328
3396,4.818268399
3397,4.812659629
3398,4.829763197
3399,4.793823328
3400,4.819043828
3401,4.837128528
3402,4.783097392
3403,4.791748088
3404,4.780226585
3405,4.79707301
3406,4.793637272
3407,4.796837297
3408,4.789723885
3409,4.796004873
3410,4.817611879
3411,4.786509264
3412,4.783168686
3413,4.804590485
3414,4.818178057
3415,4.804407661
3416,4.804444768
3417,4.798344345
3418,4.786959944
3419,4.762905795
3420,4.808930538
3421,4.80851954
3422,4.820244299
3423,4.783907467
3424,4.799792158
3425,4.784173884
3426,4.808036218
3427,4.816699016
3428,4.810798867
3429,4.800634878
3430,4.792905742
3431,4.814887307
3432,4.797048973
3433,4.808300208
3434,4.823676959
3435,4.807442991
3436,4.789345928
3437,4.780506015
3438,4.801817556
3439,4.79547734
3440,4.824137705
3441,4.791554559
3442,4.804482538
3443,4.786120825
3444,4.815675136
3445,4.797643828
3446,4.815405076
3447,4.785984406
3448,4.821104754
3449,4.818161119
3450,4.817163243
3451,4.827283875
3452,4.812069313
3453,4.811541739
3454,4.801208219
3455,4.7910056
3456,4.783135978
3457,4.777053857
3458,4.806325238
3459,4.811868925
3460,4.812582322
3461,4.81855053
3462,4.811537234
3463,4.788859683
3464,4.776047527
3465,4.787066325
3466,4.793115913
3467,4.801324121
3468,4.780198761
3469,4.803424396
3470,4.80787438
3471,4.815411323
3472,4.797983652
3473,4.831051938
3474,4.769247596
3475,4.793503428
3476,4.783236689
3477,4.809713533
3478,4.838742934
3479,4.786981661
3480,4.787983114
3481,4.813331782
3482,4.798214081
3483,4.809935035
3484,4.800348261
3485,4.788782138
3486,4.814494243
3487,4.800916467
3488,4.787601508
3489,4.811516626
3490,4.808128076
3491,4.807454142
3492,4.801001211
3493,4.826391727
3494,4.770241893
3495,4.823688504
3496,4.780605572
3497,4.799164707
3498,4.78742362
3499,4.812464664
3500,4.78574909
3501,4.80872998
3502,4.800241374
3503,4.810499251
3504,4.777708788
3505,4.7899778
3506,4.826163137
3507,4.781078186
3508,4.818146253
3509,4.81570192
3510,4.806891378
3511,4.804401784
3512,4.806532193
3513,4.816390049
3514,4.805230049
3515,4.812428703
3516,4.800671288
3517,4.809921923
3518,4.818005259
3519,4.81037596
3520,4.815998229
3521,4.837722077
3522,4.815219222
3523,4.827785251
3524,4.808062477
3525,4.808062675
3526,4.810868662
3527,4.794373891
3528,4.795949744
3529,4.766511271
3530,4.770818987
3531,4.810625695
3532,4.789041337
3533,4.801648135
3534,4.814803035
3535,4.794197193
3536,4.791024804
3537,4.803949045
3538,4.766853458
3539,4.814750958
3540,4.826350102
3541,4.822935485
3542,4.79784246
3543,4.816401959
3544,4.803373859
3545,4.782107776
3546,4.767607055
3547,4.786063944
3548,4.833858858
3549,4.812920231
3550,4.804461007
3551,4.793678
3552,4.824005509
3553,4.766893367
3554,4.818974523
3555,4.792622816
3556,4.787640263
3557,4.774687898
3558,4.810892633
3559,4.829912555
3560,4.753691708
3561,4.78455304
3562,4.788142105
3563,4.82182383
3564,4.824405147
3565,4.812323007
3566,4.790256868
3567,4.838663835
3568,4.81247511
3569,4.818592987
3570,4.784993154
3571,4.776703873
3572,4.812033629
3573,4.809318277
3574,4.803564923
3575,4.807168234
3576,4.807036068
3577,4.774080949
3578,4.793956469
3579,4.807664492
3580,4.813577209
3581,4.801442406
3582,4.829938794
3583,4.786395383
3584,4.786253781
3585,4.797177539
3586,4.7821841
3587,4.806322749
3588,4.796069004
3589,4.805856512
3590,4.822538634
3591,4.820093017
3592,4.776714169
3593,4.799551184
3594,4.79964974
3595,4.801596069
3596,4.79392592
3597,4.777339857
3598,4.793502692
3599,4.803299636
3600,4.809584228
3601,4.806713618
3602,4.803155415
3603,4.782297307
3604,4.796818683
3605,4.81151336
3606,4.816496712
3607,4.8127446
3608,4.782676191
3609,4.807423709
3610,4.78232631
3611,4.802628347
3612,4.786448881
3613,4.79077647
3614,4.804368148
3615,4.79377271
3616,4.782975238
3617,4.816075126
3618,4.775536273
3619,4.802044609
3620,4.810507515
3621,4.811686446
3622,4.808463622
3623,4.802366392
3624,4.813509802
3625,4.784502137
3626,4.811575726
3627,4.822959537
3628,4.791112024
3629,4.804512889
3630,4.803506569
3631,4.813447572
3632,4.793509564
3633,4.793208756
3634,4.804289424
3635,4.785810528
3636,4.819346137
3637,4.812207029
3638,4.806127546
3639,4.814054803
3640,4.787754453
3641,4.802212238
3642,4.788442799
3643,4.814939967
3644,4.799518843
3645,4.80290164
3646,4.794883648
3647,4.769141593
3648,4.807875476
3649,4.821234474
3650,4.810715921
3651,4.820613212
3652,4.825204643
3653,4.795915117
3654,4.798290046
3655,4.77420357
3656,4.771971829
3657,4.767654878
3658,4.786162122
3659,4.784022882
3660,4.80381746
3661,4.785997971
3662,4.775482508
3663,4.782977809
3664,4.785094933
3665,4.802551799
3666,4.808859433
3667,4.823515495
3668,4.819062455
3669,4.801760547
3670,4.817162727
3671,4.811089245
3672,4.801025267
3673,4.796110043
3674,4.776456925
3675,4.817756856
3676,4.784488903
3677,4.792888821
3678,4.805036582
3679,4.801343976
3680,4.808016847
3681,4.792147792
3682,4.79382712
3683,4.793426832
3684,4.786488757
3685,4.793228992
3686,4.828550503
3687,4.7851833
3688,4.815906523
3689,4.809098051
3690,4.804762675
3691,4.815805033
3692,4.794322033
3693,4.816019083
3694,4.817898632
3695,4.786033432
3696,4.81321248
3697,4.810302025
3698,4.809730972
3699,4.811326529
3700,4.80503913
3701,4.799784607
3702,4.781749118
3703,4.7690822
3704,4.805955561
3705,4.794740795
3706,4.785945206
3707,4.817657019
3708,4.808983518
3709,4.784447416
3710,4.808087088
3711,4.794073552
3712,4.828001989
3713,4.825535723
3714,4.795997848
3715,4.793908618
3716,4.775001078
3717,4.792249665
3718,4.822446424
3719,4.810130003
3720,4.805216581
3721,4.77690172
3722,4.79560658
3723,4.788033201
3724,4.804261189
3725,4.801796415
3726,4.798802819
3727,4.806963457
3728,4.783429426
3729,4.826182076
3730,4.803178499
3731,4.805492364
3732,4.785482172
3733,4.805866855
3734,4.82197874
3735,4.822667677
3736,4.825521189
3737,4.784689695
3738,4.788043993
3739,4.810111203
3740,4.808779887
3741,4.805228315
3742,4.788887632
3743,4.795566033
3744,4.80268962
3745,4.818504191
3746,4.783072371
3747,4.814779724
3748,4.820162023
3749,4.802947187
3750,4.802651749
3751,4.778084496
3752,4.804796787
3753,4.776690482
3754,4.788229045
3755,4.786293524
3756,4.789835057
3757,4.802747802
3758,4.792696386
3759,4.811341318
3760,4.811231976
3761,4.782609267
3762,4.7895997
3763,4.800658128
3764,4.782570338
3765,4.793276705
3766,4.82673831
3767,4.81084233
3768,4.761942948
3769,4.779629287
3770,4.793240784
3771,4.80282844
3772,4.812527803
3773,4.805164602
3774,4.789449065
3775,4.809377015
3776,4.793914214
3777,4.801879497
3778,4.841864946
3779,4.809844698
3780,4.833591117
3781,4.809036682
3782,4.805468258
3783,4.804377685
3784,4.823567614
3785,4.808196145
3786,4.797156143
3787,4.797642898
3788,4.810847695
3789,4.791861239
3790,4.800432751
3791,4.794114106
3792,4.82099739
3793,4.789565882
3794,4.77337427
3795,4.781040773
3796,4.799980033
3797,4.789585298
3798,4.817796117
3799,4.792368262
3800,4.789496428
3801,4.80946188
3802,4.791354801
3803,4.775281236
3804,4.802372755
3805,4.799083672
3806,4.773675555
3807,4.790632037
3808,4.789707012
3809,4.803882334
3810,4.819507617
3811,4.81345338
3812,4.830279735
3813,4.799528143
3814,4.809524823
3815,4.821276525
3816,4.803827981
3817,4.811629259
3818,4.769744693
3819,4.805164368
3820,4.811072792
3821,4.772018111
3822,4.803325474
3823,4.812079067
3824,4.816179859
3825,4.803633637
3826,4.818320271
3827,4.805791376
3828,4.799393851
3829,4.797570704
3830,4.813620038
3831,4.791476888
3832,4.801947104
3833,4.760880475
3834,4.776707209
3835,4.792619082
3836,4.79886511
3837,4.811331919
3838,4.771109813
3839,4.752457442
3840,4.808616335
3841,4.807234537
3842,4.781207884
3843,4.80448508
3844,4.793676155
3845,4.799549867
3846,4.803921101
3847,4.792252058
3848,4.828354916
3849,4.800903621
3850,4.784962631
3851,4.800747938
3852,4.785305154
3853,4.807677929
3854,4.810508898
3855,4.810174952
3856,4.805986103
3857,4.81392632
3858,4.801128827
3859,4.840811703
3860,4.805563168
3861,4.789351523
3862,4.794373238
3863,4.805278974
3864,4.808564924
3865,4.782144838
3866,4.786300978
3867,4.808896863
3868,4.823449281
3869,4.815278685
3870,4.788671977
3871,4.827321198
3872,4.802930639
3873,4.787613611
3874,4.801121728
3875,4.795082185
3876,4.767033018
3877,4.789157188
3878,4.790943808
3879,4.833859299
3880,4.821485196
3881,4.831976843
3882,4.807437232
3883,4.813514028
3884,4.817325766
3885,4.777902679
3886,4.814064113
3887,4.803200117
3888,4.798885697
3889,4.815984552
3890,4.812885227
3891,4.795662854
3892,4.778116334
3893,4.802196976
3894,4.782016103
3895,4.793478209
3896,4.802840771
3897,4.800642314
3898,4.790115559
3899,4.809238443
3900,4.799721167
3901,4.791199345
3902,4.789899179
3903,4.802881036
3904,4.785888116
3905,4.788173947
3906,4.809275871
3907,4.782922109
3908,4.791484535
3909,4.801058972
3910,4.800313315
3911,4.809183846
3912,4.797766076
3913,4.814855677
3914,4.808201216
3915,4.801395502
3916,4.802679301
3917,4.813048338
3918,4.784924555
3919,4.790383157
3920,4.795044897
3921,4.78191675
3922,4.785540236
3923,4.793111433
3924,4.814083396
3925,4.799427077
3926,4.80208162
3927,4.802418605
3928,4.832426979
3929,4.792114229
3930,4.804708073
3931,4.819609873
3932,4.78961163
3933,4.797831889
3934,4.810277773
3935,4.787278396
3936,4.799726162
3937,4.80992494
3938,4.807125431
3939,4.79164864
3940,4.800860824
3941,4.830953818
3942,4.792794059
3943,4.811213853
3944,4.832126566
3945,4.804753783
3946,4.791129363
3947,4.795127463
3948,4.806972052
3949,4.796258302
3950,4.785081336
3951,4.817195355
3952,4.768479151
3953,4.787396897
3954,4.796649608
3955,4.799874465
3956,4.811304075
3957,4.803058391
3958,4.805456772
3959,4.767132898
3960,4.784260683
3961,4.807443089
3962,4.799515467
3963,4.815227748
3964,4.780429896
3965,4.807006619
3966,4.808280219
3967,4.809207475
3968,4.787686209
3969,4.822080514
3970,4.79732159
3971,4.786190925
3972,4.80267928
3973,4.769843097
3974,4.798937568
3975,4.788200833
3976,4.790244091
3977,4.799319681
3978,4.810405955
3979,4.793055403
3980,4.796411165
3981,4.808811661
3982,4.81108493
3983,4.795816079
3984,4.800643918
3985,4.786409584
3986,4.809833349
3987,4.781778509
3988,4.803681563
3989,4.778414732
3990,4.80138363
3991,4.816078112
3992,4.799253647
3993,4.821307102
3994,4.798283185
3995,4.792095467
3996,4.810152101
3997,4.800232937
3998,4.815344637
3999,4.792813036
4000,4.822266332
