Raman Shift,Intensity
177.1069,0.252083
177.589,0.556965
178.0711,0.619644
178.5532,0.405746
179.0353,0.015186
179.5175,0.181328
179.9996,0.206036
180.4817,0.901035
180.9638,1.344757
181.4459,1.41201
181.928,1.377148
182.4102,1.650166
182.8923,2.179466
183.3744,2.679508
183.8565,2.951118
184.3386,3.047962
184.8207,3.104729
185.3029,3.12579
185.785,3.140606
186.2671,3.216034
186.7492,3.34787
187.2313,3.46067
187.7134,3.464531
188.1956,3.391018
188.6777,3.389008
189.1598,3.483044
189.6419,3.660023
190.124,3.933548
190.6061,4.31321
191.0883,4.652515
191.5704,4.807423
192.0525,4.799786
192.5346,4.819912
193.0167,4.863415
193.4988,4.951889
193.981,5.194908
194.4631,5.603374
194.9452,5.92902
195.4273,5.691196
195.9094,4.909027
196.3915,4.302063
196.8737,3.999973
197.3558,3.964405
197.8379,4.170219
198.32,4.689148
198.8021,5.123524
199.2842,4.998428
199.7664,4.276836
200.2485,3.797333
200.7306,3.742584
201.2127,4.059189
201.6948,4.538155
202.1769,5.256908
202.6591,5.907757
203.1412,6.182808
203.6233,6.060429
204.1054,5.782436
204.5875,5.328793
205.0696,4.736649
205.5518,4.352409
206.0339,4.183796
206.516,4.188049
206.9981,4.390511
207.4802,4.863701
207.9623,5.180019
208.4445,5.185036
208.9266,4.896564
209.4087,4.757103
209.8908,4.791897
210.3729,4.920391
210.855,5.089012
211.3372,5.340843
211.8193,5.470417
212.3014,5.363201
212.7835,5.019234
213.2656,4.913685
213.7477,5.10696
214.2299,5.449417
214.712,5.7985
215.1941,6.213852
215.6762,6.47377
216.1583,6.480053
216.6404,6.215115
217.1226,6.037037
217.6047,5.941498
218.0868,5.935226
218.5689,6.03056
219.051,6.246059
219.5331,6.52869
220.0153,6.933205
220.4974,7.500454
220.9795,7.705471
221.4616,7.308853
221.9437,6.804623
222.4258,6.864594
222.908,7.807362
223.3901,8.628155
223.8722,9.022148
224.3543,8.936836
224.8364,8.928028
225.3185,9.094627
225.8007,9.26619
226.2828,9.229778
226.7649,8.802242
227.247,8.529919
227.7291,8.611469
228.2112,9.111538
228.6934,9.465836
229.1755,9.670849
229.6576,9.787189
230.1397,9.729965
230.6218,9.504108
231.1039,9.196232
231.5861,8.907814
232.0682,8.58329
232.5503,8.103104
233.0324,7.416386
233.5145,6.767155
233.9966,6.511497
234.4788,6.960999
234.9609,7.248524
235.443,7.11264
235.9251,6.480782
236.4072,5.879986
236.8893,5.242619
237.3715,4.688484
237.8536,4.41684
238.3357,4.612076
238.8178,4.741215
239.2999,4.640881
239.782,4.269882
240.2642,3.97612
240.7463,3.716206
241.2284,3.571384
241.7105,3.671223
242.1926,4.193409
242.6747,4.605026
243.1569,4.729416
243.639,4.510796
244.1211,4.490665
244.6032,4.839382
245.0853,5.234806
245.5674,5.271381
246.0496,4.709557
246.5317,4.23288
247.0138,4.0093
247.4959,4.061802
247.978,4.1077
248.4601,4.162586
248.9423,4.197746
249.4244,4.182243
249.9065,4.11277
250.3886,3.996769
250.8707,3.794117
251.3528,3.495541
251.835,3.387287
252.3171,3.586491
252.7992,3.849743
253.2813,3.92754
253.7634,3.765568
254.2455,3.530636
254.7277,3.223278
255.2098,2.839024
255.6919,2.528019
256.174,2.226746
256.6561,2.075066
257.1382,2.286884
257.6204,3.139214
258.1025,3.670647
258.5846,3.591442
259.0667,2.939899
259.5488,2.562153
260.0309,2.587532
260.5131,2.709373
260.9952,2.639069
261.4773,2.271603
261.9594,2.007412
262.4415,1.92907
262.9236,2.020844
263.4058,2.150097
263.8879,2.370426
264.37,2.539993
264.8521,2.551731
265.3342,2.393139
265.8163,2.102127
266.2985,1.602531
266.7806,0.967579
267.2627,0.644287
267.7448,0.747513
268.2269,0.926079
268.709,0.890968
269.1912,0.55739
269.6733,0.391171
270.1554,0.531845
270.6375,0.861008
271.1196,0.845526
271.6017,0.359718
272.0839,0.123009
272.566,0.218472
273.0481,0.155817
273.5302,0.345451
274.0123,0.216671
274.4944,0.088806003
274.9766,0.126881
275.4587,0.165895
275.9408,0.479315
276.4229,0.60239
276.905,0.516973
277.3871,0.492569
277.8693,0.575827
278.3514,0.698961
278.8335,0.686312
279.3156,0.51115
279.7977,0.356478
280.2798,0.36235
280.762,0.530441
281.2441,0.573322
281.7262,0.45681
282.2083,0.246792
282.6904,0.011646
283.1725,0.335426
283.6547,0.473055
284.1368,0.150562
284.6189,0.56934
285.101,0.949614
285.5831,0.944452
286.0652,0.683634
286.5474,0.234715
287.0295,0.395201
287.5116,0.854059
287.9937,0.990473
288.4758,0.822855
288.9579,0.33894
289.4401,0.545897
289.9222,1.33989
290.4043,1.297052
290.8864,0.519943
291.3685,0.171774
291.8506,0.461155
292.3328,0.434031
292.8149,0.278002
293.297,0.017682999
293.7791,0.316872
294.2612,0.472301
294.7433,0.508812
295.2255,0.521681
295.7076,0.548071
296.1897,0.566891
296.6718,0.53286
297.1539,0.447201
297.636,0.336926
298.1182,0.178679
298.6003,0.012249
299.0824,0.062366001
299.5645,0.009075
300.0466,0.155594
300.5287,0.308661
301.0109,0.461098
301.493,0.563747
301.9751,0.53973
302.4572,0.448713
302.9393,0.371269
303.4214,0.271442
303.9036,0.286579
304.3857,0.734921
304.8678,1.478054
305.3499,2.015125
305.832,1.839081
306.3141,1.358139
306.7963,1.086889
307.2784,1.168566
307.7605,1.282967
308.2426,1.030258
308.7247,0.591484
309.2068,0.401041
309.689,0.890682
310.1711,1.603729
310.6532,2.190369
311.1353,2.625063
311.6174,2.847731
312.0995,2.647623
312.5817,2.229313
313.0638,1.920799
313.5459,1.923201
314.028,2.023407
314.5101,2.080673
314.9922,2.079359
315.4744,2.142595
315.9565,2.349804
316.4386,2.648094
316.9207,2.974318
317.4028,3.428061
317.8849,3.800377
318.3671,3.962702
318.8492,3.92617
319.3313,3.91242
319.8134,3.923582
320.2955,4.025013
320.7776,4.267834
321.2598,4.881611
321.7419,5.405796
322.224,5.733154
322.7061,5.879557
323.1882,5.932972
323.6703,5.797644
324.1525,5.650312
324.6346,5.582809
325.1167,5.462273
325.5988,5.611073
326.0809,6.46954
326.563,7.658581
327.0452,8.143898
327.5273,6.91597
328.0094,5.76782
328.4915,5.380966
328.9736,6.192707
329.4557,6.829121
329.9379,7.270168
330.42,7.533596
330.9021,7.692677
331.3842,7.82601
331.8663,7.747478
332.3484,7.304237
332.8306,6.400221
333.3127,5.857754
333.7948,5.859089
334.2769,6.0373
334.759,6.055653
335.2411,5.841869
335.7233,5.641582
336.2054,5.520199
336.6875,5.469612
337.1696,5.354315
337.6517,5.155138
338.1339,4.931152
338.616,4.761139
339.0981,4.657848
339.5802,4.58136
340.0623,4.51446
340.5444,4.437237
341.0266,4.363132
341.5087,4.321609
341.9908,4.244976
342.4729,3.980339
342.955,3.523077
343.4371,3.339346
343.9193,3.535097
344.4014,3.893867
344.8835,4.004616
345.3656,3.863422
345.8477,3.634928
346.3298,3.347139
346.812,3.056641
347.2941,2.939634
347.7762,2.99058
348.2583,3.114489
348.7404,3.357853
349.2225,3.616768
349.7047,3.478344
350.1868,2.375053
350.6689,1.000675
351.151,0.742771
351.6331,1.569012
352.1152,2.486631
352.5974,2.565454
353.0795,2.165224
353.5616,1.964678
354.0437,2.247604
354.5258,2.677589
355.0079,2.982229
355.4901,3.159079
355.9722,3.205585
356.4543,3.031151
356.9364,2.761507
357.4185,2.510038
357.9006,2.259398
358.3828,2.126038
358.8649,2.284803
359.347,2.612001
359.8291,2.85918
360.3112,2.876644
360.7933,2.812193
361.2755,2.687553
361.7576,2.467537
362.2397,2.458191
362.7218,3.114847
363.2039,3.922495
363.686,4.306395
364.1682,3.523815
364.6503,2.871433
365.1324,2.889677
365.6145,3.55138
366.0966,4.013632
366.5787,4.065987
367.0609,3.921188
367.543,3.715633
368.0251,3.308298
368.5072,3.019789
368.9893,2.881092
369.4714,2.878683
369.9536,2.998415
370.4357,3.571014
370.9178,3.914642
371.3999,3.688391
371.882,2.516953
372.3641,1.748762
372.8463,1.519424
373.3284,1.611279
373.8105,1.709967
374.2926,1.844393
374.7747,1.91893
375.2568,1.896181
375.739,1.774561
376.2211,1.641304
376.7032,1.477573
377.1853,1.337547
377.6674,1.297941
378.1495,1.377899
378.6317,1.373047
379.1138,1.209377
379.5959,0.956392
380.078,0.860147
380.5601,0.939434
381.0422,0.974211
381.5244,0.730667
382.0065,0.278372
382.4886,0.048425999
382.9707,0.128838
383.4528,0.304127
383.9349,0.210712
384.4171,0.091931999
384.8992,0.281544
385.3813,0.047318
385.8634,0.351875
386.3455,0.407412
386.8276,0.089689001
387.3098,0.213795
387.7919,0.128691
388.274,0.196177
388.7561,0.501194
389.2382,0.795267
389.7203,0.944784
390.2025,0.656687
390.6846,0.049152002
391.1667,0.324089
391.6488,0.145174
392.1309,0.823185
392.613,1.164436
393.0952,0.950819
393.5773,0.63261
394.0594,0.299789
394.5415,0.001686
395.0236,0.170172
395.5057,0.0066430001
395.9879,0.129871
396.47,0.041154999
396.9521,0.34343
397.4342,0.574877
397.9163,0.470024
398.3984,0.236181
398.8806,0.062460002
399.3627,0.018345
399.8448,0.060869001
400.3269,0.050579
400.809,0.003
401.2911,0.031033
401.7733,0.067635
402.2554,0.039747
402.7375,0.105011
403.2196,0.436661
403.7017,0.712669
404.1838,0.925404
404.666,1.083256
405.1481,1.207016
405.6302,1.311846
406.1123,1.326429
406.5944,1.180603
407.0765,0.886679
407.5587,0.737993
408.0408,0.753223
408.5229,0.836716
409.005,0.891794
409.4871,0.921755
409.9692,0.985699
410.4514,1.118696
410.9335,1.267969
411.4156,1.270971
411.8977,1.146261
412.3798,1.110378
412.8619,1.484529
413.3441,2.016577
413.8262,2.176373
414.3083,1.856531
414.7904,1.406326
415.2725,1.043163
415.7546,0.804161
416.2368,0.757559
416.7189,1.219299
417.201,1.685226
417.6831,1.608879
418.1652,1.028355
418.6473,0.667006
419.1295,1.213272
419.6116,2.01063
420.0937,2.452036
420.5758,2.103846
421.0579,1.808113
421.54,2.002291
422.0222,2.460299
422.5043,2.616652
422.9864,1.974001
423.4685,1.329714
423.9506,0.977112
424.4327,0.987219
424.9149,1.129068
425.397,1.563194
425.8791,2.029179
426.3612,2.264875
426.8433,2.129543
427.3254,1.984779
427.8076,1.87196
428.2897,1.789587
428.7718,1.738451
429.2539,1.725328
429.736,1.732046
430.2181,1.738008
430.7003,1.733534
431.1824,1.808741
431.6645,1.996214
432.1466,2.215107
432.6287,2.345757
433.1108,2.388405
433.593,2.322685
434.0751,2.047665
434.5572,1.672308
435.0393,1.626984
435.5214,1.922874
436.0035,2.205454
436.4857,2.027985
436.9678,1.596716
437.4499,1.45142
437.932,1.836975
438.4141,2.29262
438.8962,2.200615
439.3784,1.741631
439.8605,1.445004
440.3426,1.764559
440.8247,2.260897
441.3068,2.585838
441.7889,2.700981
442.2711,2.703297
442.7532,2.602232
443.2353,2.45545
443.7174,2.288897
444.1995,1.932276
444.6816,1.72835
445.1638,1.859917
445.6459,2.264427
446.128,2.565485
446.6101,2.612915
447.0922,2.606184
447.5743,2.631752
448.0565,2.7174
448.5386,2.766701
449.0207,2.793697
449.5028,2.792593
449.9849,2.659935
450.467,2.297337
450.9492,1.987846
451.4313,1.769152
451.9134,1.638159
452.3955,1.673492
452.8776,1.901989
453.3597,2.201092
453.8419,2.514132
454.324,2.831755
454.8061,2.949312
455.2882,2.826763
455.7703,2.609762
456.2524,2.46339
456.7346,2.384434
457.2167,2.386032
457.6988,2.597647
458.1809,2.835451
458.663,2.71036
459.1451,2.244274
459.6273,1.783987
460.1094,1.630426
460.5915,1.641777
461.0736,1.624537
461.5557,1.511089
462.0378,1.423161
462.52,1.555643
463.0021,1.795387
463.4842,1.906775
463.9663,1.655729
464.4484,1.381826
464.9305,1.258978
465.4127,1.304451
465.8948,1.353489
466.3769,1.39785
466.859,1.404356
467.3411,1.366083
467.8232,1.153099
468.3054,1.079033
468.7875,1.248629
469.2696,1.544998
469.7517,1.674755
470.2338,1.555599
470.7159,1.419237
471.1981,1.33057
471.6802,1.288197
472.1623,1.369408
472.6444,1.63739
473.1265,1.855656
473.6086,1.706341
474.0908,1.197689
474.5729,0.846741
475.055,0.762056
475.5371,0.859373
476.0192,1.057396
476.5013,1.311716
476.9835,1.478697
477.4656,1.58922
477.9477,1.585348
478.4298,1.245348
478.9119,0.548025
479.394,0.0072670002
479.8762,0.193525
480.3583,0.725136
480.8404,1.098429
481.3225,1.121075
481.8046,1.026976
482.2867,0.828041
482.7689,0.598726
483.251,0.529705
483.7331,0.886755
484.2152,1.241964
484.6973,1.408981
485.1794,1.354462
485.6616,1.229467
486.1437,0.924261
486.6258,0.628149
487.1079,0.493696
487.59,0.652035
488.0721,0.734814
488.5543,0.665665
489.0364,0.513325
489.5185,0.513914
490.0006,0.749039
490.4827,0.884689
490.9648,0.67235
491.447,0.133764
491.9291,0.020933
492.4112,0.273054
492.8933,0.657784
493.3754,0.74214
493.8575,0.594604
494.3397,0.52492
494.8218,0.635502
495.3039,0.784481
495.786,0.768484
496.2681,0.622988
496.7502,0.46979
497.2324,0.278954
497.7145,0.181417
498.1966,0.35013
498.6787,0.784023
499.1608,1.149229
499.6429,1.320463
500.1251,1.332848
500.6072,1.206882
501.0893,0.756243
501.5714,0.433004
502.0535,0.422707
502.5356,0.603102
503.0178,0.6961
503.4999,0.638805
503.982,0.529419
504.4641,0.369356
504.9462,0.153847
505.4283,0.019069999
505.9105,0.0038930001
506.3926,0.011425
506.8747,0.047006998
507.3568,0.192886
507.8389,0.266581
508.321,0.260267
508.8032,0.162294
509.2853,0.134298
509.7674,0.609455
510.2495,0.923962
510.7316,0.868721
511.2137,0.591669
511.6959,0.372982
512.178,0.215672
512.6601,0.137274
513.1422,0.175022
513.6243,0.289968
514.1064,0.457041
514.5886,0.70402
515.0707,0.883846
515.5528,0.832355
516.0349,0.674713
516.517,0.59115
516.9991,0.844446
517.4813,0.973112
517.9634,0.68158
518.4455,0.046376999
518.9276,0.295872
519.4097,0.047880001
519.8918,0.319008
520.374,0.650709
520.8561,1.003935
521.3382,1.12966
521.8203,0.947842
522.3024,0.62994
522.7845,0.327457
523.2667,0.010357
523.7488,0.103533
524.2309,0.094668999
524.713,0.461977
525.1951,0.608055
525.6772,0.539013
526.1594,0.515186
526.6415,0.790085
527.1236,1.19754
527.6057,1.317673
528.0878,1.134165
528.5699,0.929293
529.0521,0.958637
529.5342,1.100904
530.0163,1.198803
530.4984,1.205681
530.9805,1.169725
531.4626,1.17811
531.9448,1.156466
532.4269,0.961147
532.909,0.159416
533.3911,0.443132
533.8732,0.484221
534.3553,0.069769002
534.8375,0.493277
535.3196,0.797297
535.8017,0.934668
536.2838,0.839045
536.7659,0.35055
537.248,0.071579002
537.7302,0.053551
538.2123,0.196815
538.6944,0.406332
539.1765,0.69663
539.6586,0.838614
540.1407,0.708395
540.6229,0.443127
541.105,0.383768
541.5871,0.515812
542.0692,0.672359
542.5513,0.756605
543.0334,0.798439
543.5156,0.835049
543.9977,0.868271
544.4798,0.914412
544.9619,1.087194
545.444,1.2381
545.9261,1.191099
546.4083,0.732546
546.8904,0.308329
547.3725,0.049385
547.8546,0.065378003
548.3367,0.089657001
548.8188,0.017244
549.301,0.160551
549.7831,0.357449
550.2652,0.612041
550.7473,0.710373
551.2294,0.553358
551.7115,0.402138
552.1937,0.471548
552.6758,0.807878
553.1579,0.913729
553.64,0.730919
554.1221,0.418829
554.6042,0.133127
555.0864,0.113771
555.5685,0.235605
556.0506,0.182741
556.5327,0.01668
557.0148,0.226681
557.4969,0.534403
557.9791,0.794714
558.4612,0.986673
558.9433,1.065598
559.4254,0.898411
559.9075,0.472761
560.3896,0.189941
560.8718,0.309118
561.3539,0.575531
561.836,0.811926
562.3181,1.107904
562.8002,1.210993
563.2823,0.926823
563.7645,0.51272
564.2466,0.39081
564.7287,0.710714
565.2108,0.973721
565.6929,1.109055
566.175,1.126036
566.6572,0.994192
567.1393,0.743204
567.6214,0.518461
568.1035,0.386496
568.5856,0.349005
569.0677,0.430729
569.5499,0.638346
570.032,0.909424
570.5141,1.346268
570.9962,1.755722
571.4783,1.776814
571.9604,1.122334
572.4426,0.499201
572.9247,0.430904
573.4068,0.694967
573.8889,0.894905
574.371,0.775326
574.8531,0.699684
575.3353,0.85816
575.8174,1.223616
576.2995,1.39533
576.7816,1.208328
577.2637,1.013323
577.7458,0.933748
578.228,0.974585
578.7101,1.085903
579.1922,1.309063
579.6743,1.507715
580.1564,1.504383
580.6385,1.311026
581.1207,1.143867
581.6028,1.033499
582.0849,0.995979
582.567,1.026545
583.0491,1.11941
583.5313,1.270243
584.0134,1.555672
584.4955,1.842396
584.9776,1.963585
585.4597,1.953362
585.9418,2.008614
586.424,2.379225
586.9061,2.720884
587.3882,2.782869
587.8703,2.418827
588.3524,2.245043
588.8345,2.527565
589.3167,2.902216
589.7988,3.089952
590.2809,3.032743
590.763,2.905664
591.2451,2.660658
591.7272,2.387245
592.2094,2.276789
592.6915,2.317474
593.1736,2.218187
593.6557,1.777361
594.1378,1.201139
594.6199,1.013781
595.1021,1.179821
595.5842,1.413519
596.0663,1.685881
596.5484,1.84425
597.0305,1.577579
597.5126,0.840256
597.9948,0.32206
598.4769,0.621868
598.959,1.194836
599.4411,1.577442
599.9232,1.59103
600.4053,1.560472
600.8875,1.575512
601.3696,1.555822
601.8517,1.354387
602.3338,0.754433
602.8159,0.42238
603.298,0.578506
603.7802,1.057926
604.2623,1.242516
604.7444,1.096067
605.2265,0.928415
605.7086,0.871515
606.1907,0.92384
606.6729,1.143772
607.155,1.522621
607.6371,1.792618
608.1192,1.612003
608.6013,1.24177
609.0834,1.050507
609.5656,1.147505
610.0477,1.209063
610.5298,0.986763
611.0119,0.662292
611.494,0.437813
611.9761,0.393293
612.4583,0.413
612.9404,0.594629
613.4225,0.808235
613.9046,0.72633
614.3867,0.138906
614.8688,0.278944
615.351,0.308224
615.8331,0.0081230002
616.3152,0.297995
616.7973,0.620153
617.2794,0.838392
617.7615,0.85318
618.2437,0.696478
618.7258,0.404543
619.2079,0.033348002
619.69,0.375448
620.1721,0.39566
620.6542,0.209236
621.1364,0.087366
621.6185,0.633652
622.1006,0.923819
622.5827,0.361694
623.0648,0.471529
623.5469,0.763739
624.0291,0.382597
624.5112,1.161674
624.9933,1.205738
625.4754,0.712923
625.9575,0.336096
626.4396,0.084801003
626.9218,0.085533001
627.4039,0.193333
627.886,0.235184
628.3681,0.14773
628.8502,0.075370997
629.3323,0.259201
629.8145,0.177597
630.2966,0.011921
630.7787,0.043079
631.2608,0.395935
631.7429,0.714424
632.225,0.729504
632.7072,0.588509
633.1893,0.440622
633.6714,0.261992
634.1535,0.183048
634.6356,0.36779
635.1177,0.63678
635.5999,0.695366
636.082,0.322149
636.5641,0.096597999
637.0462,0.164137
637.5283,0.429512
638.0104,0.576326
638.4926,0.593302
638.9747,0.571789
639.4568,0.533333
639.9389,0.491814
640.421,0.485983
640.9031,0.516838
641.3853,0.596813
641.8674,0.792152
642.3495,1.013725
642.8316,1.136162
643.3137,1.137154
643.7958,1.147461
644.278,1.20933
644.7601,1.323866
645.2422,1.500628
645.7243,1.92152
646.2064,2.113646
646.6885,1.927553
647.1707,1.583889
647.6528,1.368752
648.1349,1.295866
648.617,1.29706
649.0991,1.347183
649.5812,1.47813
650.0634,1.830845
650.5455,2.388941
651.0276,2.870039
651.5097,3.149263
651.9918,3.275608
652.4739,3.280462
652.9561,3.185127
653.4382,3.102007
653.9203,3.113453
654.4024,3.147692
654.8845,3.150259
655.3666,3.111492
655.8488,3.095999
656.3309,2.964878
656.813,2.984692
657.2951,3.356337
657.7772,4.332262
658.2593,4.958918
658.7415,5.134077
659.2236,5.12513
659.7057,5.254436
660.1878,5.516512
660.6699,5.632362
661.152,5.484539
661.6342,5.340399
662.1163,5.700186
662.5984,6.375397
663.0805,6.860899
663.5626,6.702139
664.0447,6.541159
664.5269,6.911409
665.009,7.650326
665.4911,8.291504
665.9732,8.694777
666.4553,8.972229
666.9374,9.107742
667.4196,9.1185
667.9017,9.20437
668.3838,9.365685
668.8659,9.605103
669.348,9.958221
669.8301,10.42269
670.3123,10.79406
670.7944,11.06583
671.2765,11.30417
671.7586,11.55712
672.2407,11.82593
672.7228,12.13725
673.205,12.54258
673.6871,12.82099
674.1692,12.55704
674.6513,12.14679
675.1334,12.06554
675.6155,12.67449
676.0977,13.25411
676.5798,13.66355
677.0619,13.93355
677.544,14.081
678.0261,14.06041
678.5082,14.07362
678.9904,14.15392
679.4725,14.27755
679.9546,14.45036
680.4367,14.67154
680.9188,14.76005
681.4009,14.63128
681.8831,14.40878
682.3652,14.12181
682.8473,13.7897
683.3294,13.52109
683.8115,13.43904
684.2936,13.39565
684.7758,13.35101
685.2579,13.29544
685.74,12.97167
686.2221,11.88153
686.7042,10.88911
687.1863,10.47176
687.6685,10.814
688.1506,10.93521
688.6327,10.78749
689.1148,10.52116
689.5969,10.30127
690.079,10.11477
690.5612,9.712885
691.0433,9.024441
691.5254,8.374098
692.0075,8.204948
692.4896,8.329357
692.9717,8.417816
693.4539,8.41824
693.936,8.298183
694.4181,7.983648
694.9002,7.553185
695.3823,7.117188
695.8644,6.635065
696.3466,6.245804
696.8287,5.993263
697.3108,5.830818
697.7929,5.656977
698.275,5.449112
698.7571,5.372761
699.2393,5.58543
699.7214,5.90468
700.2035,5.679745
700.6856,4.972866
701.1677,4.305204
701.6498,4.122169
702.132,4.086468
702.6141,3.729446
703.0962,3.094387
703.5783,2.660179
704.0604,2.760645
704.5425,3.028696
705.0247,3.31778
705.5068,3.659006
705.9889,3.727634
706.471,3.357534
706.9531,2.928041
707.4352,2.69244
707.9174,2.670717
708.3995,2.622095
708.8816,2.539766
709.3637,2.445484
709.8458,2.298491
710.3279,2.162399
710.8101,2.261017
711.2922,2.713442
711.7743,3.042749
712.2564,2.769474
712.7385,2.216566
713.2206,1.765606
713.7028,1.505472
714.1849,1.376938
714.667,1.430897
715.1491,1.577703
715.6312,1.733437
716.1133,1.932005
716.5955,2.033213
717.0776,1.987671
717.5597,1.860662
718.0418,1.775654
718.5239,1.732071
719.006,1.737923
719.4882,1.833965
719.9703,1.938644
720.4524,1.950159
720.9345,1.887259
721.4166,1.811525
721.8987,1.671249
722.3809,1.59421
722.863,1.745131
723.3451,2.047106
723.8272,2.01222
724.3093,1.35611
724.7914,0.791784
725.2736,0.596878
725.7557,0.743822
726.2378,0.916136
726.7199,1.124596
727.202,1.285006
727.6841,1.283102
728.1663,1.209482
728.6484,1.332495
729.1305,1.647598
729.6126,1.827068
730.0947,1.518284
730.5768,1.069494
731.059,0.73522
731.5411,0.542292
732.0232,0.494335
732.5053,0.69631
732.9874,0.959429
733.4695,1.199514
733.9517,1.464365
734.4338,1.501911
734.9159,1.263315
735.398,0.937536
735.8801,0.682398
736.3622,0.505957
736.8444,0.454346
737.3265,0.546335
737.8086,0.705154
738.2907,0.921444
738.7728,1.136929
739.2549,1.278704
739.7371,1.356068
740.2192,1.308813
740.7013,0.988512
741.1834,0.588898
741.6655,0.368439
742.1476,0.409122
742.6298,0.440687
743.1119,0.435793
743.594,0.401035
744.0761,0.325386
744.5582,0.217222
745.0403,0.174728
745.5225,0.278992
746.0046,0.370049
746.4867,0.156057
746.9688,0.216087
747.4509,0.42753
747.933,0.225367
748.4152,0.034908
748.8973,0.302416
749.3794,0.525761
749.8615,0.532881
750.3436,0.144032
750.8257,0.128187
751.3079,0.11871
751.79,0.085220002
752.2721,0.189631
752.7542,0.195761
753.2363,0.118284
753.7184,0.135725
754.2006,0.403074
754.6827,0.385504
755.1648,0.138378
755.6469,0.106869
756.129,0.319063
756.6111,0.419559
757.0933,0.270504
757.5754,0.102102
758.0575,0.230797
758.5396,0.106249
759.0217,0.384462
759.5038,0.354027
759.986,0.056708999
760.4681,0.017828001
760.9502,0.260448
761.4323,0.489229
761.9144,0.470076
762.3965,0.317959
762.8787,0.230511
763.3608,0.212482
763.8429,0.231346
764.325,0.273413
764.8071,0.342123
765.2892,0.467812
765.7714,0.673937
766.2535,0.756491
766.7356,0.630659
767.2177,0.480669
767.6998,0.420158
768.1819,0.458046
768.6641,0.408432
769.1462,0.261665
769.6283,0.105856
770.1104,0.010347
770.5925,0.040263999
771.0746,0.092138
771.5568,0.152298
772.0389,0.133478
772.521,0.16013
773.0031,0.459106
773.4852,0.526899
773.9673,0.22221
774.4495,0.044326998
774.9316,0.068810999
775.4137,0.15225
775.8958,0.194351
776.3779,0.192778
776.86,0.187607
777.3422,0.185957
777.8243,0.146803
778.3064,0.0089990003
778.7885,0.221838
779.2706,0.408909
779.7527,0.574348
780.2349,0.58843
780.717,0.2125
781.1991,0.255737
781.6812,0.551355
782.1633,0.543468
782.6454,0.526052
783.1276,0.484266
783.6097,0.450937
784.0918,0.456234
784.5739,0.499964
785.056,0.597343
785.5381,0.76515
786.0203,0.900045
786.5024,0.875736
786.9845,0.741642
787.4666,0.566568
787.9487,0.336121
788.4308,0.160118
788.913,0.124895
789.3951,0.14994
789.8772,0.149956
790.3593,0.066326
790.8414,0.043664999
791.3235,0.063725002
791.8057,0.172964
792.2878,0.548777
792.7699,1.156704
793.252,1.29777
793.7341,0.790102
794.2162,0.186796
794.6984,0.103233
795.1805,0.315985
795.6626,0.475079
796.1447,0.477728
796.6268,0.461733
797.1089,0.469049
797.5911,0.487108
798.0732,0.505817
798.5553,0.549328
799.0374,0.514116
799.5195,0.332949
800.0016,0.187662
800.4838,0.399035
800.9659,0.887836
801.448,1.182899
801.9301,1.168375
802.4122,1.067789
802.8943,1.029654
803.3765,1.062548
803.8586,1.19256
804.3407,1.554842
804.8228,1.76755
805.3049,1.641438
805.787,1.417206
806.2692,1.309948
806.7513,1.338833
807.2334,1.368414
807.7155,1.411676
808.1976,1.38283
808.6797,1.019871
809.1619,0.492567
809.644,0.331043
810.1261,0.724245
810.6082,1.16217
811.0903,1.231144
811.5724,1.14852
812.0546,1.157257
812.5367,1.468203
813.0188,1.645744
813.5009,1.553223
813.983,1.42197
814.4651,1.553032
814.9473,1.971567
815.4294,2.254793
815.9115,2.368118
816.3936,2.329082
816.8757,1.961264
817.3578,1.472919
817.84,1.253017
818.3221,1.460659
818.8042,1.669847
819.2863,1.641304
819.7684,1.536125
820.2505,1.517517
820.7327,1.69903
821.2148,1.694294
821.6969,1.381823
822.179,1.102846
822.6611,1.361345
823.1432,2.037579
823.6254,2.312674
824.1075,2.072382
824.5896,1.684883
825.0717,1.273874
825.5538,1.013178
826.0359,1.198818
826.5181,2.088217
827.0002,2.680984
827.4823,2.502441
827.9644,2.150545
828.4465,2.026442
828.9286,2.221254
829.4108,2.139997
829.8929,1.707903
830.375,1.358973
830.8571,1.660631
831.3392,2.290894
831.8214,2.539038
832.3035,2.322668
832.7856,1.991121
833.2677,1.480793
833.7498,1.142647
834.2319,1.349413
834.7141,2.380352
835.1962,2.896191
835.6783,2.668856
836.1604,2.308187
836.6425,2.199598
837.1246,2.325388
837.6068,2.40498
838.0889,2.44454
838.571,2.549934
839.0531,2.98316
839.5352,3.368671
840.0173,3.159889
840.4995,2.338932
840.9816,1.800282
841.4637,2.214315
841.9458,2.609102
842.4279,2.476677
842.91,1.834417
843.3922,1.582083
843.8743,1.768784
844.3564,2.088655
844.8385,2.471592
845.3206,2.825043
845.8027,2.882469
846.2849,2.685402
846.767,2.463467
847.2491,2.282738
847.7312,2.171793
848.2133,2.195599
848.6954,2.331076
849.1776,2.35162
849.6597,2.122919
850.1418,2.056467
850.6239,2.368982
851.106,2.9076
851.5881,3.125923
852.0703,3.032011
852.5524,2.875544
853.0345,2.710638
853.5166,2.600611
853.9987,2.694019
854.4808,2.886444
854.963,2.922886
855.4451,2.505701
855.9272,2.209112
856.4093,2.166836
856.8914,2.302761
857.3735,2.464207
857.8557,2.656507
858.3378,2.831795
858.8199,3.026037
859.302,3.100405
859.7841,2.637159
860.2662,1.924446
860.7484,1.590307
861.2305,2.205744
861.7126,2.706228
862.1947,2.504015
862.6768,2.026148
863.1589,1.891495
863.6411,2.259066
864.1232,2.525185
864.6053,2.646006
865.0874,2.628252
865.5695,2.355276
866.0516,1.946918
866.5338,1.841528
867.0159,2.194145
867.498,2.465109
867.9801,2.079935
868.4622,1.537039
868.9443,1.337006
869.4265,1.749102
869.9086,2.044102
870.3907,2.213596
870.8728,2.273254
871.3549,2.172577
871.837,1.936029
872.3192,1.881739
872.8013,2.022972
873.2834,2.204348
873.7655,2.313379
874.2476,2.390961
874.7297,2.518938
875.2119,2.708921
875.694,2.719786
876.1761,2.278896
876.6582,1.875708
877.1403,1.714882
877.6224,1.777634
878.1046,1.801674
878.5867,1.789036
879.0688,1.703901
879.5509,1.388186
880.033,1.069862
880.5151,1.20892
880.9973,1.695557
881.4794,1.996754
881.9615,1.664921
882.4436,1.285149
882.9257,1.049875
883.4078,0.952719
883.89,0.979433
884.3721,1.166624
884.8542,1.293758
885.3363,1.307968
885.8184,1.211977
886.3005,0.87681
886.7827,0.43638
887.2648,0.252134
887.7469,0.684435
888.229,1.049345
888.7111,0.911455
889.1932,0.585127
889.6754,0.537514
890.1575,0.95256
890.6396,1.192324
891.1217,1.175442
891.6038,1.046181
892.0859,0.965832
892.5681,0.92087
893.0502,0.864052
893.5323,0.785952
894.0144,0.71987
894.4965,0.699112
894.9786,0.704166
895.4608,0.697063
895.9429,0.682482
896.425,0.660921
896.9071,0.629023
897.3892,0.606098
897.8713,0.629335
898.3535,0.67679
898.8356,0.530306
899.3177,0.207233
899.7998,0.057898998
900.2819,0.120209
900.764,0.056821998
901.2462,0.133644
901.7283,0.424807
902.2104,0.594021
902.6925,0.484083
903.1746,0.49696
903.6567,0.864645
904.1389,1.375542
904.621,1.227427
905.1031,0.50338
905.5852,0.050597999
906.0673,0.048861001
906.5494,0.135717
907.0316,0.258684
907.5137,0.304533
907.9958,0.24926
908.4779,0.092730001
908.96,0.219097
909.4421,0.0010169999
909.9243,0.309782
910.4064,0.328686
910.8885,0.081248999
911.3706,0.070483997
911.8527,0.071106002
912.3348,0.022917001
912.817,0.257465
913.2991,0.502863
913.7812,0.586807
914.2633,0.424143
914.7454,0.349146
915.2275,0.526009
915.7097,0.668119
916.1918,0.562845
916.6739,0.216888
917.156,0.112907
917.6381,0.253944
918.1202,0.379496
918.6024,0.192396
919.0845,0.0243
919.5666,0.113638
920.0487,0.546412
920.5308,0.868477
921.0129,0.844032
921.4951,0.842058
921.9772,1.012373
922.4593,1.246658
922.9414,1.135502
923.4235,0.689495
923.9056,0.443686
924.3878,0.652082
924.8699,0.97485
925.352,1.0492
925.8341,0.96678
926.3162,0.871656
926.7983,0.730257
927.2805,0.704031
927.7626,0.939821
928.2447,1.161438
928.7268,1.020937
929.2089,0.515976
929.691,0.230652
930.1732,0.220531
930.6553,0.286968
931.1374,0.258566
931.6195,0.203501
932.1016,0.215719
932.5837,0.323769
933.0659,0.360411
933.548,0.177572
934.0301,0.086037003
934.5122,0.247368
934.9943,0.611513
935.4764,0.854519
935.9586,0.977221
936.4407,0.964188
936.9228,0.771622
937.4049,0.47448
937.887,0.016214
938.3691,0.478655
938.8513,0.710674
939.3334,0.369528
939.8155,0.053879
940.2976,0.174803
940.7797,0.324232
941.2618,0.385693
941.744,0.364532
942.2261,0.32423
942.7082,0.271925
943.1903,0.220251
943.6724,0.154598
944.1545,0.11183
944.6367,0.151213
945.1188,0.325123
945.6009,0.381008
946.083,0.15554
946.5651,0.037131999
947.0472,0.347382
947.5294,1.005295
948.0115,1.287817
948.4936,1.216761
948.9757,1.021402
949.4578,0.678764
949.9399,0.415894
950.4221,0.547503
950.9042,0.933367
951.3863,0.988832
951.8684,0.33139
952.3505,0.001095
952.8326,0.31743
953.3148,0.873747
953.7969,0.793465
954.279,0.250803
954.7611,0.050278001
955.2432,0.501846
955.7253,0.927137
956.2075,0.658802
956.6896,0.227276
957.1717,0.200748
957.6538,0.811743
958.1359,1.229755
958.618,1.453005
959.1002,1.503469
959.5823,1.275902
960.0644,0.904222
960.5465,0.847057
961.0286,1.074228
961.5107,1.291742
961.9929,1.301701
962.475,1.290276
962.9571,1.417149
963.4392,1.605829
963.9213,1.59001
964.4034,1.359024
964.8856,0.928549
965.3677,0.200001
965.8498,0.513988
966.3319,0.675417
966.814,0.467043
967.2961,0.225634
967.7783,0.045991998
968.2604,0.119001
968.7425,0.310057
969.2246,0.470673
969.7067,0.575199
970.1888,0.629093
970.671,0.579187
971.1531,0.406061
971.6352,0.302153
972.1173,0.484882
972.5994,0.781971
973.0815,1.01384
973.5637,1.162882
974.0458,1.190565
974.5279,1.027941
975.01,0.790356
975.4921,0.403479
975.9742,0.024496
976.4564,0.151279
976.9385,0.742857
977.4206,1.080269
977.9027,0.88361
978.3848,0.638649
978.8669,0.902887
979.3491,1.343105
979.8312,1.546347
980.3133,1.314663
980.7954,1.156576
981.2775,1.104704
981.7596,1.099562
982.2418,1.131172
982.7239,1.177826
983.206,1.096464
983.6881,0.901203
984.1702,0.723829
984.6523,0.60815
985.1345,0.570486
985.6166,0.689318
986.0987,0.897396
986.5808,0.925133
987.0629,0.639441
987.545,0.663977
988.0272,1.263601
988.5093,1.878309
988.9914,1.408958
989.4735,0.369209
989.9556,0.147392
990.4377,0.203718
990.9199,0.619928
991.402,0.841543
991.8841,0.945576
992.3662,0.957052
992.8483,0.867081
993.3304,0.963606
993.8126,1.260063
994.2947,1.509033
994.7768,1.597778
995.2589,1.522911
995.741,1.102266
996.2231,0.478838
996.7053,0.134472
997.1874,0.514214
997.6695,0.861675
998.1516,1.051445
998.6337,1.161295
999.1158,1.374701
999.598,1.65082
1000.08,1.671347
1000.562,1.370094
1001.044,1.000076
1001.526,0.610771
1002.009,0.337128
1002.491,0.350479
1002.973,0.699802
1003.455,0.933344
1003.937,1.044928
1004.419,1.037731
1004.901,0.858969
1005.383,0.62369
1005.865,0.617073
1006.348,0.773872
1006.83,0.907469
1007.312,0.931032
1007.794,0.925674
1008.276,0.874578
1008.758,0.834681
1009.24,0.890324
1009.722,1.058527
1010.205,1.115641
1010.687,1.059826
1011.169,0.948492
1011.651,0.825552
1012.133,0.682472
1012.615,0.462248
1013.097,0.18692
1013.579,0.067307003
1014.061,0.167513
1014.544,0.384588
1015.026,0.775791
1015.508,1.192785
1015.99,1.178925
1016.472,0.844786
1016.954,0.641726
1017.436,0.710934
1017.918,0.921545
1018.401,1.420059
1018.883,1.869907
1019.365,1.889498
1019.847,1.336515
1020.329,1.080597
1020.811,1.173418
1021.293,1.281477
1021.775,1.083792
1022.257,0.795973
1022.74,0.806393
1023.222,1.035851
1023.704,1.139482
1024.186,0.979736
1024.668,0.795208
1025.15,0.582603
1025.632,0.416239
1026.114,0.413
1026.596,0.565565
1027.079,0.935339
1027.561,1.579004
1028.043,2.037201
1028.525,1.779558
1029.007,1.28636
1029.489,0.935766
1029.971,0.769791
1030.453,0.737703
1030.936,0.87718
1031.418,1.022959
1031.9,1.09376
1032.382,1.141695
1032.864,1.312927
1033.346,1.539602
1033.828,1.656221
1034.31,1.6408
1034.792,1.469898
1035.275,0.925732
1035.757,0.406969
1036.239,0.319923
1036.721,0.665134
1037.203,0.823133
1037.685,0.773703
1038.167,0.680899
1038.649,0.582823
1039.132,0.566774
1039.614,0.787653
1040.096,1.164869
1040.578,1.294497
1041.06,1.048941
1041.542,0.879387
1042.024,0.887657
1042.506,0.935726
1042.989,0.798977
1043.471,0.578485
1043.953,0.509443
1044.435,0.667377
1044.917,0.781343
1045.399,0.639212
1045.881,0.538643
1046.363,0.646246
1046.845,0.93255
1047.328,1.203707
1047.81,1.441053
1048.292,1.536259
1048.774,1.332531
1049.256,1.068913
1049.738,0.887445
1050.22,0.7904
1050.702,0.795853
1051.184,0.99505
1051.667,1.056965
1052.149,0.947681
1052.631,0.789925
1053.113,0.701763
1053.595,0.634901
1054.077,0.410898
1054.559,0.074945003
1055.041,0.031279001
1055.523,0.597103
1056.006,1.005482
1056.488,0.840868
1056.97,0.393263
1057.452,0.252661
1057.934,0.388824
1058.416,0.546339
1058.898,0.691952
1059.38,0.751974
1059.863,0.549524
1060.345,0.322323
1060.827,0.313763
1061.309,0.543062
1061.791,0.581009
1062.273,0.364162
1062.755,0.267181
1063.237,0.524982
1063.719,0.898048
1064.202,1.040682
1064.684,1.017385
1065.166,0.946732
1065.648,0.805733
1066.13,0.735382
1066.612,0.779251
1067.094,0.831068
1067.576,0.752773
1068.059,0.599035
1068.541,0.806192
1069.023,1.315054
1069.505,1.607578
1069.987,1.040039
1070.469,0.488802
1070.951,0.491379
1071.433,0.798311
1071.916,1.002831
1072.398,1.083788
1072.88,0.916616
1073.362,0.464149
1073.844,0.038874
1074.326,0.057953
1074.808,0.052816
1075.29,0.318638
1075.772,0.728447
1076.255,0.927505
1076.737,0.764978
1077.219,0.7262
1077.701,1.060802
1078.183,1.469082
1078.665,1.236221
1079.147,0.629501
1079.629,0.275892
1080.111,0.392286
1080.594,0.611889
1081.076,0.880199
1081.558,1.152627
1082.04,1.450731
1082.522,1.747383
1083.004,1.65045
1083.486,1.205312
1083.968,0.855418
1084.45,0.887287
1084.933,1.042451
1085.415,1.257362
1085.897,1.447746
1086.379,1.492586
1086.861,1.37772
1087.343,1.122007
1087.825,0.690246
1088.307,0.358473
1088.79,0.505116
1089.272,0.796591
1089.754,0.821062
1090.236,0.604514
1090.718,0.385342
1091.2,0.038424
1091.682,0.042564001
1092.164,0.617953
1092.646,1.324087
1093.129,1.430726
1093.611,1.136239
1094.093,0.941314
1094.575,0.932911
1095.057,0.842749
1095.539,0.421747
1096.021,0.035061002
1096.503,0.164089
1096.986,0.206374
1097.468,0.183537
1097.95,0.10504
1098.432,0.081465997
1098.914,0.201671
1099.396,0.216216
1099.878,0.139451
1100.36,0.562956
1100.843,0.760447
1101.325,0.706647
1101.807,0.648423
1102.289,0.580368
1102.771,0.563803
1103.253,0.707714
1103.735,0.848649
1104.217,0.733258
1104.699,0.486475
1105.182,0.341493
1105.664,0.317331
1106.146,0.491237
1106.628,0.963571
1107.11,1.376538
1107.592,1.352466
1108.074,1.062487
1108.556,0.808501
1109.038,0.612811
1109.521,0.508307
1110.003,0.549095
1110.485,0.632148
1110.967,0.736502
1111.449,0.866449
1111.931,1.047769
1112.413,1.264035
1112.895,1.474152
1113.377,1.677763
1113.86,1.715964
1114.342,1.361131
1114.824,0.942352
1115.306,0.587397
1115.788,0.325931
1116.27,0.324905
1116.752,0.577561
1117.234,0.695508
1117.717,0.552203
1118.199,0.368871
1118.681,0.296165
1119.163,0.309329
1119.645,0.41954
1120.127,0.62838
1120.609,0.752778
1121.091,0.798223
1121.573,0.725507
1122.056,0.462876
1122.538,0.163233
1123.02,0.020912999
1123.502,0.097174004
1123.984,0.067919001
1124.466,0.150086
1124.948,0.284118
1125.43,0.329404
1125.913,0.295725
1126.395,0.075860001
1126.877,0.163878
1127.359,0.126308
1127.841,0.716657
1128.323,0.96036
1128.805,0.164075
1129.287,0.334186
1129.77,0.259018
1130.252,0.02538
1130.734,0.108606
1131.216,0.084198996
1131.698,0.306852
1132.18,0.741179
1132.662,1.03808
1133.144,0.828213
1133.626,0.66361
1134.109,0.798901
1134.591,1.055486
1135.073,1.136479
1135.555,1.058498
1136.037,0.975012
1136.519,0.902122
1137.001,0.887791
1137.483,1.041095
1137.965,1.193656
1138.448,1.259224
1138.93,1.233846
1139.412,1.043815
1139.894,0.67105
1140.376,0.550385
1140.858,0.823084
1141.34,1.092072
1141.822,0.890483
1142.304,0.583505
1142.787,0.525037
1143.269,0.738412
1143.751,0.906505
1144.233,1.030478
1144.715,1.087072
1145.197,1.048532
1145.679,0.985547
1146.161,1.043636
1146.644,1.108399
1147.126,1.005836
1147.608,0.638216
1148.09,0.374079
1148.572,0.236362
1149.054,0.146344
1149.536,0.05675
1150.018,0.017618001
1150.5,0.18474
1150.983,0.454416
1151.465,0.616755
1151.947,0.561958
1152.429,0.497499
1152.911,0.435738
1153.393,0.374763
1153.875,0.253482
1154.357,0.147862
1154.84,0.451636
1155.322,0.988529
1155.804,1.175583
1156.286,0.259754
1156.768,0.277395
1157.25,0.139619
1157.732,0.295844
1158.214,0.80402
1158.697,1.29719
1159.179,1.290404
1159.661,0.855807
1160.143,0.471898
1160.625,0.373155
1161.107,0.373185
1161.589,0.450107
1162.071,0.555194
1162.553,0.663276
1163.036,0.757776
1163.518,0.671463
1164.0,0.407747
1164.482,0.230834
1164.964,0.403637
1165.446,0.589612
1165.928,0.631391
1166.41,0.579952
1166.892,0.508609
1167.375,0.420169
1167.857,0.357109
1168.339,0.323587
1168.821,0.339351
1169.303,0.475821
1169.785,0.611946
1170.267,0.679927
1170.749,0.683608
1171.231,0.586331
1171.714,0.389114
1172.196,0.365674
1172.678,0.60022
1173.16,0.832266
1173.642,0.83866
1174.124,0.751975
1174.606,0.664801
1175.088,0.580614
1175.571,0.486939
1176.053,0.381513
1176.535,0.274807
1177.017,0.125668
1177.499,0.125473
1177.981,0.68411
1178.463,1.322096
1178.945,1.524652
1179.427,1.27173
1179.91,1.127736
1180.392,1.112563
1180.874,0.976519
1181.356,0.516099
1181.838,0.104891
1182.32,0.272964
1182.802,0.669337
1183.284,0.894995
1183.767,0.904553
1184.249,0.739638
1184.731,0.334792
1185.213,0.170383
1185.695,0.656747
1186.177,1.16445
1186.659,0.709981
1187.141,0.109302
1187.624,0.312345
1188.106,0.458655
1188.588,0.945234
1189.07,1.124865
1189.552,1.125025
1190.034,0.963793
1190.516,0.718171
1190.998,0.389713
1191.48,0.074868001
1191.963,0.056473002
1192.445,0.049525999
1192.927,0.322831
1193.409,0.832394
1193.891,1.193197
1194.373,1.033389
1194.855,0.656823
1195.337,0.347973
1195.819,0.153299
1196.302,0.199998
1196.784,0.6893
1197.266,0.974283
1197.748,1.016285
1198.23,0.968441
1198.712,0.926654
1199.194,0.885962
1199.676,0.796408
1200.158,0.705579
1200.641,0.768807
1201.123,1.227303
1201.605,1.260788
1202.087,0.721679
1202.569,0.181209
1203.051,0.202321
1203.533,0.50228
1204.015,0.809327
1204.498,1.073884
1204.98,1.178956
1205.462,1.032378
1205.944,0.747972
1206.426,0.281992
1206.908,0.106508
1207.39,0.170263
1207.872,0.0031900001
1208.354,0.426914
1208.837,1.012937
1209.319,1.267857
1209.801,0.977305
1210.283,0.819053
1210.765,0.888866
1211.247,1.036633
1211.729,1.130532
1212.211,1.192135
1212.694,1.25137
1213.176,1.304499
1213.658,1.319913
1214.14,1.270717
1214.622,1.244588
1215.104,1.296505
1215.586,1.36979
1216.068,1.403483
1216.551,1.398588
1217.033,1.388473
1217.515,1.353407
1217.997,1.109801
1218.479,0.491807
1218.961,0.269906
1219.443,0.647917
1219.925,1.131444
1220.407,1.184741
1220.89,1.02359
1221.372,0.831645
1221.854,0.646001
1222.336,0.584463
1222.818,0.671206
1223.3,0.813229
1223.782,1.010055
1224.264,1.176906
1224.746,1.219388
1225.229,1.182763
1225.711,1.082679
1226.193,0.935852
1226.675,0.853176
1227.157,0.81924
1227.639,1.003217
1228.121,1.492754
1228.603,1.897639
1229.085,1.780363
1229.568,1.448013
1230.05,1.136243
1230.532,0.881366
1231.014,0.773896
1231.496,0.832785
1231.978,0.892807
1232.46,0.926172
1232.942,0.900517
1233.425,0.642874
1233.907,0.425731
1234.389,0.572701
1234.871,1.009669
1235.353,1.253451
1235.835,1.300781
1236.317,1.231289
1236.799,1.058134
1237.281,0.805018
1237.764,0.324831
1238.246,0.087165996
1238.728,0.1705
1239.21,0.021374
1239.692,0.413835
1240.174,0.986309
1240.656,1.200442
1241.138,0.869525
1241.621,0.498755
1242.103,0.457973
1242.585,0.514198
1243.067,0.49756
1243.549,0.452279
1244.031,0.580086
1244.513,0.853227
1244.995,1.014376
1245.478,1.08841
1245.96,1.058108
1246.442,0.856086
1246.924,0.627186
1247.406,0.413476
1247.888,0.270315
1248.37,0.324478
1248.852,0.538373
1249.334,0.777871
1249.817,1.030616
1250.299,1.221367
1250.781,1.277607
1251.263,1.311213
1251.745,1.398775
1252.227,1.464328
1252.709,1.224231
1253.191,0.815781
1253.673,0.629494
1254.156,0.769816
1254.638,0.914616
1255.12,1.035631
1255.602,1.090935
1256.084,0.993096
1256.566,0.824522
1257.048,0.714593
1257.53,0.67119
1258.012,0.750596
1258.495,0.985738
1258.977,1.059172
1259.459,0.792318
1259.941,0.715219
1260.423,1.118862
1260.905,1.529341
1261.387,0.968272
1261.869,0.035875
1262.352,0.344275
1262.834,0.00018800001
1263.316,0.2459
1263.798,0.295702
1264.28,0.456338
1264.762,0.869023
1265.244,1.261974
1265.726,1.322039
1266.208,1.171532
1266.691,0.842422
1267.173,0.363972
1267.655,0.293613
1268.137,0.687391
1268.619,1.022448
1269.101,1.161995
1269.583,1.192661
1270.065,1.125594
1270.548,0.991641
1271.03,0.996606
1271.512,1.067258
1271.994,0.962551
1272.476,0.688787
1272.958,0.54646
1273.44,0.62439
1273.922,0.675403
1274.405,0.366849
1274.887,0.146889
1275.369,0.371752
1275.851,0.827703
1276.333,0.865149
1276.815,0.564284
1277.297,0.310346
1277.779,0.17249
1278.261,0.143869
1278.744,0.250802
1279.226,0.459536
1279.708,0.843986
1280.19,1.208066
1280.672,1.052648
1281.154,0.605561
1281.636,0.508526
1282.118,0.838703
1282.6,0.953701
1283.083,0.811292
1283.565,0.596733
1284.047,0.336164
1284.529,0.096998997
1285.011,0.121116
1285.493,0.202647
1285.975,0.218156
1286.457,1.0969
1286.939,1.303955
1287.422,0.471434
1287.904,0.027331
1288.386,0.295199
1288.868,0.759547
1289.35,0.9807
1289.832,1.038663
1290.314,0.950098
1290.796,0.771338
1291.279,0.68776
1291.761,0.711539
1292.243,0.649106
1292.725,0.466395
1293.207,0.386255
1293.689,0.720092
1294.171,0.969681
1294.653,0.741592
1295.135,0.296486
1295.618,0.434583
1296.1,1.0462
1296.582,1.070562
1297.064,0.44936
1297.546,0.015914001
1298.028,0.619869
1298.51,1.002449
1298.992,0.617259
1299.475,0.036042999
1299.957,0.115954
1300.439,0.590738
1300.921,0.650145
1301.403,0.316316
1301.885,0.0
