Raman Shift,Intensity 
400,3.566496233
401,3.603397794
402,3.618968117
403,3.596562148
404,3.620429247
405,3.618430144
406,3.572958052
407,3.613218967
408,3.584842773
409,3.586468849
410,3.594045646
411,3.588586308
412,3.587273496
413,3.589670811
414,3.587631967
415,3.597612972
416,3.587860458
417,3.583418619
418,3.592536241
419,3.570504782
420,3.596733985
421,3.615117298
422,3.605061932
423,3.596838555
424,3.589753448
425,3.607629505
426,3.599685702
427,3.561676918
428,3.60002237
429,3.594838452
430,3.609574503
431,3.595106359
432,3.626197749
433,3.586929336
434,3.587823398
435,3.615231715
436,3.616056985
437,3.574265962
438,3.605792383
439,3.594411491
440,3.606315159
441,3.59686812
442,3.602630588
443,3.603478328
444,3.622783083
445,3.601562806
446,3.622077594
447,3.612352793
448,3.622134621
449,3.642824166
450,3.625569225
451,3.674037199
452,3.646552889
453,3.661378698
454,3.70146712
455,3.695663861
456,3.738186592
457,3.767254287
458,3.786168801
459,3.844787105
460,3.88005502
461,3.935756974
462,3.974743689
463,4.023750031
464,4.101004701
465,4.135557893
466,4.221545972
467,4.288697006
468,4.303097932
469,4.389009976
470,4.432349101
471,4.468524579
472,4.510194653
473,4.554376429
474,4.588988533
475,4.598883677
476,4.593016339
477,4.607094702
478,4.584023622
479,4.548797722
480,4.513051469
481,4.484643812
482,4.446210108
483,4.379946427
484,4.339317239
485,4.263034109
486,4.190330053
487,4.125394877
488,4.094772907
489,4.068189709
490,3.995708874
491,3.940523664
492,3.887402309
493,3.814532761
494,3.790519413
495,3.774111985
496,3.731932971
497,3.696490761
498,3.711898407
499,3.668977607
500,3.661332081
501,3.642306486
502,3.641609823
503,3.601756917
504,3.606792979
505,3.629364296
506,3.592954597
507,3.599106637
508,3.599874621
509,3.579260049
510,3.6023645
511,3.609773624
512,3.593128771
513,3.596175775
514,3.607077074
515,3.58657919
516,3.583295046
517,3.615739174
518,3.631214224
519,3.614787391
520,3.579873156
521,3.605355701
522,3.577623823
523,3.618809786
524,3.582422691
525,3.625790094
526,3.581387576
527,3.59575604
528,3.608422872
529,3.608380505
530,3.583743209
531,3.574506483
532,3.612797656
533,3.581584361
534,3.578958329
535,3.62369111
536,3.599001035
537,3.610683596
538,3.615344542
539,3.593378018
540,3.603524436
541,3.603278229
542,3.591871284
543,3.591361703
544,3.594117448
545,3.592714325
546,3.601295765
547,3.589716356
548,3.602083346
549,3.586387902
550,3.586831688
551,3.588029957
552,3.594653427
553,3.590814535
554,3.567349149
555,3.617547621
556,3.591774982
557,3.602362966
558,3.588928989
559,3.601932585
560,3.621975272
561,3.605304164
562,3.61662239
563,3.617082354
564,3.58956274
565,3.621705819
566,3.625660688
567,3.603093624
568,3.599304492
569,3.583725817
570,3.603470199
571,3.616350742
572,3.575674115
573,3.617775759
574,3.589146422
575,3.595680026
576,3.573028254
577,3.624246191
578,3.58240904
579,3.600736725
580,3.597112721
581,3.587792249
582,3.614718705
583,3.613496148
584,3.593068557
585,3.591416979
586,3.606926044
587,3.618177225
588,3.593663819
589,3.609723394
590,3.596682294
591,3.599400168
592,3.602973822
593,3.583313472
594,3.600964729
595,3.568236497
596,3.590392022
597,3.60525104
598,3.59330406
599,3.598853015
600,3.599932653
601,3.601631089
602,3.601148533
603,3.593700285
604,3.619994697
605,3.611551065
606,3.624304844
607,3.590899428
608,3.622606274
609,3.609317078
610,3.589469905
611,3.592362936
612,3.57524328
613,3.584103738
614,3.598587698
615,3.57751328
616,3.592981681
617,3.608107265
618,3.601210618
619,3.596307688
620,3.619602748
621,3.607214812
622,3.572545021
623,3.600589744
624,3.58617005
625,3.610333658
626,3.619298939
627,3.584432894
628,3.602412539
629,3.59945992
630,3.59602675
631,3.616615272
632,3.600665921
633,3.612478381
634,3.600855226
635,3.582001481
636,3.579778577
637,3.616431556
638,3.574159592
639,3.616273067
640,3.593787861
641,3.611567264
642,3.596136673
643,3.586615014
644,3.589630489
645,3.597134877
646,3.608498064
647,3.595298113
648,3.584725212
649,3.60775643
650,3.61782849
651,3.593477385
652,3.619503541
653,3.608780479
654,3.615026625
655,3.590969071
656,3.589213092
657,3.619579705
658,3.613564608
659,3.628727871
660,3.581117328
661,3.593433174
662,3.575531026
663,3.575294803
664,3.571708378
665,3.595166114
666,3.5945964
667,3.622051765
668,3.614055395
669,3.567706163
670,3.596822677
671,3.603869995
672,3.58109694
673,3.56305276
674,3.607722423
675,3.585066858
676,3.579432425
677,3.611554507
678,3.585241593
679,3.606738997
680,3.599600117
681,3.60417088
682,3.595984551
683,3.594067408
684,3.602182007
685,3.573489795
686,3.583468951
687,3.622330446
688,3.5901116
689,3.616925678
690,3.598315941
691,3.607426613
692,3.599144168
693,3.588966359
694,3.6161469
695,3.617834899
696,3.578860711
697,3.616442183
698,3.608750309
699,3.604776393
700,3.590848446
701,3.59893435
702,3.608575346
703,3.600274425
704,3.614580587
705,3.609406864
706,3.594425077
707,3.588056827
708,3.59800169
709,3.601258329
710,3.570871265
711,3.62128909
712,3.591552496
713,3.585721187
714,3.579488515
715,3.576656813
716,3.589059422
717,3.590369857
718,3.599191601
719,3.602242208
720,3.597332549
721,3.612335831
722,3.587743877
723,3.592190572
724,3.624930014
725,3.636172677
726,3.589783125
727,3.603207439
728,3.600509714
729,3.62861359
730,3.626054237
731,3.601158346
732,3.585898283
733,3.592259763
734,3.577674188
735,3.58835046
736,3.595075202
737,3.616912502
738,3.593422123
739,3.632201112
740,3.594216723
741,3.610337037
742,3.60424407
743,3.595521603
744,3.587668924
745,3.595583209
746,3.624559563
747,3.597455212
748,3.596239515
749,3.599127126
750,3.591835138
751,3.571690801
752,3.621146492
753,3.603989399
754,3.593047897
755,3.602716731
756,3.596010637
757,3.617037051
758,3.584756871
759,3.603346418
760,3.592514616
761,3.59820979
762,3.61311852
763,3.579487709
764,3.60143755
765,3.596589276
766,3.600592526
767,3.60007132
768,3.595053326
769,3.592335574
770,3.607912449
771,3.599452513
772,3.58956885
773,3.591038652
774,3.583070708
775,3.605224764
776,3.596062869
777,3.617498552
778,3.593936248
779,3.600195925
780,3.594523994
781,3.616797271
782,3.605677738
783,3.602089592
784,3.589206214
785,3.610293543
786,3.618524072
787,3.58454641
788,3.583323515
789,3.612593507
790,3.598742595
791,3.591324012
792,3.59585064
793,3.614586167
794,3.583568774
795,3.606913134
796,3.620609266
797,3.601498051
798,3.608606011
799,3.589194256
800,3.584840961
801,3.618498866
802,3.608445428
803,3.604436721
804,3.584722349
805,3.582659178
806,3.617180707
807,3.611864119
808,3.606245518
809,3.615007023
810,3.599864634
811,3.604296866
812,3.606648525
813,3.595289267
814,3.591787969
815,3.582241054
816,3.58162924
817,3.608372969
818,3.599328161
819,3.627214605
820,3.61254767
821,3.614252169
822,3.582609549
823,3.607495715
824,3.60587738
825,3.607939378
826,3.609142888
827,3.585694656
828,3.604690259
829,3.606502644
830,3.577121184
831,3.591066196
832,3.578353762
833,3.625803304
834,3.603360495
835,3.594995182
836,3.614776939
837,3.614631028
838,3.579878845
839,3.58110232
840,3.616773697
841,3.60767357
842,3.601786901
843,3.606272038
844,3.609524959
845,3.594922619
846,3.596592852
847,3.604278104
848,3.610993782
849,3.594701043
850,3.600894588
851,3.609832335
852,3.634537986
853,3.593332155
854,3.572178821
855,3.608603031
856,3.614414949
857,3.602295487
858,3.603449985
859,3.622687007
860,3.583388059
861,3.592265629
862,3.603739934
863,3.593324154
864,3.606346931
865,3.59440962
866,3.610629111
867,3.596287427
868,3.591134558
869,3.596157913
870,3.62293442
871,3.608646986
872,3.606347216
873,3.592077846
874,3.620217154
875,3.629975098
876,3.608719791
877,3.592216534
878,3.604916066
879,3.596590832
880,3.614511068
881,3.593633975
882,3.580709194
883,3.583848811
884,3.602615644
885,3.579601199
886,3.610908257
887,3.559041402
888,3.58269361
889,3.63956702
890,3.619701614
891,3.608685177
892,3.61692256
893,3.614614836
894,3.574939342
895,3.594634466
896,3.615445205
897,3.606202635
898,3.568493922
899,3.587976605
900,3.589268278
901,3.592960434
902,3.617072571
903,3.596648314
904,3.600174971
905,3.589494118
906,3.607014345
907,3.619690955
908,3.575359028
909,3.644026044
910,3.590267535
911,3.595438902
912,3.601336499
913,3.616849104
914,3.605893279
915,3.58427568
916,3.573979534
917,3.578921305
918,3.628897001
919,3.57628502
920,3.603944949
921,3.609854773
922,3.576425687
923,3.602791931
924,3.607807118
925,3.607730712
926,3.600879227
927,3.600374826
928,3.605876605
929,3.606075208
930,3.597359364
931,3.587953995
932,3.59552574
933,3.58935405
934,3.626991165
935,3.606966735
936,3.596824918
937,3.587211304
938,3.615804197
939,3.618151311
940,3.616615838
941,3.589081293
942,3.596836395
943,3.577821998
944,3.605032312
945,3.608681791
946,3.618060764
947,3.584651037
948,3.60433259
949,3.6079161
950,3.622511637
951,3.573105153
952,3.604368446
953,3.611623078
954,3.608034459
955,3.611205646
956,3.617688049
957,3.615956385
958,3.575170225
959,3.612960372
960,3.58850069
961,3.601809567
962,3.609293663
963,3.592375551
964,3.596573553
965,3.593121257
966,3.592999772
967,3.607145424
968,3.608246843
969,3.640025267
970,3.624537284
971,3.616666501
972,3.592771863
973,3.592718525
974,3.595268305
975,3.603961719
976,3.616702185
977,3.59071706
978,3.572574462
979,3.597208085
980,3.575760964
981,3.601948349
982,3.602663018
983,3.609286827
984,3.594144766
985,3.622347858
986,3.587392854
987,3.610646292
988,3.611896068
989,3.632235117
990,3.595157737
991,3.604107102
992,3.581028169
993,3.605320417
994,3.595364572
995,3.603995815
996,3.596514359
997,3.575173531
998,3.60635624
999,3.605527353
1000,3.600653905
1001,3.593500766
1002,3.614148983
1003,3.606999083
1004,3.588511694
1005,3.618362577
1006,3.594690179
1007,3.612754224
1008,3.600878826
1009,3.593032602
1010,3.581559667
1011,3.58693074
1012,3.591629814
1013,3.601010866
1014,3.605150708
1015,3.581344959
1016,3.606191056
1017,3.598422079
1018,3.610152018
1019,3.581780745
1020,3.603289982
1021,3.577322561
1022,3.618901347
1023,3.602605322
1024,3.597035711
1025,3.631411023
1026,3.633894818
1027,3.630213475
1028,3.597067877
1029,3.601991642
1030,3.605420281
1031,3.587236211
1032,3.595521984
1033,3.609969063
1034,3.598116444
1035,3.58749329
1036,3.59712448
1037,3.61702962
1038,3.614807063
1039,3.594754515
1040,3.608593317
1041,3.617254642
1042,3.6246313
1043,3.603406593
1044,3.619066619
1045,3.627915378
1046,3.631711475
1047,3.625378256
1048,3.652984874
1049,3.625586328
1050,3.621769527
1051,3.672187276
1052,3.628073695
1053,3.629136014
1054,3.626720067
1055,3.662009166
1056,3.658995178
1057,3.649937618
1058,3.65048799
1059,3.685377011
1060,3.667745493
1061,3.670513378
1062,3.69606447
1063,3.692766857
1064,3.682930115
1065,3.708442701
1066,3.688116423
1067,3.692870305
1068,3.697236624
1069,3.689776048
1070,3.711128244
1071,3.717520994
1072,3.738290379
1073,3.726980291
1074,3.72521531
1075,3.741957792
1076,3.755659408
1077,3.745766242
1078,3.721679508
1079,3.722965798
1080,3.76941695
1081,3.745118445
1082,3.742087384
1083,3.761987429
1084,3.743293147
1085,3.740736311
1086,3.745481531
1087,3.750441575
1088,3.750218683
1089,3.738604172
1090,3.777958403
1091,3.744074325
1092,3.761039526
1093,3.727311792
1094,3.74041069
1095,3.736354975
1096,3.726110344
1097,3.723562571
1098,3.695474761
1099,3.705760037
1100,3.74478515
1101,3.699869335
1102,3.716499048
1103,3.685014401
1104,3.724939997
1105,3.675569884
1106,3.687153992
1107,3.677172107
1108,3.661408882
1109,3.683674771
1110,3.671748755
1111,3.655234473
1112,3.662345005
1113,3.666475989
1114,3.654979291
1115,3.639786516
1116,3.671661813
1117,3.644096374
1118,3.675218574
1119,3.644690395
1120,3.649946631
1121,3.628467213
1122,3.672145171
1123,3.655291902
1124,3.642751176
1125,3.676238209
1126,3.670255756
1127,3.668040047
1128,3.649382803
1129,3.67168461
1130,3.66377877
1131,3.685723176
1132,3.691988633
1133,3.661680865
1134,3.696319331
1135,3.707737718
1136,3.701995053
1137,3.703003058
1138,3.733731561
1139,3.713258975
1140,3.739289366
1141,3.76757805
1142,3.76282019
1143,3.767217553
1144,3.789232466
1145,3.784435217
1146,3.808276031
1147,3.788511426
1148,3.818763516
1149,3.813863736
1150,3.815035098
1151,3.82769129
1152,3.853847026
1153,3.854371347
1154,3.85090082
1155,3.864818038
1156,3.873224904
1157,3.872467153
1158,3.86165938
1159,3.891739969
1160,3.891102561
1161,3.905479918
1162,3.87839224
1163,3.896524611
1164,3.887143279
1165,3.913183943
1166,3.89694699
1167,3.893759574
1168,3.880490797
1169,3.892594957
1170,3.880432863
1171,3.898428498
1172,3.888413873
1173,3.899515756
1174,3.858831028
1175,3.872512845
1176,3.842927727
1177,3.851017401
1178,3.849330358
1179,3.82700454
1180,3.821669658
1181,3.818036642
1182,3.837509477
1183,3.801621721
1184,3.805310774
1185,3.793790378
1186,3.773081575
1187,3.79062642
1188,3.743398026
1189,3.738892029
1190,3.759688009
1191,3.712623501
1192,3.748411368
1193,3.737209441
1194,3.711549149
1195,3.734390891
1196,3.722177776
1197,3.726671818
1198,3.687953785
1199,3.698611855
1200,3.699628623
1201,3.706106401
1202,3.684481136
1203,3.704128953
1204,3.685160247
1205,3.680154045
1206,3.685726763
1207,3.665897429
1208,3.672084566
1209,3.702425877
1210,3.696905279
1211,3.68440325
1212,3.674732225
1213,3.666421488
1214,3.707530193
1215,3.694183305
1216,3.693458943
1217,3.656006736
1218,3.717519745
1219,3.688805646
1220,3.668483339
1221,3.689745249
1222,3.710591352
1223,3.678988193
1224,3.702855391
1225,3.709945478
1226,3.658172788
1227,3.685863792
1228,3.688140027
1229,3.712435066
1230,3.69385468
1231,3.69547188
1232,3.696533652
1233,3.693649247
1234,3.718861753
1235,3.672156718
1236,3.677721583
1237,3.693235616
1238,3.691401277
1239,3.686455593
1240,3.681949938
1241,3.666120785
1242,3.696766604
1243,3.691283814
1244,3.664678116
1245,3.707634151
1246,3.689447877
1247,3.671243425
1248,3.678449711
1249,3.658563018
1250,3.666574069
1251,3.676257514
1252,3.656088905
1253,3.669569321
1254,3.657915001
1255,3.637373874
1256,3.653438399
1257,3.644327843
1258,3.653525181
1259,3.644710236
1260,3.654269899
1261,3.635205416
1262,3.656105107
1263,3.631753841
1264,3.628208679
1265,3.628623553
1266,3.615169288
1267,3.618500924
1268,3.624189644
1269,3.630814552
1270,3.586487936
1271,3.621425952
1272,3.629305709
1273,3.624590629
1274,3.593042948
1275,3.618856096
1276,3.607999136
1277,3.619375861
1278,3.588686703
1279,3.614070283
1280,3.571764465
1281,3.578783921
1282,3.594739372
1283,3.591355685
1284,3.602660581
1285,3.608466476
1286,3.620677591
1287,3.602832439
1288,3.581639427
1289,3.604978549
1290,3.587161203
1291,3.614309847
1292,3.609984893
1293,3.586654732
1294,3.618358854
1295,3.608543864
1296,3.607016969
1297,3.618098371
1298,3.590329725
1299,3.59082599
1300,3.591809102
1301,3.598299143
1302,3.585211125
1303,3.625118108
1304,3.617362434
1305,3.588494245
1306,3.596019529
1307,3.610329095
1308,3.612202922
1309,3.608428364
1310,3.620315836
1311,3.591955789
1312,3.592925526
1313,3.599631106
1314,3.612826916
1315,3.608295325
1316,3.601199608
1317,3.623314643
1318,3.594105429
1319,3.601434386
1320,3.578145175
1321,3.573388837
1322,3.602349023
1323,3.619089709
1324,3.603435497
1325,3.606174873
1326,3.591368955
1327,3.585153405
1328,3.581227016
1329,3.602560975
1330,3.579567182
1331,3.608441921
1332,3.619173202
1333,3.619313898
1334,3.617645288
1335,3.600512509
1336,3.610579299
1337,3.593240525
1338,3.598868187
1339,3.607973663
1340,3.613446465
1341,3.600251583
1342,3.629089435
1343,3.636897645
1344,3.594163878
1345,3.614128496
1346,3.595489074
1347,3.597355766
1348,3.605453913
1349,3.589873439
1350,3.606831477
1351,3.623348131
1352,3.599760264
1353,3.575744795
1354,3.618741836
1355,3.607781939
1356,3.59903003
1357,3.614102038
1358,3.579060031
1359,3.606521634
1360,3.61651914
1361,3.625506431
1362,3.621765939
1363,3.576137781
1364,3.576671338
1365,3.588143607
1366,3.598018854
1367,3.599167852
1368,3.595227131
1369,3.610680661
1370,3.599684793
1371,3.572557803
1372,3.609471467
1373,3.618850994
1374,3.590757027
1375,3.563033558
1376,3.613185068
1377,3.614953685
1378,3.620384136
1379,3.606581993
1380,3.564822423
1381,3.616594784
1382,3.60330249
1383,3.627190421
1384,3.606883661
1385,3.576073828
1386,3.617912787
1387,3.626979326
1388,3.611078127
1389,3.588330794
1390,3.629375221
1391,3.583098283
1392,3.592776853
1393,3.583541374
1394,3.596786275
1395,3.580947697
1396,3.593326657
1397,3.594561888
1398,3.584865455
1399,3.621932468
1400,3.598971104
1401,3.582550173
1402,3.589677843
1403,3.595623626
1404,3.616940352
1405,3.608266504
1406,3.600861663
1407,3.574124067
1408,3.590479783
1409,3.602308317
1410,3.574401811
1411,3.604984379
1412,3.595521225
1413,3.576836896
1414,3.593379405
1415,3.589868275
1416,3.587196626
1417,3.624223952
1418,3.600322891
1419,3.599562411
1420,3.599149408
1421,3.594924739
1422,3.5858905
1423,3.567485293
1424,3.59561743
1425,3.590832827
1426,3.599167284
1427,3.608694495
1428,3.601553808
1429,3.596355773
1430,3.604551743
1431,3.591414538
1432,3.597994573
1433,3.605391042
1434,3.611632287
1435,3.606629921
1436,3.604419855
1437,3.599948794
1438,3.578328517
1439,3.595317993
1440,3.597084675
1441,3.589307304
1442,3.591610676
1443,3.626080691
1444,3.621806983
1445,3.600735443
1446,3.603948827
1447,3.570716474
1448,3.595720247
1449,3.602910262
1450,3.611782026
1451,3.59420881
1452,3.601302037
1453,3.589559762
1454,3.606946262
1455,3.60994459
1456,3.61935295
1457,3.598218339
1458,3.594466663
1459,3.586093011
1460,3.589874697
1461,3.60007254
1462,3.60946563
1463,3.600802833
1464,3.573199918
1465,3.600091403
1466,3.602735011
1467,3.594497456
1468,3.617719812
1469,3.601359333
1470,3.602357539
1471,3.597903058
1472,3.582785724
1473,3.582225751
1474,3.593952054
1475,3.599555893
1476,3.597615606
1477,3.587728099
1478,3.576367746
1479,3.604963734
1480,3.600206138
1481,3.575803559
1482,3.597663919
1483,3.606651745
1484,3.590753633
1485,3.608676268
1486,3.583587096
1487,3.610756424
1488,3.617808997
1489,3.587779691
1490,3.615443601
1491,3.573671939
1492,3.62004858
1493,3.602719298
1494,3.591035102
1495,3.607012438
1496,3.597094404
1497,3.593414789
1498,3.602434271
1499,3.597663707
1500,3.600806984
1501,3.594093664
1502,3.611669513
1503,3.591376448
1504,3.609089847
1505,3.584201072
1506,3.561238181
1507,3.5970531
1508,3.589166996
1509,3.596314831
1510,3.593114692
1511,3.596613455
1512,3.579701031
1513,3.582391292
1514,3.600688597
1515,3.614218847
1516,3.628785193
1517,3.609851858
1518,3.600110227
1519,3.607069982
1520,3.592792237
1521,3.602112667
1522,3.625540069
1523,3.593539696
1524,3.596960732
1525,3.592975234
1526,3.616413171
1527,3.569463047
1528,3.626630035
1529,3.587557956
1530,3.6127879
1531,3.625995769
1532,3.595213351
1533,3.585582856
1534,3.598546405
1535,3.594746981
1536,3.637204273
1537,3.603982748
1538,3.585927178
1539,3.602979496
1540,3.591494106
1541,3.623863799
1542,3.601933334
1543,3.576600385
1544,3.614517875
1545,3.614929883
1546,3.63299207
1547,3.622009465
1548,3.590191887
1549,3.5974823
1550,3.582501709
1551,3.594780782
1552,3.598004684
1553,3.596195218
1554,3.598574623
1555,3.593263095
1556,3.607986797
1557,3.599219336
1558,3.619284517
1559,3.585948032
1560,3.605904109
1561,3.584242089
1562,3.586919531
1563,3.611365039
1564,3.594769214
1565,3.592782677
1566,3.582600706
1567,3.608887221
1568,3.590984463
1569,3.6100105
1570,3.610374765
1571,3.582914335
1572,3.579654375
1573,3.627843657
1574,3.588621368
1575,3.619121901
1576,3.593803495
1577,3.610715819
1578,3.612783554
1579,3.615247762
1580,3.592094568
1581,3.594084259
1582,3.632080861
1583,3.613267917
1584,3.577934803
1585,3.601700706
1586,3.604133922
1587,3.586383669
1588,3.603940809
1589,3.597585891
1590,3.611996375
1591,3.586421881
1592,3.609439317
1593,3.627151721
1594,3.609359325
1595,3.588095442
1596,3.612220738
1597,3.575502305
1598,3.567039432
1599,3.592721257
1600,3.588483361
1601,3.602399075
1602,3.61286729
1603,3.608447179
1604,3.588013855
1605,3.600508089
1606,3.605746425
1607,3.621555156
1608,3.578373313
1609,3.605086155
1610,3.615515703
1611,3.584043336
1612,3.580331126
1613,3.583906968
1614,3.594667426
1615,3.60135189
1616,3.607148103
1617,3.62322083
1618,3.610688983
1619,3.594930118
1620,3.622124883
1621,3.600292669
1622,3.580304481
1623,3.599483647
1624,3.591930282
1625,3.601500568
1626,3.596510586
1627,3.614967314
1628,3.591936632
1629,3.615359033
1630,3.585437678
1631,3.621019152
1632,3.620508505
1633,3.613422344
1634,3.602534447
1635,3.614688059
1636,3.612096383
1637,3.627808841
1638,3.594522476
1639,3.578147288
1640,3.632655643
1641,3.610096768
1642,3.596397945
1643,3.625390433
1644,3.586810088
1645,3.596485737
1646,3.617262126
1647,3.5971319
1648,3.622383325
1649,3.594635193
1650,3.623474969
1651,3.588099067
1652,3.598563907
1653,3.614923898
1654,3.602192139
1655,3.614204606
1656,3.599504345
1657,3.623592427
1658,3.616287377
1659,3.622323581
1660,3.589400277
1661,3.597190853
1662,3.601281534
1663,3.618219272
1664,3.609360591
1665,3.607037357
1666,3.589256882
1667,3.610637344
1668,3.598197988
1669,3.588042245
1670,3.585103154
1671,3.603552695
1672,3.621018301
1673,3.640953729
1674,3.595393477
1675,3.615942166
1676,3.62722056
1677,3.609597812
1678,3.606234469
1679,3.58696098
1680,3.567022977
1681,3.614919523
1682,3.585722733
1683,3.594894432
1684,3.570281725
1685,3.590116191
1686,3.590312709
1687,3.602629004
1688,3.610687208
1689,3.589988934
1690,3.603086363
1691,3.595883363
1692,3.619388729
1693,3.61317352
1694,3.60620207
1695,3.621445008
1696,3.61477845
1697,3.605937756
1698,3.618207368
1699,3.598158208
1700,3.59718452
1701,3.59972385
1702,3.633383611
1703,3.596625975
1704,3.576524919
1705,3.597952418
1706,3.594875126
1707,3.608755264
1708,3.638553177
1709,3.598972924
1710,3.591942984
1711,3.57691657
1712,3.587704086
1713,3.582313256
1714,3.619293104
1715,3.611854529
1716,3.601322218
1717,3.608802583
1718,3.608335578
1719,3.612584355
1720,3.588020184
1721,3.592933988
1722,3.610006458
1723,3.604098575
1724,3.60909603
1725,3.575171063
1726,3.600246665
1727,3.604254516
1728,3.609963074
1729,3.613879204
1730,3.580578278
1731,3.593897975
1732,3.576459077
1733,3.619424735
1734,3.594930619
1735,3.594681621
1736,3.607420414
1737,3.604251417
1738,3.600486349
1739,3.607838453
1740,3.572067011
1741,3.593311416
1742,3.596511812
1743,3.609455573
1744,3.57790007
1745,3.606643218
1746,3.580078083
1747,3.604075735
1748,3.583883437
1749,3.588140485
1750,3.630906582
1751,3.61124545
1752,3.613549808
1753,3.566315965
1754,3.619017417
1755,3.6122639
1756,3.607920387
1757,3.578389477
1758,3.629857988
1759,3.587009544
1760,3.595309204
1761,3.571314154
1762,3.62200263
1763,3.595974784
1764,3.608157588
1765,3.601787871
1766,3.601167683
1767,3.618041174
1768,3.612035417
1769,3.617127333
1770,3.604475454
1771,3.60656682
1772,3.585112517
1773,3.595789532
1774,3.592860598
1775,3.587182678
1776,3.583799618
1777,3.622620388
1778,3.593291006
1779,3.585891737
1780,3.600682108
1781,3.59105992
1782,3.587276684
1783,3.603560253
1784,3.595724521
1785,3.579930075
1786,3.603841382
1787,3.597058375
1788,3.612067898
1789,3.583016856
1790,3.59249156
1791,3.563328736
1792,3.609066614
1793,3.58460556
1794,3.599899552
1795,3.586176891
1796,3.592289722
1797,3.607641611
1798,3.624825467
1799,3.579141615
1800,3.588456486
1801,3.591724715
1802,3.604129567
1803,3.605011797
1804,3.596660902
1805,3.583524504
1806,3.591611465
1807,3.615947504
1808,3.561231765
1809,3.6110567
1810,3.608414938
1811,3.606189672
1812,3.578981873
1813,3.60473433
1814,3.613736259
1815,3.607712714
1816,3.574431419
1817,3.619971177
1818,3.59619193
1819,3.594374675
1820,3.580017034
1821,3.592048115
1822,3.605776523
1823,3.581862465
1824,3.599349266
1825,3.607802343
1826,3.596997326
1827,3.604309844
1828,3.609785812
1829,3.632095925
1830,3.592418998
1831,3.605142233
1832,3.611247879
1833,3.632855375
1834,3.610844413
1835,3.620516981
1836,3.605091041
1837,3.604383288
1838,3.617007922
1839,3.600790108
1840,3.590190979
1841,3.603300737
1842,3.59572772
1843,3.61948097
1844,3.577752717
1845,3.597081557
1846,3.603838466
1847,3.619302529
1848,3.585371436
1849,3.599387139
1850,3.591833577
1851,3.57340899
1852,3.566838885
1853,3.625835428
1854,3.586519091
1855,3.610663875
1856,3.597776281
1857,3.592727868
1858,3.604705794
1859,3.586816454
1860,3.604261686
1861,3.59566136
1862,3.581346645
1863,3.592385533
1864,3.592170572
1865,3.607083916
1866,3.592528979
1867,3.602591589
1868,3.580579226
1869,3.563287259
1870,3.593636228
1871,3.613519189
1872,3.594297523
1873,3.621544752
1874,3.608962692
1875,3.605943173
1876,3.604941009
1877,3.583130668
1878,3.597780891
1879,3.59055109
1880,3.633530306
1881,3.593116212
1882,3.576639972
1883,3.59258126
1884,3.633545291
1885,3.608293681
1886,3.586884664
1887,3.598745614
1888,3.614539643
1889,3.615725605
1890,3.594498562
1891,3.62002152
1892,3.591080728
1893,3.613789892
1894,3.60765869
1895,3.622563854
1896,3.609826858
1897,3.619079082
1898,3.597540108
1899,3.608737197
1900,3.607547304
1901,3.596544483
1902,3.56027639
1903,3.597187327
1904,3.618813098
1905,3.593631836
1906,3.581589639
1907,3.588555458
1908,3.602471639
1909,3.610875567
1910,3.597323941
1911,3.601871563
1912,3.566735351
1913,3.598775149
1914,3.594193037
1915,3.611845898
1916,3.611731223
1917,3.570510531
1918,3.591936637
1919,3.587837433
1920,3.606582232
1921,3.586347461
1922,3.598348623
1923,3.599867697
1924,3.622667121
1925,3.592442156
1926,3.622908747
1927,3.602966864
1928,3.60630151
1929,3.591658495
1930,3.578903737
1931,3.593846717
1932,3.580353331
1933,3.599388992
1934,3.577394359
1935,3.6037753
1936,3.614529934
1937,3.616362
1938,3.605088295
1939,3.600817992
1940,3.597100779
1941,3.577819659
1942,3.599746782
1943,3.594839799
1944,3.577660729
1945,3.596424368
1946,3.602590772
1947,3.627834144
1948,3.6017436
1949,3.619584861
1950,3.588400526
1951,3.576951593
1952,3.605817
1953,3.610907878
1954,3.584697908
1955,3.596949984
1956,3.606515095
1957,3.58500497
1958,3.590503199
1959,3.593113425
1960,3.572382817
1961,3.579151955
1962,3.602646785
1963,3.578978462
1964,3.593837021
1965,3.598149608
1966,3.590094682
1967,3.600763282
1968,3.60719136
1969,3.610200357
1970,3.604707686
1971,3.605785665
1972,3.607938347
1973,3.578147311
1974,3.600402642
1975,3.612802601
1976,3.595368727
1977,3.598807281
1978,3.583168842
1979,3.61593947
1980,3.603375288
1981,3.615713928
1982,3.613518481
1983,3.586394685
1984,3.595801287
1985,3.601373927
1986,3.596209791
1987,3.565982496
1988,3.591194072
1989,3.577038704
1990,3.613251518
1991,3.610481098
1992,3.602083831
1993,3.581197114
1994,3.60285505
1995,3.598236587
1996,3.590485904
1997,3.603895553
1998,3.626122142
1999,3.600236335
2000,3.622443324
2001,3.598359902
2002,3.598110397
2003,3.594310443
2004,3.597665254
2005,3.638622687
2006,3.585211987
2007,3.602537184
2008,3.58639241
2009,3.610546811
2010,3.580315637
2011,3.611914649
2012,3.615050085
2013,3.624113245
2014,3.588310379
2015,3.591924887
2016,3.620158565
2017,3.581751971
2018,3.590245235
2019,3.580345265
2020,3.594114795
2021,3.6040217
2022,3.588617588
2023,3.577659935
2024,3.59237094
2025,3.602790269
2026,3.605277709
2027,3.595352435
2028,3.637772766
2029,3.567309153
2030,3.607220657
2031,3.626306566
2032,3.613450649
2033,3.604805187
2034,3.583551601
2035,3.599217111
2036,3.627559128
2037,3.578680289
2038,3.614033535
2039,3.583627949
2040,3.615869041
2041,3.599237361
2042,3.581457625
2043,3.593235476
2044,3.600824029
2045,3.599274949
2046,3.605123724
2047,3.594892632
2048,3.607630422
2049,3.595857201
2050,3.589559025
2051,3.601114712
2052,3.621743052
2053,3.619281099
2054,3.609690543
2055,3.596408658
2056,3.60052254
2057,3.611137991
2058,3.593920194
2059,3.62642078
2060,3.586375669
2061,3.592293814
2062,3.639484928
2063,3.609485195
2064,3.615674442
2065,3.581921635
2066,3.598930539
2067,3.580564949
2068,3.603680943
2069,3.606781748
2070,3.582180187
2071,3.594223955
2072,3.591709625
2073,3.591655742
2074,3.607474279
2075,3.613072323
2076,3.581531396
2077,3.598639514
2078,3.590026564
2079,3.595540171
2080,3.606562321
2081,3.608166794
2082,3.576558702
2083,3.611329926
2084,3.606735801
2085,3.625478389
2086,3.58635288
2087,3.605567599
2088,3.601797775
2089,3.626075292
2090,3.615014899
2091,3.588718421
2092,3.591023825
2093,3.596918401
2094,3.584485248
2095,3.56158356
2096,3.569076323
2097,3.604768751
2098,3.597490341
2099,3.580683839
2100,3.593589649
2101,3.633421711
2102,3.585177331
2103,3.618603232
2104,3.59839371
2105,3.624270775
2106,3.595612425
2107,3.581994797
2108,3.601382204
2109,3.589336513
2110,3.624024375
2111,3.604936846
2112,3.616938026
2113,3.618170965
2114,3.596076765
2115,3.592249491
2116,3.579496078
2117,3.614969502
2118,3.596687184
2119,3.61584751
2120,3.591479129
2121,3.583312488
2122,3.594945036
2123,3.599804726
2124,3.623232858
2125,3.621776772
2126,3.608523602
2127,3.601609187
2128,3.590106981
2129,3.612182263
2130,3.618224714
2131,3.58813817
2132,3.599931311
2133,3.594571625
2134,3.603220108
2135,3.58490622
2136,3.610470754
2137,3.597611045
2138,3.593194841
2139,3.605011619
2140,3.582380846
2141,3.59554116
2142,3.580204513
2143,3.594528503
2144,3.596677727
2145,3.59675319
2146,3.59366502
2147,3.634751454
2148,3.587906934
2149,3.598455708
2150,3.578967191
2151,3.61630145
2152,3.617764319
2153,3.589854354
2154,3.581115009
2155,3.599168307
2156,3.610680704
2157,3.586472957
2158,3.590503366
2159,3.603388481
2160,3.629390853
2161,3.630869781
2162,3.593226133
2163,3.595606283
2164,3.599523571
2165,3.627755732
2166,3.616743518
2167,3.591712864
2168,3.569603504
2169,3.597778456
2170,3.574952009
2171,3.614119734
2172,3.613614709
2173,3.584862046
2174,3.592556538
2175,3.582803866
2176,3.588320082
2177,3.605962184
2178,3.581917112
2179,3.597508692
2180,3.62580726
2181,3.581247122
2182,3.607942275
2183,3.63123115
2184,3.592182169
2185,3.607433124
2186,3.600760244
2187,3.613681493
2188,3.590100905
2189,3.604665359
2190,3.609152184
2191,3.598196911
2192,3.588485553
2193,3.596311931
2194,3.615552723
2195,3.603997382
2196,3.606020761
2197,3.600698056
2198,3.603016129
2199,3.595672897
2200,3.602937531
2201,3.600485068
2202,3.629015543
2203,3.611747789
2204,3.59756846
2205,3.60475488
2206,3.578081717
2207,3.610588741
2208,3.596453711
2209,3.587861257
2210,3.641119267
2211,3.594107602
2212,3.579290303
2213,3.60846289
2214,3.626521476
2215,3.600017539
2216,3.602828151
2217,3.559290835
2218,3.576894986
2219,3.604444959
2220,3.601586644
2221,3.590586517
2222,3.578279611
2223,3.614474165
2224,3.589915145
2225,3.604721415
2226,3.610242303
2227,3.612378761
2228,3.573285257
2229,3.592181429
2230,3.608565889
2231,3.614775685
2232,3.581850024
2233,3.595155358
2234,3.617559932
2235,3.585517225
2236,3.576211332
2237,3.604721772
2238,3.570652457
2239,3.591809815
2240,3.604651708
2241,3.600988568
2242,3.599447829
2243,3.59904855
2244,3.592110823
2245,3.571095748
2246,3.599547192
2247,3.605801856
2248,3.601607566
2249,3.609846549
2250,3.582192073
2251,3.622829284
2252,3.605672062
2253,3.577065666
2254,3.594849622
2255,3.615478013
2256,3.628479688
2257,3.611262069
2258,3.602983509
2259,3.596696955
2260,3.619385835
2261,3.568642544
2262,3.581926408
2263,3.605936453
2264,3.625840675
2265,3.599026384
2266,3.606241087
2267,3.596619541
2268,3.583811811
2269,3.612654576
2270,3.608148687
2271,3.61057793
2272,3.588114236
2273,3.59703744
2274,3.594886608
2275,3.617699178
2276,3.572015624
2277,3.605525939
2278,3.596742147
2279,3.590295204
2280,3.609674077
2281,3.598713003
2282,3.613331104
2283,3.591925342
2284,3.582651032
2285,3.611306428
2286,3.5993673
2287,3.597353871
2288,3.640239583
2289,3.607864507
2290,3.592640772
2291,3.591208023
2292,3.604026083
2293,3.591037898
2294,3.587330833
2295,3.607113684
2296,3.613435529
2297,3.609679716
2298,3.612479911
2299,3.605538302
2300,3.617980116
2301,3.605501328
2302,3.594615364
2303,3.606683942
2304,3.591642478
2305,3.591591152
2306,3.586129479
2307,3.586383782
2308,3.587399528
2309,3.596428124
2310,3.617208785
2311,3.568965357
2312,3.588845568
2313,3.594156512
2314,3.615389326
2315,3.597831266
2316,3.627281171
2317,3.595165786
2318,3.607711748
2319,3.630572563
2320,3.593286287
2321,3.613245041
2322,3.619714293
2323,3.611187623
2324,3.587031457
2325,3.586777119
2326,3.583160792
2327,3.615270306
2328,3.615997348
2329,3.60463025
2330,3.602561073
2331,3.612431165
2332,3.637282044
2333,3.616049579
2334,3.614664226
2335,3.595941511
2336,3.60392901
2337,3.609506
2338,3.59034879
2339,3.588653889
2340,3.60378678
2341,3.599107179
2342,3.619594352
2343,3.580908405
2344,3.61494102
2345,3.612486161
2346,3.585541071
2347,3.58145405
2348,3.598188775
2349,3.613854477
2350,3.598326757
2351,3.586107053
2352,3.602362259
2353,3.60832595
2354,3.592469988
2355,3.594172175
2356,3.59401668
2357,3.595050131
2358,3.605209455
2359,3.57174043
2360,3.562310894
2361,3.608893817
2362,3.623195277
2363,3.609831475
2364,3.624603452
2365,3.631360847
2366,3.612973624
2367,3.593503705
2368,3.591285015
2369,3.595712827
2370,3.608160765
2371,3.608155575
2372,3.61047903
2373,3.588758728
2374,3.606088754
2375,3.57882254
2376,3.61580145
2377,3.588128943
2378,3.592075626
2379,3.605293553
2380,3.595386378
2381,3.569444897
2382,3.586832719
2383,3.582513993
2384,3.594668891
2385,3.599014559
2386,3.59997502
2387,3.611792266
2388,3.592671728
2389,3.600870375
2390,3.595472246
2391,3.630575153
2392,3.599666065
2393,3.585632422
2394,3.605443453
2395,3.599450988
2396,3.578405228
2397,3.611383293
2398,3.590571595
2399,3.596862009
2400,3.608495831
2401,3.588638977
2402,3.589518189
2403,3.596149092
2404,3.588057464
2405,3.588623561
2406,3.606968435
2407,3.603015839
2408,3.585878418
2409,3.585854838
2410,3.60420483
2411,3.629459708
2412,3.602221907
2413,3.618898508
2414,3.599831304
2415,3.591582755
2416,3.602672121
2417,3.572464359
2418,3.587588904
2419,3.6125163
2420,3.583252151
2421,3.604699646
2422,3.619369451
2423,3.625003326
2424,3.581895588
2425,3.609638165
2426,3.56968832
2427,3.58624339
2428,3.594459284
2429,3.607430765
2430,3.60352624
2431,3.62831792
2432,3.597684418
2433,3.599850032
2434,3.592614579
2435,3.581846011
2436,3.613376118
2437,3.618995466
2438,3.590296739
2439,3.564734411
2440,3.594069829
2441,3.578814529
2442,3.594369622
2443,3.600494691
2444,3.611736227
2445,3.613656669
2446,3.582767211
2447,3.611597799
2448,3.596562443
2449,3.611141273
2450,3.608679033
2451,3.599959508
2452,3.595950633
2453,3.601538749
2454,3.619422585
2455,3.576900483
2456,3.58244724
2457,3.599499691
2458,3.598251408
2459,3.589466193
2460,3.610113618
2461,3.626613998
2462,3.583328593
2463,3.587772928
2464,3.623271615
2465,3.62026
2466,3.598913699
2467,3.602214554
2468,3.566952468
2469,3.591136497
2470,3.611971112
2471,3.595120821
2472,3.589269313
2473,3.594442539
2474,3.611111974
2475,3.57502337
2476,3.625344597
2477,3.595950108
2478,3.603682478
2479,3.603277986
2480,3.584009618
2481,3.567506586
2482,3.601713918
2483,3.601172032
2484,3.609641269
2485,3.591369846
2486,3.607523761
2487,3.613908859
2488,3.594185384
2489,3.610638977
2490,3.612121487
2491,3.597209367
2492,3.599928194
2493,3.610218539
2494,3.609488764
2495,3.628600799
2496,3.567604764
2497,3.597044529
2498,3.60729783
2499,3.599485448
2500,3.598204914
2501,3.611527958
2502,3.606824602
2503,3.618274649
2504,3.614643689
2505,3.583001696
2506,3.613800781
2507,3.618056123
2508,3.587137763
2509,3.597187745
2510,3.591585201
2511,3.602842036
2512,3.590359404
2513,3.616270982
2514,3.623928089
2515,3.602390393
2516,3.591405408
2517,3.607868135
2518,3.585635819
2519,3.57715099
2520,3.6006311
2521,3.562200456
2522,3.600493203
2523,3.606630845
2524,3.623514562
2525,3.604580695
2526,3.589084729
2527,3.590386736
2528,3.589236008
2529,3.596970138
2530,3.591725485
2531,3.616874399
2532,3.583871038
2533,3.595044997
2534,3.598431515
2535,3.598677109
2536,3.597195502
2537,3.614790002
2538,3.611138492
2539,3.606756744
2540,3.599028575
2541,3.59185592
2542,3.599313361
2543,3.593436908
2544,3.590466789
2545,3.600095079
2546,3.579986555
2547,3.627021078
2548,3.589368404
2549,3.597955111
2550,3.590005046
2551,3.612106947
2552,3.588263204
2553,3.6050759
2554,3.600673956
2555,3.578740506
2556,3.618926984
2557,3.563361399
2558,3.59777059
2559,3.591196492
2560,3.593205065
2561,3.583508302
2562,3.602588037
2563,3.60000095
2564,3.612688707
2565,3.601054488
2566,3.627248111
2567,3.576967932
2568,3.601473548
2569,3.631412744
2570,3.602859885
2571,3.602388839
2572,3.607785921
2573,3.589381203
2574,3.59828139
2575,3.582831478
2576,3.594171466
2577,3.600268829
2578,3.608390474
2579,3.622645797
2580,3.605579438
2581,3.600317143
2582,3.579990211
2583,3.605537865
2584,3.596387509
2585,3.606533168
2586,3.598865473
2587,3.6185872
2588,3.609867995
2589,3.590326169
2590,3.581960223
2591,3.607153245
2592,3.597066615
2593,3.568344196
2594,3.627603393
2595,3.599598016
2596,3.625396429
2597,3.591926033
2598,3.584189717
2599,3.589139205
2600,3.624049414
2601,3.578717669
2602,3.55821876
2603,3.575868096
2604,3.602085622
2605,3.587566185
2606,3.615405941
2607,3.595100279
2608,3.589906395
2609,3.606770514
2610,3.616613137
2611,3.580623079
2612,3.596384616
2613,3.59709523
2614,3.607703698
2615,3.623774009
2616,3.582449071
2617,3.56741006
2618,3.583363349
2619,3.560071834
2620,3.575219029
2621,3.624058045
2622,3.581958886
2623,3.612404706
2624,3.599337614
2625,3.590087017
2626,3.628315077
2627,3.608783038
2628,3.603059045
2629,3.593848689
2630,3.617814551
2631,3.596321604
2632,3.596816521
2633,3.617158588
2634,3.584763112
2635,3.610226211
2636,3.580257769
2637,3.583837539
2638,3.620642359
2639,3.578672838
2640,3.605898517
2641,3.573486796
2642,3.627427045
2643,3.610123523
2644,3.592131682
2645,3.604210985
2646,3.605813271
2647,3.623707541
2648,3.622397351
2649,3.61390709
2650,3.568493274
2651,3.637291416
2652,3.574780626
2653,3.626781367
2654,3.605732672
2655,3.585163385
2656,3.596982668
2657,3.637587448
2658,3.59403995
2659,3.588934188
2660,3.611550224
2661,3.603495204
2662,3.602616997
2663,3.567493233
2664,3.60962303
2665,3.614272349
2666,3.613321697
2667,3.60462959
2668,3.600019745
2669,3.57603184
2670,3.572635376
2671,3.59313977
2672,3.608777559
2673,3.613720709
2674,3.620355
2675,3.594754748
2676,3.633020786
2677,3.575723807
2678,3.594911876
2679,3.606874328
2680,3.628223582
2681,3.600007219
2682,3.611635073
2683,3.593737414
2684,3.581428494
2685,3.6020541
2686,3.635435095
2687,3.603636386
2688,3.635667852
2689,3.594333079
2690,3.620408535
2691,3.607539304
2692,3.588511159
2693,3.58362368
2694,3.580135008
2695,3.567995427
2696,3.61700524
2697,3.58522583
2698,3.6061844
2699,3.595421063
2700,3.607763546
2701,3.599401722
2702,3.593454594
2703,3.590832383
2704,3.615289832
2705,3.589286639
2706,3.579746434
2707,3.576596006
2708,3.584848622
2709,3.588589561
2710,3.613344753
2711,3.599307506
2712,3.564591228
2713,3.610218872
2714,3.590651872
2715,3.591335244
2716,3.599662853
2717,3.599285861
2718,3.601308192
2719,3.615995019
2720,3.598245992
2721,3.619621498
2722,3.628928767
2723,3.598949895
2724,3.570892975
2725,3.594743185
2726,3.600259785
2727,3.613176306
2728,3.611879586
2729,3.59169668
2730,3.580376483
2731,3.572542522
2732,3.589039058
2733,3.620610227
2734,3.598116307
2735,3.612070904
2736,3.622796737
2737,3.583383953
2738,3.588841692
2739,3.621028033
2740,3.594733775
2741,3.606831709
2742,3.581085841
2743,3.597347716
2744,3.586692261
2745,3.611300914
2746,3.601410823
2747,3.601870658
2748,3.580308001
2749,3.585344333
2750,3.593537744
2751,3.586314818
2752,3.617846297
2753,3.583838876
2754,3.595286921
2755,3.578787133
2756,3.578447769
2757,3.611373841
2758,3.602037496
2759,3.617267338
2760,3.594458584
2761,3.592186588
2762,3.604786961
2763,3.608963582
2764,3.62776429
2765,3.592445778
2766,3.591663567
2767,3.589372483
2768,3.572083101
2769,3.611656178
2770,3.588870698
2771,3.584647045
2772,3.628447453
2773,3.57549798
2774,3.592517059
2775,3.618477157
2776,3.60479419
2777,3.630736506
2778,3.565180461
2779,3.581198682
2780,3.610129718
2781,3.599485848
2782,3.620591471
2783,3.609158065
2784,3.60477736
2785,3.609605925
2786,3.604815674
2787,3.602465229
2788,3.60423633
2789,3.610227689
2790,3.615776466
2791,3.585864204
2792,3.604387058
2793,3.597852377
2794,3.604468677
2795,3.608796897
2796,3.57438416
2797,3.590029761
2798,3.575166886
2799,3.647059408
2800,3.575994394
2801,3.600428304
2802,3.615257671
2803,3.619374919
2804,3.566767427
2805,3.615387303
2806,3.614828212
2807,3.584910364
2808,3.589119581
2809,3.6160893
2810,3.608900762
2811,3.596469591
2812,3.614386032
2813,3.558761133
2814,3.611800701
2815,3.602771812
2816,3.579134136
2817,3.607973759
2818,3.611377013
2819,3.586403177
2820,3.592743262
2821,3.612124893
2822,3.580406815
2823,3.588873703
2824,3.60772728
2825,3.58344221
2826,3.604762141
2827,3.61218421
2828,3.620957611
2829,3.61641264
2830,3.598860195
2831,3.612726954
2832,3.606966277
2833,3.614744297
2834,3.595427577
2835,3.584318461
2836,3.587555776
2837,3.581564138
2838,3.602431715
2839,3.617373923
2840,3.605927538
2841,3.592865293
2842,3.609581414
2843,3.594865721
2844,3.599278368
2845,3.616409888
2846,3.631898322
2847,3.611183373
2848,3.599003873
2849,3.577613524
2850,3.618142929
2851,3.595399879
2852,3.632522115
2853,3.609553267
2854,3.595081424
2855,3.621205155
2856,3.561206565
2857,3.60257836
2858,3.608635478
2859,3.607389851
2860,3.607551669
2861,3.601296877
2862,3.595163664
2863,3.576055854
2864,3.600120633
2865,3.595917469
2866,3.641505139
2867,3.628056615
2868,3.60647929
2869,3.605250693
2870,3.583839501
2871,3.612027276
2872,3.595525589
2873,3.590645013
2874,3.607556131
2875,3.576594892
2876,3.603186428
2877,3.605427534
2878,3.600972054
2879,3.589966879
2880,3.585178021
2881,3.610946526
2882,3.565506748
2883,3.614353728
2884,3.595403857
2885,3.618705933
2886,3.575478943
2887,3.624764991
2888,3.601727007
2889,3.581428087
2890,3.603491244
2891,3.588832337
2892,3.630368029
2893,3.597323768
2894,3.603469223
2895,3.602575536
2896,3.564410919
2897,3.613874341
2898,3.589823348
2899,3.621447957
2900,3.591922191
2901,3.605968314
2902,3.606301832
2903,3.610129579
2904,3.616724595
2905,3.609896296
2906,3.600601661
2907,3.606556425
2908,3.609813718
2909,3.593036614
2910,3.570790529
2911,3.613854301
2912,3.600801172
2913,3.591557877
2914,3.576557919
2915,3.60110927
2916,3.586574325
2917,3.587043269
2918,3.597893317
2919,3.571196524
2920,3.611121697
2921,3.60627173
2922,3.612750165
2923,3.601477587
2924,3.621478348
2925,3.598449991
2926,3.573596654
2927,3.591613989
2928,3.613373739
2929,3.645675053
2930,3.598792015
2931,3.581290335
2932,3.580926712
2933,3.617960901
2934,3.578208686
2935,3.60259669
2936,3.634312471
2937,3.589042727
2938,3.603950758
2939,3.639357957
2940,3.603176374
2941,3.592615859
2942,3.614485342
2943,3.630939486
2944,3.589896988
2945,3.593684354
2946,3.613231873
2947,3.613560543
2948,3.615725399
2949,3.610627565
2950,3.603066178
2951,3.597891719
2952,3.58414992
2953,3.615547484
2954,3.600792469
2955,3.599099899
2956,3.611691277
2957,3.587830611
2958,3.586109964
2959,3.607685725
2960,3.585282498
2961,3.610548829
2962,3.619815536
2963,3.591424019
2964,3.580014989
2965,3.624340532
2966,3.613607443
2967,3.623113749
2968,3.595019522
2969,3.59363977
2970,3.596787709
2971,3.608751459
2972,3.601982422
2973,3.569821668
2974,3.582820823
2975,3.602324639
2976,3.589471455
2977,3.591797329
2978,3.600907855
2979,3.601057262
2980,3.583831379
2981,3.587075983
2982,3.61325832
2983,3.605561218
2984,3.597712706
2985,3.615953953
2986,3.582551772
2987,3.607353188
2988,3.611333744
2989,3.584872206
2990,3.624363817
2991,3.613406889
2992,3.606443249
2993,3.596620803
2994,3.59189733
2995,3.604235371
2996,3.598834837
2997,3.615956354
2998,3.590479495
2999,3.610374274
3000,3.619638396
3001,3.61079844
3002,3.599156476
3003,3.624672754
3004,3.605201721
3005,3.622357491
3006,3.602240458
3007,3.583519606
3008,3.580426252
3009,3.60794379
3010,3.595649917
3011,3.600752809
3012,3.605921193
3013,3.594114598
3014,3.618465297
3015,3.584534325
3016,3.592466471
3017,3.600549304
3018,3.59896671
3019,3.612444507
3020,3.586361268
3021,3.611692124
3022,3.582803789
3023,3.58613309
3024,3.615168154
3025,3.589162597
3026,3.591092913
3027,3.597210038
3028,3.577673844
3029,3.595648775
3030,3.583099987
3031,3.599072393
3032,3.583886331
3033,3.60285261
3034,3.62433032
3035,3.571865914
3036,3.606206045
3037,3.60303767
3038,3.615507291
3039,3.598693935
3040,3.621582445
3041,3.580023703
3042,3.586465839
3043,3.596659653
3044,3.575523911
3045,3.582308569
3046,3.611676638
3047,3.611782823
3048,3.621833842
3049,3.596123454
3050,3.621530884
3051,3.589592955
3052,3.605947532
3053,3.608089612
3054,3.595543071
3055,3.604622536
3056,3.596170156
3057,3.614973487
3058,3.601784744
3059,3.591054377
3060,3.566942183
3061,3.591480369
3062,3.62904235
3063,3.578410693
3064,3.590538786
3065,3.612029213
3066,3.589000432
3067,3.585076823
3068,3.600497065
3069,3.600807154
3070,3.583318866
3071,3.58465989
3072,3.597754088
3073,3.603976164
3074,3.619236293
3075,3.615069955
3076,3.625883978
3077,3.624922643
3078,3.587937268
3079,3.617845228
3080,3.587345765
3081,3.589551544
3082,3.613036889
3083,3.604575781
3084,3.574909689
3085,3.574943806
3086,3.638011831
3087,3.591776784
3088,3.599033485
3089,3.627804554
3090,3.623650638
3091,3.609119165
3092,3.61404964
3093,3.606994485
3094,3.612406197
3095,3.618944716
3096,3.594424142
3097,3.595602414
3098,3.588016876
3099,3.588094765
3100,3.617892923
3101,3.596102383
3102,3.579996672
3103,3.615187497
3104,3.591212033
3105,3.62511509
3106,3.633001602
3107,3.59949711
3108,3.616747985
3109,3.629573965
3110,3.578466803
3111,3.59504725
3112,3.609609365
3113,3.584155399
3114,3.599251041
3115,3.587008886
3116,3.607669712
3117,3.590252043
3118,3.573732233
3119,3.608098513
3120,3.606095001
3121,3.626890354
3122,3.586214037
3123,3.580054381
3124,3.603705496
3125,3.580402387
3126,3.605983524
3127,3.609200545
3128,3.593778484
3129,3.615121161
3130,3.602627088
3131,3.599667941
3132,3.619724865
3133,3.581002696
3134,3.596423086
3135,3.600470409
3136,3.595899351
3137,3.592813903
3138,3.588662045
3139,3.595946579
3140,3.601902242
3141,3.582925063
3142,3.584227308
3143,3.610331089
3144,3.598475585
3145,3.590751034
3146,3.609157188
3147,3.609407927
3148,3.612991408
3149,3.596898084
3150,3.591926007
3151,3.597003737
3152,3.607965438
3153,3.62432353
3154,3.608942772
3155,3.58320851
3156,3.604159547
3157,3.620216561
3158,3.585254708
3159,3.585643704
3160,3.597147427
3161,3.604144036
3162,3.610132341
3163,3.599474302
3164,3.60465739
3165,3.584364897
3166,3.611678552
3167,3.60766163
3168,3.598692403
3169,3.594715453
3170,3.613866746
3171,3.611089955
3172,3.586006709
3173,3.618576772
3174,3.617660537
3175,3.596025957
3176,3.594252112
3177,3.593139487
3178,3.571265765
3179,3.597343663
3180,3.596576796
3181,3.573722316
3182,3.595298381
3183,3.607404385
3184,3.614893237
3185,3.598255289
3186,3.591116724
3187,3.597227552
3188,3.5949668
3189,3.604780294
3190,3.643485811
3191,3.629058673
3192,3.588267407
3193,3.59939061
3194,3.619488093
3195,3.589990665
3196,3.611761748
3197,3.616192304
3198,3.600113767
3199,3.62635552
3200,3.591128362
3201,3.573001266
3202,3.628628561
3203,3.597461557
3204,3.578804223
3205,3.599262494
3206,3.584403427
3207,3.604237443
3208,3.59350457
3209,3.597543259
3210,3.603984501
3211,3.595960092
3212,3.574871186
3213,3.629434246
3214,3.584242652
3215,3.568260218
3216,3.626528956
3217,3.622796028
3218,3.585000684
3219,3.622266953
3220,3.618995534
3221,3.596951821
3222,3.587162788
3223,3.608397957
3224,3.589301301
3225,3.605162424
3226,3.591936499
3227,3.592097779
3228,3.587396145
3229,3.626353095
3230,3.595236775
3231,3.591578962
3232,3.59189259
3233,3.618910263
3234,3.605461577
3235,3.589659697
3236,3.618257099
3237,3.601390948
3238,3.600356022
3239,3.588956515
3240,3.621506614
3241,3.61770122
3242,3.58965135
3243,3.600041496
3244,3.5809762
3245,3.579821697
3246,3.580957135
3247,3.583568121
3248,3.619375351
3249,3.585229629
3250,3.615666233
3251,3.603898795
3252,3.603613946
3253,3.611148032
3254,3.59175024
3255,3.607969855
3256,3.594290012
3257,3.610811272
3258,3.610563576
3259,3.573759149
3260,3.615105411
3261,3.615980219
3262,3.607390042
3263,3.605602808
3264,3.621988983
3265,3.58308231
3266,3.625379115
3267,3.574321931
3268,3.583131375
3269,3.614320968
3270,3.63046314
3271,3.596393922
3272,3.609152962
3273,3.613761121
3274,3.600137328
3275,3.581330824
3276,3.604711961
3277,3.611737378
3278,3.586473948
3279,3.600556065
3280,3.615413396
3281,3.596374395
3282,3.60682397
3283,3.582773081
3284,3.618844462
3285,3.60544376
3286,3.57843438
3287,3.596223393
3288,3.601280446
3289,3.600541473
3290,3.601743375
3291,3.581097656
3292,3.59653617
3293,3.545103706
3294,3.611026622
3295,3.603423104
3296,3.590817894
3297,3.607009638
3298,3.609738164
3299,3.604064679
3300,3.612750117
3301,3.593645496
3302,3.624020469
3303,3.622463546
3304,3.598506381
3305,3.593311952
3306,3.579429277
3307,3.590630114
3308,3.58467735
3309,3.620222835
3310,3.612467189
3311,3.594803689
3312,3.600743478
3313,3.582200183
3314,3.604451794
3315,3.614684795
3316,3.593472632
3317,3.592772524
3318,3.592704223
3319,3.58698936
3320,3.60382655
3321,3.612850432
3322,3.576397844
3323,3.614905343
3324,3.593966498
3325,3.60785919
3326,3.580921643
3327,3.595359288
3328,3.621976127
3329,3.585567047
3330,3.585128779
3331,3.599491876
3332,3.57648278
3333,3.56918491
3334,3.610762965
3335,3.588484083
3336,3.59175778
3337,3.619267785
3338,3.586630398
3339,3.595054847
3340,3.599997431
3341,3.606189127
3342,3.596098047
3343,3.598744286
3344,3.615117092
3345,3.625927376
3346,3.624415968
3347,3.640999646
3348,3.601944225
3349,3.585440381
3350,3.609647325
3351,3.589772369
3352,3.591266293
3353,3.614675397
3354,3.597254558
3355,3.584242762
3356,3.596894341
3357,3.593271381
3358,3.601813245
3359,3.600637893
3360,3.628036851
3361,3.571987662
3362,3.613159996
3363,3.591178829
3364,3.599582992
3365,3.611111237
3366,3.605052293
3367,3.618524195
3368,3.60395356
3369,3.585408726
3370,3.601038737
3371,3.592187494
3372,3.612310087
3373,3.611987567
3374,3.59124071
3375,3.63712378
3376,3.582076797
3377,3.593458251
3378,3.572490766
3379,3.603813299
3380,3.570220787
3381,3.585114887
3382,3.604771385
3383,3.591770815
3384,3.601557966
3385,3.608845157
3386,3.619068467
3387,3.594272853
3388,3.587702057
3389,3.586521419
3390,3.591906906
3391,3.617889317
3392,3.601293889
3393,3.625466216
3394,3.594432132
3395,3.608245376
3396,3.596360141
3397,3.598675002
3398,3.585501694
3399,3.608265403
3400,3.592027461
3401,3.587141501
3402,3.589178626
3403,3.604937509
3404,3.593887686
3405,3.599759979
3406,3.580131999
3407,3.605339849
3408,3.627888733
3409,3.613775617
3410,3.584648812
3411,3.603898152
3412,3.609244663
3413,3.588070214
3414,3.602258679
3415,3.595052599
3416,3.610326462
3417,3.60212995
3418,3.58230703
3419,3.581787043
3420,3.607967118
3421,3.571347226
3422,3.620742021
3423,3.599596224
3424,3.592449048
3425,3.592852921
3426,3.582577889
3427,3.602299927
3428,3.601116321
3429,3.617610723
3430,3.618178447
3431,3.636364797
3432,3.592322503
3433,3.591211217
3434,3.580426254
3435,3.592175245
3436,3.5971466
3437,3.590344032
3438,3.605407035
3439,3.583042868
3440,3.604699988
3441,3.589723535
3442,3.599249978
3443,3.608902094
3444,3.595899526
3445,3.605504897
3446,3.615263521
3447,3.587165802
3448,3.601580213
3449,3.612766315
3450,3.577173936
3451,3.598421087
3452,3.587889949
3453,3.605299931
3454,3.612408188
3455,3.597911018
3456,3.610935674
3457,3.585357671
3458,3.607722203
3459,3.599049007
3460,3.596118758
3461,3.60360132
3462,3.57429585
3463,3.621961966
3464,3.612417788
3465,3.60301114
3466,3.61758658
3467,3.63093526
3468,3.588238184
3469,3.599134471
3470,3.583320667
3471,3.581811311
3472,3.606505623
3473,3.618059831
3474,3.593746119
3475,3.611637904
3476,3.605459351
3477,3.59800695
3478,3.606491103
3479,3.613143869
3480,3.605760366
3481,3.576202384
3482,3.608766297
3483,3.584259206
3484,3.597395868
3485,3.583396029
3486,3.605667069
3487,3.607894317
3488,3.564134581
3489,3.58949712
3490,3.596635294
3491,3.609056668
3492,3.602551896
3493,3.58896427
3494,3.583370635
3495,3.635586597
3496,3.593567783
3497,3.590282698
3498,3.608361088
3499,3.60873913
3500,3.588886543
3501,3.601663583
3502,3.613495317
3503,3.606037063
3504,3.572853298
3505,3.605325846
3506,3.617509972
3507,3.574820236
3508,3.589420638
3509,3.580110512
3510,3.603664283
3511,3.590684721
3512,3.600939981
3513,3.604602717
3514,3.604506932
3515,3.582584435
3516,3.6156336
3517,3.601916905
3518,3.584330488
3519,3.620158965
3520,3.614700142
3521,3.627373146
3522,3.602423139
3523,3.609486827
3524,3.602562081
3525,3.60085166
3526,3.608373521
3527,3.610784968
3528,3.593442755
3529,3.587774448
3530,3.607425325
3531,3.607038748
3532,3.602249133
3533,3.582754339
3534,3.598484467
3535,3.581138669
3536,3.611138701
3537,3.607423054
3538,3.58030972
3539,3.570309006
3540,3.590267412
3541,3.602502338
3542,3.583115542
3543,3.614277757
3544,3.602395206
3545,3.596960722
3546,3.582033543
3547,3.61789813
3548,3.610683769
3549,3.585166254
3550,3.621521645
3551,3.589717395
3552,3.601545087
3553,3.593315515
3554,3.606854798
3555,3.596131829
3556,3.569634775
3557,3.581090289
3558,3.60074669
3559,3.605371462
3560,3.610961022
3561,3.596819851
3562,3.616660216
3563,3.599859659
3564,3.590384778
3565,3.57650349
3566,3.582311692
3567,3.600137924
3568,3.620597299
3569,3.60465884
3570,3.589674657
3571,3.612822115
3572,3.620453156
3573,3.600901717
3574,3.608799595
3575,3.600611439
3576,3.590729701
3577,3.59445868
3578,3.60266133
3579,3.584439597
3580,3.590497791
3581,3.610585566
3582,3.594583829
3583,3.613137727
3584,3.605726786
3585,3.575664495
3586,3.591741885
3587,3.618444861
3588,3.59537945
3589,3.621969817
3590,3.612346447
3591,3.600461412
3592,3.592211912
3593,3.604064795
3594,3.592457688
3595,3.612218709
3596,3.573716774
3597,3.598385653
3598,3.620764242
3599,3.613588237
3600,3.577266786
3601,3.588475851
3602,3.610809959
3603,3.595351471
3604,3.595036949
3605,3.600692219
3606,3.598641638
3607,3.592389493
3608,3.606625517
3609,3.606259235
3610,3.598620119
3611,3.61576653
3612,3.61962314
3613,3.613471781
3614,3.607053467
3615,3.610407959
3616,3.587232909
3617,3.594974765
3618,3.592996368
3619,3.596871288
3620,3.60286016
3621,3.588800302
3622,3.595952756
3623,3.581576355
3624,3.581870634
3625,3.582596549
3626,3.604739268
3627,3.568275493
3628,3.616289497
3629,3.581496646
3630,3.583360241
3631,3.610838629
3632,3.604184766
3633,3.570291094
3634,3.601091426
3635,3.573100353
3636,3.588414503
3637,3.586009712
3638,3.577472209
3639,3.611606845
3640,3.605558485
3641,3.582234209
3642,3.589302332
3643,3.587943913
3644,3.582120295
3645,3.608336057
3646,3.622563694
3647,3.59444156
3648,3.596020904
3649,3.620268626
3650,3.577200907
3651,3.594343598
3652,3.591630909
3653,3.622755793
3654,3.582397836
3655,3.615740625
3656,3.603428296
3657,3.599701991
3658,3.595811752
3659,3.572654085
3660,3.604739938
3661,3.594144626
3662,3.60594628
3663,3.61184033
3664,3.600384107
3665,3.590896807
3666,3.639507396
3667,3.617835531
3668,3.57247322
3669,3.584920294
3670,3.594483295
3671,3.613241209
3672,3.597184304
3673,3.595690044
3674,3.611972193
3675,3.597160082
3676,3.625631359
3677,3.60659006
3678,3.602883649
3679,3.595372882
3680,3.594299291
3681,3.614603186
3682,3.588767457
3683,3.576371778
3684,3.604303179
3685,3.575791954
3686,3.607704325
3687,3.619863381
3688,3.603440541
3689,3.62418804
3690,3.584792878
3691,3.588414113
3692,3.612337047
3693,3.624305106
3694,3.578854037
3695,3.589002537
3696,3.5945438
3697,3.594323233
3698,3.619898298
3699,3.6183104
3700,3.573771356
3701,3.598175814
3702,3.587018382
3703,3.613266398
3704,3.605613777
3705,3.617740496
3706,3.598684963
3707,3.579296358
3708,3.596800769
3709,3.625379177
3710,3.591097486
3711,3.593969084
3712,3.591758123
3713,3.622875021
3714,3.591384444
3715,3.610560986
3716,3.595241877
3717,3.584569612
3718,3.62134434
3719,3.612222302
3720,3.606190346
3721,3.61658626
3722,3.587303266
3723,3.610772434
3724,3.591166203
3725,3.615149076
3726,3.586702719
3727,3.60345643
3728,3.590165138
3729,3.605740191
3730,3.572608105
3731,3.575903046
3732,3.597478212
3733,3.607510502
3734,3.579259145
3735,3.599604426
3736,3.593614896
3737,3.60406862
3738,3.619735118
3739,3.576766197
3740,3.600793457
3741,3.586032865
3742,3.598423584
3743,3.58648951
3744,3.610667427
3745,3.603252884
3746,3.611627437
3747,3.604882531
3748,3.602608195
3749,3.577242746
3750,3.583581809
3751,3.608165047
3752,3.579971686
3753,3.591632961
3754,3.605480294
3755,3.575140592
3756,3.591311843
3757,3.594495988
3758,3.583499671
3759,3.617854984
3760,3.61212154
3761,3.620925226
3762,3.590591402
3763,3.608154834
3764,3.597756634
3765,3.612300115
3766,3.601020005
3767,3.58270142
3768,3.596366696
3769,3.581145494
3770,3.628601967
3771,3.599265778
3772,3.615750414
3773,3.583487302
3774,3.598222364
3775,3.607457665
3776,3.587604033
3777,3.614224032
3778,3.587102939
3779,3.623125844
3780,3.587807367
3781,3.59809088
3782,3.58921971
3783,3.602706589
3784,3.606933324
3785,3.607565022
3786,3.619887725
3787,3.586852503
3788,3.625902419
3789,3.61019867
3790,3.607253481
3791,3.621563155
3792,3.60880697
3793,3.592429203
3794,3.603030949
3795,3.600460628
3796,3.617608355
3797,3.599069308
3798,3.570475389
3799,3.592341318
3800,3.57463938
3801,3.58466428
3802,3.607200791
3803,3.584661338
3804,3.568579757
3805,3.59295557
3806,3.60146691
3807,3.602759848
3808,3.609919917
3809,3.616604893
3810,3.615279672
3811,3.596750351
3812,3.595202887
3813,3.602144955
3814,3.596401329
3815,3.608388393
3816,3.63414671
3817,3.597960657
3818,3.61159249
3819,3.617079955
3820,3.600195792
3821,3.585799645
3822,3.574702025
3823,3.635503159
3824,3.613610636
3825,3.588220791
3826,3.612166308
3827,3.610284148
3828,3.557478389
3829,3.590136408
3830,3.59599121
3831,3.59507769
3832,3.605997288
3833,3.585131302
3834,3.612491093
3835,3.603300327
3836,3.599685597
3837,3.607008384
3838,3.574667992
3839,3.601260287
3840,3.592294665
3841,3.593682712
3842,3.614501199
3843,3.588023237
3844,3.574422769
3845,3.598824298
3846,3.592435273
3847,3.596082276
3848,3.602796253
3849,3.601295028
3850,3.600991451
3851,3.582118967
3852,3.597237348
3853,3.575991484
3854,3.603231508
3855,3.620835089
3856,3.615423893
3857,3.622838068
3858,3.602743047
3859,3.608390322
3860,3.606527618
3861,3.601044313
3862,3.605979033
3863,3.597663725
3864,3.601969191
3865,3.603882992
3866,3.607030792
3867,3.591999105
3868,3.59198884
3869,3.612213872
3870,3.594610863
3871,3.602968732
3872,3.61327739
3873,3.586439552
3874,3.618421572
3875,3.601248466
3876,3.604822748
3877,3.605045425
3878,3.595978249
3879,3.618760734
3880,3.599147791
3881,3.593094356
3882,3.596849872
3883,3.57851188
3884,3.603483837
3885,3.612367193
3886,3.588986892
3887,3.601625322
3888,3.601418447
3889,3.606077887
3890,3.599746132
3891,3.607969987
3892,3.59326955
3893,3.634483005
3894,3.636138742
3895,3.603458682
3896,3.608314263
3897,3.597980823
3898,3.600138608
3899,3.613306582
3900,3.605441919
3901,3.577422483
3902,3.58220671
3903,3.574388473
3904,3.575273063
3905,3.569972627
3906,3.628460926
3907,3.612302147
3908,3.615799271
3909,3.60497102
3910,3.588095388
3911,3.598333485
3912,3.587371628
3913,3.596956683
3914,3.582771172
3915,3.586364742
3916,3.593697888
3917,3.610606896
3918,3.592116472
3919,3.608303157
3920,3.604011513
3921,3.618116554
3922,3.58800033
3923,3.584920384
3924,3.586090849
3925,3.641210019
3926,3.605675508
3927,3.602421786
3928,3.613844102
3929,3.642514025
3930,3.603905817
3931,3.568199081
3932,3.622736282
3933,3.593825655
3934,3.594391886
3935,3.616828665
3936,3.626157292
3937,3.605756268
3938,3.599265604
3939,3.578315892
3940,3.607475123
3941,3.61411318
3942,3.595183294
3943,3.617518264
3944,3.613170295
3945,3.599517452
3946,3.601842572
3947,3.628537927
3948,3.576329342
3949,3.623465095
3950,3.606504669
3951,3.60011158
3952,3.611304264
3953,3.564535092
3954,3.600352754
3955,3.605159795
3956,3.606702667
3957,3.605945369
3958,3.606006524
3959,3.586511565
3960,3.571762177
3961,3.599741993
3962,3.613925725
3963,3.617361662
3964,3.603037293
3965,3.616029061
3966,3.61879955
3967,3.583907253
3968,3.604834505
3969,3.603991347
3970,3.600154263
3971,3.616392892
3972,3.592447676
3973,3.607337582
3974,3.630163994
3975,3.626069477
3976,3.585015998
3977,3.594766452
3978,3.593753823
3979,3.615098522
3980,3.585063486
3981,3.629907623
3982,3.603698514
3983,3.603400951
3984,3.578691549
3985,3.572062391
3986,3.589647848
3987,3.604691767
3988,3.607474962
3989,3.590205487
3990,3.610976791
3991,3.58184602
3992,3.572724844
3993,3.584283224
3994,3.608666833
3995,3.599224669
3996,3.58288279
3997,3.586981186
3998,3.617510298
3999,3.609338441
4000,3.596003111
