Wavenumber (cm⁻¹),Intensity
200.0,20201.159780128604
201.00097751710655,20291.46269945748
202.0019550342131,20315.428511361686
203.00293255131965,20388.895127311418
204.0039100684262,20499.581523369794
205.00488758553274,20596.186088508184
206.0058651026393,20627.42314047596
207.00684261974584,20653.05412350212
208.0078201368524,20737.778844216296
209.00879765395894,20827.41841701841
210.00977517106548,20844.03185560363
211.01075268817203,20942.28385381608
212.01173020527858,21038.708214763003
213.01270772238513,21132.49630683453
214.01368523949168,21227.55393881201
215.01466275659823,21283.20045581373
216.01564027370478,21389.768040894316
217.01661779081132,21440.317024972002
218.01759530791787,21468.43658743345
219.01857282502445,21587.44996700246
220.019550342131,21729.92779825069
221.02052785923755,21803.964727610866
222.0215053763441,21866.29154347133
223.02248289345064,21969.681337679747
224.0234604105572,22070.875606062637
225.02443792766374,22133.01860212418
226.0254154447703,22226.3813949601
227.02639296187684,22361.835131575586
228.02737047898339,22494.954403366828
229.02834799608993,22574.6400627083
230.02932551319648,22644.7054984425
231.03030303030303,22699.647956478286
232.03128054740958,22757.10701152075
233.03225806451613,22902.864443128517
234.03323558162268,22999.352943390993
235.03421309872923,23086.032952123966
236.03519061583577,23180.098479106255
237.03616813294232,23273.836512498372
238.03714565004887,23369.395018766667
239.03812316715542,23492.260171622074
240.03910068426197,23585.6182921959
241.04007820136852,23655.44949339228
242.04105571847506,23804.05657229703
243.0420332355816,23898.846675058998
244.0430107526882,24008.338931108767
245.04398826979474,24144.644977180116
246.0449657869013,24279.71765133723
247.04594330400784,24362.842367073285
248.04692082111438,24622.423269414543
249.04789833822093,24781.8543979916
250.04887585532748,24767.91543018659
251.04985337243403,24842.100673239816
252.05083088954058,24792.929096704036
253.05180840664713,24783.714825145664
254.05278592375367,24817.0508777763
255.05376344086022,24840.183793684886
256.05474095796677,24893.812502314053
257.0557184750733,24954.11156680116
258.05669599217987,25025.111364245662
259.0576735092864,25100.09634566554
260.05865102639297,25168.04115336678
261.0596285434995,25264.509673722998
262.06060606060606,25356.285527207358
263.0615835777126,25390.36695773805
264.06256109481916,25378.565788217198
265.0635386119257,25427.7243568491
266.06451612903226,25533.932757492425
267.0654936461388,25625.58242717234
268.06647116324535,25691.036540213947
269.0674486803519,25753.2060299849
270.06842619745845,25814.869005124412
271.069403714565,25932.370679691707
272.07038123167155,26030.214472788586
273.0713587487781,26088.76907714356
274.07233626588464,26175.51558620308
275.0733137829912,26274.115570302456
276.07429130009774,26416.469969516715
277.0752688172043,26548.943757218083
278.07624633431084,26655.19860614698
279.0772238514174,26838.53014503791
280.07820136852393,26991.660199090285
281.0791788856305,27116.03338208753
282.08015640273703,27255.94399713659
283.0811339198436,27438.32894623818
284.08211143695013,27592.84947614937
285.0830889540567,27728.060342110715
286.0840664711632,27858.328599145596
287.0850439882698,27998.367568871767
288.0860215053764,28151.313183170332
289.0869990224829,28260.41710500837
290.0879765395895,28424.73753291593
291.088954056696,28659.829934436224
292.0899315738026,28873.868818250558
293.0909090909091,28946.79661952443
294.09188660801567,29123.56732075171
295.0928641251222,29289.083761565314
296.09384164222877,29377.47127051676
297.0948191593353,29410.636315026128
298.09579667644186,29432.79837951549
299.0967741935484,29383.29820422747
300.09775171065496,29289.809829065285
301.0987292277615,29207.8241774227
302.09970674486806,29157.31810033206
303.1006842619746,29021.66030989786
304.10166177908116,28959.078692347324
305.1026392961877,28935.708777434502
306.10361681329425,28913.803708198266
307.1045943304008,28960.76299719397
308.10557184750735,29025.277955626687
309.1065493646139,29051.52773292473
310.10752688172045,29099.095186783627
311.108504398827,29208.26012697181
312.10948191593354,29281.69640240452
313.1104594330401,29392.49355234299
314.11143695014664,29433.19749424984
315.1124144672532,29491.48229003203
316.11339198435974,29688.066554800673
317.1143695014663,29764.269397105883
318.11534701857283,29784.93811101561
319.1163245356794,29852.24691861101
320.11730205278593,29974.927585887508
321.1182795698925,30085.098611138994
322.119257086999,30132.96957720814
323.1202346041056,30160.030476227843
324.1212121212121,30208.10277428925
325.1221896383187,30279.39982602588
326.1231671554252,30333.220224506542
327.12414467253177,30423.688767065236
328.1251221896383,30534.57518115697
329.12609970674487,30654.417937688304
330.1270772238514,30764.305052317744
331.12805474095796,30821.689162066494
332.1290322580645,30963.25251159243
333.13000977517106,31090.84378703023
334.1309872922776,31171.88763306226
335.13196480938416,31249.071899582777
336.1329423264907,31459.0246274496
337.13391984359725,31620.627202306307
338.1348973607038,31864.104413042653
339.13587487781035,32155.29654704096
340.1368523949169,32347.302649695735
341.13782991202345,32571.97624935749
342.13880742913,32798.324845696865
343.13978494623655,32992.560374693945
344.1407624633431,33178.48801733739
345.14173998044964,33403.88532914304
346.1427174975562,33591.892598314254
347.14369501466274,33833.83045521152
348.1446725317693,34104.84502122414
349.14565004887584,34402.67541391188
350.1466275659824,34796.14785594061
351.14760508308893,35164.7413266961
352.1485826001955,35649.890152351545
353.14956011730203,36104.38598847539
354.1505376344086,36388.10191938048
355.1515151515151,36548.570902742424
356.1524926686217,36444.817269004554
357.1534701857282,36078.22110061817
358.1544477028348,35574.43402061041
359.1554252199413,35070.507703552605
360.15640273704787,34672.574226566205
361.1573802541544,34391.25903061368
362.15835777126097,34309.11885420639
363.1593352883675,34297.32749268687
364.16031280547406,34239.96461214105
365.1612903225806,34257.45567035349
366.16226783968716,34283.477148990874
367.1632453567937,34326.74701773744
368.16422287390026,34373.68641816929
369.1652003910068,34420.75710639124
370.16617790811335,34538.34753492733
371.1671554252199,34636.61743315078
372.16813294232645,34717.8672586301
373.169110459433,34811.288524133684
374.17008797653955,34927.33493927776
375.1710654936461,34989.03677795072
376.1720430107527,35175.37122093529
377.17302052785925,35301.996536560175
378.1739980449658,35375.77722623388
379.17497556207235,35524.992844657914
380.1759530791789,35666.10186334104
381.17693059628544,35830.41823217623
382.177908113392,35958.294493486566
383.17888563049854,36041.55647040897
384.1798631476051,36129.767839650696
385.18084066471164,36254.15538851793
386.1818181818182,36419.88055910694
387.18279569892474,36564.89240799103
388.1837732160313,36690.22114624577
389.18475073313783,36846.23958607361
390.1857282502444,37043.995178825215
391.18670576735093,37248.92786816516
392.1876832844575,37376.546293855994
393.188660801564,37418.77997046361
394.1896383186706,37444.91138337831
395.1906158357771,37526.111239267484
396.1915933528837,37421.12619657644
397.1925708699902,37305.300940746165
398.19354838709677,37313.992446047014
399.1945259042033,37413.60174549761
400.19550342130987,37380.331074173904
401.1964809384164,37458.62965158541
402.19745845552296,37620.55069036918
403.1984359726295,37733.260004754775
404.19941348973606,37684.14594089519
405.2003910068426,37653.57988419636
406.20136852394916,37699.85726806577
407.2023460410557,37864.70613886217
408.20332355816225,38006.17415918018
409.20430107526886,37985.16022212408
410.2052785923754,38075.97016385426
411.20625610948196,38159.38040893306
412.2072336265885,38258.0672938835
413.20821114369505,38380.046309906385
414.2091886608016,38500.35656771663
415.21016617790815,38630.38975960703
416.2111436950147,38704.13288606351
417.21212121212125,38775.97062944316
418.2130987292278,38869.39512428823
419.21407624633434,38953.86071078184
420.2150537634409,38978.612283267874
421.21603128054744,39054.58539886084
422.217008797654,39188.70860034228
423.21798631476054,39295.255467349896
424.2189638318671,39344.5434712624
425.21994134897363,39459.61686799019
426.2209188660802,39702.37349756068
427.22189638318673,39853.422576259414
428.2228739002933,39981.992994815584
429.2238514173998,40173.00389243013
430.2248289345064,40245.046217876625
431.2258064516129,40415.32485436698
432.2267839687195,40592.965732056095
433.227761485826,40753.57914672001
434.22873900293257,40875.876586476195
435.2297165200391,40902.54274673588
436.23069403714567,41067.75891811845
437.2316715542522,41274.98506597176
438.23264907135876,41421.78640771486
439.2336265884653,41532.566622668266
440.23460410557186,41705.06006741036
441.2355816226784,41811.061833315995
442.23655913978496,41829.75071365643
443.2375366568915,41932.650240845134
444.23851417399806,42097.3778005561
445.2394916911046,42122.338081063564
446.24046920821115,42117.27879250177
447.2414467253177,42075.27767999971
448.24242424242425,42087.371600447535
449.2434017595308,42141.673258635696
450.24437927663735,42147.674270531155
451.2453567937439,42157.11176899776
452.24633431085044,42207.668786589216
453.247311827957,42246.597341559
454.24828934506354,42314.147033125075
455.2492668621701,42453.37111876133
456.25024437927664,42501.63716134262
457.2512218963832,42573.55098789448
458.25219941348973,42640.14804214334
459.2531769305963,42754.34334458431
460.25415444770283,42928.28585023002
461.2551319648094,43033.171332854
462.2561094819159,43182.88385654623
463.2570869990225,43260.36383120403
464.258064516129,43360.9668491345
465.2590420332356,43505.405140843955
466.2600195503421,43545.31255273898
467.26099706744867,43699.896852626065
468.2619745845552,43804.715067551275
469.26295210166177,43852.98135944425
470.2639296187683,43896.07579044758
471.26490713587486,43981.44715916618
472.2658846529814,44066.48973097902
473.26686217008796,44226.800673470956
474.2678396871945,44320.12612467895
475.26881720430106,44344.23341853406
476.2697947214076,44428.99851085883
477.27077223851416,44601.9378578912
478.2717497556207,44681.2098699665
479.27272727272725,44812.59531613584
480.2737047898338,44970.563507867075
481.27468230694035,45067.283513398426
482.2756598240469,45126.39774493979
483.27663734115345,45318.19639558561
484.27761485826,45429.625087580134
485.27859237536654,45514.3043264376
486.2795698924731,45646.76739261251
487.28054740957964,45784.039080961564
488.2815249266862,45868.001777325575
489.2825024437928,45985.98427726286
490.28347996089934,46082.45859594399
491.2844574780059,46149.32732440269
492.28543499511244,46231.120568650964
493.286412512219,46328.71913797023
494.28739002932554,46418.878302240744
495.2883675464321,46531.254116111435
496.28934506353863,46649.57075561201
497.2903225806452,46743.566376337396
498.29130009775173,46823.060696812965
499.2922776148583,46956.560577712415
500.2932551319648,47160.036454751666
501.2942326490714,47374.28287374823
502.2952101661779,47569.58201566421
503.2961876832845,47749.31671129668
504.297165200391,47826.29390998529
505.29814271749757,48023.01749845038
506.2991202346041,48188.10956929635
507.30009775171067,48283.014446910034
508.3010752688172,48377.46894279356
509.30205278592376,48512.23266245367
510.3030303030303,48658.73097370721
511.30400782013686,48781.941644876264
512.3049853372434,48949.22069947005
513.3059628543499,49144.692108799005
514.3069403714564,49241.30531037131
515.307917888563,49335.63572656361
516.3088954056695,49503.403342686746
517.3098729227761,49782.43975200951
518.3108504398826,50000.38930524927
519.3118279569892,50018.557026360926
520.3128054740957,50238.5090032671
521.3137829912023,50399.78570456964
522.3147605083088,50496.35879786888
523.3157380254154,50539.882040326185
524.3167155425219,50562.927364955736
525.3176930596285,50630.793418994326
526.318670576735,50707.92125556709
527.3196480938416,50668.989030171644
528.3206256109481,50661.773034433296
529.3216031280547,50726.72275256529
530.3225806451612,50777.33944035169
531.3235581622678,50871.03977862816
532.3245356793743,50825.372970390825
533.3255131964809,50882.43881382221
534.3264907135874,51017.933826528315
535.327468230694,51158.602227092895
536.3284457478005,51370.27237216697
537.3294232649071,51493.95983790977
538.3304007820136,51616.77747769164
539.3313782991202,51727.19418141914
540.3323558162267,51826.88404448158
541.3333333333333,51943.955344946764
542.3343108504398,52051.53984218603
543.3352883675464,52138.717647160316
544.3362658846529,52289.364455314964
545.3372434017595,52405.22209119924
546.338220918866,52461.91039734923
547.3391984359725,52605.8705744459
548.3401759530791,52675.23709049667
549.3411534701856,52811.07362067996
550.3421309872922,52907.786834174694
551.3431085043987,52974.93645205086
552.3440860215054,53085.20514083769
553.345063538612,53153.095525270975
554.3460410557185,53251.323472758784
555.347018572825,53290.87062876998
556.3479960899316,53427.7544391341
557.3489736070381,53610.871019598395
558.3499511241447,53598.04120042182
559.3509286412512,53712.822640887876
560.3519061583578,53935.22365820722
561.3528836754643,54087.54227003515
562.3538611925709,54171.32178169271
563.3548387096774,54263.61001773157
564.355816226784,54372.819879653085
565.3567937438905,54504.7816601732
566.3577712609971,54688.304490945964
567.3587487781036,54815.27115118147
568.3597262952102,54904.946457843784
569.3607038123167,55045.94760853816
570.3616813294233,55131.00342365332
571.3626588465298,55268.53739333638
572.3636363636364,55366.2457803926
573.3646138807429,55494.02801971782
574.3655913978495,55666.53673090177
575.366568914956,55768.299773212384
576.3675464320626,55834.94442259883
577.3685239491691,56060.68367729324
578.3695014662757,56240.074834330015
579.3704789833822,56365.63096321831
580.3714565004888,56543.469152262944
581.3724340175953,56734.23305631946
582.3734115347019,56823.52044332357
583.3743890518084,56920.62102293182
584.375366568915,57068.88184901589
585.3763440860215,57216.694566401915
586.377321603128,57321.4947638113
587.3782991202346,57454.00805315568
588.3792766373411,57492.76757951476
589.3802541544477,57690.530990686515
590.3812316715542,57819.17505755026
591.3822091886608,57834.08235412316
592.3831867057673,57996.45923119831
593.3841642228739,58120.31881246876
594.3851417399804,58130.82638438503
595.386119257087,58149.68681820716
596.3870967741935,58224.95290422928
597.3880742913001,58316.557588847914
598.3890518084066,58371.53103925823
599.3900293255132,58420.96027316341
600.3910068426197,58494.72132861627
601.3919843597263,58589.908615688975
602.3929618768328,58641.05239564078
603.3939393939394,58652.52351574236
604.3949169110459,58792.315411229334
605.3958944281525,58949.593762382436
606.396871945259,59018.101333330495
607.3978494623656,59136.23984891368
608.3988269794721,59277.65422807475
609.3998044965787,59388.76131223916
610.4007820136852,59621.4394519213
611.4017595307918,59752.85408479885
612.4027370478983,59886.572017249804
613.4037145650049,59952.623794453
614.4046920821114,60043.21545557346
615.405669599218,60266.06574950987
616.4066471163245,60337.285601639276
617.4076246334312,60430.588561006014
618.4086021505377,60453.92547896411
619.4095796676443,60555.870921886635
620.4105571847508,60759.62530992525
621.4115347018574,60902.60670816401
622.4125122189639,60945.34345633183
623.4134897360705,61066.07887098296
624.414467253177,61165.770341167874
625.4154447702836,61273.09284258975
626.4164222873901,61433.795492429585
627.4173998044967,61627.789915277805
628.4183773216032,61733.560094503475
629.4193548387098,61945.569175716475
630.4203323558163,62106.98141340945
631.4213098729228,62172.60903739607
632.4222873900294,62261.08098682391
633.423264907136,62446.43352072628
634.4242424242425,62579.962775609245
635.425219941349,62608.11731730862
636.4261974584556,62683.27173129998
637.4271749755621,62823.732504013184
638.4281524926687,62977.227326232205
639.4291300097752,63097.44889438173
640.4301075268818,63196.0256049809
641.4310850439883,63303.355919069865
642.4320625610949,63412.1127640153
643.4330400782014,63526.342980634385
644.434017595308,63627.84085002017
645.4349951124145,63703.05332132981
646.4359726295211,63821.41008387872
647.4369501466276,63967.11660634286
648.4379276637342,64144.914051318745
649.4389051808407,64288.62863295216
650.4398826979473,64388.50948600971
651.4408602150538,64497.175062997245
652.4418377321604,64595.09870214481
653.4428152492669,64780.02687497796
654.4437927663735,65013.537481456886
655.44477028348,65143.58801928189
656.4457478005866,65285.12089073055
657.4467253176931,65605.10647221356
658.4477028347997,65722.53362034744
659.4486803519062,65836.66222015177
660.4496578690128,66012.18395605493
661.4506353861193,66248.49409155894
662.4516129032259,66421.32389759301
663.4525904203324,66459.18864006505
664.453567937439,66566.0768647553
665.4545454545455,66635.59349833117
666.455522971652,66793.9288561367
667.4565004887586,66955.19081151357
668.4574780058651,67041.30775018386
669.4584555229717,67099.4289647585
670.4594330400782,67270.49568515312
671.4604105571848,67481.93580121426
672.4613880742913,67675.04659852636
673.4623655913979,67813.39912203109
674.4633431085044,67917.24122521155
675.464320625611,68067.62037557663
676.4652981427175,68337.12816611423
677.4662756598241,68391.8626080485
678.4672531769306,68568.50322586931
679.4682306940372,68754.95903702402
680.4692082111437,68867.40298370217
681.4701857282503,68957.83592241949
682.4711632453568,69151.7090782107
683.4721407624634,69405.1825861745
684.4731182795699,69676.82638960819
685.4740957966765,69854.73966250726
686.475073313783,70035.9518036012
687.4760508308896,70263.82735050893
688.4770283479961,70439.13799343834
689.4780058651027,70583.69132790863
690.4789833822092,70946.47263513756
691.4799608993158,71309.60636366069
692.4809384164223,71603.56192537415
693.4819159335289,71891.37561346243
694.4828934506354,72235.72428965772
695.483870967742,72606.2602285699
696.4848484848485,72943.70611466249
697.485826001955,73287.6934846366
698.4868035190616,73715.84797524396
699.4877810361681,74249.62845821364
700.4887585532747,74837.44791932212
701.4897360703812,75415.12443474027
702.4907135874878,75990.32163428859
703.4916911045943,76522.04722770394
704.4926686217009,77021.74165548942
705.4936461388074,77386.31079915166
706.494623655914,77588.72954772244
707.4956011730205,77681.45828315878
708.4965786901271,77298.38341068933
709.4975562072336,76688.15753713137
710.4985337243402,76086.72326115883
711.4995112414467,75587.67911566637
712.5004887585533,75172.31054746432
713.5014662756598,74836.25066437917
714.5024437927664,74667.7720457217
715.5034213098729,74694.45193084062
716.5043988269795,74719.39117479672
717.505376344086,74670.14821950562
718.5063538611926,74705.40523134066
719.5073313782991,74834.41092629934
720.5083088954057,74782.5865037654
721.5092864125122,74917.64828291953
722.5102639296188,75075.24109536663
723.5112414467253,75176.02323990248
724.5122189638319,75258.32260774638
725.5131964809384,75399.69007069511
726.514173998045,75630.21159290681
727.5151515151515,75846.01052774163
728.516129032258,75965.3493096734
729.5171065493646,76162.39870465297
730.5180840664711,76357.65578241304
731.5190615835777,76476.10425261913
732.5200391006842,76538.1222454385
733.5210166177908,76613.65257393512
734.5219941348973,76797.6951859746
735.5229716520039,76939.43624461285
736.5239491691104,77142.78982714853
737.524926686217,77284.46501696209
738.5259042033235,77364.81255766205
739.5268817204301,77533.46052530293
740.5278592375366,77661.37927403995
741.5288367546432,77777.65559088891
742.5298142717497,78030.83926200905
743.5307917888563,78104.56757588532
744.5317693059628,78193.7999581762
745.5327468230694,78427.95278420433
746.5337243401759,78434.13427920736
747.5347018572825,78678.3637373271
