Raman Shift,Intensity
209.0,903.941
210.0,700.063
211.0,559.87
212.0,290.33
213.0,143.428
214.0,70.968
215.0,6.523
216.0,2.587
217.0,19.668
218.0,3.643
219.0,5.646
220.0,19.16
221.0,38.175
222.0,50.616
223.0,65.206
224.0,72.987
225.0,77.503
226.0,76.741
227.0,72.796
228.0,69.879
229.0,67.611
230.0,68.064
231.0,68.65
232.0,72.242
233.0,76.24
234.0,80.642
235.0,89.403
236.0,99.773
237.0,118.124
238.0,136.682
239.0,157.679
240.0,180.909
241.0,207.25
242.0,248.108
243.0,289.083
244.0,336.569
245.0,385.398
246.0,429.32
247.0,467.341
248.0,501.967
249.0,502.946
250.0,503.77
251.0,486.756
252.0,462.962
253.0,441.744
254.0,425.054
255.0,408.378
256.0,414.027
257.0,419.442
258.0,435.541
259.0,457.096
260.0,472.241
261.0,472.765
262.0,473.149
263.0,439.939
264.0,404.683
265.0,372.423
266.0,342.129
267.0,317.793
268.0,312.533
269.0,307.04
270.0,312.702
271.0,319.473
272.0,322.965
273.0,323.678
274.0,321.376
275.0,307.644
276.0,293.866
277.0,278.959
278.0,263.822
279.0,251.055
280.0,240.667
281.0,230.781
282.0,223.412
283.0,215.972
284.0,208.839
285.0,201.795
286.0,194.132
287.0,185.803
288.0,177.541
289.0,169.643
290.0,161.752
291.0,154.523
292.0,147.457
293.0,141.366
294.0,136.43
295.0,131.641
296.0,128.0
297.0,124.365
298.0,121.768
299.0,119.451
300.0,117.316
301.0,115.438
302.0,113.706
303.0,113.115
304.0,112.515
305.0,111.909
306.0,111.302
307.0,110.111
308.0,108.205
309.0,106.455
310.0,105.831
311.0,105.197
312.0,103.182
313.0,100.806
314.0,120.983
315.0,138.913
316.0,154.173
317.0,167.313
318.0,177.713
319.0,184.028
320.0,186.493
321.0,187.673
322.0,188.427
323.0,186.179
324.0,182.833
325.0,178.089
326.0,175.416
327.0,173.189
328.0,171.543
329.0,170.451
330.0,169.544
331.0,169.023
332.0,168.536
333.0,169.991
334.0,171.679
335.0,173.369
336.0,175.068
337.0,177.105
338.0,180.139
339.0,183.188
340.0,186.306
341.0,189.495
342.0,191.681
343.0,193.329
344.0,194.645
345.0,195.159
346.0,195.711
347.0,191.642
348.0,187.686
349.0,182.034
350.0,175.783
351.0,169.732
352.0,163.896
353.0,158.4
354.0,154.296
355.0,150.367
356.0,147.608
357.0,145.144
358.0,144.116
359.0,144.622
360.0,144.87
361.0,144.3
362.0,143.654
363.0,144.068
364.0,144.686
365.0,145.588
366.0,146.764
367.0,148.051
368.0,149.418
369.0,150.798
370.0,150.09
371.0,149.159
372.0,147.215
373.0,144.685
374.0,141.068
375.0,135.706
376.0,130.409
377.0,125.915
378.0,121.458
379.0,117.049
380.0,112.677
381.0,108.334
382.0,104.007
383.0,99.639
384.0,95.217
385.0,90.762
386.0,87.844
387.0,85.066
388.0,81.716
389.0,78.015
390.0,74.877
391.0,72.912
392.0,70.906
393.0,68.477
394.0,66.042
395.0,63.59
396.0,61.139
397.0,58.67
398.0,56.176
399.0,53.865
400.0,52.256
401.0,50.648
402.0,49.045
403.0,47.44
404.0,45.566
405.0,43.528
406.0,41.665
407.0,40.098
408.0,38.548
409.0,37.019
410.0,35.511
411.0,34.028
412.0,32.558
413.0,31.098
414.0,29.657
415.0,28.558
416.0,28.482
417.0,28.442
418.0,27.156
419.0,25.837
420.0,24.83
421.0,23.969
422.0,22.923
423.0,21.638
424.0,20.365
425.0,19.112
426.0,17.88
427.0,17.051
428.0,16.275
429.0,15.239
430.0,14.052
431.0,13.042
432.0,12.359
433.0,11.758
434.0,11.611
435.0,11.52
436.0,11.108
437.0,10.635
438.0,9.938
439.0,9.09
440.0,8.279
441.0,7.475
442.0,6.67
443.0,5.918
444.0,5.217
445.0,4.892
446.0,4.701
447.0,4.324
448.0,3.792
449.0,3.313
450.0,2.873
451.0,2.476
452.0,2.96
453.0,3.455
454.0,3.3
455.0,2.934
456.0,2.788
457.0,2.843
458.0,2.686
459.0,1.866
460.0,1.05
461.0,1.555
462.0,2.074
463.0,2.261
464.0,2.322
465.0,2.175
466.0,1.829
467.0,1.679
468.0,2.174
469.0,2.677
470.0,2.302
471.0,1.939
472.0,1.947
473.0,2.09
474.0,2.214
475.0,2.319
476.0,2.183
477.0,1.395
478.0,0.626
479.0,0.726
480.0,0.835
481.0,0.609
482.0,0.287
483.0,0.039
484.0,0.375
485.0,0.403
486.0,0.207
487.0,0.738
488.0,0.02
489.0,0.707
490.0,0.312
491.0,0.314
492.0,0.142
493.0,0.575
494.0,1.112
495.0,1.361
496.0,1.615
497.0,1.874
498.0,2.127
499.0,1.989
500.0,1.769
501.0,2.12
502.0,2.767
503.0,3.015
504.0,2.765
505.0,2.706
506.0,3.351
507.0,3.983
508.0,4.158
509.0,4.343
510.0,4.197
511.0,3.938
512.0,3.919
513.0,4.084
514.0,4.222
515.0,4.364
516.0,4.518
517.0,4.666
518.0,4.801
519.0,4.532
520.0,4.19
521.0,4.128
522.0,4.226
523.0,4.522
524.0,5.062
525.0,5.405
526.0,5.026
527.0,4.632
528.0,4.697
529.0,4.771
530.0,4.847
531.0,4.933
532.0,5.001
533.0,5.056
534.0,4.946
535.0,4.556
536.0,4.175
537.0,3.791
538.0,3.408
539.0,3.443
540.0,3.516
541.0,3.895
542.0,4.378
543.0,4.404
544.0,3.999
545.0,3.735
546.0,3.782
547.0,3.734
548.0,2.866
549.0,1.984
550.0,1.944
551.0,1.995
552.0,1.737
553.0,1.34
554.0,1.172
555.0,1.225
556.0,1.272
557.0,1.32
558.0,1.318
559.0,0.909
560.0,0.493
561.0,0.475
562.0,0.489
563.0,0.134
564.0,1.032
565.0,1.478
566.0,1.462
567.0,1.451
568.0,1.425
569.0,1.468
570.0,1.923
571.0,2.369
572.0,2.386
573.0,2.359
574.0,3.339
575.0,4.683
576.0,5.297
577.0,5.292
578.0,5.105
579.0,4.611
580.0,4.312
581.0,5.157
582.0,6.001
583.0,6.395
584.0,6.778
585.0,7.16
586.0,7.541
587.0,7.642
588.0,7.562
589.0,7.87
590.0,8.706
591.0,9.21
592.0,8.661
593.0,8.171
594.0,8.542
595.0,8.914
596.0,9.281
597.0,9.644
598.0,10.008
599.0,10.372
600.0,10.495
601.0,10.392
602.0,10.443
603.0,10.79
604.0,11.132
605.0,11.469
606.0,11.801
607.0,11.212
608.0,10.624
609.0,10.788
610.0,11.101
611.0,11.406
612.0,11.713
613.0,11.797
614.0,11.626
615.0,11.72
616.0,12.446
617.0,13.102
618.0,13.359
619.0,13.617
620.0,12.971
621.0,12.299
622.0,12.732
623.0,13.44
624.0,13.532
625.0,13.306
626.0,13.07
627.0,12.826
628.0,12.741
629.0,12.954
630.0,13.157
631.0,13.35
632.0,13.516
633.0,13.195
634.0,12.878
635.0,13.341
636.0,13.946
637.0,14.224
638.0,14.338
639.0,14.197
640.0,13.813
641.0,13.766
642.0,14.291
643.0,14.732
644.0,14.808
645.0,14.891
646.0,14.981
647.0,15.059
648.0,14.705
649.0,14.276
650.0,14.526
651.0,14.996
652.0,15.183
653.0,15.193
654.0,14.983
655.0,14.509
656.0,14.361
657.0,14.9
658.0,15.364
659.0,15.44
660.0,15.524
661.0,15.625
662.0,15.731
663.0,15.422
664.0,15.05
665.0,14.994
666.0,15.066
667.0,14.878
668.0,14.529
669.0,14.172
670.0,13.805
671.0,13.608
672.0,13.749
673.0,13.888
674.0,14.02
675.0,14.132
676.0,13.799
677.0,13.448
678.0,13.94
679.0,14.528
680.0,14.735
681.0,14.808
682.0,14.617
683.0,14.297
684.0,14.454
685.0,15.071
686.0,16.0
687.0,17.491
688.0,18.953
689.0,20.436
690.0,21.89
691.0,22.91
692.0,23.916
693.0,28.582
694.0,33.328
695.0,47.662
696.0,63.68
697.0,113.755
698.0,176.844
699.0,283.429
700.0,419.099
701.0,487.925
702.0,483.194
703.0,455.956
704.0,387.62
705.0,323.866
706.0,275.274
707.0,225.264
708.0,163.909
709.0,102.544
710.0,78.641
711.0,55.002
712.0,52.47
713.0,52.944
714.0,68.48
715.0,88.781
716.0,99.019
717.0,103.717
718.0,93.904
719.0,71.181
720.0,52.589
721.0,39.809
722.0,29.748
723.0,25.943
724.0,22.608
725.0,21.179
726.0,19.77
727.0,18.37
728.0,16.942
729.0,15.933
730.0,14.962
731.0,13.997
732.0,13.032
733.0,12.777
734.0,12.727
735.0,12.957
736.0,13.343
737.0,13.199
738.0,12.63
739.0,12.499
740.0,12.891
741.0,12.922
742.0,12.325
743.0,11.969
744.0,12.338
745.0,12.722
746.0,13.107
747.0,13.477
748.0,13.844
749.0,14.21
750.0,14.58
751.0,14.981
752.0,15.407
753.0,15.842
754.0,15.557
755.0,15.052
756.0,15.179
757.0,15.61
758.0,15.217
759.0,14.244
760.0,13.269
761.0,12.282
762.0,11.293
763.0,10.285
764.0,9.276
765.0,8.281
766.0,7.404
767.0,6.882
768.0,6.351
769.0,5.823
770.0,5.318
771.0,5.262
772.0,5.194
773.0,4.667
774.0,4.123
775.0,3.567
776.0,2.996
777.0,2.792
778.0,2.676
779.0,2.893
780.0,3.251
781.0,3.004
782.0,2.397
783.0,2.049
784.0,1.914
785.0,2.0
786.0,2.343
787.0,2.696
788.0,3.052
789.0,3.108
790.0,2.489
791.0,2.111
792.0,2.454
793.0,2.806
794.0,3.183
795.0,3.512
796.0,3.423
797.0,3.363
798.0,4.231
799.0,5.107
800.0,5.981
801.0,6.843
802.0,7.284
803.0,7.663
804.0,8.441
805.0,9.307
806.0,10.548
807.0,11.902
808.0,12.587
809.0,12.987
810.0,13.384
811.0,13.79
812.0,14.183
813.0,14.589
814.0,14.022
815.0,12.5
816.0,10.972
817.0,9.449
818.0,8.089
819.0,7.036
820.0,6.29
821.0,6.2
822.0,5.856
823.0,4.792
824.0,3.868
825.0,3.325
826.0,2.784
827.0,2.226
828.0,1.711
829.0,1.642
830.0,1.603
831.0,2.046
832.0,2.502
833.0,1.966
834.0,1.396
835.0,1.739
836.0,2.135
837.0,2.083
838.0,1.972
839.0,1.845
840.0,1.697
841.0,2.704
842.0,4.02
843.0,4.616
844.0,4.975
845.0,4.662
846.0,4.038
847.0,5.013
848.0,6.828
849.0,14.37
850.0,25.505
851.0,38.872
852.0,53.917
853.0,55.929
854.0,46.475
855.0,34.852
856.0,20.989
857.0,11.126
858.0,6.081
859.0,2.88
860.0,2.232
861.0,1.596
862.0,0.963
863.0,0.667
864.0,1.009
865.0,1.048
866.0,0.405
867.0,0.155
868.0,0.977
869.0,1.541
870.0,1.356
871.0,1.159
872.0,0.952
873.0,1.008
874.0,2.235
875.0,3.231
876.0,2.967
877.0,2.752
878.0,2.967
879.0,3.121
880.0,2.832
881.0,2.613
882.0,3.291
883.0,3.956
884.0,4.599
885.0,5.24
886.0,5.392
887.0,5.574
888.0,6.738
889.0,7.906
890.0,8.068
891.0,8.218
892.0,9.798
893.0,11.45
894.0,13.107
895.0,14.773
896.0,15.532
897.0,16.232
898.0,16.908
899.0,17.562
900.0,17.787
901.0,17.977
902.0,17.72
903.0,17.412
904.0,16.666
905.0,15.876
906.0,15.516
907.0,15.233
908.0,13.268
909.0,11.032
910.0,9.23
911.0,7.509
912.0,6.191
913.0,4.95
914.0,4.117
915.0,3.364
916.0,2.209
917.0,0.973
918.0,0.976
919.0,1.259
920.0,0.724
921.0,0.015
922.0,0.278
923.0,0.485
924.0,0.305
925.0,0.033
926.0,0.278
927.0,0.577
928.0,0.817
929.0,1.046
930.0,0.052
931.0,1.241
932.0,1.301
933.0,1.097
934.0,0.903
935.0,0.738
936.0,1.01
937.0,1.374
938.0,1.736
939.0,2.097
940.0,1.616
941.0,0.977
942.0,0.779
943.0,0.666
944.0,0.55
945.0,0.434
946.0,0.119
947.0,0.741
948.0,0.915
949.0,1.059
950.0,0.315
951.0,0.52
952.0,0.439
953.0,0.27
954.0,0.365
955.0,1.049
956.0,0.323
957.0,0.497
958.0,0.129
959.0,0.822
960.0,0.53
961.0,0.205
962.0,0.375
963.0,0.551
964.0,0.714
965.0,0.892
966.0,1.555
967.0,2.121
968.0,1.724
969.0,1.354
970.0,1.442
971.0,1.512
972.0,1.592
973.0,1.73
974.0,2.305
975.0,2.862
976.0,3.437
977.0,3.907
978.0,3.97
979.0,4.137
980.0,4.697
981.0,5.125
982.0,5.175
983.0,5.24
984.0,5.3
985.0,5.355
986.0,5.408
987.0,5.459
988.0,5.494
989.0,5.534
990.0,5.578
991.0,5.412
992.0,4.947
993.0,4.48
994.0,4.012
995.0,3.79
996.0,3.83
997.0,4.138
998.0,4.683
999.0,4.353
1000.0,3.359
1001.0,2.982
1002.0,3.0
1003.0,2.683
1004.0,2.183
1005.0,2.747
1006.0,3.778
1007.0,3.654
1008.0,3.136
1009.0,3.423
1010.0,3.916
1011.0,3.554
1012.0,3.018
1013.0,3.387
1014.0,3.861
1015.0,3.381
1016.0,2.826
1017.0,2.266
1018.0,1.761
1019.0,2.731
1020.0,3.605
1021.0,3.529
1022.0,3.373
1023.0,2.769
1024.0,2.155
1025.0,1.526
1026.0,1.022
1027.0,0.894
1028.0,0.766
1029.0,0.614
1030.0,0.65
1031.0,0.996
1032.0,0.9
1033.0,0.213
1034.0,0.283
1035.0,1.129
1036.0,1.412
1037.0,1.231
1038.0,1.058
1039.0,0.918
1040.0,0.938
1041.0,1.183
1042.0,2.415
1043.0,4.11
1044.0,5.039
1045.0,5.831
1046.0,7.18
1047.0,8.676
1048.0,10.253
1049.0,11.912
1050.0,14.133
1051.0,16.409
1052.0,18.771
1053.0,21.409
1054.0,25.799
1055.0,31.306
1056.0,40.795
1057.0,50.641
1058.0,61.447
1059.0,67.087
1060.0,64.104
1061.0,59.613
1062.0,53.259
1063.0,51.089
1064.0,52.668
1065.0,55.891
1066.0,60.215
1067.0,64.899
1068.0,69.743
1069.0,74.977
1070.0,80.326
1071.0,89.179
1072.0,98.708
1073.0,115.441
1074.0,132.864
1075.0,163.786
1076.0,198.407
1077.0,270.579
1078.0,368.926
1079.0,590.657
1080.0,1032.863
1081.0,2096.234
1082.0,3968.665
1083.0,7343.775
1084.0,9261.755
1085.0,9310.012
1086.0,7586.843
1087.0,4279.841
1088.0,2249.755
1089.0,1005.556
1090.0,512.631
1091.0,324.972
1092.0,262.067
1093.0,229.587
1094.0,223.012
1095.0,219.382
1096.0,224.607
1097.0,230.606
1098.0,243.761
1099.0,257.81
1100.0,275.701
1101.0,294.784
1102.0,316.888
1103.0,339.394
1104.0,362.545
1105.0,387.743
1106.0,415.112
1107.0,440.002
1108.0,463.158
1109.0,482.673
1110.0,500.553
1111.0,508.793
1112.0,514.52
1113.0,509.331
1114.0,502.881
1115.0,484.844
1116.0,465.795
1117.0,438.746
1118.0,410.878
1119.0,380.111
1120.0,349.332
1121.0,318.543
1122.0,289.147
1123.0,261.489
1124.0,236.159
1125.0,212.714
1126.0,190.656
1127.0,169.321
1128.0,152.527
1129.0,137.008
1130.0,122.433
1131.0,107.974
1132.0,96.13
1133.0,84.471
1134.0,74.186
1135.0,64.533
1136.0,56.878
1137.0,49.21
1138.0,41.542
1139.0,34.91
1140.0,29.381
1141.0,24.114
1142.0,19.059
1143.0,14.823
1144.0,10.892
1145.0,7.855
1146.0,4.968
1147.0,1.55
1148.0,1.888
1149.0,5.341
1150.0,8.291
1151.0,9.582
1152.0,11.072
1153.0,12.915
1154.0,14.512
1155.0,15.837
1156.0,16.84
1157.0,17.651
1158.0,18.854
1159.0,20.206
1160.0,20.161
1161.0,19.926
1162.0,19.713
1163.0,19.346
1164.0,18.084
1165.0,16.687
1166.0,14.913
1167.0,13.371
1168.0,12.159
1169.0,10.356
1170.0,8.082
1171.0,5.064
1172.0,1.73
1173.0,3.402
1174.0,8.894
1175.0,13.876
1176.0,19.079
1177.0,26.202
1178.0,33.455
1179.0,41.119
1180.0,50.304
1181.0,61.75
1182.0,73.196
1183.0,84.643
1184.0,98.722
1185.0,113.961
1186.0,130.562
1187.0,147.434
1188.0,170.197
1189.0,193.771
1190.0,222.018
1191.0,252.605
1192.0,289.005
1193.0,329.915
1194.0,376.598
1195.0,431.963
1196.0,493.329
1197.0,566.398
1198.0,643.479
1199.0,745.011
1200.0,850.377
1201.0,974.254
1202.0,1102.174
1203.0,1245.116
1204.0,1385.092
1205.0,1519.98
1206.0,1636.22
1207.0,1735.854
1208.0,1792.451
1209.0,1829.62
1210.0,1810.853
1211.0,1781.63
1212.0,1703.94
1213.0,1623.773
1214.0,1531.93
1215.0,1440.62
1216.0,1350.335
1217.0,1262.803
1218.0,1177.965
1219.0,1102.252
1220.0,1030.983
1221.0,970.269
1222.0,911.69
1223.0,869.876
1224.0,829.617
1225.0,796.523
1226.0,767.835
1227.0,747.323
1228.0,733.946
1229.0,727.125
1230.0,728.66
1231.0,733.892
1232.0,747.701
1233.0,762.927
1234.0,780.801
1235.0,798.922
1236.0,817.921
1237.0,836.057
1238.0,852.88
1239.0,864.37
1240.0,871.887
1241.0,869.05
1242.0,862.85
1243.0,844.827
1244.0,824.7
1245.0,794.86
1246.0,762.878
1247.0,725.863
1248.0,688.845
1249.0,651.824
1250.0,611.131
1251.0,568.606
1252.0,530.758
1253.0,493.684
1254.0,455.988
1255.0,419.503
1256.0,387.504
1257.0,357.566
1258.0,330.664
1259.0,303.344
1260.0,275.722
1261.0,253.715
1262.0,233.079
1263.0,214.544
1264.0,196.493
1265.0,180.67
1266.0,165.829
1267.0,152.648
1268.0,141.067
1269.0,130.709
1270.0,122.963
1271.0,116.032
1272.0,111.358
1273.0,106.99
1274.0,103.227
1275.0,101.222
1276.0,102.162
1277.0,104.188
1278.0,107.12
1279.0,113.259
1280.0,120.531
1281.0,128.5
1282.0,137.458
1283.0,151.037
1284.0,165.686
1285.0,182.085
1286.0,201.434
1287.0,222.882
1288.0,247.889
1289.0,273.846
1290.0,306.513
1291.0,341.059
1292.0,382.705
1293.0,429.52
1294.0,483.506
1295.0,543.182
1296.0,606.207
1297.0,682.443
1298.0,762.44
1299.0,864.216
1300.0,972.534
1301.0,1098.422
1302.0,1237.2
1303.0,1389.61
1304.0,1558.21
1305.0,1733.641
1306.0,1926.314
1307.0,2120.188
1308.0,2312.244
1309.0,2487.59
1310.0,2633.108
1311.0,2734.988
1312.0,2805.259
1313.0,2805.611
1314.0,2787.306
1315.0,2714.112
1316.0,2634.32
1317.0,2534.62
1318.0,2442.402
1319.0,2358.457
1320.0,2299.762
1321.0,2251.89
1322.0,2254.231
1323.0,2269.874
1324.0,2336.049
1325.0,2419.877
1326.0,2531.876
1327.0,2682.62
1328.0,2857.605
1329.0,3071.912
1330.0,3293.928
1331.0,3522.447
1332.0,3748.996
1333.0,3971.298
1334.0,4152.219
1335.0,4298.845
1336.0,4373.207
1337.0,4425.6
1338.0,4379.635
1339.0,4306.756
1340.0,4156.44
1341.0,3978.46
1342.0,3772.356
1343.0,3544.788
1344.0,3309.481
1345.0,3074.646
1346.0,2845.365
1347.0,2635.792
1348.0,2431.935
1349.0,2234.771
1350.0,2058.803
1351.0,1891.659
1352.0,1746.789
1353.0,1607.675
1354.0,1487.265
1355.0,1372.421
1356.0,1264.521
1357.0,1171.597
1358.0,1085.328
1359.0,1009.845
1360.0,936.778
1361.0,871.138
1362.0,810.398
1363.0,755.753
1364.0,705.471
1365.0,657.063
1366.0,615.734
1367.0,575.575
1368.0,538.549
1369.0,503.334
1370.0,470.247
1371.0,440.445
1372.0,411.96
1373.0,388.522
1374.0,364.94
1375.0,340.489
1376.0,318.312
1377.0,298.471
1378.0,281.24
1379.0,264.88
1380.0,250.2
1381.0,235.517
1382.0,220.843
1383.0,208.689
1384.0,198.643
1385.0,189.057
1386.0,179.484
1387.0,168.832
1388.0,159.38
1389.0,152.187
1390.0,145.344
1391.0,138.724
1392.0,131.581
1393.0,124.281
1394.0,116.334
1395.0,109.647
1396.0,104.638
1397.0,99.65
1398.0,94.671
1399.0,90.842
1400.0,86.223
1401.0,78.984
1402.0,73.865
1403.0,70.726
1404.0,64.838
1405.0,58.59
1406.0,56.672
1407.0,54.565
1408.0,52.099
1409.0,48.183
1410.0,43.438
1411.0,39.764
1412.0,36.561
1413.0,34.778
1414.0,33.286
1415.0,32.134
1416.0,29.648
1417.0,26.831
1418.0,25.142
1419.0,23.068
1420.0,20.237
1421.0,17.778
1422.0,15.549
1423.0,14.922
1424.0,14.009
1425.0,11.235
1426.0,9.331
1427.0,8.355
1428.0,5.569
1429.0,2.491
1430.0,2.141
1431.0,1.609
1432.0,0.711
1433.0,0.565
1434.0,2.019
1435.0,2.908
1436.0,3.901
1437.0,5.318
1438.0,5.108
1439.0,3.552
1440.0,3.98
1441.0,4.571
1442.0,4.145
1443.0,4.752
1444.0,6.64
1445.0,7.189
1446.0,7.278
1447.0,7.344
1448.0,7.383
1449.0,7.392
1450.0,6.201
1451.0,4.381
1452.0,4.241
1453.0,2.842
1454.0,2.027
1455.0,6.924
1456.0,11.84
1457.0,24.185
1458.0,38.659
1459.0,57.88
1460.0,71.97
1461.0,81.19
1462.0,73.328
1463.0,61.218
1464.0,45.028
1465.0,31.819
1466.0,22.211
1467.0,15.798
1468.0,10.536
1469.0,9.219
1470.0,8.598
1471.0,8.949
1472.0,9.527
1473.0,9.258
1474.0,8.451
1475.0,7.302
1476.0,6.86
1477.0,6.593
1478.0,8.335
1479.0,8.983
1480.0,9.977
1481.0,11.691
1482.0,13.329
1483.0,14.856
1484.0,14.487
1485.0,13.428
1486.0,13.453
1487.0,11.228
1488.0,8.1
1489.0,7.1
1490.0,6.36
1491.0,4.861
1492.0,5.157
1493.0,5.969
1494.0,5.5
1495.0,4.633
1496.0,2.203
1497.0,1.166
1498.0,0.928
1499.0,0.278
1500.0,0.0
