Wavenumber (cm⁻¹),Intensity
200.0,0.5779999999999997
201.00097751710655,0.6070283479960896
202.0019550342131,0.6360566959921796
203.00293255131965,0.6650850439882695
204.0039100684262,0.6941133919843594
205.00488758553274,0.7231417399804494
206.0058651026393,0.7521700879765393
207.00684261974584,0.7811984359726293
208.0078201368524,0.8102267839687192
209.00879765395894,0.8392551319648092
210.00977517106548,0.8691436950146617
211.01075268817203,0.9870967741935465
212.01173020527858,1.2302170087976083
213.01270772238513,5.544756598240394
214.01368523949168,12.13947605083081
215.01466275659823,18.52942521994127
216.01564027370478,24.3620273704789
217.01661779081132,30.185507331378272
218.01759530791787,32.074826979472114
219.01857282502445,33.489174975562086
220.019550342131,35.009456500488774
221.02052785923755,36.620727272727294
222.0215053763441,38.25675268817205
223.02248289345064,39.50275562072337
224.0234604105572,40.727568914956
225.02443792766374,39.627308895405655
226.0254154447703,37.92581720430107
227.02639296187684,36.47365982404692
228.02737047898339,35.48199217986315
229.02834799608993,34.80762561094819
230.02932551319648,36.098337243401765
231.03030303030303,37.21272727272727
232.03128054740958,35.32932551319649
233.03225806451613,31.66541935483871
234.03323558162268,28.185501466275667
235.03421309872923,25.078369501466288
236.03519061583577,21.434521994134908
237.03616813294232,18.65624437927665
238.03714565004887,15.736369501466289
239.03812316715542,13.004061583577728
240.03910068426197,10.422149560117322
241.04007820136852,7.644976539589454
242.04105571847506,6.312020527859251
243.0420332355816,4.753360703812337
244.0430107526882,2.653376344085979
245.04398826979474,0.38579178885631105
246.0449657869013,0.7053030303030219
247.04594330400784,0.1928572825024408
248.04692082111438,0.07183284457480085
249.04789833822093,1.5463978494623867
250.04887585532748,3.043103616813289
251.04985337243403,2.558671554252186
252.05083088954058,1.4316490713587455
253.05180840664713,1.2046832844574893
254.05278592375367,2.3630879765396005
255.05376344086022,3.3586236559139504
256.05474095796677,0.19056109481918287
257.0557184750733,3.5949032258064797
258.05669599217987,8.156041055718502
259.0576735092864,13.320957966764443
260.05865102639297,18.648739002932572
261.0596285434995,24.269175953079195
262.06060606060606,29.909666666666674
263.0615835777126,33.457938416422294
264.06256109481916,37.715909090909086
265.0635386119257,44.53117204301075
266.06451612903226,53.045129032258046
267.0654936461388,62.089523949169084
268.06647116324535,71.34743206256105
269.0674486803519,81.254202346041
270.06842619745845,93.58215542521987
271.069403714565,106.66978592375357
272.07038123167155,123.39466568914942
273.0713587487781,142.85077517106532
274.07233626588464,163.74428641251203
275.0733137829912,188.04762170087955
276.07429130009774,212.97749462365562
277.0752688172043,239.2037956989244
278.07624633431084,265.80505278592346
279.0772238514174,288.6506021505374
280.07820136852393,307.8101251221894
281.0791788856305,322.46807917888566
282.08015640273703,319.4337917888563
283.0811339198436,315.6402551319651
284.08211143695013,298.21656011730244
285.0830889540567,277.62322189638365
286.0840664711632,251.27864711632517
287.0850439882698,219.3240263929625
288.0860215053764,187.9214301075258
289.0869990224829,157.4566480938406
290.0879765395895,128.28188563049775
291.088954056696,105.69476148582532
292.0899315738026,85.10274193548325
293.0909090909091,66.09163636363583
294.09188660801567,48.95913000977468
295.0928641251222,33.24474682306915
296.09384164222877,24.573466275659573
297.0948191593353,15.874212121211936
298.09579667644186,9.160665689149395
299.0967741935484,3.2366451612902445
300.09775171065496,0.6055131964809702
301.0987292277615,1.890669599218017
302.09970674486806,3.0112052785923673
303.1006842619746,2.6704809384164188
304.10166177908116,2.5172531769305966
305.1026392961877,2.5765865102639354
306.10361681329425,2.7698103616813152
307.1045943304008,1.9201710654936093
308.10557184750735,0.2932346041055973
309.1065493646139,1.8467096774193963
310.10752688172045,4.288752688172077
311.108504398827,6.5128035190616265
312.10948191593354,9.356987292277655
313.1104594330401,12.10849853372437
314.11143695014664,14.362821114369524
315.1124144672532,16.19688465298145
316.11339198435974,18.10605376344089
317.1143695014663,20.866457478005888
318.11534701857283,22.703223851417402
319.1163245356794,22.785503421309866
320.11730205278593,22.06221114369501
321.1182795698925,21.05304301075268
322.119257086999,19.617224828934496
323.1202346041056,18.31061876832845
324.1212121212121,18.73190909090909
325.1221896383187,19.085115347018572
326.1231671554252,18.941439882697946
327.12414467253177,18.52318181818182
328.1251221896383,16.677254154447702
329.12609970674487,13.652780058651029
330.1270772238514,10.796512218963835
331.12805474095796,8.442979472140768
332.1290322580645,6.423483870967739
333.13000977517106,7.184530791788852
334.1309872922776,8.051868035190619
335.13196480938416,7.159645161290336
336.1329423264907,5.118628543499525
337.13391984359725,3.4690606060606126
338.1348973607038,2.666589442815256
339.13587487781035,2.0690136852394865
340.1368523949169,2.61663831867057
341.13782991202345,3.123422287390034
342.13880742913,2.610974584555243
343.13978494623655,1.637064516129039
344.1407624633431,1.3179560117301952
345.14173998044964,2.012004887585523
346.1427174975562,2.3965855327468413
347.14369501466274,1.2617155425220143
348.1446725317693,0.21221016617791166
349.14565004887584,0.08030596285434502
350.1466275659824,0.3212756598240447
351.14760508308893,0.39016911045943664
352.1485826001955,0.23059921798631625
353.14956011730203,0.34254545454542895
354.1505376344086,1.492473118279543
355.1515151515151,2.5069999999999952
356.1524926686217,2.6681378299120246
357.1534701857282,2.6817194525904116
358.1544477028348,3.1007517106549134
359.1554252199413,3.8959472140762355
360.15640273704787,4.176533724340188
361.1573802541544,3.7818905180840785
362.15835777126097,3.616134897360671
363.1593352883675,4.738454545454505
364.16031280547406,5.80815151515152
365.1612903225806,5.476225806451654
366.16226783968716,4.374262952101673
367.1632453567937,4.469628543499433
368.16422287390026,6.686222873900221
369.1652003910068,7.98497947214085
370.16617790811335,5.5792492668622655
371.1671554252199,3.1145249266862933
372.16813294232645,1.2529217986315229
373.169110459433,0.38949462365588394
374.17008797653955,0.8669354838710024
375.1710654936461,0.23926881720428264
376.1720430107527,0.7251182795699024
377.17302052785925,1.4247888563049942
378.1739980449658,1.9784760508308894
379.17497556207235,1.916230694037143
380.1759530791789,1.6041759530791717
381.17693059628544,0.8772160312805384
382.177908113392,0.25437536656892223
383.17888563049854,0.8476950146627525
384.1798631476051,0.35763049853372175
385.18084066471164,0.13728250244379553
386.1818181818182,0.5892727272727295
387.18279569892474,0.9246129032258059
388.1837732160313,0.7135904203323536
389.18475073313783,0.16811436950146585
390.1857282502444,0.30233528836754886
391.18670576735093,1.8395454545454557
392.1876832844575,3.596448680351906
393.188660801564,5.707583577712608
394.1896383186706,7.636498533724338
395.1906158357771,8.682964809384162
396.1915933528837,9.80533431085043
397.1925708699902,12.788434017595286
398.19354838709677,17.336258064516105
399.1945259042033,21.949965786901235
400.19550342130987,27.372886608015598
401.1964809384164,32.58512023460408
402.19745845552296,36.229741935483844
403.1984359726295,39.75614956011727
404.19941348973606,43.084923753665656
405.2003910068426,45.978849462365574
406.20136852394916,47.067572825024456
407.2023460410557,45.83633431085046
408.20332355816225,43.930394916911105
409.20430107526886,39.993956989247145
410.2052785923754,35.603325513196246
411.20625610948196,29.67497458455498
412.2072336265885,23.910325513196323
413.20821114369505,20.246434017595227
414.2091886608016,18.160889540566895
415.21016617790815,16.947055718475095
416.2111436950147,17.565214076246363
417.21212121212125,18.20257575757576
418.2130987292278,18.149224828934482
419.21407624633434,17.52861583577712
420.2150537634409,17.240279569892454
421.21603128054744,16.633544477028323
422.217008797654,15.917700879765379
423.21798631476054,15.291316715542498
424.2189638318671,14.532732160312786
425.21994134897363,13.811513196480913
426.2209188660802,12.07628543499499
427.22189638318673,7.261525904203186
428.2228739002933,2.612055718475021
429.2238514173998,0.8986940371456439
430.2248289345064,0.5484652981427021
431.2258064516129,0.3258709677419647
432.2267839687195,1.6844242424242732
433.227761485826,2.6841368523949054
434.22873900293257,2.211454545454542
435.2297165200391,1.9244271749755506
436.23069403714567,1.3140420332355718
437.2316715542522,0.7961964809384101
438.23264907135876,0.4512580645161254
439.2336265884653,0.29082111436950253
440.23460410557186,0.7600762463343356
441.2355816226784,2.553186705767376
442.23655913978496,5.778752688172135
443.2375366568915,13.176812316715619
444.23851417399806,19.709394916911105
445.2394916911046,25.294162267839738
446.24046920821115,31.556211143695087
447.2414467253177,40.84331378299129
448.24242424242425,51.88684848484856
449.2434017595308,61.69939296187688
450.24437927663735,70.47071065493651
451.2453567937439,79.1333225806452
452.24633431085044,86.18636656891498
453.247311827957,91.77143010752688
454.24828934506354,91.20702346041055
455.2492668621701,88.19017302052785
456.25024437927664,82.49010654936461
457.2512218963832,74.40518084066471
458.25219941348973,64.20343695014665
459.2531769305963,50.70734213098733
460.25415444770283,38.516472140762495
461.2551319648094,29.641601173020568
462.2561094819159,21.86293450635389
463.2570869990225,16.71603030303033
464.258064516129,13.982548387096765
465.2590420332356,16.681124144672477
466.2600195503421,24.212189638318584
467.26099706744867,36.17564222873882
468.2619745845552,54.57803128054721
469.26295210166177,75.72956500488725
470.2639296187683,104.26405571847471
471.26490713587486,132.18825317693023
472.2658846529814,157.79721505376307
473.26686217008796,180.03807038123145
474.2678396871945,192.20039100684252
475.26881720430106,196.18886021505375
476.2697947214076,192.91089736070404
477.27077223851416,179.42332844574804
478.2717497556207,164.05466959921844
479.27272727272725,140.4627272727278
480.2737047898338,114.918453567938
481.27468230694035,88.90061681329482
482.2756598240469,64.59803225806499
483.27663734115345,45.81234408602188
484.27761485826,31.278608015640593
485.27859237536654,20.3835865102641
486.2795698924731,13.968440860215225
487.28054740957964,8.31910948191604
488.2815249266862,4.403316715542636
489.2825024437928,1.302877810361657
490.28347996089934,1.2326295210166711
491.2844574780059,3.474205278592447
492.28543499511244,6.462459433040164
493.286412512219,9.121867057673525
494.28739002932554,8.223002932551212
495.2883675464321,3.4821104594329335
496.28934506353863,2.1864076246335884
497.2903225806452,9.675032258064668
498.29130009775173,20.12796871945293
499.2922776148583,38.074497556207575
500.2932551319648,59.49221407624682
501.2942326490714,88.63071456500542
502.2952101661779,124.41801857282572
503.2961876832845,172.8977067448689
504.297165200391,234.53361681329517
505.29814271749757,312.2339354838723
506.2991202346041,412.97604692082234
507.30009775171067,528.2870107526899
508.3010752688172,678.7854193548403
509.30205278592376,834.7820469208227
510.3030303030303,1006.8952727272742
511.30400782013686,1172.4166500488768
512.3049853372434,1297.2707888563
513.3059628543499,1378.785744868033
514.3069403714564,1384.558237536661
515.307917888563,1303.1024017595355
516.3088954056695,1188.5287829912118
517.3098729227761,1012.9556725317789
518.3108504398826,843.776994134906
519.3118279569892,689.3237741935569
520.3128054740957,546.1454516129103
521.3137829912023,427.89061876833466
522.3147605083088,326.6526793743942
523.3157380254154,246.47462170088355
524.3167155425219,185.1592316715577
525.3176930596285,135.1044721407646
526.318670576735,100.19213000977733
527.3196480938416,70.4287272727285
528.3206256109481,51.221000977518315
529.3216031280547,34.696699902249044
530.3225806451612,23.72445161290387
531.3235581622678,15.602600195503737
532.3245356793743,12.030013685239574
533.3255131964809,10.27024340175973
534.3264907135874,6.441760508309296
535.327468230694,2.5832678396871898
536.3284457478005,2.957445747800515
537.3294232649071,3.9745650048875096
538.3304007820136,4.361145650048946
539.3313782991202,3.397563049853444
540.3323558162267,2.3923822091887414
541.3333333333333,1.39666666666673
542.3343108504398,0.6675014662756988
543.3352883675464,0.2394838709677624
544.3362658846529,0.20825806451609538
545.3372434017595,1.0059472140761256
546.338220918866,2.5047585532745655
547.3391984359725,4.394403714564783
548.3401759530791,7.024483870967544
549.3411534701856,9.757546432062284
550.3421309872922,13.075188660801292
551.3431085043987,15.45915542521988
552.3440860215054,15.674365591397827
553.345063538612,14.711135874877774
554.3460410557185,13.398299120234569
555.347018572825,12.45293548387096
556.3479960899316,13.074702834799666
557.3489736070381,15.184041055718515
558.3499511241447,15.547450635386072
559.3509286412512,13.307113391984302
560.3519061583578,10.619175953079118
561.3528836754643,7.746926686216952
562.3538611925709,5.607648093841625
563.3548387096774,5.108774193548391
564.355816226784,5.042424242424232
565.3567937438905,4.177046920821092
566.3577712609971,3.2784604105571837
567.3587487781036,4.1958592375366965
568.3597262952102,6.689325513196511
569.3607038123167,7.80983284457477
570.3616813294233,7.028996089931564
571.3626588465298,6.652305962854355
572.3636363636364,7.1630000000000065
573.3646138807429,8.202771260997084
574.3655913978495,10.04811827956991
575.366568914956,12.379193548387118
576.3675464320626,15.406008797653982
577.3685239491691,18.288358748778116
578.3695014662757,19.277498533724337
579.3704789833822,18.447434017595302
580.3714565004888,16.344466275659812
581.3724340175953,12.68192961876832
582.3734115347019,11.26984164222874
583.3743890518084,13.440695992179863
584.375366568915,13.896140762463343
585.3763440860215,10.71287096774194
586.377321603128,7.906841642228741
587.3782991202346,7.808480938416419
588.3792766373411,8.106068426197462
589.3802541544477,6.001050830889559
590.3812316715542,2.5299384164223033
591.3822091886608,0.9195474095796659
592.3831867057673,1.203441837732158
593.3841642228739,1.3361260997067457
594.3851417399804,1.248972629521017
595.386119257087,0.7544291300097873
596.3870967741935,0.5543548387096622
597.3880742913001,1.026732160312817
598.3890518084066,1.6943607038122754
599.3900293255132,3.7223137829912005
600.3910068426197,2.7444995112414863
601.3919843597263,0.8473460410557284
602.3929618768328,0.3068885630498596
603.3939393939394,0.22666666666666002
604.3949169110459,0.31467057673509957
605.3958944281525,0.1624692082111403
606.396871945259,0.45891104594329457
607.3978494623656,1.1701075268816983
608.3988269794721,1.7322346041055763
609.3998044965787,1.6815659824046882
610.4007820136852,2.3302619745845234
611.4017595307918,4.110231671554194
612.4027370478983,5.608605083088951
613.4037145650049,5.003418377321648
614.4046920821114,3.3958387096774585
615.405669599218,2.2069736070381456
616.4066471163245,1.572760508308906
617.4076246334312,2.2892756598242396
618.4086021505377,4.618247311828155
619.4095796676443,6.069872922776158
620.4105571847508,6.1528328445747835
621.4115347018574,5.379857282502288
622.4125122189639,3.304422287389849
623.4134897360705,1.265346041055584
624.414467253177,0.6393362658847237
625.4154447702836,1.3242991202346326
626.4164222873901,4.602369501466835
627.4173998044967,11.316171065494082
628.4183773216032,14.632569892473105
629.4193548387098,14.243580645161238
630.4203323558163,12.372548387096524
631.4213098729228,8.892364613880494
632.4222873900294,6.939410557184763
633.423264907136,7.107494623655926
634.4242424242425,6.945121212121169
635.425219941349,6.249375366568861
636.4261974584556,5.446075268817149
637.4271749755621,4.6252991202345495
638.4281524926687,4.394618768328483
639.4291300097752,5.419052785923858
640.4301075268818,5.786849462365509
641.4310850439883,3.223252199413225
642.4320625610949,1.0913108504399212
643.4330400782014,2.1879628543500558
644.434017595308,5.008310850440138
645.4349951124145,6.981439882697888
646.4359726295211,5.975359726295151
647.4369501466276,6.062920821114456
648.4379276637342,7.681000977517205
649.4389051808407,8.201004887585473
650.4398826979473,6.730832844574671
651.4408602150538,5.376967741935454
652.4418377321604,5.248502443792788
653.4428152492669,5.352668621700865
654.4437927663735,4.71804105571842
655.44477028348,3.8889462365591143
656.4457478005866,4.0118475073314235
657.4467253176931,5.085808406647178
658.4477028347997,5.3458494623655435
659.4486803519062,4.722557184750726
660.4496578690128,4.783937438905196
661.4506353861193,5.107400782013699
662.4516129032259,5.05022580645159
663.4525904203324,4.479889540566932
664.453567937439,3.9874868035190483
665.4545454545455,3.72518181818181
666.455522971652,3.14034506353857
667.4565004887586,1.8266217008797008
668.4574780058651,0.951266862170089
669.4584555229717,1.9329657869013501
670.4594330400782,3.317040078201388
671.4604105571848,2.206574780058542
672.4613880742913,0.9663323558162569
673.4623655913979,1.571870967741946
674.4633431085044,3.4583929618769567
675.464320625611,7.043619745845664
676.4652981427175,10.424393939394044
677.4662756598241,11.383882697947161
678.4672531769306,9.352553274682236
679.4682306940372,7.811038123167138
680.4692082111437,7.431448680351903
681.4701857282503,7.16464809384163
682.4711632453568,6.609666666666649
683.4721407624634,5.775914956011705
684.4731182795699,4.646139784946206
685.4740957966765,3.5503137829911813
686.475073313783,2.9211759530791714
687.4760508308896,2.421477028347981
688.4770283479961,1.0888162267839263
689.4780058651027,0.5368563049853589
690.4789833822092,1.1468563049853393
691.4799608993158,2.293830889540608
692.4809384164223,3.461686217008797
693.4819159335289,3.3827605083088934
694.4828934506354,3.648299120234615
695.483870967742,4.437967741935497
696.4848484848485,5.086757575757581
697.485826001955,5.387424242424245
698.4868035190616,5.454214076246333
699.4877810361681,5.252373411534698
700.4887585532747,5.120303030303031
701.4897360703812,5.3958885630498585
702.4907135874878,5.709376344086023
703.4916911045943,5.512370478983378
704.4926686217009,5.051873900293252
705.4936461388074,5.055888563049856
706.494623655914,5.886236559139792
707.4956011730205,5.96296187683284
708.4965786901271,4.680913000977513
709.4975562072336,3.2027096774193513
710.4985337243402,1.6767448680351884
711.4995112414467,3.239719452590423
712.5004887585533,8.338198435972627
713.5014662756598,10.259052785923755
714.5024437927664,7.432800586510273
715.5034213098729,4.52163636363637
716.5043988269795,3.2449208211143725
717.505376344086,2.6635053763440886
718.5063538611926,2.4643812316715543
719.5073313782991,2.05921700879766
720.5083088954057,0.8333636363636483
721.5092864125122,0.5551006842619663
722.5102639296188,0.7242287390029383
723.5112414467253,0.2389081133919881
724.5122189638319,0.10607526881720332
725.5131964809384,0.20801759530791653
726.514173998045,0.7149305962854238
727.5151515151515,1.6664545454545314
728.516129032258,3.162290322580617
729.5171065493646,5.115045943303977
730.5180840664711,5.37553861192573
731.5190615835777,3.7881554252199727
732.5200391006842,1.7727145650049274
733.5210166177908,1.1647800586510102
734.5219941348973,1.0031143695014881
735.5229716520039,2.7584037145649143
736.5239491691104,6.29429423264901
737.524926686217,8.310178885630469
738.5259042033235,8.811516129032263
739.5268817204301,7.49544086021511
740.5278592375366,6.119565982404706
741.5288367546432,7.22662952101655
742.5298142717497,9.586160312805417
743.5307917888563,10.99450146627564
