Raman Shift,Intensity
151.895,18442.77
152.377,18491.039
152.859,18556.74
153.342,18695.09
153.824,18798.5
154.306,18834.609
154.788,18793.381
155.27,18767.789
155.752,18776.439
156.234,18805.91
156.716,18840.631
157.198,18875.109
157.68,18916.92
158.163,18971.01
158.645,19043.029
159.127,19110.141
159.609,19146.1
160.091,19172.949
160.573,19231.789
161.055,19240.65
161.538,19345.891
162.02,19399.373
162.502,19495.148
162.984,19580.658
163.466,19656.453
163.948,19693.438
164.43,19780.553
164.912,19852.199
165.394,19851.609
165.876,19864.721
166.359,19842.58
166.841,19831.199
167.323,19869.449
167.805,19951.631
168.287,20027.529
168.769,20067.789
169.251,20084.869
169.733,20093.92
170.216,20087.85
170.698,20085.039
171.18,20104.08
171.662,20146.32
172.144,20191.369
172.626,20224.52
173.108,20250.131
173.59,20276.721
174.072,20311.65
174.555,20347.82
175.037,20372.869
175.519,20382.67
176.001,20399.631
176.483,20454.09
176.965,20535.609
177.447,20611.15
177.929,20653.59
178.412,20680.029
178.894,20718.869
179.376,20775.17
179.858,20839.311
180.34,20907.391
180.822,20976.471
181.304,21030.9
181.786,21039.811
182.268,21025.52
182.751,21048.119
183.233,21133.01
183.715,21240.641
184.197,21300.08
184.679,21312.91
185.161,21315.561
185.643,21332.949
186.125,21363.58
186.607,21404.199
187.09,21458.59
187.572,21519.0
188.054,21570.5
188.536,21612.699
189.018,21643.119
189.5,21649.23
189.982,21634.83
190.464,21633.391
190.947,21660.029
191.429,21708.539
191.911,21757.539
192.393,21810.471
192.875,21849.99
193.357,21842.961
193.839,21789.75
194.321,21750.74
194.803,21760.119
195.286,21812.26
195.768,21834.48
196.25,21819.52
196.732,21793.08
197.214,21790.07
197.696,21811.449
198.178,21852.369
198.661,21922.41
199.143,22022.51
199.625,22097.48
200.107,22144.27
200.589,22169.4
201.071,22179.34
201.553,22168.961
202.035,22168.43
202.517,22196.109
202.999,22254.15
203.482,22317.609
203.964,22389.711
204.446,22461.57
204.928,22504.189
205.41,22507.67
205.892,22510.08
206.374,22536.119
206.857,22588.869
207.339,22645.58
207.821,22708.0
208.303,22771.43
208.785,22814.881
209.267,22833.52
209.749,22843.721
210.231,22840.43
210.713,22841.881
211.195,22892.605
211.678,22931.367
212.16,22958.812
212.642,22941.049
213.124,22981.664
213.606,22998.883
214.088,23015.141
214.57,23063.975
215.052,23052.781
215.535,23101.105
216.017,23125.666
216.499,23161.1
216.981,23172.992
217.463,23192.154
217.945,23234.867
218.427,23264.547
218.909,23273.727
219.391,23309.852
219.874,23297.836
220.356,23328.064
220.838,23376.525
221.32,23386.891
221.802,23423.445
222.284,23450.025
222.766,23431.275
223.248,23491.361
223.731,23517.357
224.213,23508.342
224.695,23565.725
225.177,23566.051
225.659,23591.24
226.141,23671.789
226.623,23743.471
227.105,23782.42
227.587,23777.82
228.07,23788.82
228.552,23819.461
229.034,23862.551
229.516,23904.59
229.998,23940.279
230.48,23982.539
230.962,24039.449
231.444,24121.449
231.926,24181.141
232.409,24209.27
232.891,24218.439
233.373,24235.289
233.855,24266.35
234.337,24295.15
234.819,24315.1
235.301,24322.471
235.783,24330.609
236.266,24334.83
236.748,24341.75
237.23,24367.689
237.712,24419.789
238.194,24482.01
238.676,24552.609
239.158,24656.039
239.64,24711.381
240.122,24694.199
240.605,24633.41
241.087,24611.93
241.569,24642.27
242.051,24695.029
242.533,24759.119
243.015,24846.66
243.497,24918.24
243.98,24962.471
244.462,24990.09
244.944,25041.039
245.426,25127.869
245.908,25219.039
246.39,25298.689
246.872,25364.34
247.354,25418.311
247.836,25452.48
248.318,25473.461
248.801,25511.09
249.283,25579.711
249.765,25643.68
250.247,25680.301
250.729,25673.82
251.211,25677.16
251.693,25698.369
252.176,25733.6
252.658,25762.77
253.14,25784.619
253.622,25805.359
254.104,25831.58
254.586,25872.41
255.068,25898.471
255.55,25903.381
256.032,25892.23
256.514,25888.26
256.997,25896.41
257.479,25904.76
257.961,25900.51
258.443,25865.949
258.925,25865.91
259.407,25919.789
259.889,26012.971
260.371,26070.461
260.854,26071.07
261.336,26068.811
261.818,26103.75
262.3,26191.51
262.782,26267.189
263.264,26321.75
263.746,26358.119
264.228,26388.73
264.711,26411.029
265.193,26431.961
265.675,26457.301
266.157,26488.59
266.639,26517.721
267.121,26542.73
267.603,26564.76
268.085,26588.811
268.567,26615.471
269.05,26643.76
269.532,26674.301
270.014,26709.141
270.496,26738.109
270.978,26756.9
271.46,26769.721
271.942,26793.65
272.424,26831.039
272.906,26874.34
273.389,26924.84
273.871,26987.52
274.353,27022.609
274.835,27010.41
275.317,26971.67
275.799,26988.41
276.281,27072.369
276.763,27170.801
277.246,27240.039
277.728,27275.52
278.21,27333.029
278.692,27430.961
279.174,27549.6
279.656,27620.961
280.138,27635.48
280.62,27648.23
281.103,27711.109
281.585,27824.779
282.067,27901.25
282.549,27910.801
283.031,27889.211
283.513,27945.721
283.995,28089.461
284.477,28228.73
284.959,28288.68
285.441,28275.18
285.924,28268.49
286.406,28277.391
286.888,28303.33
287.37,28362.039
287.852,28455.49
288.334,28533.83
288.816,28540.961
289.298,28492.859
289.781,28489.039
290.263,28552.141
290.745,28652.471
291.227,28742.721
291.709,28823.07
292.191,28884.59
292.673,28915.85
293.155,28922.631
293.638,28924.18
294.12,28920.141
294.602,28917.59
295.084,28930.34
295.566,28957.02
296.048,28984.68
296.53,29013.1
297.012,29037.539
297.494,29038.949
297.977,29006.16
298.459,28976.33
298.941,29014.221
299.423,29105.039
299.905,29179.051
300.387,29172.551
300.869,29128.58
301.351,29121.18
301.833,29164.08
302.316,29224.82
302.798,29269.48
303.28,29302.391
303.762,29339.061
304.244,29398.221
304.726,29459.619
305.208,29491.66
305.69,29484.48
306.173,29475.119
306.655,29504.34
307.137,29555.141
307.619,29591.09
308.101,29580.25
308.583,29555.02
309.065,29545.131
309.547,29554.971
310.03,29571.6
310.512,29599.689
310.994,29628.189
311.476,29638.17
311.958,29609.801
312.44,29569.49
312.922,29532.33
313.404,29499.619
313.886,29470.66
314.369,29442.711
314.851,29418.789
315.333,29403.58
315.815,29408.76
316.297,29414.32
316.779,29407.961
317.261,29388.859
317.743,29374.939
318.225,29383.381
318.708,29396.779
319.19,29397.6
319.672,29373.76
320.154,29344.801
320.636,29311.85
321.118,29275.711
321.6,29252.359
322.082,29252.5
322.565,29263.051
323.047,29273.68
323.529,29284.23
324.011,29291.84
324.493,29289.619
324.975,29279.17
325.457,29282.32
325.939,29320.061
326.422,29359.23
326.904,29380.311
327.386,29375.279
327.868,29358.869
328.35,29310.109
328.832,29242.359
329.314,29226.68
329.796,29309.961
330.278,29403.32
330.76,29463.83
331.243,29478.779
331.725,29482.471
332.207,29469.35
332.689,29446.33
333.171,29432.539
333.653,29425.4
334.135,29431.91
334.617,29463.391
335.1,29547.891
335.582,29574.92
336.064,29521.619
336.546,29428.189
337.028,29373.471
337.51,29367.029
337.992,29374.66
338.474,29384.02
338.957,29394.25
339.439,29407.711
339.921,29421.051
340.403,29441.211
340.885,29492.57
341.367,29584.9
341.849,29634.74
342.331,29594.27
342.813,29476.08
343.296,29403.09
343.778,29381.301
344.26,29382.76
344.742,29376.119
345.224,29363.18
345.706,29365.131
346.188,29401.91
346.67,29455.1
347.152,29461.32
347.635,29418.971
348.117,29374.461
348.599,29376.461
349.081,29411.439
349.563,29432.711
350.045,29422.08
350.527,29396.609
351.009,29381.42
351.491,29374.961
351.974,29371.99
352.456,29368.59
352.938,29365.25
353.42,29363.17
353.902,29362.18
354.384,29362.49
354.866,29378.9
355.349,29400.801
355.831,29393.609
356.313,29302.189
356.795,29192.15
357.277,29133.68
357.759,29151.199
358.241,29171.619
358.723,29146.98
359.205,29093.41
359.688,29039.641
360.17,28991.789
360.652,28951.75
361.134,28924.42
361.616,28912.59
362.098,28894.051
362.58,28843.0
363.062,28785.891
363.544,28752.869
364.027,28786.17
364.509,28810.721
364.991,28801.789
365.473,28757.34
365.955,28702.23
366.437,28634.16
366.919,28560.08
367.401,28486.27
367.884,28379.811
368.366,28311.939
368.848,28320.67
369.33,28391.051
369.812,28407.02
370.294,28332.471
370.776,28236.75
371.258,28155.93
371.741,28086.08
372.223,28037.66
372.705,28020.9
373.187,28023.16
373.669,28007.381
374.151,27960.789
374.633,27919.1
375.115,27902.17
375.597,27919.221
376.079,27909.689
376.562,27866.711
377.044,27805.141
377.526,27743.711
378.008,27679.029
378.49,27633.561
378.972,27625.641
379.454,27648.67
379.936,27648.68
380.419,27626.82
380.901,27579.609
381.383,27482.641
381.865,27345.02
382.347,27246.67
382.829,27221.57
383.311,27241.881
383.793,27255.68
384.276,27262.801
384.758,27253.539
385.24,27199.961
385.722,27125.689
386.204,27083.24
386.686,27094.061
387.168,27119.82
387.65,27115.131
388.132,27087.801
388.615,27067.609
389.097,27086.039
389.579,27111.34
390.061,27109.369
390.543,27071.051
391.025,27022.49
391.507,26977.09
391.989,26933.051
392.471,26887.721
392.954,26826.85
393.436,26776.18
393.918,26754.289
394.4,26764.641
394.882,26775.391
395.364,26763.24
395.846,26754.131
396.328,26771.189
396.81,26876.24
397.293,26947.26
397.775,26950.51
398.257,26891.221
398.739,26825.029
399.221,26729.449
399.703,26647.25
400.185,26600.6
400.668,26620.279
401.15,26625.5
401.632,26606.15
402.114,26573.41
402.596,26558.18
403.078,26579.41
403.56,26584.82
404.042,26543.49
404.524,26441.949
405.007,26395.18
405.489,26424.119
405.971,26475.99
406.453,26473.77
406.935,26408.52
407.417,26352.67
407.899,26327.26
408.381,26327.9
408.863,26339.141
409.346,26362.23
409.828,26385.43
410.31,26402.07
410.792,26411.08
411.274,26405.539
411.756,26379.5
412.238,26346.211
412.72,26323.07
413.203,26310.211
413.685,26306.66
414.167,26325.35
414.649,26348.461
415.131,26341.801
415.613,26292.811
416.095,26254.1
416.577,26292.51
417.06,26368.33
417.542,26410.76
418.024,26348.58
418.506,26272.289
418.988,26252.49
419.47,26290.33
419.952,26303.311
420.434,26222.02
420.916,26118.471
421.398,26053.529
421.881,26094.48
422.363,26120.01
422.845,26090.641
423.327,26020.289
423.809,25970.539
424.291,25977.619
424.773,25983.73
425.255,25962.801
425.738,25896.93
426.22,25842.74
426.702,25801.16
427.184,25771.711
427.666,25755.27
428.148,25763.881
428.63,25760.84
429.112,25732.471
429.595,25678.1
430.077,25626.789
430.559,25574.5
431.041,25533.08
431.523,25523.211
432.005,25547.99
432.487,25542.961
432.969,25486.65
433.451,25402.85
433.934,25346.289
434.416,25316.939
434.898,25304.811
435.38,25320.561
435.862,25348.92
436.344,25344.33
436.826,25298.85
437.308,25238.42
437.79,25181.23
438.273,25130.52
438.755,25095.02
439.237,25078.131
439.719,25077.83
440.201,25099.961
440.683,25143.029
441.165,25180.301
441.647,25201.99
442.129,25206.939
442.612,25193.26
443.094,25150.869
443.576,25101.961
444.058,25043.25
444.54,24982.16
445.022,24940.35
445.504,24971.6
445.987,24982.811
446.469,24920.68
446.951,24725.16
447.433,24609.141
447.915,24629.199
448.397,24704.02
448.879,24738.18
449.361,24715.359
449.843,24679.23
450.326,24630.09
450.808,24571.189
451.29,24538.779
451.772,24541.83
452.254,24549.369
452.736,24538.811
453.218,24508.789
453.7,24476.029
454.182,24443.82
454.665,24406.359
455.147,24348.33
455.629,24270.77
456.111,24199.77
456.593,24150.57
457.075,24117.619
457.557,24085.92
458.039,24054.4
458.522,24035.41
459.004,24057.881
459.486,24098.07
459.968,24111.43
460.45,24071.27
460.932,24015.6
461.414,23971.211
461.896,23936.48
462.379,23904.211
462.861,23880.381
463.343,23851.471
463.825,23801.699
464.307,23714.891
464.789,23652.51
465.271,23652.48
465.753,23680.35
466.235,23690.199
466.717,23651.939
467.2,23619.221
467.682,23609.029
468.164,23620.381
468.646,23614.359
469.128,23579.01
469.61,23538.789
470.092,23508.01
470.574,23487.18
471.057,23474.449
471.539,23474.109
472.021,23476.631
472.503,23457.42
472.985,23411.311
473.467,23376.381
473.949,23374.49
474.431,23398.789
474.914,23408.641
475.396,23403.369
475.878,23393.24
476.36,23398.27
476.842,23407.939
477.324,23386.051
477.806,23306.91
478.288,23221.789
478.77,23195.939
479.253,23215.869
479.735,23234.57
480.217,23212.461
480.699,23187.08
481.181,23194.34
481.663,23242.91
482.145,23289.789
482.627,23315.619
483.109,23328.08
483.592,23335.1
484.074,23314.779
484.556,23312.461
485.038,23358.43
485.52,23441.09
486.002,23474.811
486.484,23408.68
486.966,23340.779
487.448,23319.449
487.931,23380.189
488.413,23383.51
488.895,23304.73
489.377,23195.18
489.859,23134.699
490.341,23135.859
490.823,23124.1
491.306,23071.949
491.788,22994.029
492.27,22960.029
492.752,22973.439
493.234,22976.41
493.716,22901.609
494.198,22778.6
494.68,22709.33
495.162,22713.82
495.645,22741.33
496.127,22745.631
496.609,22729.891
497.091,22701.9
497.573,22648.01
498.055,22595.551
498.537,22571.471
499.019,22573.561
499.501,22568.34
499.984,22519.551
500.466,22470.82
500.948,22456.811
501.43,22511.26
501.912,22557.061
502.394,22586.4
502.876,22597.789
503.358,22586.551
503.841,22519.07
504.323,22472.76
504.805,22475.59
505.287,22529.461
505.769,22550.83
506.251,22525.199
506.733,22492.551
507.215,22486.029
507.698,22508.57
508.18,22523.93
508.662,22527.92
509.144,22523.17
509.626,22509.23
510.108,22487.551
510.59,22475.189
511.072,22492.73
511.554,22521.67
512.036,22522.74
512.519,22496.82
513.001,22468.84
513.483,22460.529
513.965,22460.85
514.447,22453.939
514.929,22427.82
515.411,22409.961
515.893,22419.4
516.375,22446.939
516.858,22474.26
517.34,22496.68
517.822,22516.141
518.304,22529.631
518.786,22534.881
519.268,22553.48
519.75,22603.289
520.232,22651.49
520.715,22676.34
521.197,22672.1
521.679,22655.01
522.161,22616.93
522.643,22573.9
523.125,22561.74
523.607,22584.91
524.089,22612.82
524.571,22636.609
525.054,22655.689
525.536,22664.279
526.018,22661.971
526.5,22657.449
526.982,22663.949
527.464,22672.961
527.946,22662.24
528.429,22620.49
528.911,22577.76
529.393,22562.66
529.875,22567.24
530.357,22575.439
530.839,22589.27
531.321,22597.109
531.803,22588.029
532.286,22562.66
532.768,22545.131
533.25,22554.26
533.732,22564.779
534.214,22560.561
534.696,22525.529
535.178,22502.641
535.66,22501.061
536.142,22507.6
536.625,22498.811
537.107,22466.189
537.589,22443.02
538.071,22440.75
538.553,22455.381
539.035,22464.221
539.517,22466.119
539.999,22471.15
540.481,22485.141
540.964,22507.92
541.446,22545.801
541.928,22604.109
542.41,22651.859
542.892,22640.57
543.374,22594.869
543.856,22564.24
544.338,22579.279
544.82,22606.779
545.303,22624.98
545.785,22635.779
546.267,22648.141
546.749,22672.061
547.231,22693.189
547.713,22703.99
548.195,22702.68
548.677,22694.949
549.159,22688.09
549.642,22671.609
550.124,22628.619
550.606,22524.02
551.088,22474.82
551.57,22520.23
552.052,22622.381
552.534,22656.33
553.016,22610.369
553.499,22565.32
553.981,22572.689
554.463,22617.391
554.945,22619.381
555.427,22575.801
555.909,22529.539
556.391,22519.221
556.873,22535.07
557.356,22564.119
557.838,22620.6
558.32,22653.82
558.802,22592.461
559.284,22480.779
559.766,22408.131
560.248,22431.16
560.73,22481.471
561.213,22541.561
561.695,22610.391
562.177,22653.051
562.659,22627.061
563.141,22603.58
563.623,22624.0
564.105,22731.99
564.587,22779.711
565.069,22743.881
565.552,22672.83
566.034,22636.789
566.516,22637.971
566.998,22651.73
567.48,22677.711
567.962,22707.189
568.444,22711.279
568.926,22692.01
569.408,22677.27
569.891,22696.91
570.373,22727.529
570.855,22728.99
571.337,22696.0
571.819,22666.35
572.301,22679.119
572.783,22704.301
573.265,22707.711
573.747,22648.881
574.23,22608.48
574.712,22623.74
575.194,22673.381
575.676,22704.23
576.158,22701.641
576.64,22692.109
577.122,22679.211
577.604,22663.17
578.086,22659.24
578.569,22672.91
579.051,22687.32
579.533,22692.34
580.015,22688.26
580.497,22668.99
580.979,22629.789
581.461,22590.91
581.943,22579.199
582.426,22590.039
582.908,22609.52
583.39,22641.18
583.872,22669.76
584.354,22672.869
584.836,22657.211
585.318,22646.801
585.8,22653.311
586.282,22667.99
586.765,22639.029
587.247,22678.213
587.729,22700.854
588.211,22707.842
588.693,22652.299
589.175,22677.504
589.657,22670.348
590.14,22661.865
590.622,22698.436
591.104,22651.988
591.586,22687.842
592.068,22690.844
592.55,22708.881
593.032,22694.359
593.514,22689.893
593.996,22690.439
594.479,22726.039
594.961,22755.07
595.443,22739.34
595.925,22705.801
596.407,22697.33
596.889,22720.711
597.371,22743.539
597.853,22740.4
598.335,22728.08
598.818,22724.391
599.3,22743.881
599.782,22760.74
600.264,22763.68
600.746,22760.51
601.228,22771.02
601.71,22816.24
602.192,22842.48
602.674,22827.859
603.157,22776.84
603.639,22751.74
604.121,22756.869
604.603,22770.449
605.085,22776.551
605.567,22777.381
606.049,22783.699
606.531,22794.971
607.013,22819.58
607.496,22889.23
607.978,22975.58
608.46,23022.301
608.942,22993.27
609.424,22949.051
609.906,22915.561
610.388,22896.49
610.87,22901.061
611.353,22973.811
611.835,23029.689
612.317,23026.881
612.799,22963.711
613.281,22930.17
613.763,22938.48
614.245,22960.77
614.727,22986.711
615.209,23021.33
615.692,23034.359
616.174,23023.869
616.656,22998.07
617.138,22956.971
617.62,22905.76
618.102,22870.449
618.584,22851.1
619.067,22861.801
619.549,22934.859
620.031,22887.631
620.513,22953.764
620.995,22992.379
621.477,23004.955
621.959,22913.504
622.441,22956.383
622.923,22945.428
623.406,22932.266
623.888,22994.051
624.37,22917.73
624.852,22978.328
625.334,22974.26
625.816,22972.58
626.298,22986.24
626.78,23008.58
627.263,23041.211
627.745,23066.01
628.227,23080.08
628.709,23086.789
629.191,23092.35
629.673,23095.84
630.155,23092.73
630.637,23075.961
631.119,23055.881
631.602,23046.529
632.084,23044.84
632.566,23035.801
633.048,22995.711
633.53,22959.58
634.012,22952.98
634.494,22986.119
634.976,23004.619
635.458,22997.42
635.941,22978.09
636.423,22953.131
636.905,22916.449
637.387,22891.25
637.869,22878.631
638.351,22876.689
638.833,22885.461
639.315,22904.01
639.797,22922.461
640.28,22939.49
640.762,22952.25
641.244,22948.449
641.726,22934.471
642.208,22933.699
642.69,22979.859
643.172,23028.6
643.654,23046.41
644.137,23032.77
644.619,23015.09
645.101,22979.17
645.583,22959.869
646.065,22986.75
646.547,23095.57
647.029,23149.59
647.511,23124.061
647.994,23074.381
648.476,23061.57
648.958,23089.51
649.44,23104.9
649.922,23092.17
650.404,23075.66
650.886,23101.58
651.368,23161.48
651.851,23222.52
652.333,23280.42
652.815,23324.529
653.297,23336.98
653.779,23324.029
654.261,23310.971
654.743,23319.99
655.225,23323.471
655.707,23296.811
656.19,23229.609
656.672,23209.42
657.154,23284.869
657.636,23359.881
658.118,23366.301
658.6,23282.539
659.082,23234.26
659.564,23230.51
660.046,23245.561
660.529,23245.311
661.011,23233.471
661.493,23233.109
661.975,23254.971
662.457,23280.221
662.939,23286.631
663.421,23280.449
663.903,23275.289
664.385,23286.02
664.868,23292.15
665.35,23274.66
665.832,23239.881
666.314,23227.109
666.796,23257.65
667.278,23296.26
667.76,23337.98
668.242,23384.93
668.724,23388.961
669.207,23333.189
669.689,23278.02
670.171,23274.551
670.653,23315.609
671.135,23359.75
671.617,23403.5
672.099,23442.311
672.581,23460.76
673.064,23473.34
673.546,23507.529
674.028,23586.74
674.51,23662.699
674.992,23723.08
675.474,23762.34
675.956,23771.17
676.438,23706.92
676.92,23663.689
677.403,23684.82
677.885,23743.27
678.367,23714.16
678.849,23569.869
679.331,23424.789
679.813,23318.17
680.295,23250.25
680.778,23226.93
681.26,23247.711
681.742,23283.25
682.224,23318.65
682.706,23351.369
683.188,23375.4
683.67,23388.02
684.152,23406.98
684.634,23445.221
685.117,23492.51
685.599,23541.65
686.081,23618.561
686.563,23651.0
687.045,23598.57
687.527,23526.109
688.009,23525.09
688.491,23621.859
688.973,23691.689
689.456,23710.74
689.938,23694.74
690.42,23657.57
690.902,23606.41
691.384,23588.311
691.866,23663.199
692.348,23752.721
692.83,23737.35
693.312,23646.289
693.795,23603.131
694.277,23716.029
694.759,23849.02
695.241,23939.779
695.723,23982.721
696.205,23980.91
696.687,23894.68
697.169,23812.289
697.652,23786.27
698.134,23827.68
698.616,23854.92
699.098,23867.23
699.58,23870.85
700.062,23880.211
700.544,23887.57
701.026,23856.65
701.508,23769.461
701.991,23691.52
702.473,23685.33
702.955,23724.801
703.437,23772.43
703.919,23862.529
704.401,23905.561
704.883,23836.689
705.365,23707.34
705.847,23634.4
706.33,23643.359
706.812,23660.471
707.294,23670.471
707.776,23675.949
708.258,23690.66
708.74,23715.029
709.222,23730.359
709.705,23717.43
710.187,23692.68
710.669,23692.26
711.151,23712.859
711.633,23725.83
712.115,23700.961
712.597,23670.76
713.079,23663.42
713.561,23687.07
714.044,23694.76
714.526,23644.32
715.008,23602.18
715.49,23612.18
715.972,23698.859
716.454,23753.949
716.936,23771.881
717.418,23771.369
717.901,23764.76
718.383,23755.59
718.865,23752.279
719.347,23741.109
719.829,23691.064
720.311,23778.049
720.793,23831.775
721.275,23854.023
721.757,23750.521
722.24,23809.398
722.722,23803.203
723.204,23794.336
723.686,23840.24
724.168,23900.301
724.65,23948.301
725.132,23958.09
725.614,23940.301
726.096,23930.869
726.579,23930.18
727.061,23929.949
727.543,23923.961
728.025,23916.721
728.507,23921.789
728.989,23936.311
729.471,23942.07
729.953,23909.09
730.435,23878.48
730.918,23889.07
731.4,23947.801
731.882,23981.49
732.364,23958.9
732.846,23926.18
733.328,23903.859
733.81,23892.43
734.292,23888.74
734.775,23893.061
735.257,23903.301
735.739,23924.01
736.221,23949.529
736.703,23951.711
737.185,23921.631
737.667,23901.391
738.149,23951.359
738.631,24024.891
739.114,24061.141
739.596,24021.16
740.078,23984.141
740.56,23970.449
741.042,23973.09
741.524,23982.949
742.006,24006.779
742.489,24021.381
742.971,24016.57
743.453,24009.619
743.935,24040.971
744.417,24107.141
744.899,24165.35
745.381,24194.891
745.863,24215.471
746.345,24261.369
746.828,24319.02
747.31,24352.68
747.792,24307.961
748.274,24272.85
748.756,24300.43
749.238,24379.43
749.72,24427.721
750.202,24437.4
750.684,24426.961
751.167,24403.381
751.649,24367.051
752.131,24300.439
752.613,24202.02
753.095,24135.27
753.577,24169.73
754.059,24254.141
754.541,24288.48
755.023,24274.08
755.506,24278.01
755.988,24362.301
756.47,24460.189
756.952,24528.551
757.434,24558.17
757.916,24567.721
758.398,24538.67
758.88,24511.801
759.362,24522.471
759.845,24578.279
760.327,24586.6
760.809,24535.34
761.291,24489.381
761.773,24531.43
762.255,24626.631
762.737,24697.33
763.219,24729.279
763.702,24750.59
764.184,24766.57
764.666,24789.43
765.148,24832.869
765.63,24926.949
766.112,24999.289
766.594,25023.131
767.076,25040.199
767.558,25106.32
768.041,25227.84
768.523,25348.029
769.005,25456.4
769.487,25560.65
769.969,25678.461
770.451,25801.15
770.933,25907.789
771.416,25981.221
771.898,26049.84
772.38,26140.811
772.862,26238.811
773.344,26314.75
773.826,26334.99
774.308,26365.58
774.79,26420.199
775.272,26491.891
775.755,26562.859
776.237,26634.9
776.719,26701.561
777.201,26762.25
777.683,26816.279
778.165,26868.65
778.647,26914.48
779.129,26932.59
779.612,26868.689
780.094,26811.359
780.576,26842.279
781.058,26938.641
781.54,26986.93
782.022,26914.711
782.504,26845.939
782.986,26810.869
783.468,26806.369
783.951,26819.01
784.433,26853.609
784.915,26868.25
785.397,26830.439
785.879,26759.16
786.361,26686.42
786.843,26615.721
787.325,26565.48
787.807,26577.32
788.29,26590.461
788.772,26557.211
789.254,26473.57
789.736,26401.529
790.218,26334.0
790.7,26295.68
791.182,26311.369
791.664,26381.439
792.146,26390.359
792.629,26330.711
793.111,26262.061
793.593,26229.0
794.075,26215.881
794.557,26193.551
795.039,26160.15
795.521,26125.551
796.003,26088.631
796.485,26058.199
796.968,26042.4
797.45,26046.561
797.932,26051.221
798.414,26070.471
798.896,26071.289
799.378,26021.51
799.86,25920.061
800.343,25847.98
800.825,25809.82
801.307,25781.77
801.789,25740.16
802.271,25695.811
802.753,25668.02
803.235,25661.721
803.717,25653.26
804.199,25617.27
804.682,25583.43
805.164,25582.67
805.646,25645.92
806.128,25648.18
806.61,25560.32
807.092,25465.42
807.574,25451.859
808.056,25508.859
808.539,25548.811
809.021,25563.961
809.503,25559.57
809.985,25524.84
810.467,25480.699
810.949,25452.189
811.431,25445.24
811.913,25451.471
812.395,25481.84
812.878,25515.211
813.36,25535.74
813.842,25545.561
814.324,25528.789
814.806,25475.51
815.288,25421.449
815.77,25418.211
816.252,25449.189
816.734,25456.301
817.217,25424.221
817.699,25395.0
818.181,25418.631
818.663,25454.141
819.145,25454.75
819.627,25377.98
820.109,25328.58
820.591,25324.43
821.073,25339.75
821.556,25349.811
822.038,25354.1
822.52,25363.961
823.002,25383.09
823.484,25397.859
823.966,25389.43
824.448,25365.051
824.93,25334.17
825.413,25289.891
825.895,25265.58
826.377,25293.561
826.859,25341.35
827.341,25369.109
827.823,25332.43
828.305,25298.629
828.787,25342.67
829.269,25367.816
829.752,25375.082
830.234,25310.918
830.716,25338.99
831.198,25330.1
831.68,25319.691
832.162,25360.748
832.644,25306.973
833.127,25347.213
833.609,25349.922
834.091,25369.809
834.573,25352.502
835.055,25346.684
835.537,25378.07
836.019,25388.855
836.501,25367.268
836.983,25388.246
837.466,25350.131
837.948,25350.789
838.43,25359.85
838.912,25365.26
839.394,25364.57
839.876,25360.27
840.358,25350.75
840.84,25340.08
841.322,25332.4
841.805,25329.5
842.287,25328.461
842.769,25333.641
843.251,25334.199
843.733,25311.961
844.215,25269.971
844.697,25247.4
845.179,25247.99
845.661,25268.189
846.144,25328.23
846.626,25394.16
847.108,25418.949
847.59,25379.109
848.072,25350.551
848.554,25374.01
849.036,25400.43
849.518,25391.85
850.0,25335.369
850.483,25300.961
850.965,25292.26
851.447,25292.77
851.929,25281.82
852.411,25269.58
852.893,25281.49
853.375,25322.49
853.857,25367.949
854.34,25435.631
854.822,25480.67
855.304,25452.17
855.786,25305.07
856.268,25248.141
856.75,25316.84
857.232,25412.199
857.714,25463.279
858.196,25475.68
858.679,25492.211
859.161,25513.869
859.643,25533.24
860.125,25539.631
860.607,25543.5
861.089,25555.83
861.571,25577.83
862.054,25598.551
862.536,25607.869
863.018,25623.26
863.5,25660.141
863.982,25718.391
864.464,25733.24
864.946,25700.949
865.428,25661.391
865.91,25635.631
866.393,25623.211
866.875,25634.07
867.357,25663.84
867.839,25676.551
868.321,25636.51
868.803,25592.699
869.285,25575.561
869.767,25581.48
870.25,25566.16
870.732,25518.131
871.214,25488.561
871.696,25508.75
872.178,25561.311
872.66,25598.68
873.142,25622.51
873.624,25639.199
874.106,25651.65
874.589,25658.35
875.071,25642.33
875.553,25614.789
876.035,25633.98
876.517,25746.189
876.999,25820.289
877.481,25811.76
877.963,25751.779
878.445,25721.32
878.928,25719.99
879.41,25748.189
879.892,25835.359
880.374,25914.721
880.856,25907.74
881.338,25848.631
881.82,25806.949
882.302,25824.75
882.784,25833.02
883.267,25813.641
883.749,25784.641
884.231,25782.561
884.713,25808.211
885.195,25823.82
885.677,25815.73
886.159,25810.1
886.641,25852.18
887.123,25916.23
887.606,25957.09
888.088,25941.92
888.57,25937.109
889.052,25961.289
889.534,26005.66
890.016,26072.061
890.498,26179.58
890.981,26211.93
891.463,26146.99
891.945,26059.301
892.427,26026.93
892.909,26031.631
893.391,26033.279
893.873,26021.109
894.355,26033.41
894.837,26124.66
895.32,26221.76
895.802,26262.09
896.284,26229.43
896.766,26219.891
897.248,26239.82
897.73,26262.721
898.212,26278.09
898.694,26280.09
899.177,26237.25
899.659,26152.711
900.141,26083.25
900.623,26071.98
901.105,26082.15
901.587,26098.949
902.069,26121.41
902.551,26118.66
903.033,26076.529
903.516,26043.33
903.998,26049.119
904.48,26074.869
904.962,26035.971
905.444,25946.279
905.926,25887.881
906.408,25930.039
906.89,25997.23
907.372,26046.98
907.855,26080.109
908.337,26102.85
908.819,26119.789
909.301,26119.391
909.783,26093.82
910.265,26055.42
910.747,26028.41
911.229,26012.631
911.711,26007.99
912.194,26017.25
912.676,26031.471
913.158,26042.57
913.64,26053.391
914.122,26067.76
914.604,26095.35
915.086,26113.1
915.568,26119.949
916.05,26116.93
916.533,26101.381
917.015,26074.789
917.497,26057.119
917.979,26051.779
918.461,26048.711
918.943,26029.1
919.425,26013.48
919.907,26027.289
920.39,26080.971
920.872,26129.689
921.354,26166.15
921.836,26198.211
922.318,26228.109
922.8,26256.02
923.282,26294.061
923.765,26341.18
924.247,26381.039
924.729,26398.02
925.211,26403.68
925.693,26408.859
926.175,26412.971
926.657,26412.119
927.139,26389.221
927.621,26380.961
928.104,26401.91
928.586,26442.471
929.068,26472.211
929.55,26491.359
930.032,26496.439
930.514,26477.66
930.996,26458.65
931.478,26491.461
931.96,26537.801
932.443,26528.131
932.925,26359.859
933.407,26248.721
933.889,26228.619
934.371,26258.051
934.853,26292.881
935.335,26332.27
935.817,26354.74
936.299,26353.619
936.782,26358.17
937.264,26414.18
937.746,26482.439
938.228,26516.199
938.71,26501.99
939.192,26479.131
939.674,26438.961
940.156,26410.141
940.638,26416.23
941.121,26454.449
941.603,26459.311
942.085,26431.6
942.567,26419.09
943.049,26485.311
943.531,26558.881
944.013,26558.26
944.495,26496.32
944.978,26460.689
945.46,26501.08
945.942,26527.68
946.424,26515.789
946.906,26480.09
947.388,26459.711
947.87,26453.801
948.352,26452.939
948.834,26454.609
949.317,26459.279
949.799,26467.99
950.281,26479.881
950.763,26493.58
951.245,26507.34
951.727,26526.471
952.209,26556.65
952.692,26583.18
953.174,26586.711
953.656,26570.391
954.138,26551.971
954.62,26531.801
955.102,26530.039
955.584,26586.189
956.066,26650.859
956.548,26676.391
957.031,26651.699
957.513,26655.33
957.995,26709.09
958.477,26751.561
958.959,26742.029
959.441,26702.35
959.923,26656.08
960.405,26630.428
960.888,26739.693
961.37,26816.203
961.852,26861.723
962.334,26783.445
962.816,26865.029
963.298,26882.543
963.78,26931.789
964.262,26947.359
964.744,26901.289
965.227,26837.699
965.709,26822.189
966.191,26844.141
966.673,26881.0
967.155,26936.801
967.637,26967.949
968.119,26910.561
968.601,26846.779
969.083,26854.77
969.566,26956.391
970.048,27012.221
970.53,27017.039
971.012,27001.721
971.494,26979.26
971.976,26955.619
972.458,26943.461
972.94,26941.461
973.422,26939.189
973.905,26927.391
974.387,26919.67
974.869,26919.961
975.351,26928.18
975.833,26944.24
976.315,26967.92
976.797,27001.131
977.279,27047.369
977.761,27095.461
978.244,27146.359
978.726,27185.1
979.208,27183.359
979.69,27100.51
980.172,27041.811
980.654,27034.27
981.136,27042.01
981.619,27033.631
982.101,27009.721
982.583,27004.551
983.065,27019.801
983.547,27031.66
984.029,27011.65
984.511,26988.07
984.993,26994.91
985.475,27030.539
985.958,27036.68
986.44,26992.109
986.922,26949.33
987.404,26922.461
987.886,26909.131
988.368,26909.49
988.85,26919.15
989.332,26916.811
989.815,26880.16
990.297,26855.311
990.779,26880.66
991.261,26929.551
991.743,26966.971
992.225,26989.26
992.707,27005.49
993.189,27014.52
993.671,27021.699
994.154,27038.369
994.636,27055.01
995.118,27047.471
995.6,27015.279
996.082,26985.381
996.564,26959.881
997.046,26951.48
997.528,26961.1
998.01,26990.92
998.493,27066.369
998.975,27191.58
999.457,27287.109
999.939,27317.77
1000.421,27310.789
1000.903,27293.039
1001.385,27263.119
1001.867,27218.061
1002.349,27124.449
1002.832,27063.82
1003.314,27039.391
1003.796,27050.59
1004.278,27118.48
1004.76,27230.9
1005.242,27280.24
1005.724,27260.189
1006.206,27226.9
1006.689,27208.961
1007.171,27204.49
1007.653,27224.33
1008.135,27265.52
1008.617,27263.34
1009.099,27195.391
1009.581,27148.289
1010.063,27149.6
1010.545,27190.67
1011.028,27276.461
1011.51,27386.061
1011.992,27471.699
1012.474,27521.221
1012.956,27534.131
1013.438,27481.949
1013.92,27410.67
1014.402,27361.881
1014.885,27336.4
1015.367,27328.33
1015.849,27338.699
1016.331,27351.699
1016.813,27358.43
1017.295,27357.859
1017.777,27338.93
1018.259,27305.699
1018.741,27301.99
1019.224,27369.199
1019.706,27413.92
1020.188,27401.811
1020.67,27363.07
1021.152,27371.23
1021.634,27419.221
1022.116,27475.43
1022.598,27428.363
1023.081,27510.447
1023.563,27561.166
1024.045,27582.225
1024.527,27484.781
1025.009,27540.357
1025.491,27534.609
1025.973,27526.348
1026.455,27603.459
1026.938,27523.275
1027.42,27590.66
1027.902,27599.561
1028.384,27625.68
1028.866,27641.23
1029.348,27626.16
1029.83,27610.461
1030.312,27601.471
1030.794,27598.289
1031.276,27590.74
1031.759,27582.73
1032.241,27542.943
1032.723,27631.953
1033.205,27689.697
1033.687,27717.859
1034.169,27627.828
1034.651,27688.35
1035.133,27647.979
1035.616,27720.566
1036.098,27765.721
1036.58,27784.932
1037.062,27700.502
1037.544,27749.902
1038.026,27745.67
1038.508,27739.24
1038.99,27807.477
1039.473,27738.143
1039.955,27805.193
1040.437,27817.797
1040.919,27855.318
1041.401,27838.877
1041.883,27839.104
1042.365,27893.311
1042.847,27917.629
1043.329,27894.975
1043.812,27934.102
1044.294,27862.859
1044.776,27897.42
1045.258,27899.811
1045.74,27899.189
1046.222,27887.68
1046.704,27894.631
1047.186,27941.49
1047.668,28003.76
1048.151,28025.85
1048.633,28017.131
1049.115,28001.85
1049.597,27965.641
1050.079,27960.5
1050.561,28028.561
1051.043,28117.91
1051.525,28189.6
1052.008,28244.881
1052.49,28263.57
1052.972,28243.939
1053.454,28225.01
1053.936,28227.91
1054.418,28251.33
1054.9,28300.65
1055.382,28371.359
1055.865,28439.961
1056.347,28511.34
1056.829,28558.971
1057.311,28572.68
1057.793,28567.109
1058.275,28559.49
1058.757,28552.57
1059.239,28553.09
1059.721,28563.471
1060.203,28578.711
1060.686,28609.92
1061.168,28633.77
1061.65,28630.641
1062.132,28605.119
1062.614,28630.73
1063.096,28704.4
1063.578,28745.26
1064.06,28663.779
1064.543,28579.98
1065.025,28604.32
1065.507,28687.971
1065.989,28731.119
1066.471,28709.061
1066.953,28696.01
1067.435,28696.779
1067.917,28707.891
1068.4,28731.381
1068.882,28760.529
1069.364,28778.891
1069.846,28786.48
1070.328,28811.369
1070.81,28882.76
1071.292,28951.211
1071.774,29008.381
1072.256,29048.221
1072.739,29042.711
1073.221,29000.561
1073.703,28976.881
1074.185,28986.609
1074.667,29019.949
1075.149,29109.779
1075.631,29192.631
1076.113,29196.131
1076.596,29104.93
1077.078,29063.32
1077.56,29078.65
1078.042,29096.43
1078.524,29047.82
1079.006,29111.723
1079.488,29148.312
1079.97,29159.059
1080.453,29066.562
1080.935,29107.385
1081.417,29094.777
1081.899,29079.979
1082.381,29139.564
1082.863,29111.67
1083.345,29190.699
1083.827,29170.369
1084.309,29045.67
1084.792,28959.67
1085.274,29029.52
1085.756,29110.961
1086.238,29137.449
1086.72,29121.17
1087.202,29103.33
1087.684,29083.641
1088.166,29060.43
1088.648,29033.141
1089.131,29002.98
1089.613,28964.23
1090.095,28898.436
1090.577,28977.203
1091.059,29020.881
1091.541,29031.352
1092.023,28909.16
1092.505,28958.275
1092.988,28938.734
1093.47,28916.383
1093.952,28989.607
1094.434,28886.713
1094.916,28958.422
1095.398,28960.432
1095.88,28994.342
1096.362,28959.176
1096.844,28945.346
1097.327,29000.609
1097.809,29017.615
1098.291,28974.498
1098.773,29010.436
1099.255,28905.127
1099.737,28923.764
1100.219,28995.877
1100.701,28956.234
1101.183,28993.434
1101.666,29001.365
1102.148,28876.295
1102.63,28982.531
1103.112,28988.734
1103.594,28892.227
1104.076,28990.539
1104.558,28908.191
1105.04,28920.061
1105.523,29009.48
1106.005,29021.859
1106.487,28903.109
1106.969,28948.08
1107.451,28893.516
1107.933,28964.998
1108.415,29005.883
1108.897,29017.816
1109.38,28914.082
1109.862,28959.709
1110.344,28945.477
1110.826,28928.791
1111.308,28995.439
1111.79,28908.527
1112.272,28965.68
1112.754,28962.43
1113.236,28924.471
1113.719,28885.25
1114.201,28847.9
1114.683,28829.34
1115.165,28843.68
1115.647,28872.789
1116.129,28888.561
1116.611,28891.699
1117.093,28901.369
1117.575,28841.383
1118.058,28919.223
1118.54,28963.605
1119.022,28976.33
1119.504,28862.578
1119.986,28912.143
1120.468,28896.258
1120.95,28877.689
1121.432,28950.242
1121.915,28854.889
1122.397,28925.996
1122.879,28930.652
1123.361,28965.723
1123.843,28934.938
1124.325,28922.76
1124.807,28933.939
1125.289,28945.221
1125.771,28953.641
1126.254,28954.301
1126.736,28953.539
1127.218,28961.33
1127.7,28977.641
1128.182,29002.551
1128.664,29022.23
1129.146,29073.82
1129.628,29179.619
1130.11,29282.961
1130.593,29326.439
1131.075,29324.34
1131.557,29337.369
1132.039,29363.6
1132.521,29379.66
1133.003,29366.539
1133.485,29348.57
1133.967,29327.01
1134.45,29313.119
1134.932,29338.32
1135.414,29397.029
1135.896,29414.15
1136.378,29380.15
1136.86,29331.631
1137.342,29262.98
1137.824,29219.41
1138.307,29258.109
1138.789,29351.84
1139.271,29386.08
1139.753,29357.07
1140.235,29330.221
1140.717,29319.73
1141.199,29325.391
1141.681,29364.67
1142.163,29407.869
1142.646,29418.109
1143.128,29385.631
1143.61,29376.65
1144.092,29399.74
1144.574,29402.02
1145.056,29347.41
1145.538,29276.699
1146.02,29248.83
1146.502,29247.811
1146.985,29245.9
1147.467,29230.949
1147.949,29233.721
1148.431,29261.699
1148.913,29292.141
1149.395,29306.381
1149.877,29312.43
1150.359,29325.689
1150.842,29344.83
1151.324,29365.91
1151.806,29373.289
1152.288,29404.83
1152.77,29480.891
1153.252,29552.381
1153.734,29546.061
1154.216,29491.84
1154.698,29497.561
1155.181,29562.83
1155.663,29609.82
1156.145,29573.961
1156.627,29548.93
1157.109,29570.289
1157.591,29613.24
1158.073,29633.49
1158.555,29634.83
1159.037,29635.461
1159.52,29638.41
1160.002,29641.631
1160.484,29636.51
1160.966,29639.58
1161.448,29670.109
1161.93,29713.109
1162.412,29699.461
1162.894,29634.09
1163.377,29605.48
1163.859,29646.34
1164.341,29689.85
1164.823,29691.65
1165.305,29670.26
1165.787,29635.84
1166.269,29591.07
1166.751,29564.82
1167.234,29557.711
1167.716,29564.18
1168.198,29592.211
1168.68,29616.199
1169.162,29596.551
1169.644,29568.42
1170.126,29583.01
1170.608,29654.33
1171.09,29686.461
1171.573,29672.971
1172.055,29678.01
1172.537,29763.619
1173.019,29868.211
1173.501,29933.461
1173.983,29966.01
1174.465,29976.41
1174.947,29953.18
1175.43,29946.439
1175.912,29959.039
1176.394,29981.33
1176.876,30017.789
1177.358,30050.92
1177.84,30047.711
1178.322,30020.891
1178.804,30023.711
1179.286,30102.109
1179.769,30106.75
1180.251,29998.27
1180.733,29888.301
1181.215,29924.109
1181.697,30024.65
1182.179,30065.539
1182.661,30046.75
1183.143,30055.311
1183.625,30131.49
1184.108,30178.0
1184.59,30164.561
1185.072,30139.18
1185.554,30194.189
1186.036,30276.109
1186.518,30285.73
1187.0,30206.561
1187.482,30133.26
1187.965,30082.5
1188.447,30043.59
1188.929,30008.789
1189.411,29993.221
1189.893,30040.631
1190.375,30125.76
1190.857,30203.6
1191.339,30273.59
1191.822,30286.08
1192.304,30188.221
1192.786,30104.52
1193.268,30087.891
1193.75,30118.529
1194.232,30142.57
1194.714,30173.08
1195.196,30117.955
1195.678,30184.627
1196.161,30221.732
1196.643,30230.863
1197.125,30128.225
1197.607,30169.912
1198.089,30153.762
1198.571,30135.238
1199.053,30165.391
1199.535,30193.381
1200.017,30200.881
1200.5,30206.789
1200.982,30204.461
1201.464,30216.971
1201.946,30276.711
1202.428,30367.131
1202.91,30411.99
1203.392,30415.869
1203.874,30393.881
1204.357,30293.449
1204.839,30249.221
1205.321,30270.449
1205.803,30375.199
1206.285,30343.709
1206.767,30418.785
1207.249,30467.996
1207.731,30492.725
1208.214,30419.691
1208.696,30472.912
1209.178,30487.189
1209.66,30498.18
1210.142,30533.4
1210.624,30584.4
1211.106,30638.66
1211.588,30638.09
1212.07,30583.83
1212.552,30530.84
1213.035,30472.539
1213.517,30467.061
1213.999,30549.529
1214.481,30500.787
1214.963,30566.014
1215.445,30603.576
1215.927,30614.959
1216.409,30521.758
1216.892,30563.609
1217.374,30551.336
1217.856,30536.844
1218.338,30597.699
1218.82,30519.709
1219.302,30579.371
1219.784,30584.084
1220.266,30613.945
1220.749,30589.355
1221.231,30581.58
1221.713,30628.279
1222.195,30644.816
1222.677,30586.27
1223.159,30582.75
1223.641,30631.15
1224.123,30706.539
1224.605,30721.91
1225.088,30649.32
1225.57,30608.279
1226.052,30682.471
1226.534,30752.01
1227.016,30775.721
1227.498,30767.74
1227.98,30742.43
1228.462,30716.711
1228.944,30724.289
1229.427,30759.01
1229.909,30749.135
1230.391,30792.719
1230.873,30823.33
1231.355,30841.656
1231.837,30810.926
1232.319,30843.543
1232.801,30850.775
1233.284,30856.996
1233.766,30884.551
1234.248,30895.6
1234.73,30889.1
1235.212,30887.199
1235.694,30899.93
1236.176,30924.75
1236.658,30966.84
1237.141,31014.561
1237.623,31040.41
1238.105,31029.66
1238.587,31010.0
1239.069,30970.039
1239.551,30955.67
1240.033,31013.27
1240.515,31096.609
1240.997,31100.26
1241.479,31053.83
1241.962,31020.34
1242.444,31025.869
1242.926,31033.301
1243.408,31045.801
1243.89,31047.76
1244.372,31011.48
1244.854,30972.109
1245.336,31004.83
1245.819,31080.381
1246.301,31139.689
1246.783,31149.92
1247.265,31178.529
1247.747,31231.84
1248.229,31273.461
1248.711,31264.99
1249.193,31238.85
1249.676,31245.881
1250.158,31270.039
1250.64,31277.609
1251.122,31265.9
1251.604,31232.52
1252.086,31173.631
1252.568,31122.07
1253.05,31111.529
1253.532,31113.77
1254.015,31095.381
1254.497,31068.471
1254.979,31058.84
1255.461,31072.131
1255.943,31078.551
1256.425,31074.801
1256.907,31086.461
1257.389,31158.609
1257.871,31226.279
1258.354,31226.98
1258.836,31185.789
