Raman shift,Intensity
751.53666,563.6851
753.60413,564.39318
755.67159,564.39318
757.73905,564.39318
759.80651,563.6851
761.87398,562.97703
763.94144,562.26896
766.0089,562.26896
768.07636,561.56088
770.14383,561.56088
772.21129,561.56088
774.27875,562.26896
776.34621,562.97703
778.41368,563.6851
780.48114,564.39318
782.5486,563.6851
784.61606,563.6851
786.68353,563.6851
788.75099,563.6851
790.81845,562.97703
792.88591,562.26896
794.95338,561.56088
797.02084,561.56088
799.0883,561.56088
801.15576,561.56088
803.22323,561.56088
805.29069,561.56088
807.35815,561.56088
809.42561,561.56088
811.49308,561.56088
813.56054,561.56088
815.628,561.56088
817.69546,561.56088
819.76293,561.56088
821.83039,561.56088
823.89785,561.56088
825.96531,561.56088
828.03278,561.56088
830.10024,561.56088
832.1677,561.56088
834.23516,561.56088
836.30262,561.56088
838.37009,561.56088
840.43755,561.56088
842.50501,561.56088
844.57247,561.56088
846.63994,561.56088
848.7074,561.56088
850.77486,561.56088
852.84232,561.56088
854.90979,561.56088
856.97725,561.56088
859.04471,561.56088
861.11217,561.56088
863.17964,561.56088
865.2471,561.56088
867.31456,561.56088
869.38202,561.56088
871.44949,561.56088
873.51695,561.56088
875.58441,561.56088
877.65187,561.56088
879.71934,561.56088
881.7868,561.56088
883.85426,560.85281
885.92172,560.85281
887.98919,560.85281
890.05665,560.85281
892.12411,560.85281
894.19157,561.56088
896.25904,562.26896
898.3265,562.26896
900.39396,562.26896
902.46142,562.97703
904.52889,563.6851
906.59635,564.39318
908.66381,564.39318
910.73127,564.39318
912.79874,564.39318
914.8662,564.39318
916.93366,564.39318
919.00112,564.39318
921.06859,564.39318
923.13605,564.39318
925.20351,564.39318
927.27097,564.39318
929.33844,564.39318
931.4059,564.39318
933.47336,564.39318
935.54082,564.39318
937.60829,564.39318
939.67575,564.39318
941.74321,564.39318
943.81067,564.39318
945.87814,564.39318
947.9456,564.39318
950.01306,564.39318
952.08052,564.39318
954.14799,564.39318
956.21545,564.39318
958.28291,564.39318
960.35037,564.39318
962.41784,564.39318
964.4853,565.10125
966.55276,565.10125
968.62022,565.10125
970.68769,565.10125
972.75515,565.10125
974.82261,565.10125
976.89007,565.10125
978.95754,565.10125
981.025,565.10125
983.09246,565.10125
985.15992,565.10125
987.22739,565.10125
989.29485,565.10125
991.36231,565.10125
993.42977,565.10125
995.49724,565.10125
997.5647,565.10125
999.63216,565.10125
1001.69962,565.10125
1003.76709,565.10125
1005.83455,565.80932
1007.90201,565.80932
1009.96947,565.80932
1012.03694,565.80932
1014.1044,565.10125
1016.17186,565.80932
1018.23932,565.80932
1020.30679,565.80932
1022.37425,565.80932
1024.44171,565.80932
1026.50917,566.5174
1028.57663,566.5174
1030.6441,566.5174
1030.6441,565.80932
1032.71156,566.5174
1034.77902,567.22547
1034.77902,566.5174
1036.84648,567.93354
1036.84648,568.64162
1036.84648,567.22547
1038.91395,569.34969
1038.91395,568.64162
1040.98141,570.76584
1040.98141,569.34969
1040.98141,570.05776
1043.04887,570.76584
1045.11633,570.76584
1047.1838,570.76584
1049.25126,570.76584
1051.31872,570.76584
1053.38618,589.88382
1053.38618,570.76584
1053.38618,587.7596
1053.38618,587.05153
1053.38618,588.46768
1053.38618,590.5919
1055.45365,586.34345
1055.45365,576.43043
1055.45365,594.13226
1055.45365,575.72235
1055.45365,592.00804
1055.45365,591.29997
1055.45365,592.71612
1055.45365,571.47391
1055.45365,589.17575
1055.45365,572.18198
1055.45365,572.89006
1055.45365,595.54841
1055.45365,594.84034
1057.52111,598.3807
1057.52111,575.01428
1057.52111,574.3062
1057.52111,585.63538
1057.52111,597.67263
1057.52111,577.1385
1057.52111,593.42419
1057.52111,596.96456
1057.52111,573.59813
1057.52111,596.25648
1059.58857,599.08878
1059.58857,579.26272
1059.58857,577.84657
1059.58857,584.92731
1061.65603,582.80309
1061.65603,579.97079
1061.65603,581.38694
1061.65603,580.67887
1061.65603,582.09501
1061.65603,584.21923
1061.65603,578.55465
1061.65603,599.79685
1063.7235,600.50492
1063.7235,619.62291
1063.7235,618.91484
1063.7235,617.49869
1063.7235,616.79062
1063.7235,616.08254
1063.7235,583.51116
1063.7235,615.37447
1063.7235,620.33098
1063.7235,621.03906
1065.79096,621.74713
1065.79096,622.4552
1065.79096,601.213
1065.79096,623.87135
1065.79096,618.20676
1065.79096,625.2875
1065.79096,625.99557
1065.79096,604.75337
1065.79096,613.25025
1065.79096,626.70364
1065.79096,614.66639
1065.79096,607.58566
1065.79096,623.16328
1067.85842,628.82787
1067.85842,624.57942
1067.85842,629.53594
1067.85842,628.11979
1067.85842,631.66016
1067.85842,608.29373
1067.85842,612.54217
1067.85842,606.87759
1067.85842,605.46144
1067.85842,630.95209
1067.85842,601.92107
1067.85842,632.36823
1067.85842,603.33722
1067.85842,604.04529
1067.85842,613.95832
1067.85842,627.41172
1067.85842,633.07631
1069.92588,638.03282
1069.92588,637.32475
1069.92588,630.24401
1069.92588,635.20053
1069.92588,609.00181
1069.92588,602.62915
1069.92588,611.8341
1069.92588,633.78438
1069.92588,634.49245
1069.92588,635.9086
1069.92588,606.16951
1069.92588,638.74089
1071.99335,609.70988
1071.99335,611.12603
1071.99335,610.41795
1071.99335,639.44897
1071.99335,640.15704
1071.99335,640.86511
1071.99335,641.57319
1071.99335,645.11356
1071.99335,642.98934
1071.99335,643.69741
1071.99335,644.40548
1071.99335,636.61667
1074.06081,642.28126
1074.06081,646.5297
1074.06081,647.23778
1074.06081,647.94585
1074.06081,648.65392
1074.06081,649.362
1074.06081,645.82163
1074.06081,650.07007
1076.12827,651.48622
1076.12827,650.77814
1076.12827,652.90236
1076.12827,652.19429
1076.12827,654.31851
1076.12827,655.02659
1078.19573,655.73466
1078.19573,653.61044
1078.19573,657.85888
1080.2632,656.44273
1080.2632,658.56695
1080.2632,659.27503
1080.2632,657.15081
1082.33066,659.9831
1084.39812,660.69117
1086.46558,662.10732
1086.46558,662.81539
1086.46558,663.52347
1086.46558,661.39925
1088.53305,663.52347
1088.53305,664.93961
1088.53305,664.23154
1090.60051,667.06383
1090.60051,665.64769
1092.66797,666.35576
1107.14021,661.39925
1107.14021,656.44273
1109.20767,660.69117
1109.20767,659.9831
1109.20767,658.56695
1109.20767,657.85888
1109.20767,657.15081
1109.20767,659.27503
1109.20767,655.73466
1109.20767,653.61044
1109.20767,662.10732
1111.27513,652.90236
1111.27513,655.02659
1111.27513,654.31851
1111.27513,651.48622
1111.27513,652.19429
1113.3426,648.65392
1113.3426,650.77814
1113.3426,650.07007
1113.3426,647.23778
1113.3426,647.94585
1115.41006,645.82163
1115.41006,649.362
1115.41006,646.5297
1117.47752,638.74089
1117.47752,645.11356
1117.47752,644.40548
1117.47752,643.69741
1117.47752,642.98934
1117.47752,642.28126
1117.47752,641.57319
1117.47752,640.86511
1117.47752,640.15704
1117.47752,639.44897
1117.47752,635.20053
1117.47752,638.03282
1117.47752,635.9086
1119.54498,636.61667
1119.54498,637.32475
1119.54498,633.07631
1119.54498,634.49245
1119.54498,633.78438
1119.54498,632.36823
1119.54498,630.24401
1121.61245,631.66016
1121.61245,630.95209
1121.61245,625.2875
1121.61245,629.53594
1121.61245,628.82787
1121.61245,628.11979
1123.67991,627.41172
1123.67991,626.70364
1123.67991,625.99557
1123.67991,619.62291
1123.67991,624.57942
1125.74737,618.20676
1125.74737,623.87135
1125.74737,622.4552
1125.74737,621.74713
1125.74737,621.03906
1125.74737,620.33098
1125.74737,623.16328
1125.74737,618.91484
1125.74737,617.49869
1127.81483,608.29373
1127.81483,616.79062
1127.81483,616.08254
1127.81483,615.37447
1127.81483,614.66639
1127.81483,613.95832
1129.8823,613.25025
1129.8823,612.54217
1129.8823,611.8341
1129.8823,601.92107
1129.8823,610.41795
1129.8823,609.70988
1129.8823,609.00181
1129.8823,611.12603
1129.8823,607.58566
1129.8823,606.87759
1129.8823,606.16951
1129.8823,605.46144
1131.94976,604.75337
1131.94976,604.04529
1131.94976,598.3807
1131.94976,602.62915
1131.94976,582.80309
1131.94976,601.213
1131.94976,599.08878
1134.01722,599.79685
1134.01722,600.50492
1134.01722,603.33722
1134.01722,597.67263
1134.01722,596.96456
1134.01722,596.25648
1134.01722,595.54841
1134.01722,582.09501
1134.01722,583.51116
1136.08468,571.47391
1136.08468,592.71612
1136.08468,592.00804
1136.08468,591.29997
1136.08468,577.84657
1136.08468,581.38694
1136.08468,579.26272
1136.08468,594.84034
1136.08468,578.55465
1136.08468,594.13226
1136.08468,579.97079
1136.08468,584.21923
1138.15215,577.1385
1138.15215,589.88382
1138.15215,590.5919
1138.15215,575.72235
1138.15215,576.43043
1138.15215,589.17575
1138.15215,580.67887
1138.15215,584.92731
1138.15215,575.01428
1138.15215,570.76584
1138.15215,593.42419
1138.15215,572.18198
1138.15215,574.3062
1140.21961,588.46768
1140.21961,585.63538
1140.21961,573.59813
1140.21961,570.76584
1140.21961,572.89006
1140.21961,587.7596
1140.21961,587.05153
1140.21961,586.34345
1142.28707,570.76584
1144.35453,570.76584
1146.422,570.76584
1148.48946,570.76584
1150.55692,570.76584
1152.62438,569.34969
1152.62438,570.76584
1152.62438,570.05776
1154.69185,568.64162
1154.69185,569.34969
1156.75931,566.5174
1156.75931,568.64162
1156.75931,567.93354
1156.75931,567.22547
1158.82677,562.97703
1158.82677,566.5174
1158.82677,565.80932
1158.82677,565.10125
1158.82677,564.39318
1158.82677,563.6851
1160.89423,562.97703
1162.9617,563.6851
1165.02916,564.39318
1167.09662,565.10125
1169.16408,565.80932
1171.23155,565.80932
1173.29901,565.80932
1175.36647,565.10125
1177.43393,565.80932
1179.5014,565.80932
1181.56886,565.80932
1183.63632,565.10125
1185.70378,565.10125
1187.77125,565.10125
1189.83871,565.10125
1191.90617,565.10125
1193.97363,565.10125
1196.0411,565.10125
1198.10856,565.10125
1200.17602,565.10125
1202.24348,565.10125
1204.31095,565.10125
1206.37841,565.10125
1208.44587,565.10125
1210.51333,565.10125
1212.5808,565.10125
1214.64826,564.39318
1216.71572,564.39318
1218.78318,564.39318
1220.85064,564.39318
1222.91811,564.39318
1224.98557,564.39318
1227.05303,564.39318
1229.12049,564.39318
1231.18796,564.39318
1233.25542,563.6851
1235.32288,562.97703
1237.39034,562.26896
1239.45781,561.56088
1241.52527,561.56088
1243.59273,561.56088
1245.66019,561.56088
1247.72766,561.56088
1249.79512,561.56088
1251.86258,561.56088
1253.93004,561.56088
1255.99751,561.56088
1258.06497,561.56088
1260.13243,561.56088
1262.19989,561.56088
1264.26736,561.56088
1266.33482,561.56088
1268.40228,561.56088
1270.46974,561.56088
1272.53721,561.56088
1274.60467,561.56088
1276.67213,561.56088
1278.73959,561.56088
1280.80706,561.56088
1282.87452,561.56088
1284.94198,561.56088
1287.00944,561.56088
1289.07691,561.56088
1291.14437,561.56088
1293.21183,561.56088
1295.27929,561.56088
1297.34676,561.56088
1299.41422,561.56088
1301.48168,561.56088
1303.54914,561.56088
1305.61661,561.56088
1307.68407,561.56088
1309.75153,561.56088
1311.81899,561.56088
1313.88646,561.56088
1315.95392,561.56088
1318.02138,561.56088
1320.08884,561.56088
1322.15631,561.56088
1324.22377,561.56088
1326.29123,561.56088
1328.35869,561.56088
1330.42616,561.56088
1332.49362,561.56088
1334.56108,561.56088
1336.62854,561.56088
1338.69601,561.56088
1340.76347,561.56088
1342.83093,561.56088
1344.89839,561.56088
1346.96586,561.56088
1349.03332,561.56088
1351.10078,561.56088
1353.16824,561.56088
1355.23571,561.56088
1357.30317,561.56088
1359.37063,561.56088
1361.43809,561.56088
1363.50556,561.56088
1365.57302,561.56088
1367.64048,561.56088
1369.70794,561.56088
1371.77541,561.56088
1373.84287,561.56088
1375.91033,561.56088
1377.97779,561.56088
1380.04526,561.56088
1382.11272,561.56088
1384.18018,561.56088
1386.24764,561.56088
1388.31511,561.56088
1390.38257,561.56088
1392.45003,561.56088
1394.51749,561.56088
1396.58496,561.56088
1398.65242,561.56088
1400.71988,561.56088
1402.78734,561.56088
1404.85481,561.56088
1406.92227,561.56088
1408.98973,562.26896
1411.05719,562.26896
1413.12465,562.26896
1415.19212,562.26896
1417.25958,562.26896
1419.32704,562.97703
1421.3945,562.97703
1423.46197,562.97703
1425.52943,563.6851
1427.59689,563.6851
1429.66435,564.39318
1431.73182,564.39318
1433.79928,565.10125
1435.86674,564.39318
1437.9342,565.10125
1440.00167,565.10125
1442.06913,565.80932
1444.13659,565.80932
1446.20405,566.5174
1448.27152,565.80932
1450.33898,565.80932
1452.40644,565.80932
1454.4739,565.80932
1456.54137,565.10125
1458.60883,565.10125
1460.67629,565.10125
1462.74375,565.10125
1464.81122,564.39318
1466.87868,564.39318
1468.94614,564.39318
1471.0136,564.39318
1473.08107,565.10125
1475.14853,565.10125
1477.21599,565.80932
1479.28345,566.5174
1481.35092,566.5174
1483.41838,566.5174
1485.48584,565.80932
1487.5533,565.10125
1489.62077,565.80932
1491.68823,565.80932
1493.75569,565.80932
1495.82315,565.10125
1497.89062,565.80932
1499.95808,565.80932
1502.02554,565.10125
1504.093,565.10125
1506.16047,565.10125
1508.22793,565.10125
1510.29539,565.10125
1512.36285,565.10125
1514.43032,565.10125
1516.49778,565.10125
1518.56524,565.10125
1520.6327,564.39318
1522.70017,563.6851
1524.76763,562.97703
1526.83509,562.26896
1528.90255,561.56088
1530.97002,561.56088
1533.03748,561.56088
1535.10494,561.56088
1537.1724,561.56088
1539.23987,561.56088
1541.30733,561.56088
1543.37479,561.56088
1545.44225,561.56088
1547.50972,561.56088
1549.57718,561.56088
1551.64464,561.56088
1553.7121,561.56088
1555.77957,561.56088
1557.84703,561.56088
1559.91449,561.56088
1561.98195,561.56088
1564.04942,561.56088
1566.11688,561.56088
1568.18434,561.56088
1570.2518,561.56088
1572.31927,561.56088
1574.38673,561.56088
1576.45419,561.56088
1578.52165,561.56088
1580.58912,561.56088
1582.65658,561.56088
1584.72404,561.56088
1586.7915,561.56088
1588.85897,561.56088
1590.92643,561.56088
1592.99389,561.56088
1595.06135,561.56088
1597.12882,561.56088
1599.19628,561.56088
1601.26374,561.56088
1603.3312,561.56088
1605.39867,561.56088
1607.46613,561.56088
1609.53359,561.56088
1611.60105,561.56088
1613.66851,561.56088
1615.73598,561.56088
1617.80344,561.56088
1619.8709,561.56088
1621.93836,561.56088
1624.00583,561.56088
1626.07329,561.56088
1628.14075,561.56088
1630.20821,561.56088
1632.27568,561.56088
1634.34314,561.56088
1636.4106,561.56088
1638.47806,561.56088
1640.54553,561.56088
1642.61299,561.56088
1644.68045,561.56088
1646.74791,561.56088
1648.81538,561.56088
1650.88284,561.56088
1652.9503,561.56088
1655.01776,561.56088
1657.08523,561.56088
1659.15269,561.56088
1661.22015,561.56088
1663.28761,561.56088
1665.35508,561.56088
1667.42254,561.56088
1669.49,561.56088
1671.55746,561.56088
1673.62493,561.56088
1675.69239,561.56088
1677.75985,561.56088
1679.82731,561.56088
1681.89478,561.56088
1683.96224,561.56088
1686.0297,561.56088
1688.09716,561.56088
1690.16463,561.56088
1692.23209,561.56088
1694.29955,561.56088
1696.36701,561.56088
1698.43448,561.56088
1700.50194,561.56088
1702.5694,561.56088
1704.63686,561.56088
1706.70433,561.56088
1708.77179,561.56088
1710.83925,561.56088
1712.90671,561.56088
1714.97418,561.56088
1717.04164,561.56088
1719.1091,561.56088
1721.17656,561.56088
1723.24403,561.56088
1725.31149,562.26896
1727.37895,562.26896
1729.44641,566.5174
1729.44641,562.97703
1729.44641,563.6851
1729.44641,564.39318
1729.44641,565.10125
1729.44641,565.80932
1731.51388,566.5174
1733.58134,567.22547
1733.58134,566.5174
1735.6488,567.22547
1735.6488,567.93354
1737.71626,567.93354
1739.78373,568.64162
1741.85119,569.34969
1743.91865,570.05776
1743.91865,569.34969
1745.98611,570.05776
1748.05358,570.76584
1748.05358,570.05776
1750.12104,570.76584
1750.12104,571.47391
1752.1885,571.47391
1754.25596,572.18198
1754.25596,571.47391
1756.32343,572.18198
1758.39089,572.18198
1760.45835,572.89006
1762.52581,572.89006
1764.59328,572.89006
1766.66074,572.89006
1768.7282,572.18198
1770.79566,572.18198
1772.86313,572.18198
1774.93059,572.18198
1776.99805,572.89006
1779.06551,572.18198
1781.13298,570.76584
1781.13298,571.47391
1781.13298,569.34969
1781.13298,570.05776
1783.20044,569.34969
1785.2679,569.34969
1787.33536,567.93354
1787.33536,568.64162
1789.40283,567.22547
1791.47029,566.5174
1791.47029,565.10125
1791.47029,565.80932
1791.47029,564.39318
1793.53775,564.39318
1793.53775,563.6851
1795.60521,563.6851
1797.67268,562.97703
1799.74014,562.97703
1801.8076,562.97703
1803.87506,563.6851
1805.94252,564.39318
1808.00999,564.39318
1810.07745,564.39318
1812.14491,564.39318
1814.21237,564.39318
1816.27984,564.39318
1818.3473,564.39318
1820.41476,564.39318
1822.48222,565.10125
1824.54969,565.10125
1826.61715,565.10125
1828.68461,565.10125
1830.75207,565.10125
1832.81954,565.10125
1834.887,565.10125
1836.95446,565.10125
1839.02192,565.10125
1841.08939,565.10125
1843.15685,564.39318
1845.22431,563.6851
1847.29177,562.97703
1849.35924,562.26896
1851.4267,561.56088
1853.49416,561.56088
1855.56162,561.56088
1857.62909,561.56088
1859.69655,561.56088
1861.76401,561.56088
1863.83147,561.56088
1865.89894,561.56088
1867.9664,561.56088
1870.03386,561.56088
1872.10132,561.56088
1874.16879,561.56088
1876.23625,561.56088
1878.30371,561.56088
1880.37117,561.56088
1882.43864,561.56088
1884.5061,561.56088
1886.57356,561.56088
1888.64102,561.56088
1890.70849,561.56088
1892.77595,561.56088
1894.84341,561.56088
1896.91087,561.56088
1898.97834,561.56088
1901.0458,561.56088
1903.11326,561.56088
1905.18072,561.56088
1907.24819,561.56088
1909.31565,561.56088
1911.38311,561.56088
1913.45057,561.56088
1915.51804,561.56088
1917.5855,561.56088
1919.65296,561.56088
1921.72042,561.56088
1923.78789,562.26896
1925.85535,562.26896
1927.92281,562.26896
1929.99027,562.26896
1932.05774,562.26896
1934.1252,562.26896
1936.19266,562.26896
1938.26012,562.26896
1940.32759,562.26896
1942.39505,562.26896
1944.46251,562.97703
1946.52997,563.6851
1948.59744,564.39318
1950.6649,564.39318
1952.73236,564.39318
1954.79982,564.39318
1956.86729,564.39318
1958.93475,564.39318
1961.00221,563.6851
1963.06967,562.97703
1965.13714,562.26896
1967.2046,561.56088
1969.27206,561.56088
1971.33952,561.56088
1973.40699,561.56088
1975.47445,561.56088
1977.54191,561.56088
1979.60937,561.56088
1981.67684,561.56088
1983.7443,561.56088
1985.81176,561.56088
1987.87922,561.56088
1989.94669,561.56088
1992.01415,561.56088
1994.08161,561.56088
1996.14907,561.56088
1998.21653,561.56088
2000.284,561.56088
2002.35146,561.56088
2004.41892,561.56088
2006.48638,561.56088
2008.55385,561.56088
2010.62131,561.56088
2012.68877,561.56088
2014.75623,561.56088
2016.8237,561.56088
2018.89116,561.56088
2020.95862,561.56088
2023.02608,561.56088
2025.09355,561.56088
2027.16101,561.56088
2029.22847,561.56088
2031.29593,561.56088
2033.3634,561.56088
2035.43086,561.56088
2037.49832,561.56088
2039.56578,561.56088
2041.63325,561.56088
2043.70071,561.56088
2045.76817,561.56088
2047.83563,561.56088
2049.9031,561.56088
2051.97056,561.56088
2054.03802,561.56088
2056.10548,561.56088
2058.17295,561.56088
2060.24041,561.56088
2062.30787,561.56088
2064.37533,561.56088
2066.4428,561.56088
2068.51026,561.56088
2070.57772,561.56088
2072.64518,561.56088
2074.71265,561.56088
2076.78011,561.56088
2078.84757,561.56088
2080.91503,561.56088
2082.9825,561.56088
2085.04996,561.56088
2087.11742,561.56088
2089.18488,561.56088
2091.25235,561.56088
2093.31981,561.56088
2095.38727,561.56088
2097.45473,561.56088
2099.5222,561.56088
2101.58966,561.56088
2103.65712,561.56088
2105.72458,561.56088
2107.79205,561.56088
2109.85951,561.56088
2111.92697,561.56088
2113.99443,561.56088
2116.0619,561.56088
2118.12936,561.56088
2120.19682,562.26896
2122.26428,562.97703
2124.33175,563.6851
2126.39921,563.6851
2128.46667,563.6851
2130.53413,563.6851
2132.6016,563.6851
2134.66906,563.6851
2136.73652,563.6851
2138.80398,562.97703
2140.87145,562.26896
2142.93891,561.56088
2145.00637,561.56088
2147.07383,561.56088
2149.1413,561.56088
2151.20876,561.56088
2153.27622,561.56088
2155.34368,561.56088
2157.41115,561.56088
2159.47861,561.56088
2161.54607,561.56088
2163.61353,561.56088
2165.681,561.56088
2167.74846,561.56088
2169.81592,561.56088
2171.88338,561.56088
2173.95085,561.56088
2176.01831,561.56088
2178.08577,561.56088
2180.15323,561.56088
2182.2207,562.26896
2184.28816,562.26896
2186.35562,562.26896
2188.42308,562.26896
2190.49054,562.26896
2192.55801,562.26896
2194.62547,562.26896
2196.69293,562.26896
2198.76039,562.26896
2200.82786,562.26896
2202.89532,562.26896
2204.96278,562.26896
2207.03024,562.26896
2209.09771,562.26896
2211.16517,562.26896
2213.23263,562.26896
2215.30009,562.26896
2217.36756,562.26896
2219.43502,562.26896
2221.50248,562.97703
2223.56994,563.6851
2225.63741,564.39318
2227.70487,565.10125
2229.77233,565.80932
2231.83979,565.80932
2233.90726,565.80932
2235.97472,565.80932
2238.04218,565.80932
2240.10964,565.80932
2242.17711,565.10125
2244.24457,565.10125
2246.31203,565.10125
2248.37949,565.10125
2250.44696,565.80932
2252.51442,565.80932
2254.58188,565.80932
2256.64934,565.10125
2258.71681,565.10125
2260.78427,565.10125
2262.85173,565.10125
2264.91919,565.10125
2266.98666,565.10125
2269.05412,565.10125
2271.12158,565.10125
2273.18904,565.10125
2275.25651,564.39318
2277.32397,563.6851
2279.39143,562.97703
2281.45889,562.26896
2283.52636,561.56088
2285.59382,561.56088
2287.66128,561.56088
2289.72874,561.56088
2291.79621,561.56088
2293.86367,561.56088
2295.93113,561.56088
2297.99859,561.56088
2300.06606,561.56088
2302.13352,561.56088
2304.20098,561.56088
2306.26844,561.56088
2308.33591,561.56088
2310.40337,561.56088
2312.47083,561.56088
2314.53829,561.56088
2316.60576,561.56088
2318.67322,561.56088
2320.74068,561.56088
2322.80814,561.56088
2324.87561,561.56088
2326.94307,561.56088
2329.01053,561.56088
2331.07799,561.56088
2333.14546,561.56088
2335.21292,561.56088
2337.28038,561.56088
2339.34784,561.56088
2341.41531,561.56088
2343.48277,561.56088
2345.55023,561.56088
2347.61769,561.56088
2349.68516,561.56088
2351.75262,561.56088
2353.82008,561.56088
2355.88754,561.56088
2357.95501,561.56088
2360.02247,561.56088
2362.08993,561.56088
2364.15739,561.56088
2366.22486,561.56088
2368.29232,561.56088
2370.35978,561.56088
2372.42724,561.56088
2374.49471,561.56088
2376.56217,561.56088
2378.62963,561.56088
2380.69709,561.56088
2382.76455,561.56088
2384.83202,561.56088
2386.89948,561.56088
2388.96694,561.56088
2391.0344,561.56088
2393.10187,561.56088
2395.16933,561.56088
2397.23679,561.56088
2399.30425,561.56088
2401.37172,561.56088
2403.43918,561.56088
2405.50664,561.56088
2407.5741,561.56088
2409.64157,561.56088
2411.70903,561.56088
2413.77649,561.56088
2415.84395,561.56088
2417.91142,561.56088
2419.97888,561.56088
2422.04634,561.56088
2424.1138,561.56088
2426.18127,561.56088
2428.24873,561.56088
2430.31619,561.56088
2432.38365,561.56088
2434.45112,561.56088
2436.51858,561.56088
2438.58604,561.56088
2440.6535,561.56088
2442.72097,561.56088
2444.78843,561.56088
2446.85589,561.56088
2448.92335,561.56088
2450.99082,561.56088
2453.05828,561.56088
2455.12574,561.56088
2457.1932,561.56088
2459.26067,561.56088
2461.32813,561.56088
2463.39559,561.56088
2465.46305,561.56088
2467.53052,561.56088
2469.59798,561.56088
2471.66544,561.56088
2473.7329,561.56088
2475.80037,561.56088
2477.86783,561.56088
2479.93529,561.56088
2482.00275,561.56088
2484.07022,561.56088
2486.13768,561.56088
2488.20514,561.56088
2490.2726,561.56088
2492.34007,561.56088
2494.40753,561.56088
2496.47499,561.56088
2498.54245,561.56088
2500.60992,561.56088
2502.67738,561.56088
2504.74484,561.56088
2506.8123,561.56088
2508.87977,561.56088
2510.94723,561.56088
2513.01469,561.56088
2515.08215,561.56088
2517.14962,561.56088
2519.21708,561.56088
2521.28454,561.56088
2523.352,561.56088
2525.41947,561.56088
2527.48693,561.56088
2529.55439,561.56088
2531.62185,561.56088
2533.68932,561.56088
2535.75678,561.56088
2537.82424,561.56088
2539.8917,561.56088
2541.95917,561.56088
2544.02663,561.56088
2546.09409,561.56088
2548.16155,561.56088
2550.22902,561.56088
2552.29648,561.56088
2554.36394,561.56088
2556.4314,561.56088
2558.49887,561.56088
2560.56633,561.56088
2562.63379,561.56088
2564.70125,561.56088
2566.76872,561.56088
2568.83618,561.56088
2570.90364,561.56088
2572.9711,561.56088
2575.03857,561.56088
2577.10603,561.56088
2579.17349,561.56088
2581.24095,561.56088
2583.30841,561.56088
2585.37588,561.56088
2587.44334,561.56088
2589.5108,561.56088
2591.57826,561.56088
2593.64573,561.56088
2595.71319,561.56088
2597.78065,561.56088
2599.84811,561.56088
2601.91558,561.56088
2603.98304,561.56088
2606.0505,561.56088
2608.11796,561.56088
2610.18543,561.56088
2612.25289,561.56088
2614.32035,561.56088
2616.38781,561.56088
2618.45528,561.56088
2620.52274,561.56088
2622.5902,561.56088
2624.65766,561.56088
2626.72513,561.56088
2628.79259,561.56088
2630.86005,561.56088
2632.92751,561.56088
2634.99498,561.56088
2637.06244,561.56088
2639.1299,561.56088
2641.19736,561.56088
2643.26483,561.56088
2645.33229,561.56088
2647.39975,561.56088
2649.46721,561.56088
2651.53468,561.56088
2653.60214,561.56088
2655.6696,561.56088
2657.73706,561.56088
2659.80453,561.56088
2661.87199,561.56088
2663.93945,561.56088
2666.00691,561.56088
2668.07438,561.56088
2670.14184,561.56088
2672.2093,561.56088
2674.27676,561.56088
2676.34423,561.56088
2678.41169,561.56088
2680.47915,561.56088
2682.54661,561.56088
2684.61408,561.56088
2686.68154,561.56088
2688.749,561.56088
2690.81646,561.56088
2692.88393,561.56088
2694.95139,561.56088
2697.01885,561.56088
2699.08631,561.56088
2701.15378,561.56088
2703.22124,561.56088
2705.2887,561.56088
2707.35616,561.56088
2709.42363,561.56088
2711.49109,561.56088
2713.55855,561.56088
2715.62601,561.56088
2717.69348,561.56088
2719.76094,561.56088
2721.8284,561.56088
2723.89586,561.56088
2725.96333,561.56088
2728.03079,561.56088
2730.09825,561.56088
2732.16571,561.56088
2734.23318,561.56088
2736.30064,561.56088
2738.3681,561.56088
2740.43556,561.56088
2742.50303,561.56088
2744.57049,561.56088
2746.63795,561.56088
2748.70541,561.56088
2750.77288,561.56088
2752.84034,561.56088
2754.9078,561.56088
2756.97526,561.56088
2759.04273,561.56088
2761.11019,561.56088
2763.17765,561.56088
2765.24511,561.56088
2767.31258,561.56088
2769.38004,561.56088
2771.4475,561.56088
2773.51496,561.56088
2775.58242,561.56088
2777.64989,561.56088
2779.71735,561.56088
2781.78481,561.56088
2783.85227,561.56088
2785.91974,561.56088
2787.9872,561.56088
2790.05466,561.56088
2792.12212,561.56088
2794.18959,561.56088
2796.25705,561.56088
2798.32451,561.56088
2800.39197,561.56088
2802.45944,561.56088
2804.5269,561.56088
2806.59436,561.56088
2808.66182,561.56088
2810.72929,561.56088
2812.79675,561.56088
2814.86421,561.56088
2816.93167,561.56088
2818.99914,561.56088
2821.0666,561.56088
2823.13406,561.56088
2825.20152,561.56088
2827.26899,561.56088
2829.33645,561.56088
2831.40391,561.56088
2833.47137,561.56088
2835.53884,561.56088
2837.6063,561.56088
2839.67376,561.56088
2841.74122,561.56088
2843.80869,561.56088
2845.87615,561.56088
2847.94361,561.56088
2850.01107,561.56088
2852.07854,561.56088
2854.146,561.56088
2856.21346,561.56088
2858.28092,561.56088
2860.34839,561.56088
2862.41585,561.56088
2864.48331,561.56088
2866.55077,561.56088
2868.61824,561.56088
2870.6857,561.56088
2872.75316,561.56088
2874.82062,561.56088
2876.88809,561.56088
2878.95555,561.56088
2881.02301,561.56088
2883.09047,561.56088
2885.15794,561.56088
2887.2254,561.56088
2889.29286,561.56088
2891.36032,561.56088
2893.42779,561.56088
2895.49525,561.56088
2897.56271,561.56088
2899.63017,561.56088
2901.69764,561.56088
2903.7651,561.56088
2905.83256,561.56088
2907.90002,561.56088
2909.96749,561.56088
2912.03495,561.56088
2914.10241,561.56088
2916.16987,561.56088
2918.23734,561.56088
2920.3048,561.56088
2922.37226,561.56088
2924.43972,561.56088
2926.50719,561.56088
2928.57465,561.56088
2930.64211,561.56088
2932.70957,561.56088
2934.77704,561.56088
2936.8445,561.56088
2938.91196,561.56088
2940.97942,561.56088
2943.04689,561.56088
2945.11435,561.56088
2947.18181,561.56088
2949.24927,561.56088
2951.31674,561.56088
2953.3842,561.56088
2955.45166,561.56088
2957.51912,561.56088
2959.58659,561.56088
2961.65405,561.56088
2963.72151,561.56088
2965.78897,561.56088
2967.85643,561.56088
2969.9239,561.56088
2971.99136,561.56088
2974.05882,561.56088
2976.12628,561.56088
2978.19375,561.56088
2980.26121,562.26896
2982.32867,562.26896
2984.39613,562.26896
2986.4636,562.26896
2988.53106,562.26896
2990.59852,562.26896
2992.66598,562.26896
2994.73345,562.26896
2996.80091,562.26896
2998.86837,562.26896
3000.93583,562.97703
3003.0033,563.6851
3005.07076,562.97703
3007.13822,562.26896
3009.20568,561.56088
3011.27315,561.56088
3013.34061,562.26896
3015.40807,562.97703
3017.47553,563.6851
3019.543,563.6851
3021.61046,563.6851
3023.67792,563.6851
3025.74538,563.6851
3027.81285,563.6851
3029.88031,563.6851
3031.94777,562.97703
3034.01523,562.26896
3036.0827,561.56088
3038.15016,561.56088
3040.21762,561.56088
3042.28508,561.56088
3044.35255,561.56088
3046.42001,561.56088
3048.48747,561.56088
3050.55493,562.26896
3052.6224,562.26896
3054.68986,562.26896
3056.75732,562.26896
3058.82478,562.26896
3060.89225,562.26896
3062.95971,562.26896
3065.02717,562.26896
3067.09463,562.26896
3069.1621,562.26896
3071.22956,562.97703
3073.29702,563.6851
3075.36448,564.39318
3077.43195,564.39318
3079.49941,564.39318
3081.56687,564.39318
3083.63433,564.39318
3085.7018,564.39318
3087.76926,563.6851
3089.83672,562.97703
3091.90418,562.26896
3093.97165,561.56088
3096.03911,561.56088
3098.10657,561.56088
3100.17403,561.56088
3102.2415,561.56088
3104.30896,561.56088
3106.37642,561.56088
3108.44388,561.56088
3110.51135,561.56088
3112.57881,561.56088
3114.64627,561.56088
3116.71373,561.56088
3118.7812,561.56088
3120.84866,561.56088
3122.91612,561.56088
3124.98358,561.56088
3127.05105,561.56088
3129.11851,561.56088
3131.18597,561.56088
3133.25343,561.56088
3135.3209,561.56088
3137.38836,561.56088
3139.45582,561.56088
3141.52328,561.56088
3143.59075,561.56088
3145.65821,561.56088
3147.72567,561.56088
3149.79313,561.56088
3151.8606,561.56088
3153.92806,561.56088
3155.99552,561.56088
3158.06298,561.56088
3160.13044,561.56088
3162.19791,561.56088
3164.26537,561.56088
3166.33283,561.56088
3168.40029,561.56088
3170.46776,561.56088
3172.53522,561.56088
3174.60268,561.56088
3176.67014,561.56088
3178.73761,561.56088
3180.80507,561.56088
3182.87253,561.56088
3184.93999,561.56088
3187.00746,561.56088
3189.07492,561.56088
3191.14238,561.56088
3193.20984,561.56088
3195.27731,561.56088
3197.34477,561.56088
3199.41223,561.56088
3201.47969,561.56088
3203.54716,561.56088
3205.61462,561.56088
3207.68208,561.56088
3209.74954,561.56088
3211.81701,561.56088
3213.88447,561.56088
3215.95193,561.56088
3218.01939,561.56088
3220.08686,561.56088
3222.15432,561.56088
3224.22178,561.56088
3226.28924,561.56088
3228.35671,561.56088
3230.42417,561.56088
3232.49163,561.56088
3234.55909,561.56088
3236.62656,561.56088
3238.69402,561.56088
3240.76148,561.56088
3242.82894,561.56088
3244.89641,561.56088
3246.96387,561.56088
3249.03133,561.56088
3251.09879,561.56088
3253.16626,561.56088
3255.23372,561.56088
3257.30118,561.56088
3259.36864,561.56088
3261.43611,561.56088
3263.50357,561.56088
3265.57103,561.56088
3267.63849,561.56088
3269.70596,561.56088
3271.77342,561.56088
3273.84088,561.56088
3275.90834,561.56088
3277.97581,561.56088
3280.04327,561.56088
3282.11073,561.56088
3284.17819,561.56088
3286.24566,561.56088
3288.31312,561.56088
3290.38058,561.56088
3292.44804,561.56088
3294.51551,561.56088
3296.58297,561.56088
3298.65043,561.56088
3300.71789,561.56088
3302.78536,561.56088
3304.85282,561.56088
3306.92028,561.56088
3308.98774,561.56088
3311.05521,561.56088
3313.12267,561.56088
3315.19013,561.56088
3317.25759,561.56088
3319.32506,561.56088
3321.39252,561.56088
3323.45998,561.56088
3325.52744,561.56088
3327.59491,561.56088
3329.66237,561.56088
3331.72983,561.56088
3333.79729,561.56088
3335.86476,561.56088
3337.93222,561.56088
3339.99968,561.56088
3342.06714,561.56088
3344.13461,561.56088
3346.20207,561.56088
3348.26953,561.56088
3350.33699,561.56088
3352.40445,561.56088
3354.47192,561.56088
3356.53938,561.56088
3358.60684,561.56088
3360.6743,561.56088
3362.74177,561.56088
3364.80923,561.56088
3366.87669,561.56088
3368.94415,561.56088
3371.01162,561.56088
3373.07908,561.56088
3375.14654,561.56088
3377.214,561.56088
3379.28147,561.56088
3381.34893,561.56088
3383.41639,561.56088
3385.48385,561.56088
3387.55132,561.56088
3389.61878,561.56088
3391.68624,561.56088
3393.7537,561.56088
3395.82117,561.56088
3397.88863,561.56088
3399.95609,561.56088
3402.02355,561.56088
3404.09102,561.56088
3406.15848,561.56088
3408.22594,561.56088
3410.2934,561.56088
3412.36087,561.56088
3414.42833,561.56088
3416.49579,561.56088
3418.56325,561.56088
3420.63072,561.56088
3422.69818,561.56088
3424.76564,561.56088
3426.8331,561.56088
3428.90057,561.56088
3430.96803,561.56088
3433.03549,561.56088
3435.10295,561.56088
3437.17042,561.56088
3439.23788,561.56088
3441.30534,561.56088
3443.3728,561.56088
3445.44027,561.56088
3447.50773,561.56088
3449.57519,561.56088
3451.64265,561.56088
3453.71012,561.56088
3455.77758,561.56088
3457.84504,561.56088
3459.9125,561.56088
3461.97997,561.56088
3464.04743,561.56088
3466.11489,561.56088
3468.18235,561.56088
3470.24982,561.56088
3472.31728,561.56088
3474.38474,561.56088
3476.4522,561.56088
3478.51967,561.56088
3480.58713,561.56088
3482.65459,561.56088
3484.72205,561.56088
3486.78952,561.56088
3488.85698,561.56088
3490.92444,561.56088
3492.9919,561.56088
3495.05937,561.56088
3497.12683,561.56088
3499.19429,561.56088
3501.26175,561.56088
3503.32922,561.56088
3505.39668,561.56088
3507.46414,561.56088
3509.5316,561.56088
3511.59907,561.56088
3513.66653,561.56088
3515.73399,561.56088
3517.80145,561.56088
3519.86892,561.56088
3521.93638,561.56088
3524.00384,561.56088
3526.0713,561.56088
3528.13877,561.56088
3530.20623,561.56088
3532.27369,561.56088
3534.34115,561.56088
3536.40862,561.56088
3538.47608,561.56088
3540.54354,561.56088
3542.611,561.56088
3544.67846,561.56088
3546.74593,561.56088
3548.81339,561.56088
3550.88085,561.56088
3552.94831,561.56088
3555.01578,561.56088
3557.08324,561.56088
3559.1507,561.56088
3561.21816,561.56088
3563.28563,561.56088
3565.35309,561.56088
3567.42055,561.56088
3569.48801,561.56088
3571.55548,561.56088
3573.62294,561.56088
3575.6904,561.56088
3577.75786,561.56088
3579.82533,561.56088
3581.89279,561.56088
3583.96025,561.56088
3586.02771,561.56088
3588.09518,561.56088
3590.16264,561.56088
3592.2301,561.56088
3594.29756,561.56088
3596.36503,561.56088
3598.43249,561.56088
3600.49995,561.56088
3602.56741,561.56088
3604.63488,561.56088
3606.70234,561.56088
3608.7698,561.56088
3610.83726,561.56088
3612.90473,561.56088
3614.97219,561.56088
3617.03965,561.56088
3619.10711,561.56088
3621.17458,561.56088
3623.24204,561.56088
3625.3095,561.56088
3627.37696,561.56088
3629.44443,561.56088
3631.51189,561.56088
3633.57935,561.56088
3635.64681,561.56088
3637.71428,561.56088
3639.78174,561.56088
3641.8492,561.56088
3643.91666,561.56088
3645.98413,561.56088
3648.05159,561.56088
3650.11905,561.56088
3652.18651,561.56088
3654.25398,561.56088
3656.32144,561.56088
3658.3889,561.56088
3660.45636,561.56088
3662.52383,561.56088
3664.59129,561.56088
3666.65875,561.56088
3668.72621,561.56088
3670.79368,561.56088
3672.86114,561.56088
3674.9286,561.56088
3676.99606,561.56088
3679.06353,561.56088
3681.13099,561.56088
3683.19845,561.56088
3685.26591,561.56088
3687.33338,561.56088
3689.40084,561.56088
3691.4683,561.56088
3693.53576,561.56088
3695.60323,561.56088
3697.67069,561.56088
3699.73815,561.56088
3701.80561,561.56088
3703.87308,561.56088
3705.94054,561.56088
3708.008,561.56088
3710.07546,561.56088
3712.14293,561.56088
3714.21039,561.56088
3716.27785,561.56088
3718.34531,561.56088
3720.41278,561.56088
3722.48024,561.56088
3724.5477,561.56088
3726.61516,561.56088
3728.68263,561.56088
3730.75009,561.56088
3732.81755,561.56088
3734.88501,561.56088
3736.95248,561.56088
3739.01994,561.56088
3741.0874,561.56088
3743.15486,561.56088
3745.22232,561.56088
3747.28979,561.56088
3749.35725,561.56088
3751.42471,561.56088
3753.49217,561.56088
3755.55964,561.56088
3757.6271,561.56088
3759.69456,561.56088
3761.76202,561.56088
3763.82949,561.56088
3765.89695,561.56088
3767.96441,561.56088
3770.03187,561.56088
3772.09934,561.56088
3774.1668,561.56088
3776.23426,561.56088
3778.30172,561.56088
3780.36919,561.56088
3782.43665,561.56088
3784.50411,561.56088
3786.57157,561.56088
3788.63904,561.56088
3790.7065,561.56088
3792.77396,561.56088
3794.84142,561.56088
3796.90889,561.56088
3798.97635,561.56088
3801.04381,561.56088
3803.11127,561.56088
3805.17874,561.56088
3807.2462,561.56088
3809.31366,561.56088
3811.38112,561.56088
3813.44859,561.56088
3815.51605,561.56088
3817.58351,561.56088
3819.65097,561.56088
3821.71844,561.56088
3823.7859,561.56088
3825.85336,561.56088
3827.92082,561.56088
3829.98829,561.56088
3832.05575,561.56088
3834.12321,561.56088
3836.19067,561.56088
3838.25814,561.56088
3840.3256,561.56088
3842.39306,561.56088
3844.46052,561.56088
3846.52799,561.56088
3848.59545,561.56088
3850.66291,561.56088
3852.73037,561.56088
3854.79784,561.56088
3856.8653,561.56088
3858.93276,561.56088
3861.00022,561.56088
3863.06769,561.56088
3865.13515,561.56088
3867.20261,561.56088
3869.27007,561.56088
3871.33754,561.56088
3873.405,561.56088
3875.47246,561.56088
3877.53992,561.56088
3879.60739,561.56088
3881.67485,561.56088
3883.74231,561.56088
3885.80977,561.56088
3887.87724,561.56088
3889.9447,561.56088
3892.01216,561.56088
3894.07962,561.56088
3896.14709,561.56088
3898.21455,561.56088
3900.28201,561.56088
3902.34947,561.56088
3904.41694,561.56088
3906.4844,561.56088
3908.55186,561.56088
3910.61932,561.56088
3912.68679,561.56088
3914.75425,561.56088
3916.82171,561.56088
3918.88917,561.56088
3920.95664,561.56088
3923.0241,561.56088
3925.09156,561.56088
3927.15902,561.56088
3929.22649,561.56088
3931.29395,561.56088
3933.36141,561.56088
3935.42887,561.56088
3937.49633,561.56088
3939.5638,561.56088
3941.63126,561.56088
3943.69872,561.56088
3945.76618,561.56088
3947.83365,561.56088
3949.90111,561.56088
3951.96857,561.56088
3954.03603,561.56088
3956.1035,561.56088
3958.17096,561.56088
3960.23842,561.56088
3962.30588,561.56088
3964.37335,561.56088
3966.44081,561.56088
3968.50827,561.56088
3970.57573,561.56088
3972.6432,561.56088
3974.71066,561.56088
3976.77812,561.56088
3978.84558,561.56088
3980.91305,561.56088
3982.98051,561.56088
3985.04797,561.56088
3987.11543,562.26896
3989.1829,562.97703
3991.25036,562.97703
3993.31782,562.97703
3995.38528,562.97703
3997.45275,562.97703
3999.52021,562.97703
4001.58767,562.97703
4003.65513,562.97703
4005.7226,562.97703
