Raman Shift,Intensity 
400,2.391309508
401,2.396511452
402,2.393973205
403,2.408952959
404,2.409583492
405,2.395070879
406,2.39252582
407,2.405466532
408,2.424426385
409,2.406526821
410,2.374744625
411,2.413873083
412,2.384321899
413,2.455034522
414,2.422678369
415,2.422308681
416,2.405226563
417,2.433146429
418,2.413752509
419,2.418955579
420,2.39746899
421,2.403770217
422,2.413132138
423,2.397240688
424,2.391424198
425,2.377415676
426,2.388477207
427,2.391102978
428,2.38235448
429,2.39827323
430,2.363228689
431,2.384770207
432,2.412149772
433,2.404513432
434,2.432698706
435,2.399312013
436,2.389869665
437,2.372064703
438,2.360422299
439,2.380874793
440,2.436454936
441,2.377086637
442,2.405254839
443,2.404497011
444,2.406364402
445,2.434125674
446,2.376597113
447,2.412242936
448,2.422552249
449,2.403770707
450,2.378846176
451,2.419404941
452,2.400189671
453,2.406480202
454,2.37622097
455,2.470899652
456,2.414470541
457,2.400097612
458,2.413386553
459,2.364091299
460,2.416366401
461,2.39393227
462,2.388055631
463,2.435167981
464,2.405077444
465,2.407995406
466,2.428334093
467,2.404437807
468,2.371349605
469,2.367989266
470,2.381515954
471,2.379971283
472,2.411169158
473,2.393125196
474,2.394290554
475,2.386374383
476,2.399346697
477,2.387689021
478,2.385541821
479,2.374342986
480,2.382946992
481,2.399550286
482,2.414390075
483,2.372519249
484,2.389435202
485,2.414171361
486,2.408248821
487,2.412460954
488,2.38543739
489,2.389645311
490,2.423375294
491,2.430203365
492,2.435900846
493,2.431532466
494,2.395095611
495,2.394500578
496,2.382663408
497,2.382705608
498,2.406679739
499,2.422314887
500,2.398392138
501,2.39817979
502,2.414793871
503,2.400915531
504,2.396939011
505,2.436579767
506,2.40203464
507,2.412010906
508,2.406960636
509,2.40233544
510,2.401719486
511,2.424235356
512,2.401638241
513,2.393268625
514,2.357904296
515,2.398619887
516,2.397845466
517,2.435209362
518,2.379757893
519,2.404170086
520,2.368892768
521,2.426068545
522,2.358747859
523,2.39329406
524,2.383659314
525,2.405072141
526,2.423982469
527,2.412541036
528,2.37062526
529,2.403124044
530,2.395386588
531,2.391731539
532,2.406030598
533,2.419922678
534,2.38607366
535,2.39680684
536,2.449460566
537,2.388375408
538,2.372992411
539,2.416260421
540,2.390790179
541,2.383817228
542,2.369395126
543,2.413213342
544,2.407939048
545,2.33547836
546,2.387372306
547,2.402876401
548,2.410601645
549,2.417277158
550,2.404328902
551,2.420166986
552,2.423251208
553,2.407588349
554,2.41850891
555,2.40906475
556,2.394529826
557,2.424674804
558,2.40562579
559,2.429546029
560,2.404223999
561,2.4086227
562,2.426553106
563,2.378377236
564,2.386744961
565,2.402173259
566,2.379138503
567,2.404732227
568,2.365570981
569,2.42792904
570,2.378312693
571,2.385630132
572,2.398989185
573,2.385897341
574,2.437627127
575,2.418467013
576,2.368309549
577,2.435616723
578,2.42684435
579,2.364164603
580,2.378103682
581,2.430592016
582,2.414920774
583,2.389645306
584,2.36777811
585,2.387442452
586,2.389577927
587,2.404171539
588,2.374257512
589,2.436542583
590,2.393273577
591,2.457293204
592,2.41361152
593,2.401392087
594,2.415280098
595,2.397660342
596,2.411539341
597,2.442194528
598,2.433666949
599,2.367331776
600,2.4093558
601,2.405627766
602,2.416867924
603,2.393705192
604,2.414448484
605,2.396642829
606,2.415314672
607,2.423431382
608,2.409835076
609,2.390785705
610,2.38381508
611,2.385860503
612,2.40042702
613,2.401635117
614,2.403847455
615,2.396810506
616,2.384287451
617,2.391452584
618,2.383234543
619,2.4116512
620,2.418080582
621,2.438055345
622,2.384133801
623,2.428521896
624,2.397766228
625,2.409347098
626,2.398757676
627,2.405850504
628,2.402575136
629,2.393863258
630,2.391881149
631,2.406584686
632,2.412932363
633,2.389835706
634,2.406774585
635,2.373070872
636,2.378122811
637,2.411309651
638,2.423767155
639,2.406283171
640,2.403165838
641,2.38734505
642,2.393384884
643,2.398376865
644,2.420742411
645,2.393572415
646,2.401677745
647,2.382048642
648,2.42100964
649,2.392012326
650,2.381944632
651,2.392457708
652,2.400351267
653,2.373287933
654,2.358884661
655,2.381206724
656,2.377536205
657,2.398140196
658,2.427176685
659,2.396129973
660,2.411315815
661,2.424906999
662,2.418157336
663,2.37716092
664,2.3705824
665,2.408528613
666,2.403860427
667,2.410556457
668,2.420421805
669,2.4044567
670,2.404146402
671,2.389699052
672,2.404983
673,2.428298346
674,2.389726659
675,2.380143282
676,2.385756904
677,2.438625688
678,2.390496706
679,2.377496143
680,2.373643448
681,2.412684326
682,2.396563514
683,2.380438112
684,2.378530247
685,2.379110269
686,2.367248335
687,2.386100762
688,2.385584611
689,2.35112829
690,2.39334732
691,2.397076869
692,2.375486775
693,2.394974906
694,2.432670289
695,2.412001296
696,2.391684227
697,2.426534851
698,2.405321515
699,2.360935418
700,2.406102617
701,2.418696326
702,2.399676995
703,2.417152023
704,2.390509762
705,2.40099173
706,2.39642694
707,2.391723101
708,2.426048081
709,2.407921935
710,2.444732805
711,2.391364714
712,2.38656964
713,2.429232136
714,2.407292005
715,2.442741581
716,2.397358627
717,2.378963384
718,2.397447349
719,2.389577296
720,2.405968886
721,2.419435824
722,2.417750782
723,2.435126484
724,2.401912797
725,2.391719194
726,2.390611076
727,2.406096621
728,2.393885823
729,2.411353459
730,2.391194616
731,2.364960326
732,2.394116075
733,2.371418146
734,2.386173336
735,2.415744029
736,2.416093603
737,2.376231022
738,2.401524367
739,2.417886539
740,2.423214589
741,2.396001892
742,2.41216134
743,2.381595322
744,2.409145677
745,2.384451668
746,2.42115845
747,2.379463564
748,2.346830746
749,2.381270578
750,2.366896924
751,2.38137282
752,2.38722185
753,2.405797549
754,2.43756855
755,2.39004274
756,2.385606139
757,2.39939833
758,2.387906635
759,2.397659261
760,2.40148019
761,2.405177061
762,2.360986199
763,2.415266407
764,2.385492595
765,2.375728029
766,2.400961552
767,2.391803948
768,2.414794868
769,2.390021709
770,2.423385225
771,2.40740276
772,2.409821287
773,2.391751972
774,2.416600397
775,2.38362329
776,2.426783515
777,2.4131236
778,2.389191997
779,2.379446612
780,2.410998945
781,2.418909865
782,2.395422517
783,2.381433974
784,2.406965397
785,2.421613998
786,2.392465789
787,2.382736831
788,2.391358946
789,2.385367099
790,2.391276955
791,2.381758563
792,2.340666508
793,2.373349021
794,2.411489515
795,2.382591675
796,2.384286393
797,2.409199746
798,2.395356873
799,2.354513707
800,2.377752408
801,2.34793095
802,2.411953547
803,2.396745958
804,2.39296192
805,2.417673518
806,2.402212743
807,2.39691008
808,2.392865102
809,2.360019492
810,2.384445744
811,2.420159469
812,2.435622223
813,2.4020854
814,2.432316029
815,2.39148073
816,2.393908906
817,2.435683836
818,2.40215698
819,2.419789965
820,2.396574546
821,2.390404888
822,2.378079717
823,2.413321118
824,2.4341701
825,2.382596566
826,2.375173329
827,2.423219304
828,2.413246556
829,2.430944972
830,2.414635102
831,2.377948942
832,2.405607321
833,2.366267956
834,2.422251024
835,2.401934572
836,2.432069626
837,2.39950572
838,2.41338887
839,2.435034256
840,2.394077082
841,2.385441301
842,2.409789597
843,2.373556986
844,2.381086382
845,2.431797339
846,2.398040418
847,2.421123013
848,2.383643094
849,2.412922846
850,2.416805546
851,2.384576637
852,2.397212306
853,2.406523679
854,2.414870541
855,2.39336062
856,2.416055383
857,2.431128134
858,2.420226315
859,2.432326118
860,2.384218104
861,2.430663008
862,2.433141438
863,2.470679247
864,2.445493055
865,2.450911
866,2.473662753
867,2.458654341
868,2.473388085
869,2.443658781
870,2.454991675
871,2.470451101
872,2.510999086
873,2.508344634
874,2.470083688
875,2.547866014
876,2.506233733
877,2.512849044
878,2.51569663
879,2.547857841
880,2.560057584
881,2.51378573
882,2.602037287
883,2.593580064
884,2.626175677
885,2.638426725
886,2.671279716
887,2.65356167
888,2.656583171
889,2.728207718
890,2.727688857
891,2.765839211
892,2.752792818
893,2.810607218
894,2.777849273
895,2.829771744
896,2.850958854
897,2.896634289
898,2.894662429
899,2.899312982
900,2.955097293
901,2.945502819
902,3.001888461
903,2.993726532
904,3.033348413
905,3.037991115
906,3.082315771
907,3.136326825
908,3.120244068
909,3.149009129
910,3.146905322
911,3.187500577
912,3.25915073
913,3.216057852
914,3.267540277
915,3.317639087
916,3.24287182
917,3.269367358
918,3.289126456
919,3.403528335
920,3.337496612
921,3.366442606
922,3.36083218
923,3.359171598
924,3.389449394
925,3.44031362
926,3.379933694
927,3.403618502
928,3.401800717
929,3.373469338
930,3.381192811
931,3.378083197
932,3.387880317
933,3.412355498
934,3.367229616
935,3.345092549
936,3.365175961
937,3.33688636
938,3.345544385
939,3.304224049
940,3.291021051
941,3.286944679
942,3.23080552
943,3.244483125
944,3.221562597
945,3.185919549
946,3.153566216
947,3.172376813
948,3.141836282
949,3.10479031
950,3.084757834
951,3.098545452
952,3.038206951
953,2.952045441
954,3.024812825
955,2.940406675
956,2.93816232
957,2.875328009
958,2.899533162
959,2.848903266
960,2.838485971
961,2.818540964
962,2.782666971
963,2.732322602
964,2.764487334
965,2.744993371
966,2.705302733
967,2.711429216
968,2.664423619
969,2.629771461
970,2.624384566
971,2.593076448
972,2.639123955
973,2.60612107
974,2.609006656
975,2.552213316
976,2.560465185
977,2.534218801
978,2.509060718
979,2.545873489
980,2.485984295
981,2.490680652
982,2.52171008
983,2.500438668
984,2.4740636
985,2.476369889
986,2.446655448
987,2.448944721
988,2.474033064
989,2.433409057
990,2.462740159
991,2.444429923
992,2.419222769
993,2.447783211
994,2.446230833
995,2.400546898
996,2.411811145
997,2.406194857
998,2.393517131
999,2.408373013
1000,2.403638736
1001,2.440627307
1002,2.431132357
1003,2.412646209
1004,2.403986175
1005,2.401240258
1006,2.387267774
1007,2.406356313
1008,2.408998559
1009,2.402545045
1010,2.406413687
1011,2.394574268
1012,2.425454302
1013,2.382431668
1014,2.441356871
1015,2.432251795
1016,2.414300796
1017,2.402421272
1018,2.401554059
1019,2.393104115
1020,2.406682059
1021,2.411161429
1022,2.399104097
1023,2.407563514
1024,2.413574828
1025,2.411776459
1026,2.399705382
1027,2.385087399
1028,2.366641109
1029,2.363439712
1030,2.411340509
1031,2.413319996
1032,2.367386862
1033,2.375268666
1034,2.424762882
1035,2.438517228
1036,2.389258298
1037,2.420190101
1038,2.393410656
1039,2.382972225
1040,2.409709165
1041,2.377611175
1042,2.351647025
1043,2.413500715
1044,2.388948732
1045,2.411359136
1046,2.40902243
1047,2.384823537
1048,2.375925502
1049,2.371590107
1050,2.430888365
1051,2.414416112
1052,2.410072681
1053,2.417729035
1054,2.38432925
1055,2.410564727
1056,2.38559942
1057,2.366226271
1058,2.38216024
1059,2.420431392
1060,2.399519468
1061,2.44316113
1062,2.436412074
1063,2.379933933
1064,2.41768599
1065,2.41589195
1066,2.441656718
1067,2.417322108
1068,2.348567054
1069,2.373773527
1070,2.392796935
1071,2.409386221
1072,2.398024309
1073,2.401214878
1074,2.383470116
1075,2.380372956
1076,2.381916193
1077,2.398945819
1078,2.390014655
1079,2.383946665
1080,2.419943116
1081,2.425236623
1082,2.410785163
1083,2.38651937
1084,2.424715913
1085,2.406019852
1086,2.416540539
1087,2.389505247
1088,2.428604189
1089,2.397938969
1090,2.35900909
1091,2.427348313
1092,2.375471121
1093,2.416728049
1094,2.392178042
1095,2.396979989
1096,2.425536598
1097,2.424173856
1098,2.390512119
1099,2.426326242
1100,2.408748863
1101,2.410624264
1102,2.408744442
1103,2.395412569
1104,2.380430304
1105,2.417861625
1106,2.418424992
1107,2.388302655
1108,2.375121904
1109,2.408404047
1110,2.376451134
1111,2.4132845
1112,2.403516398
1113,2.3849133
1114,2.413599056
1115,2.37178131
1116,2.390920924
1117,2.404314811
1118,2.341670469
1119,2.403198451
1120,2.375914452
1121,2.383270584
1122,2.374064008
1123,2.430387076
1124,2.45382466
1125,2.400335828
1126,2.415701384
1127,2.383066205
1128,2.410264856
1129,2.412009239
1130,2.37950975
1131,2.406653936
1132,2.409745179
1133,2.423379833
1134,2.395034026
1135,2.402872198
1136,2.411889502
1137,2.435049713
1138,2.406270339
1139,2.377807357
1140,2.402236709
1141,2.369225136
1142,2.414884957
1143,2.386995522
1144,2.399034472
1145,2.409783542
1146,2.422426914
1147,2.385657291
1148,2.368669028
1149,2.429266952
1150,2.407511039
1151,2.381113955
1152,2.400062871
1153,2.378612424
1154,2.418732228
1155,2.421956993
1156,2.357086742
1157,2.422468399
1158,2.392473633
1159,2.45582795
1160,2.378668173
1161,2.418197926
1162,2.397141037
1163,2.40393922
1164,2.380921789
1165,2.380269458
1166,2.404986687
1167,2.376526702
1168,2.398475639
1169,2.409090914
1170,2.414941365
1171,2.419209439
1172,2.411258838
1173,2.420983924
1174,2.415326651
1175,2.388759519
1176,2.434704531
1177,2.390983012
1178,2.383405321
1179,2.377540349
1180,2.380436994
1181,2.390790848
1182,2.411734101
1183,2.422515626
1184,2.415608898
1185,2.422672744
1186,2.391148637
1187,2.401745562
1188,2.38534293
1189,2.433402132
1190,2.374955473
1191,2.387300943
1192,2.397543829
1193,2.412997208
1194,2.408883602
1195,2.370667086
1196,2.415629226
1197,2.428067216
1198,2.411377485
1199,2.390085187
1200,2.421780368
1201,2.384731634
1202,2.39694707
1203,2.380316254
1204,2.398458841
1205,2.387070429
1206,2.430740681
1207,2.418137564
1208,2.401677776
1209,2.374302594
1210,2.421442126
1211,2.387102849
1212,2.400574711
1213,2.4018335
1214,2.407281642
1215,2.400600541
1216,2.376599358
1217,2.400621839
1218,2.408211763
1219,2.407749593
1220,2.370018928
1221,2.394530271
1222,2.398466129
1223,2.420340378
1224,2.400058775
1225,2.334364142
1226,2.35825124
1227,2.368961195
1228,2.416218173
1229,2.423724118
1230,2.399487194
1231,2.43244353
1232,2.389932392
1233,2.395975796
1234,2.407864139
1235,2.379827707
1236,2.382248247
1237,2.402261765
1238,2.390600557
1239,2.42708333
1240,2.398803414
1241,2.403687599
1242,2.395659323
1243,2.39682862
1244,2.401113333
1245,2.429917445
1246,2.418907959
1247,2.401299762
1248,2.429044943
1249,2.394107554
1250,2.387312583
1251,2.398018517
1252,2.400128056
1253,2.398092332
1254,2.394456409
1255,2.397326959
1256,2.366848539
1257,2.398055495
1258,2.415184255
1259,2.372802601
1260,2.389603109
1261,2.414763893
1262,2.398382263
1263,2.400089318
1264,2.356987576
1265,2.358753947
1266,2.397944191
1267,2.409364175
1268,2.394792661
1269,2.432236722
1270,2.397452534
1271,2.418983347
1272,2.396159386
1273,2.390825653
1274,2.376171064
1275,2.390449828
1276,2.381657256
1277,2.425681983
1278,2.402046451
1279,2.418053033
1280,2.386290878
1281,2.403503346
1282,2.345625746
1283,2.420242495
1284,2.414052448
1285,2.41583207
1286,2.372117855
1287,2.363044004
1288,2.418298804
1289,2.367971358
1290,2.426327648
1291,2.382073536
1292,2.461035061
1293,2.422592141
1294,2.401539592
1295,2.398616543
1296,2.402114218
1297,2.382351732
1298,2.382176042
1299,2.390509664
1300,2.39790162
1301,2.398925858
1302,2.381479206
1303,2.390516623
1304,2.352797537
1305,2.401767906
1306,2.408835316
1307,2.385787756
1308,2.408067181
1309,2.363000779
1310,2.368689102
1311,2.415566912
1312,2.377213655
1313,2.378611008
1314,2.398994642
1315,2.44310709
1316,2.409537458
1317,2.408780663
1318,2.419684406
1319,2.427245925
1320,2.382590647
1321,2.438464835
1322,2.387795091
1323,2.434882214
1324,2.408006484
1325,2.386855209
1326,2.419667462
1327,2.396778685
1328,2.397947145
1329,2.384910858
1330,2.362462485
1331,2.4094125
1332,2.378760182
1333,2.378353599
1334,2.428801411
1335,2.387845204
1336,2.402168459
1337,2.420238284
1338,2.373148701
1339,2.381863622
1340,2.360244084
1341,2.377438888
1342,2.421100389
1343,2.418982882
1344,2.391125954
1345,2.409562038
1346,2.400126102
1347,2.431950418
1348,2.409594661
1349,2.420250587
1350,2.404869972
1351,2.424500195
1352,2.411722721
1353,2.396976584
1354,2.362542659
1355,2.434832751
1356,2.394684208
1357,2.393242148
1358,2.379581605
1359,2.403390703
1360,2.418510682
1361,2.431368083
1362,2.379873887
1363,2.399622692
1364,2.408258948
1365,2.385493569
1366,2.404982236
1367,2.417286906
1368,2.406634114
1369,2.41945292
1370,2.385087226
1371,2.41786249
1372,2.400274819
1373,2.381344127
1374,2.423880301
1375,2.397518534
1376,2.406128117
1377,2.40416315
1378,2.381488014
1379,2.418224634
1380,2.411786179
1381,2.411631295
1382,2.465864351
1383,2.433640411
1384,2.374393055
1385,2.422648437
1386,2.428511055
1387,2.387430018
1388,2.399411654
1389,2.409827723
1390,2.409566881
1391,2.395642563
1392,2.363704238
1393,2.395617998
1394,2.413188778
1395,2.407714883
1396,2.375537099
1397,2.399365976
1398,2.385628809
1399,2.417547498
1400,2.413568002
1401,2.43202519
1402,2.401420454
1403,2.413651599
1404,2.433260786
1405,2.399482478
1406,2.402505803
1407,2.439425346
1408,2.404681853
1409,2.412192998
1410,2.373830879
1411,2.434445989
1412,2.45852528
1413,2.424223388
1414,2.409367727
1415,2.408854859
1416,2.426493836
1417,2.406934624
1418,2.429767198
1419,2.394774704
1420,2.404184733
1421,2.420342162
1422,2.399870047
1423,2.404336553
1424,2.430746684
1425,2.411920739
1426,2.424993738
1427,2.396919593
1428,2.395417584
1429,2.414927353
1430,2.453764035
1431,2.426624842
1432,2.427698067
1433,2.43152164
1434,2.418452616
1435,2.399051656
1436,2.455056501
1437,2.416201693
1438,2.407452541
1439,2.44093871
1440,2.434961575
1441,2.440524775
1442,2.408427234
1443,2.404444303
1444,2.446731532
1445,2.454311904
1446,2.436164985
1447,2.394492818
1448,2.404166169
1449,2.428579566
1450,2.382597526
1451,2.419672518
1452,2.441656067
1453,2.446320161
1454,2.458368414
1455,2.454015623
1456,2.411989551
1457,2.446529909
1458,2.441677762
1459,2.431231767
1460,2.434530219
1461,2.455897428
1462,2.428428012
1463,2.450457184
1464,2.43942601
1465,2.448232918
1466,2.424320093
1467,2.460800587
1468,2.471219581
1469,2.462411007
1470,2.465496259
1471,2.407648717
1472,2.475394664
1473,2.44340155
1474,2.441648359
1475,2.414103266
1476,2.471123333
1477,2.439427147
1478,2.457203765
1479,2.428692152
1480,2.434480269
1481,2.433050097
1482,2.463640203
1483,2.45850897
1484,2.42999254
1485,2.487760116
1486,2.42197816
1487,2.446273761
1488,2.436593256
1489,2.530083746
1490,2.493766353
1491,2.464026911
1492,2.461165808
1493,2.446946027
1494,2.496038583
1495,2.497405722
1496,2.462890255
1497,2.474977607
1498,2.475533676
1499,2.49931862
1500,2.471322076
1501,2.464586399
1502,2.466384872
1503,2.46616156
1504,2.469025773
1505,2.473487286
1506,2.506373874
1507,2.493303712
1508,2.488921788
1509,2.51044549
1510,2.492800345
1511,2.463370126
1512,2.455568471
1513,2.471381926
1514,2.512098576
1515,2.519743318
1516,2.522240092
1517,2.512208394
1518,2.536788846
1519,2.468012953
1520,2.487898547
1521,2.491372971
1522,2.47393298
1523,2.533790002
1524,2.527803959
1525,2.55040446
1526,2.524886416
1527,2.497443713
1528,2.519729204
1529,2.49343624
1530,2.51891674
1531,2.526273515
1532,2.537557176
1533,2.513517459
1534,2.545577109
1535,2.529885366
1536,2.540637495
1537,2.51156283
1538,2.542368866
1539,2.517473924
1540,2.518388966
1541,2.559549878
1542,2.526081485
1543,2.539510682
1544,2.549514464
1545,2.567424849
1546,2.568959194
1547,2.563341265
1548,2.544789001
1549,2.543702502
1550,2.544422325
1551,2.542008858
1552,2.531067916
1553,2.534919786
1554,2.53594682
1555,2.526877762
1556,2.530415063
1557,2.57787798
1558,2.554209243
1559,2.593354033
1560,2.5915558
1561,2.582199565
1562,2.541515133
1563,2.587488563
1564,2.565965835
1565,2.554839541
1566,2.600138731
1567,2.58779944
1568,2.563775271
1569,2.593800943
1570,2.543770813
1571,2.568488599
1572,2.601780157
1573,2.61665171
1574,2.580425802
1575,2.579708856
1576,2.591220717
1577,2.569500524
1578,2.56079312
1579,2.589748069
1580,2.573086143
1581,2.588814156
1582,2.618038381
1583,2.592644023
1584,2.583585057
1585,2.565741863
1586,2.595699707
1587,2.607375272
1588,2.572921584
1589,2.602600561
1590,2.611024909
1591,2.543636781
1592,2.599790145
1593,2.617854515
1594,2.628474784
1595,2.584512684
1596,2.614329067
1597,2.609447335
1598,2.586070227
1599,2.572714665
1600,2.584211523
1601,2.619077758
1602,2.613956433
1603,2.63366992
1604,2.582845589
1605,2.557954334
1606,2.600738826
1607,2.59211555
1608,2.588399118
1609,2.579882575
1610,2.603383863
1611,2.618724482
1612,2.614874237
1613,2.581776487
1614,2.572697589
1615,2.591403458
1616,2.580859655
1617,2.58798268
1618,2.614484867
1619,2.60967133
1620,2.604560583
1621,2.61108691
1622,2.555238349
1623,2.579525577
1624,2.612782105
1625,2.586417987
1626,2.605497181
1627,2.56180251
1628,2.595902371
1629,2.620898592
1630,2.617172635
1631,2.622581623
1632,2.601731707
1633,2.582994989
1634,2.554579396
1635,2.603174475
1636,2.582412684
1637,2.54978177
1638,2.569037937
1639,2.566136948
1640,2.551207252
1641,2.551317219
1642,2.641328419
1643,2.565579593
1644,2.567677743
1645,2.551375978
1646,2.56951824
1647,2.584969761
1648,2.608637598
1649,2.58511112
1650,2.595968114
1651,2.587859043
1652,2.569137141
1653,2.554449235
1654,2.536054924
1655,2.603329975
1656,2.608912643
1657,2.624925662
1658,2.553387562
1659,2.559247744
1660,2.546240171
1661,2.57701647
1662,2.548257227
1663,2.550620183
1664,2.573229848
1665,2.558673642
1666,2.535561824
1667,2.561523877
1668,2.538672315
1669,2.535335454
1670,2.571438
1671,2.537563311
1672,2.526342044
1673,2.539590166
1674,2.538137573
1675,2.532988134
1676,2.537447364
1677,2.511274534
1678,2.528721036
1679,2.532799632
1680,2.54103341
1681,2.54287207
1682,2.532978656
1683,2.522816839
1684,2.497151211
1685,2.53481184
1686,2.503554717
1687,2.501082021
1688,2.529264632
1689,2.527307671
1690,2.472657172
1691,2.508629472
1692,2.476424702
1693,2.542710572
1694,2.511499517
1695,2.504666331
1696,2.511222266
1697,2.491125983
1698,2.509747365
1699,2.537375988
1700,2.512950659
1701,2.503016146
1702,2.500785796
1703,2.467726719
1704,2.519144055
1705,2.513044099
1706,2.507124579
1707,2.5010183
1708,2.501724922
1709,2.483580412
1710,2.516555823
1711,2.454528134
1712,2.465643453
1713,2.481648121
1714,2.48577669
1715,2.486439671
1716,2.501127611
1717,2.503482059
1718,2.476114895
1719,2.442737777
1720,2.472564597
1721,2.463145593
1722,2.443598828
1723,2.472714513
1724,2.499482745
1725,2.479601848
1726,2.458503382
1727,2.465382605
1728,2.453243881
1729,2.418253081
1730,2.465750989
1731,2.457114663
1732,2.452932754
1733,2.456712712
1734,2.452789984
1735,2.490421428
1736,2.47113849
1737,2.437888109
1738,2.464578473
1739,2.453103317
1740,2.419052886
1741,2.467040015
1742,2.451473435
1743,2.445397638
1744,2.434115832
1745,2.459767374
1746,2.444051114
1747,2.4556977
1748,2.472016966
1749,2.470749032
1750,2.452387454
1751,2.447873492
1752,2.418543384
1753,2.46407923
1754,2.41957171
1755,2.408401152
1756,2.417839676
1757,2.429221948
1758,2.408777889
1759,2.457109443
1760,2.440546481
1761,2.462233597
1762,2.409384169
1763,2.416486216
1764,2.437306172
1765,2.419220141
1766,2.459178411
1767,2.411695311
1768,2.42175276
1769,2.443142553
1770,2.420676366
1771,2.440568029
1772,2.427039082
1773,2.41709191
1774,2.420353062
1775,2.439220827
1776,2.429804465
1777,2.404009669
1778,2.434732978
1779,2.436399413
1780,2.436311166
1781,2.37918321
1782,2.43755849
1783,2.410572654
1784,2.416641573
1785,2.402459331
1786,2.451137622
1787,2.399438714
1788,2.417116287
1789,2.432472786
1790,2.37993593
1791,2.43566605
1792,2.40302762
1793,2.390673163
1794,2.404698833
1795,2.403088072
1796,2.440447344
1797,2.425974367
1798,2.452118898
1799,2.426323176
1800,2.408052952
1801,2.404069236
1802,2.413250972
1803,2.36045953
1804,2.400367497
1805,2.426726356
1806,2.438955117
1807,2.413327671
1808,2.454136726
1809,2.416728644
1810,2.368854625
1811,2.365573948
1812,2.461002348
1813,2.453809987
1814,2.436994701
1815,2.4337513
1816,2.423642708
1817,2.41223576
1818,2.385460848
1819,2.416147169
1820,2.401311182
1821,2.399595028
1822,2.378137965
1823,2.431957078
1824,2.384396557
1825,2.399644429
1826,2.34958048
1827,2.387549628
1828,2.373571555
1829,2.444309642
1830,2.429162499
1831,2.405129375
1832,2.425899458
1833,2.432694712
1834,2.412944031
1835,2.379285474
1836,2.398000864
1837,2.395070701
1838,2.407921506
1839,2.368073607
1840,2.403298125
1841,2.402289733
1842,2.419932966
1843,2.441462254
1844,2.380636486
1845,2.382742548
1846,2.377449615
1847,2.443440122
1848,2.430290804
1849,2.437068601
1850,2.415064121
1851,2.418013403
1852,2.372696897
1853,2.436650561
1854,2.411347434
1855,2.386504033
1856,2.430756301
1857,2.383592231
1858,2.385391624
1859,2.396382572
1860,2.400970205
1861,2.387717731
1862,2.40601532
1863,2.40528722
1864,2.418190596
1865,2.399778
1866,2.360707077
1867,2.36984296
1868,2.41607821
1869,2.422007475
1870,2.386473199
1871,2.414512496
1872,2.430826902
1873,2.402698812
1874,2.391462629
1875,2.360944738
1876,2.393853551
1877,2.378320553
1878,2.369935731
1879,2.394226824
1880,2.390182225
1881,2.390315994
1882,2.420426729
1883,2.401115867
1884,2.38352896
1885,2.426001651
1886,2.415048996
1887,2.411489674
1888,2.407308728
1889,2.390300297
1890,2.42707299
1891,2.410070405
1892,2.391839991
1893,2.416154668
1894,2.408540133
1895,2.357938563
1896,2.373269669
1897,2.404885988
1898,2.360511455
1899,2.367623208
1900,2.381814021
1901,2.380472275
1902,2.405924655
1903,2.416761871
1904,2.415830631
1905,2.369656264
1906,2.380275694
1907,2.371794497
1908,2.406110027
1909,2.397761779
1910,2.386551846
1911,2.395362835
1912,2.404290456
1913,2.39599857
1914,2.380866302
1915,2.386623038
1916,2.405204227
1917,2.382966586
1918,2.413269102
1919,2.407986819
1920,2.441068662
1921,2.368591347
1922,2.384873808
1923,2.361938449
1924,2.374179486
1925,2.40836725
1926,2.402747989
1927,2.388928513
1928,2.386282243
1929,2.39083003
1930,2.424689444
1931,2.381183576
1932,2.421952711
1933,2.389972512
1934,2.396444482
1935,2.373575981
1936,2.427899712
1937,2.40877156
1938,2.398383398
1939,2.383008774
1940,2.383372158
1941,2.384126362
1942,2.364737154
1943,2.385922226
1944,2.388220325
1945,2.372501578
1946,2.411643188
1947,2.426603235
1948,2.382069752
1949,2.354061142
1950,2.38766371
1951,2.388187572
1952,2.425073004
1953,2.374123751
1954,2.396093852
1955,2.363073046
1956,2.414978616
1957,2.415122739
1958,2.429540006
1959,2.388320313
1960,2.425615004
1961,2.413810473
1962,2.443081978
1963,2.367275598
1964,2.406726972
1965,2.382332742
1966,2.402951166
1967,2.39290879
1968,2.390191582
1969,2.405103168
1970,2.397973124
1971,2.360852644
1972,2.407794403
1973,2.402617535
1974,2.3840543
1975,2.391305956
1976,2.377938318
1977,2.383924188
1978,2.381371985
1979,2.437221621
1980,2.410153436
1981,2.369083486
1982,2.405301878
1983,2.392006952
1984,2.395964019
1985,2.392160067
1986,2.376242968
1987,2.410275157
1988,2.420566323
1989,2.397670811
1990,2.382352678
1991,2.422039243
1992,2.400645314
1993,2.418140584
1994,2.364033729
1995,2.420680576
1996,2.391470801
1997,2.371072121
1998,2.394723498
1999,2.406918824
2000,2.389181455
2001,2.355989293
2002,2.388957122
2003,2.41225465
2004,2.379636293
2005,2.395464342
2006,2.37826434
2007,2.450079882
2008,2.367017729
2009,2.364042968
2010,2.40804997
2011,2.454190569
2012,2.397537601
2013,2.419100633
2014,2.430576837
2015,2.405722164
2016,2.44661306
2017,2.400178804
2018,2.397705804
2019,2.390931245
2020,2.388915639
2021,2.377836149
2022,2.378307229
2023,2.399381858
2024,2.392096084
2025,2.373451484
2026,2.409480627
2027,2.395517503
2028,2.384950932
2029,2.387715563
2030,2.438248943
2031,2.405862898
2032,2.387200697
2033,2.40969337
2034,2.381932962
2035,2.399401211
2036,2.41574029
2037,2.406964588
2038,2.373850164
2039,2.4002088
2040,2.435224903
2041,2.398533585
2042,2.390962732
2043,2.405584044
2044,2.428359932
2045,2.395814105
2046,2.389957306
2047,2.398823357
2048,2.392640814
2049,2.383782728
2050,2.434266655
2051,2.420187081
2052,2.408400527
2053,2.413742918
2054,2.40588591
2055,2.448362312
2056,2.379741529
2057,2.386994015
2058,2.427436942
2059,2.418679563
2060,2.379736377
2061,2.37872221
2062,2.419912432
2063,2.368582093
2064,2.414748385
2065,2.424782194
2066,2.408568669
2067,2.409270683
2068,2.380658308
2069,2.383375763
2070,2.396591434
2071,2.401477482
2072,2.427454744
2073,2.446678325
2074,2.367401387
2075,2.400060233
2076,2.416281219
2077,2.39158948
2078,2.38319019
2079,2.408563116
2080,2.423575424
2081,2.38658391
2082,2.362504679
2083,2.382891287
2084,2.410382494
2085,2.409059564
2086,2.380498739
2087,2.40210332
2088,2.422271862
2089,2.417630399
2090,2.405180704
2091,2.373054967
2092,2.421502219
2093,2.403592172
2094,2.397420174
2095,2.46303111
2096,2.404581546
2097,2.409642501
2098,2.408748109
2099,2.382552073
2100,2.402365051
2101,2.400277634
2102,2.403656316
2103,2.420065268
2104,2.366909613
2105,2.335239803
2106,2.385441897
2107,2.408731585
2108,2.380648188
2109,2.38235617
2110,2.392870025
2111,2.406083135
2112,2.374237199
2113,2.404831683
2114,2.399722564
2115,2.410820237
2116,2.418501631
2117,2.41015176
2118,2.431458583
2119,2.376270249
2120,2.418276147
2121,2.389968704
2122,2.403484186
2123,2.39759068
2124,2.409452661
2125,2.400301456
2126,2.392787236
2127,2.406385903
2128,2.444824262
2129,2.395696959
2130,2.418710666
2131,2.418114669
2132,2.373354701
2133,2.396386637
2134,2.403530721
2135,2.368172939
2136,2.379606286
2137,2.397253531
2138,2.420675952
2139,2.394576397
2140,2.453985714
2141,2.385333388
2142,2.401606496
2143,2.41279272
2144,2.417526892
2145,2.363042424
2146,2.402254657
2147,2.40267342
2148,2.41572077
2149,2.408057994
2150,2.396961362
2151,2.389191478
2152,2.38025668
2153,2.400944912
2154,2.392719966
2155,2.40258085
2156,2.409277558
2157,2.376483804
2158,2.43059606
2159,2.368491935
2160,2.377109491
2161,2.408610964
2162,2.400963759
2163,2.365501873
2164,2.394126282
2165,2.423187023
2166,2.399448523
2167,2.370523496
2168,2.376422731
2169,2.387660157
2170,2.403350496
2171,2.376267574
2172,2.404643531
2173,2.412768533
2174,2.420740818
2175,2.405994128
2176,2.391856491
2177,2.388878861
2178,2.391054906
2179,2.407047148
2180,2.387616841
2181,2.35444144
2182,2.446905424
2183,2.399653715
2184,2.416681422
2185,2.397864931
2186,2.391656458
2187,2.423341508
2188,2.352059152
2189,2.376485216
2190,2.411020532
2191,2.376349891
2192,2.420422011
2193,2.378163147
2194,2.414632679
2195,2.415476661
2196,2.428819224
2197,2.431484226
2198,2.388195277
2199,2.383247684
2200,2.380284756
2201,2.388627938
2202,2.428035347
2203,2.405229949
2204,2.418348714
2205,2.401296413
2206,2.392759179
2207,2.375906979
2208,2.424893625
2209,2.416743609
2210,2.376425448
2211,2.402132453
2212,2.388549399
2213,2.377629498
2214,2.378586504
2215,2.408907799
2216,2.404515164
2217,2.386672485
2218,2.382671068
2219,2.387260155
2220,2.391496191
2221,2.377626885
2222,2.392808323
2223,2.37667441
2224,2.355546837
2225,2.407175817
2226,2.406553931
2227,2.385789706
2228,2.371617634
2229,2.433122212
2230,2.387913805
2231,2.373699627
2232,2.416724819
2233,2.397487462
2234,2.389579225
2235,2.420905658
2236,2.412083336
2237,2.379060289
2238,2.42987162
2239,2.401778337
2240,2.400662826
2241,2.415914509
2242,2.399379043
2243,2.39617139
2244,2.422680715
2245,2.429908767
2246,2.369534646
2247,2.364478962
2248,2.415795545
2249,2.356022281
2250,2.403108918
2251,2.395762013
2252,2.375897742
2253,2.375812895
2254,2.405011378
2255,2.384328632
2256,2.41121921
2257,2.379695289
2258,2.409605808
2259,2.421372198
2260,2.38307993
2261,2.406880628
2262,2.387469837
2263,2.412745933
2264,2.429627066
2265,2.413236128
2266,2.388172209
2267,2.419128533
2268,2.424447105
2269,2.391767839
2270,2.359172347
2271,2.409197252
2272,2.413395583
2273,2.413476989
2274,2.391230854
2275,2.370993578
2276,2.381365354
2277,2.383247708
2278,2.40275905
2279,2.438365994
2280,2.396086939
2281,2.412769807
2282,2.397009749
2283,2.426034207
2284,2.407961563
2285,2.41103952
2286,2.426067251
2287,2.419615924
2288,2.394950047
2289,2.409018641
2290,2.387498876
2291,2.406239975
2292,2.37887587
2293,2.39874254
2294,2.405839099
2295,2.403969756
2296,2.43230077
2297,2.41414043
2298,2.377574097
2299,2.395052801
2300,2.359584871
2301,2.40600053
2302,2.378362785
2303,2.40221203
2304,2.410172859
2305,2.36205663
2306,2.424409141
2307,2.364645274
2308,2.396868991
2309,2.384208546
2310,2.388061616
2311,2.383077893
2312,2.39216224
2313,2.413272846
2314,2.39661182
2315,2.385700352
2316,2.421440969
2317,2.411687062
2318,2.395650846
2319,2.38089794
2320,2.406246816
2321,2.388735665
2322,2.409263924
2323,2.41497684
2324,2.361998457
2325,2.416193215
2326,2.362500351
2327,2.414885119
2328,2.425994903
2329,2.378023108
2330,2.373705735
2331,2.429884112
2332,2.354587211
2333,2.406093381
2334,2.416051163
2335,2.386584596
2336,2.372760308
2337,2.392774625
2338,2.382827228
2339,2.377534242
2340,2.401800484
2341,2.405837638
2342,2.40985907
2343,2.419012956
2344,2.397813268
2345,2.373795743
2346,2.406337475
2347,2.421665913
2348,2.420969368
2349,2.389244689
2350,2.417309335
2351,2.365168872
2352,2.4085261
2353,2.397049242
2354,2.387758695
2355,2.392178078
2356,2.429123788
2357,2.371090666
2358,2.421496187
2359,2.401254056
2360,2.397507624
2361,2.40992341
2362,2.379904765
2363,2.366540255
2364,2.420917333
2365,2.352376269
2366,2.392383332
2367,2.397277305
2368,2.389983939
2369,2.357830716
2370,2.41605661
2371,2.400471729
2372,2.399765044
2373,2.396942009
2374,2.429938432
2375,2.391769955
2376,2.398284842
2377,2.419105677
2378,2.422360314
2379,2.459135221
2380,2.378092162
2381,2.380638849
2382,2.420155165
2383,2.36639764
2384,2.416709093
2385,2.394372829
2386,2.411633925
2387,2.399067912
2388,2.333779094
2389,2.406477285
2390,2.417052445
2391,2.397224419
2392,2.410848523
2393,2.397697222
2394,2.415912303
2395,2.3928138
2396,2.412897172
2397,2.410676721
2398,2.393221365
2399,2.400054555
2400,2.377278156
2401,2.410937378
2402,2.394415029
2403,2.406004171
2404,2.401436552
2405,2.362864676
2406,2.40504631
2407,2.426603939
2408,2.372299646
2409,2.376560552
2410,2.379470916
2411,2.41538429
2412,2.393181972
2413,2.401783895
2414,2.343568085
2415,2.360165909
2416,2.449321037
2417,2.42154884
2418,2.388694454
2419,2.416308483
2420,2.423678404
2421,2.40030118
2422,2.426721189
2423,2.377469727
2424,2.392801993
2425,2.387664138
2426,2.402340677
2427,2.395103781
2428,2.394413021
2429,2.387016048
2430,2.413158009
2431,2.438634878
2432,2.398475416
2433,2.406306713
2434,2.410330597
2435,2.365208182
2436,2.374176719
2437,2.442952769
2438,2.40392066
2439,2.428860206
2440,2.416192987
2441,2.378265574
2442,2.397083887
2443,2.367324942
2444,2.405205876
2445,2.43878506
2446,2.398820896
2447,2.389375503
2448,2.418375766
2449,2.408253063
2450,2.367035457
2451,2.429522477
2452,2.426410034
2453,2.392601609
2454,2.413110607
2455,2.398804073
2456,2.407659555
2457,2.382757298
2458,2.389862269
2459,2.3958849
2460,2.40115639
2461,2.421244512
2462,2.40621699
2463,2.404485888
2464,2.408607959
2465,2.381285204
2466,2.385497952
2467,2.400090538
2468,2.397756358
2469,2.388568225
2470,2.368610162
2471,2.411430383
2472,2.392606192
2473,2.398245144
2474,2.40588276
2475,2.356332654
2476,2.42796277
2477,2.360321726
2478,2.403681256
2479,2.434410893
2480,2.397419096
2481,2.419452369
2482,2.411690811
2483,2.364969456
2484,2.408924374
2485,2.395528475
2486,2.406894262
2487,2.388173136
2488,2.376203676
2489,2.422232193
2490,2.36517081
2491,2.417990054
2492,2.409702832
2493,2.390752707
2494,2.375340089
2495,2.396815298
2496,2.401459826
2497,2.400913419
2498,2.380397061
2499,2.420249109
2500,2.385665089
2501,2.419645251
2502,2.398977497
2503,2.404523172
2504,2.400721191
2505,2.419051872
2506,2.398051179
2507,2.412844033
2508,2.392569228
2509,2.384815366
2510,2.391185772
2511,2.398624028
2512,2.431447212
2513,2.407370475
2514,2.412772942
2515,2.440445917
2516,2.430658004
2517,2.389580639
2518,2.393205121
2519,2.409323705
2520,2.386372058
2521,2.396270214
2522,2.40380366
2523,2.384331586
2524,2.366949589
2525,2.422723109
2526,2.404953361
2527,2.411468337
2528,2.412249781
2529,2.397776544
2530,2.395504077
2531,2.398510561
2532,2.381802646
2533,2.369734227
2534,2.378381654
2535,2.405711527
2536,2.411341354
2537,2.413891293
2538,2.403733222
2539,2.397728329
2540,2.382635256
2541,2.406938908
2542,2.39906054
2543,2.399921414
2544,2.376875297
2545,2.399521879
2546,2.425175883
2547,2.408850326
2548,2.389514274
2549,2.412557378
2550,2.378486674
2551,2.392760768
2552,2.397880691
2553,2.393544006
2554,2.394948973
2555,2.41969017
2556,2.367487755
2557,2.396375915
2558,2.409038053
2559,2.431402241
2560,2.404852944
2561,2.371569561
2562,2.371366748
2563,2.406712826
2564,2.455971902
2565,2.398299886
2566,2.380455128
2567,2.391178582
2568,2.379611981
2569,2.419509556
2570,2.440478438
2571,2.406285157
2572,2.37353468
2573,2.404237696
2574,2.396679743
2575,2.385237112
2576,2.36931127
2577,2.430399732
2578,2.370402653
2579,2.364465989
2580,2.414220374
2581,2.387879837
2582,2.437819121
2583,2.415762806
2584,2.375255274
2585,2.395342111
2586,2.404496181
2587,2.412145682
2588,2.396086916
2589,2.385360694
2590,2.430959107
2591,2.369871714
2592,2.417130687
2593,2.409828525
2594,2.382820247
2595,2.418046228
2596,2.42729142
2597,2.386114368
2598,2.392562426
2599,2.409606231
2600,2.358348411
2601,2.419775954
2602,2.378080326
2603,2.397171667
2604,2.36887471
2605,2.383099783
2606,2.387690256
2607,2.396237702
2608,2.412849374
2609,2.391091408
2610,2.36594697
2611,2.415031847
2612,2.412088563
2613,2.387300172
2614,2.403327035
2615,2.394484291
2616,2.408695959
2617,2.403485636
2618,2.409460882
2619,2.39951435
2620,2.411997411
2621,2.432154028
2622,2.405042945
2623,2.422671985
2624,2.403788009
2625,2.382465484
2626,2.421834994
2627,2.414514703
2628,2.37828738
2629,2.434388851
2630,2.391657675
2631,2.40932409
2632,2.380420636
2633,2.406736801
2634,2.403697751
2635,2.369942465
2636,2.388301076
2637,2.399028617
2638,2.392311341
2639,2.361290757
2640,2.414585966
2641,2.411371908
2642,2.422824565
2643,2.388747186
2644,2.391782505
2645,2.412681906
2646,2.40218902
2647,2.400796979
2648,2.42262513
2649,2.409211877
2650,2.405247577
2651,2.409785753
2652,2.393651218
2653,2.405073082
2654,2.378923433
2655,2.438461911
2656,2.419075095
2657,2.385676222
2658,2.379704424
2659,2.379697683
2660,2.406118563
2661,2.401774264
2662,2.432197034
2663,2.370084984
2664,2.37593363
2665,2.400689501
2666,2.386452542
2667,2.392849178
2668,2.39591788
2669,2.409048732
2670,2.400332821
2671,2.408111858
2672,2.385753164
2673,2.41436468
2674,2.379659098
2675,2.391167149
2676,2.388618075
2677,2.39349002
2678,2.396878462
2679,2.379562844
2680,2.412779256
2681,2.381870586
2682,2.415338028
2683,2.438103257
2684,2.431789848
2685,2.407567473
2686,2.382565829
2687,2.401127882
2688,2.42145105
2689,2.414552761
2690,2.422702013
2691,2.376671529
2692,2.388232041
2693,2.388311931
2694,2.394804361
2695,2.40495453
2696,2.395524891
2697,2.420461724
2698,2.398353299
2699,2.404159551
2700,2.384007473
2701,2.382231297
2702,2.415721083
2703,2.413525936
2704,2.419061483
2705,2.413395571
2706,2.403569191
2707,2.390530324
2708,2.418616076
2709,2.411191499
2710,2.417438884
2711,2.41837851
2712,2.40060341
2713,2.362003221
2714,2.345974543
2715,2.42427245
2716,2.397268681
2717,2.406979969
2718,2.382896149
2719,2.429358392
2720,2.422634046
2721,2.380037638
2722,2.386365403
2723,2.400472629
2724,2.395744372
2725,2.390514672
2726,2.403505174
2727,2.396474674
2728,2.418376
2729,2.405487174
2730,2.422915545
2731,2.357259691
2732,2.388676007
2733,2.423972805
2734,2.398064204
2735,2.424306974
2736,2.417514104
2737,2.432321163
2738,2.417603052
2739,2.405423807
2740,2.385558192
2741,2.409330271
2742,2.41837172
2743,2.373058756
2744,2.387916425
2745,2.380609055
2746,2.417772229
2747,2.412175691
2748,2.385668139
2749,2.403713321
2750,2.407373815
2751,2.408318144
2752,2.399053236
2753,2.416645117
2754,2.384874223
2755,2.414584007
2756,2.399068138
2757,2.387671368
2758,2.403134857
2759,2.393078879
2760,2.383105131
2761,2.403338874
2762,2.422566193
2763,2.393298523
2764,2.372836845
2765,2.393732157
2766,2.401360019
2767,2.406533583
2768,2.41622731
2769,2.401878221
2770,2.382808928
2771,2.407530199
2772,2.407601081
2773,2.377064173
2774,2.389108849
2775,2.398798833
2776,2.409539709
2777,2.396829345
2778,2.43204008
2779,2.437737761
2780,2.392305379
2781,2.419257877
2782,2.371391688
2783,2.37758425
2784,2.380630724
2785,2.403964057
2786,2.42740309
2787,2.383744708
2788,2.384387161
2789,2.431210698
2790,2.388527988
2791,2.413148002
2792,2.405956699
2793,2.42160586
2794,2.443434295
2795,2.388012402
2796,2.453813631
2797,2.40172887
2798,2.413346274
2799,2.394143022
2800,2.413989926
2801,2.39524914
2802,2.415752109
2803,2.416349736
2804,2.404343757
2805,2.399188427
2806,2.404364177
2807,2.400716375
2808,2.399593537
2809,2.402553841
2810,2.390817222
2811,2.390985331
2812,2.415420051
2813,2.395359853
2814,2.433645833
2815,2.408654788
2816,2.397062978
2817,2.371823923
2818,2.443780046
2819,2.405535748
2820,2.409375421
2821,2.355316074
2822,2.399458864
2823,2.399146094
2824,2.3697925
2825,2.415196162
2826,2.387816323
2827,2.409972467
2828,2.425125
2829,2.413784594
2830,2.385863284
2831,2.402111782
2832,2.375765363
2833,2.382689899
2834,2.388058374
2835,2.382158539
2836,2.404983721
2837,2.401067794
2838,2.399039029
2839,2.399665274
2840,2.408975247
2841,2.388804942
2842,2.410090834
2843,2.378405177
2844,2.394922147
2845,2.410137325
2846,2.414816503
2847,2.396089509
2848,2.426355674
2849,2.393815774
2850,2.419918623
2851,2.413440327
2852,2.368328742
2853,2.36744746
2854,2.36203756
2855,2.396496802
2856,2.391662534
2857,2.384742631
2858,2.409986548
2859,2.378963283
2860,2.373784964
2861,2.382298326
2862,2.409822997
2863,2.420948808
2864,2.447466435
2865,2.384497403
2866,2.402321726
2867,2.383671359
2868,2.423073888
2869,2.392624076
2870,2.420688421
2871,2.387487836
2872,2.386994944
2873,2.395926695
2874,2.404126269
2875,2.461226365
2876,2.365851405
2877,2.40967877
2878,2.377660791
2879,2.393583696
2880,2.429912356
2881,2.380076041
2882,2.411707923
2883,2.42062895
2884,2.407047899
2885,2.389421356
2886,2.400092276
2887,2.386261347
2888,2.387733323
2889,2.369361476
2890,2.388900353
2891,2.375506822
2892,2.398666388
2893,2.401908304
2894,2.417026567
2895,2.415115572
2896,2.411822508
2897,2.415522342
2898,2.426029246
2899,2.412219911
2900,2.410448079
2901,2.405023776
2902,2.393697754
2903,2.395649001
2904,2.402228626
2905,2.393603667
2906,2.392906138
2907,2.368518445
2908,2.419773733
2909,2.385260517
2910,2.384565821
2911,2.381668402
2912,2.403012594
2913,2.395320874
2914,2.409743931
2915,2.387563908
2916,2.398703851
2917,2.387787575
2918,2.40369565
2919,2.42709736
2920,2.419890734
2921,2.423370265
2922,2.416549503
2923,2.387844612
2924,2.424134122
2925,2.418454924
2926,2.394788508
2927,2.342037918
2928,2.40493631
2929,2.390802493
2930,2.405355928
2931,2.369224294
2932,2.403145853
2933,2.404190134
2934,2.392684058
2935,2.40976838
2936,2.376238864
2937,2.4272113
2938,2.41622439
2939,2.43462016
2940,2.400105809
2941,2.408499759
2942,2.345484055
2943,2.378743473
2944,2.416416709
2945,2.411558793
2946,2.418024062
2947,2.383165408
2948,2.416385687
2949,2.427131197
2950,2.394456626
2951,2.374874943
2952,2.387830138
2953,2.413483109
2954,2.410406984
2955,2.403799337
2956,2.386019043
2957,2.410913246
2958,2.400370183
2959,2.402865151
2960,2.381963311
2961,2.402723005
2962,2.386448656
2963,2.390125994
2964,2.391156362
2965,2.407525271
2966,2.419417023
2967,2.369179429
2968,2.375956446
2969,2.401748979
2970,2.415381493
2971,2.37010697
2972,2.427798161
2973,2.380498625
2974,2.408021318
2975,2.38986241
2976,2.427507128
2977,2.366765221
2978,2.440921146
2979,2.392797931
2980,2.410448534
2981,2.383118545
2982,2.369094217
2983,2.411411946
2984,2.400382311
2985,2.379217788
2986,2.406321214
2987,2.421728844
2988,2.418764357
2989,2.422450492
2990,2.394306366
2991,2.414211223
2992,2.421042282
2993,2.420693309
2994,2.420871125
2995,2.437798632
2996,2.42671031
2997,2.378958294
2998,2.363755012
2999,2.377111322
3000,2.407004167
3001,2.382461588
3002,2.424001869
3003,2.391837074
3004,2.39983493
3005,2.437067458
3006,2.421391185
3007,2.419528478
3008,2.383163124
3009,2.350316977
3010,2.412381954
3011,2.40496082
3012,2.350581116
3013,2.371117483
3014,2.428692531
3015,2.417885164
3016,2.405483175
3017,2.409161143
3018,2.397951451
3019,2.397499669
3020,2.435505798
3021,2.373145042
3022,2.412473302
3023,2.417086769
3024,2.410962124
3025,2.375476683
3026,2.410273806
3027,2.389429675
3028,2.426295927
3029,2.399467068
3030,2.383407104
3031,2.366768385
3032,2.404388442
3033,2.394847511
3034,2.396256084
3035,2.37935804
3036,2.38690547
3037,2.42106626
3038,2.407403652
3039,2.410737291
3040,2.4038903
3041,2.399381483
3042,2.374322395
3043,2.390758857
3044,2.412359305
3045,2.440947305
3046,2.39476234
3047,2.423399815
3048,2.402269439
3049,2.408666319
3050,2.42390256
3051,2.387513177
3052,2.42409244
3053,2.427876717
3054,2.4136437
3055,2.385312024
3056,2.380342518
3057,2.41267872
3058,2.403302534
3059,2.413560981
3060,2.401006766
3061,2.380589662
3062,2.391147614
3063,2.40352229
3064,2.406041796
3065,2.379134562
3066,2.431785365
3067,2.371970883
3068,2.3882647
3069,2.389886708
3070,2.387299106
3071,2.389961739
3072,2.397370983
3073,2.366505486
3074,2.383347829
3075,2.414904813
3076,2.43463434
3077,2.410138086
3078,2.417887042
3079,2.373844319
3080,2.390497461
3081,2.416300852
3082,2.359235742
3083,2.381691304
3084,2.422648004
3085,2.42985365
3086,2.378866093
3087,2.3887939
3088,2.387841594
3089,2.411829366
3090,2.400590351
3091,2.405933809
3092,2.423646189
3093,2.40951947
3094,2.384181887
3095,2.381166175
3096,2.407720045
3097,2.4060649
3098,2.388314989
3099,2.36353841
3100,2.417580545
3101,2.41356619
3102,2.396698751
3103,2.40074609
3104,2.413559644
3105,2.402602893
3106,2.395504928
3107,2.39770501
3108,2.368680161
3109,2.358283791
3110,2.397954665
3111,2.392663332
3112,2.37337558
3113,2.409829396
3114,2.387096552
3115,2.389153723
3116,2.408415348
3117,2.407357801
3118,2.404881743
3119,2.420552916
3120,2.396575685
3121,2.409515038
3122,2.396528139
3123,2.408865044
3124,2.390157295
3125,2.414888805
3126,2.427998775
3127,2.415805756
3128,2.43414369
3129,2.395795376
3130,2.40159424
3131,2.404507821
3132,2.41710142
3133,2.385640276
3134,2.392031072
3135,2.4426037
3136,2.387710646
3137,2.383320078
3138,2.411017948
3139,2.406605574
3140,2.405773867
3141,2.398385544
3142,2.388615356
3143,2.401762749
3144,2.379598648
3145,2.382307432
3146,2.421226222
3147,2.428058763
3148,2.371304448
3149,2.370215009
3150,2.357301159
3151,2.416906031
3152,2.370691689
3153,2.384062358
3154,2.396824683
3155,2.414293595
3156,2.366921
3157,2.39844533
3158,2.40403458
3159,2.404022892
3160,2.398693182
3161,2.38429911
3162,2.404805324
3163,2.406329627
3164,2.388534902
3165,2.420287753
3166,2.401474838
3167,2.407288612
3168,2.386684771
3169,2.418830464
3170,2.421425016
3171,2.382864943
3172,2.438857391
3173,2.363790175
3174,2.406502853
3175,2.370758057
3176,2.408366256
3177,2.398315983
3178,2.390905144
3179,2.40423062
3180,2.432381524
3181,2.394457097
3182,2.400143902
3183,2.401543322
3184,2.421316719
3185,2.404360059
3186,2.429315922
3187,2.35221717
3188,2.384624154
3189,2.382701575
3190,2.429852221
3191,2.400009013
3192,2.42442815
3193,2.418400381
3194,2.39165862
3195,2.390721564
3196,2.399277382
3197,2.374660998
3198,2.373695175
3199,2.423686918
3200,2.392269095
3201,2.4069321
3202,2.409666114
3203,2.425685113
3204,2.391218172
3205,2.385688699
3206,2.421070379
3207,2.379098862
3208,2.405773228
3209,2.380440061
3210,2.434760177
3211,2.364885011
3212,2.387422164
3213,2.385787686
3214,2.384512374
3215,2.370667064
3216,2.412676699
3217,2.385952503
3218,2.414387983
3219,2.413655874
3220,2.425166331
3221,2.400498594
3222,2.381383963
3223,2.443033075
3224,2.380732475
3225,2.378978697
3226,2.402028154
3227,2.425639324
3228,2.40251456
3229,2.387653284
3230,2.402686294
3231,2.376485914
3232,2.423216745
3233,2.426879104
3234,2.404330983
3235,2.387131548
3236,2.417763672
3237,2.406193664
3238,2.386111397
3239,2.373016236
3240,2.389700387
3241,2.367069067
3242,2.401249717
3243,2.402524022
3244,2.39432148
3245,2.424271449
3246,2.393056554
3247,2.413009613
3248,2.382883743
3249,2.381080273
3250,2.391018534
3251,2.376103194
3252,2.387319517
3253,2.412081751
3254,2.403404263
3255,2.4073344
3256,2.390971177
3257,2.414525252
3258,2.384636735
3259,2.403953493
3260,2.410524902
3261,2.389830289
3262,2.376321447
3263,2.375198903
3264,2.414803546
3265,2.398753748
3266,2.40626045
3267,2.389938238
3268,2.38639581
3269,2.432119849
3270,2.400868141
3271,2.385603878
3272,2.404313743
3273,2.433377755
3274,2.376103825
3275,2.401435701
3276,2.377775136
3277,2.433008234
3278,2.400064801
3279,2.393538248
3280,2.392698965
3281,2.400490525
3282,2.406014333
3283,2.428375444
3284,2.396799543
3285,2.405078748
3286,2.390838218
3287,2.421789823
3288,2.370307206
3289,2.389564178
3290,2.428196899
3291,2.389439414
3292,2.402704946
3293,2.360912785
3294,2.412649516
3295,2.376340784
3296,2.398390585
3297,2.400000783
3298,2.419575866
3299,2.423299
3300,2.390920315
3301,2.418615052
3302,2.419932624
3303,2.417351312
3304,2.389944795
3305,2.386488018
3306,2.383458049
3307,2.393293466
3308,2.374715854
3309,2.378804781
3310,2.381882681
3311,2.421527239
3312,2.418553224
3313,2.398248123
3314,2.387105191
3315,2.408275452
3316,2.426341693
3317,2.409506614
3318,2.424320072
3319,2.398681309
3320,2.430120371
3321,2.43834463
3322,2.415074251
3323,2.418504705
3324,2.416341843
3325,2.351006703
3326,2.405189415
3327,2.400853457
3328,2.351944982
3329,2.413624825
3330,2.423144537
3331,2.398724375
3332,2.394390019
3333,2.408395904
3334,2.383706168
3335,2.375434175
3336,2.404021772
3337,2.412909517
3338,2.376052976
3339,2.373881696
3340,2.42143777
3341,2.416355863
3342,2.397058593
3343,2.414343883
3344,2.376255518
3345,2.4085317
3346,2.386144532
3347,2.397879073
3348,2.4143146
3349,2.428533761
3350,2.416287355
3351,2.404665161
3352,2.402404211
3353,2.378162297
3354,2.359037085
3355,2.389759788
3356,2.402261306
3357,2.411333378
3358,2.408523868
3359,2.398853576
3360,2.378617137
3361,2.364778589
3362,2.430896227
3363,2.389931637
3364,2.387410853
3365,2.418866607
3366,2.360497117
3367,2.388482928
3368,2.390888911
3369,2.409696727
3370,2.382120241
3371,2.42300091
3372,2.40976782
3373,2.46350315
3374,2.397104732
3375,2.409057442
3376,2.429885968
3377,2.409612036
3378,2.383118532
3379,2.381438359
3380,2.401339433
3381,2.376917977
3382,2.419429263
3383,2.38056343
3384,2.400964299
3385,2.370617101
3386,2.405072466
3387,2.393618467
3388,2.43705083
3389,2.37478246
3390,2.385740466
3391,2.38438591
3392,2.404007755
3393,2.445798976
3394,2.414440104
3395,2.402336275
3396,2.373351039
3397,2.369514266
3398,2.371439381
3399,2.408827986
3400,2.433348984
3401,2.415019538
3402,2.400690681
3403,2.39343
3404,2.426467139
3405,2.380534295
3406,2.383439917
3407,2.382313418
3408,2.412531824
3409,2.415188548
3410,2.401095282
3411,2.42447033
3412,2.398851499
3413,2.39012412
3414,2.395983129
3415,2.402475194
3416,2.429909133
3417,2.400887277
3418,2.429244875
3419,2.40131047
3420,2.391814268
3421,2.41304359
3422,2.401551699
3423,2.395939299
3424,2.413426292
3425,2.395700677
3426,2.39407331
3427,2.4200923
3428,2.380894642
3429,2.376603087
3430,2.383190896
3431,2.383155942
3432,2.401566691
3433,2.366031276
3434,2.375004887
3435,2.400190861
3436,2.447839665
3437,2.441219954
3438,2.415754115
3439,2.36330376
3440,2.380704062
3441,2.392377237
3442,2.392662897
3443,2.408595964
3444,2.398272885
3445,2.40826219
3446,2.406083966
3447,2.382174828
3448,2.434831091
3449,2.382470109
3450,2.37704915
3451,2.42048044
3452,2.404352795
3453,2.433144589
3454,2.385861743
3455,2.422902495
3456,2.41738779
3457,2.425943667
3458,2.402641471
3459,2.397759687
3460,2.408683723
3461,2.368671319
3462,2.412649419
3463,2.427248833
3464,2.368901024
3465,2.401121631
3466,2.403453878
3467,2.426229164
3468,2.389866
3469,2.391058237
3470,2.417373926
3471,2.412604896
3472,2.365236073
3473,2.39058249
3474,2.441205398
3475,2.431068525
3476,2.43935658
3477,2.404996986
3478,2.362773463
3479,2.431642775
3480,2.391947748
3481,2.388090669
3482,2.405745756
3483,2.403793355
3484,2.397006989
3485,2.405742596
3486,2.38960671
3487,2.412983476
3488,2.421693115
3489,2.379742426
3490,2.363594363
3491,2.389214345
3492,2.390771161
3493,2.401782636
3494,2.366985375
3495,2.416660531
3496,2.419901219
3497,2.429724415
3498,2.383787319
3499,2.39543768
3500,2.397513691
3501,2.401974131
3502,2.385834653
3503,2.39053621
3504,2.405111077
3505,2.405862698
3506,2.372169584
3507,2.395638922
3508,2.388936003
3509,2.399767885
3510,2.41652713
3511,2.415710483
3512,2.390720473
3513,2.382832458
3514,2.397075851
3515,2.415364094
3516,2.443412885
3517,2.383443304
3518,2.388227189
3519,2.429978905
3520,2.384545441
3521,2.400205124
3522,2.406094828
3523,2.410196015
3524,2.387515331
3525,2.432351437
3526,2.373093105
3527,2.363501066
3528,2.407176143
3529,2.422358587
3530,2.384779212
3531,2.378965386
3532,2.394687123
3533,2.399667617
3534,2.401157179
3535,2.433639973
3536,2.405277169
3537,2.416839963
3538,2.406592047
3539,2.408133881
3540,2.435504635
3541,2.37424315
3542,2.407167622
3543,2.406092781
3544,2.408737909
3545,2.397285489
3546,2.358586676
3547,2.371932087
3548,2.427583277
3549,2.399362735
3550,2.418352903
3551,2.381821727
3552,2.407740981
3553,2.401025081
3554,2.39162475
3555,2.40520696
3556,2.402162667
3557,2.411094399
3558,2.399998393
3559,2.378825459
3560,2.423677629
3561,2.389750784
3562,2.398879032
3563,2.420766463
3564,2.39796883
3565,2.399866667
3566,2.39522526
3567,2.410249582
3568,2.390183896
3569,2.373664733
3570,2.361269959
3571,2.403111281
3572,2.356793452
3573,2.37924515
3574,2.41070811
3575,2.396670013
3576,2.396301697
3577,2.389729301
3578,2.406133519
3579,2.408720847
3580,2.39506029
3581,2.373447668
3582,2.377167624
3583,2.383239278
3584,2.393250951
3585,2.398688454
3586,2.41749367
3587,2.376284405
3588,2.425904287
3589,2.409157861
3590,2.390078463
3591,2.409627308
3592,2.415177747
3593,2.368949707
3594,2.419394284
3595,2.370532804
3596,2.361747752
3597,2.377819209
3598,2.363792427
3599,2.385168402
3600,2.409725483
3601,2.405830775
3602,2.390574346
3603,2.426863621
3604,2.424602713
3605,2.439571425
3606,2.422890508
3607,2.395319308
3608,2.400433489
3609,2.412085001
3610,2.391699575
3611,2.402908972
3612,2.439154225
3613,2.414187273
3614,2.444503401
3615,2.422528838
3616,2.438458475
3617,2.469360116
3618,2.415405394
3619,2.444339082
3620,2.438978319
3621,2.427487033
3622,2.465691011
3623,2.477492879
3624,2.426088488
3625,2.468490283
3626,2.45704001
3627,2.487246345
3628,2.483039785
3629,2.529518998
3630,2.553164026
3631,2.525321198
3632,2.574039971
3633,2.610384774
3634,2.561280791
3635,2.607006764
3636,2.621998282
3637,2.641346679
3638,2.651448783
3639,2.705409919
3640,2.695505586
3641,2.684964909
3642,2.704486119
3643,2.728486964
3644,2.792858269
3645,2.732727109
3646,2.778797655
3647,2.770345077
3648,2.749239643
3649,2.757517304
3650,2.863203608
3651,2.804669555
3652,2.791012887
3653,2.820119255
3654,2.798409036
3655,2.821847814
3656,2.772704424
3657,2.773541137
3658,2.756827865
3659,2.74472684
3660,2.766011493
3661,2.723163165
3662,2.708119025
3663,2.739040973
3664,2.696334672
3665,2.69679505
3666,2.691450455
3667,2.63889619
3668,2.65264245
3669,2.58798294
3670,2.590979834
3671,2.576673681
3672,2.578346477
3673,2.579642969
3674,2.522714424
3675,2.486203709
3676,2.493063282
3677,2.509631807
3678,2.486758369
3679,2.511884895
3680,2.51612723
3681,2.477006621
3682,2.44739749
3683,2.457954217
3684,2.420315031
3685,2.419750577
3686,2.415511824
3687,2.417542276
3688,2.41538133
3689,2.422745988
3690,2.391939427
3691,2.425206635
3692,2.405100437
3693,2.427533925
3694,2.400704558
3695,2.37152447
3696,2.412457685
3697,2.388807935
3698,2.380390351
3699,2.414824169
3700,2.407893728
3701,2.411293825
3702,2.415435344
3703,2.393446206
3704,2.428527623
3705,2.409885212
3706,2.419071625
3707,2.369460616
3708,2.385983295
3709,2.386355939
3710,2.413359818
3711,2.389342751
3712,2.414849122
3713,2.380827947
3714,2.379023426
3715,2.39373788
3716,2.414565443
3717,2.37826912
3718,2.410400034
3719,2.409153596
3720,2.374459522
3721,2.387579746
3722,2.416826373
3723,2.3823222
3724,2.412243494
3725,2.435345471
3726,2.375629622
3727,2.422976388
3728,2.372801139
3729,2.405559341
3730,2.380597544
3731,2.366875929
3732,2.420170477
3733,2.374200751
3734,2.378361275
3735,2.428481063
3736,2.37462764
3737,2.382034292
3738,2.381748228
3739,2.409990865
3740,2.397497432
3741,2.384603618
3742,2.3758302
3743,2.386691305
3744,2.384733982
3745,2.415715927
3746,2.361071539
3747,2.378611382
3748,2.413428154
3749,2.372609438
3750,2.427864545
3751,2.370750338
3752,2.4212791
3753,2.428371234
3754,2.401613845
3755,2.369809963
3756,2.392867908
3757,2.39725684
3758,2.425871589
3759,2.403972138
3760,2.380996302
3761,2.410406422
3762,2.385415212
3763,2.361205329
3764,2.34379345
3765,2.415496436
3766,2.416143197
3767,2.394559509
3768,2.406114863
3769,2.395799377
3770,2.400180335
3771,2.403892449
3772,2.433447575
3773,2.426717501
3774,2.42586043
3775,2.394451309
3776,2.362844586
3777,2.406266859
3778,2.438673399
3779,2.352227069
3780,2.408507777
3781,2.415780387
3782,2.417346103
3783,2.429821541
3784,2.4198144
3785,2.380738015
3786,2.413427788
3787,2.401240445
3788,2.385271325
3789,2.4057466
3790,2.391036288
3791,2.393019339
3792,2.422034197
3793,2.421844641
3794,2.396253887
3795,2.380421764
3796,2.392567404
3797,2.384334393
3798,2.386269795
3799,2.404548986
3800,2.43334945
3801,2.404055696
3802,2.383211809
3803,2.346134439
3804,2.369288989
3805,2.383488042
3806,2.417908392
3807,2.400162869
3808,2.3967879
3809,2.410243832
3810,2.408526422
3811,2.395950534
3812,2.404220236
3813,2.38399548
3814,2.411423286
3815,2.38839535
3816,2.417009327
3817,2.415583424
3818,2.380268653
3819,2.354483842
3820,2.398787955
3821,2.358001024
3822,2.441073248
3823,2.406329359
3824,2.397354504
3825,2.420270259
3826,2.410819696
3827,2.398495822
3828,2.408424738
3829,2.394235429
3830,2.406992608
3831,2.395135718
3832,2.384833238
3833,2.428940865
3834,2.395681221
3835,2.396057287
3836,2.414529442
3837,2.384996113
3838,2.375736545
3839,2.417278099
3840,2.401391935
3841,2.411523978
3842,2.401858217
3843,2.443861333
3844,2.411460669
3845,2.420287705
3846,2.395715332
3847,2.397531353
3848,2.390616544
3849,2.416159567
3850,2.330120766
3851,2.427964519
3852,2.413353336
3853,2.394282201
3854,2.445277398
3855,2.405624754
3856,2.371799879
3857,2.400074957
3858,2.405989726
3859,2.419952091
3860,2.410128878
3861,2.402165808
3862,2.393755357
3863,2.419436231
3864,2.370638546
3865,2.40722776
3866,2.403943813
3867,2.428713453
3868,2.410922427
3869,2.41434925
3870,2.377491308
3871,2.407741422
3872,2.391793085
3873,2.402694397
3874,2.376655053
3875,2.403326219
3876,2.382362135
3877,2.39842453
3878,2.408293966
3879,2.408930492
3880,2.42482859
3881,2.426976991
3882,2.392148659
3883,2.377241044
3884,2.381938813
3885,2.404198719
3886,2.405395441
3887,2.423170272
3888,2.396429566
3889,2.41244294
3890,2.407420252
3891,2.423577541
3892,2.385895059
3893,2.397073997
3894,2.394318252
3895,2.379022103
3896,2.379155784
3897,2.409321431
3898,2.395257554
3899,2.396950441
3900,2.432341695
3901,2.395342191
3902,2.380656705
3903,2.391744986
3904,2.405421379
3905,2.411104902
3906,2.365640405
3907,2.376948327
3908,2.455810501
3909,2.392000848
3910,2.423198842
3911,2.36175281
3912,2.410671577
3913,2.406082542
3914,2.391424968
3915,2.393129605
3916,2.366929294
3917,2.416274129
3918,2.430924343
3919,2.370013169
3920,2.368745471
3921,2.440015884
3922,2.382862565
3923,2.418707207
3924,2.406176882
3925,2.420721667
3926,2.387761308
3927,2.398567464
3928,2.42870123
3929,2.403888047
3930,2.390187485
3931,2.395957298
3932,2.371749873
3933,2.385714355
3934,2.390984829
3935,2.408788356
3936,2.421795397
3937,2.415830482
3938,2.383698398
3939,2.374507731
3940,2.38830466
3941,2.404554313
3942,2.374615953
3943,2.413779502
3944,2.371377452
3945,2.385654472
3946,2.392753894
3947,2.408817684
3948,2.398018277
3949,2.395694239
3950,2.370281838
3951,2.391705934
3952,2.417453674
3953,2.410418665
3954,2.378746214
3955,2.401800908
3956,2.439333959
3957,2.374552533
3958,2.406858396
3959,2.404956889
3960,2.400463142
3961,2.382425466
3962,2.410415266
3963,2.399545183
3964,2.413010953
3965,2.380995574
3966,2.432880062
3967,2.409042785
3968,2.392424764
3969,2.408717812
3970,2.378555021
3971,2.395731065
3972,2.372950315
3973,2.384922273
3974,2.378670445
3975,2.408009568
3976,2.389923564
3977,2.42146514
3978,2.386199831
3979,2.396864209
3980,2.377249924
3981,2.415829473
3982,2.423642833
3983,2.402929597
3984,2.405821075
3985,2.393544963
3986,2.421604139
3987,2.413311223
3988,2.384011304
3989,2.358180393
3990,2.399763618
3991,2.398641252
3992,2.405115387
3993,2.382297711
3994,2.395304019
3995,2.408810842
3996,2.390311868
3997,2.373616405
3998,2.443468505
3999,2.445296231
4000,2.400246913
