Raman Shift,Intensity 
400,8.408143235
401,8.392547341
402,8.396800058
403,8.394826762
404,8.39244751
405,8.386115673
406,8.404852199
407,8.402236304
408,8.405997646
409,8.400276425
410,8.395544263
411,8.402955102
412,8.385160976
413,8.392257978
414,8.408062942
415,8.3899667
416,8.413142842
417,8.390130258
418,8.387238987
419,8.412215288
420,8.40810392
421,8.408699416
422,8.417111856
423,8.400135818
424,8.389624425
425,8.398092284
426,8.40612799
427,8.4036847
428,8.398648387
429,8.390320274
430,8.389791755
431,8.406789472
432,8.391727426
433,8.385199151
434,8.400239966
435,8.412529215
436,8.394859276
437,8.413203536
438,8.390253017
439,8.411391594
440,8.3946967
441,8.393116979
442,8.402349799
443,8.382624818
444,8.390985861
445,8.389720151
446,8.393968162
447,8.401647606
448,8.391202763
449,8.419412729
450,8.38834712
451,8.41105149
452,8.397154134
453,8.396877017
454,8.406402106
455,8.414684108
456,8.401914815
457,8.384562553
458,8.390695279
459,8.400665092
460,8.400668585
461,8.386389187
462,8.38875223
463,8.408361886
464,8.404563698
465,8.408822475
466,8.407319646
467,8.400532349
468,8.411415796
469,8.380560161
470,8.408953422
471,8.391648018
472,8.391294518
473,8.406245467
474,8.395109772
475,8.392936139
476,8.399391475
477,8.381397327
478,8.397814545
479,8.400443128
480,8.396087092
481,8.397885715
482,8.417369218
483,8.406808578
484,8.419224444
485,8.396422611
486,8.3892835
487,8.400320791
488,8.397589042
489,8.391004226
490,8.406553084
491,8.388814614
492,8.400538674
493,8.412512348
494,8.404733228
495,8.381706278
496,8.378833754
497,8.3916116
498,8.401620381
499,8.402404285
500,8.388952632
501,8.391901459
502,8.404844521
503,8.410902692
504,8.403409711
505,8.384905068
506,8.418030959
507,8.397595559
508,8.424934284
509,8.395452486
510,8.384933848
511,8.401919436
512,8.399391648
513,8.40566488
514,8.394244258
515,8.391981673
516,8.395228945
517,8.391900843
518,8.406389403
519,8.404865463
520,8.407393292
521,8.40459668
522,8.40742536
523,8.406767338
524,8.412501568
525,8.388251008
526,8.405343449
527,8.388373341
528,8.392482066
529,8.406959427
530,8.398221004
531,8.397509227
532,8.40862717
533,8.39968041
534,8.40442019
535,8.384980592
536,8.384870899
537,8.404773767
538,8.412077946
539,8.410040192
540,8.400227164
541,8.385265047
542,8.395502465
543,8.39570086
544,8.417518724
545,8.407779343
546,8.388346837
547,8.394061645
548,8.412471395
549,8.405883909
550,8.407355217
551,8.412258319
552,8.417165861
553,8.410094616
554,8.403024404
555,8.40633157
556,8.390907617
557,8.394236254
558,8.386108645
559,8.388472376
560,8.404201647
561,8.414487516
562,8.399987366
563,8.388103281
564,8.405418773
565,8.385641773
566,8.40034054
567,8.406353485
568,8.39976105
569,8.39988985
570,8.414163716
571,8.400783879
572,8.415614226
573,8.38991745
574,8.411343852
575,8.414983841
576,8.390133738
577,8.380817396
578,8.395828198
579,8.407134326
580,8.401820899
581,8.397830359
582,8.39639016
583,8.407571324
584,8.418427581
585,8.409371076
586,8.384336333
587,8.392656822
588,8.388485211
589,8.408250649
590,8.389427139
591,8.408332078
592,8.412323101
593,8.402895628
594,8.395321324
595,8.396801641
596,8.399005841
597,8.397752467
598,8.409364595
599,8.397414239
600,8.39164056
601,8.401811612
602,8.388370097
603,8.393687453
604,8.392721781
605,8.402869645
606,8.380203532
607,8.39943189
608,8.412408199
609,8.402944862
610,8.405161402
611,8.409225058
612,8.403664277
613,8.385268182
614,8.413654421
615,8.38950815
616,8.413784779
617,8.394263206
618,8.386015918
619,8.397299437
620,8.404334689
621,8.392281104
622,8.400653541
623,8.381867482
624,8.378151831
625,8.405198668
626,8.395685473
627,8.401061138
628,8.396487464
629,8.405257646
630,8.404633453
631,8.394869832
632,8.398551959
633,8.404704399
634,8.412770976
635,8.407456511
636,8.410771883
637,8.397607312
638,8.39704485
639,8.402111355
640,8.403600883
641,8.400780697
642,8.402215089
643,8.400251782
644,8.403650082
645,8.389744605
646,8.385621392
647,8.388207098
648,8.393745824
649,8.410861898
650,8.40429076
651,8.414459339
652,8.418065799
653,8.384873626
654,8.396016675
655,8.394686056
656,8.392968078
657,8.385039324
658,8.391198804
659,8.393053082
660,8.406243423
661,8.418406664
662,8.404804701
663,8.394859346
664,8.393251943
665,8.396267697
666,8.406262364
667,8.397063293
668,8.404182753
669,8.388044763
670,8.404950054
671,8.391633355
672,8.39499098
673,8.397116776
674,8.40896911
675,8.39566388
676,8.394589383
677,8.397803071
678,8.3965512
679,8.411127295
680,8.408458425
681,8.399097504
682,8.393306586
683,8.408436249
684,8.399736363
685,8.399461031
686,8.393724627
687,8.400299316
688,8.392591366
689,8.415863162
690,8.402484415
691,8.394792171
692,8.396321111
693,8.408020682
694,8.396549787
695,8.404755843
696,8.399790879
697,8.396989464
698,8.392561477
699,8.398516919
700,8.396497913
701,8.398838511
702,8.405752646
703,8.398789393
704,8.403448563
705,8.413503205
706,8.401874167
707,8.40293998
708,8.422505542
709,8.411162798
710,8.402622169
711,8.415910892
712,8.403244143
713,8.393519874
714,8.396536004
715,8.393114197
716,8.403648171
717,8.406642591
718,8.390686846
719,8.403496568
720,8.401164577
721,8.39763445
722,8.386610466
723,8.390311412
724,8.401160565
725,8.383677569
726,8.423208741
727,8.402199192
728,8.401692771
729,8.405986988
730,8.400950681
731,8.405431506
732,8.395665202
733,8.447808778
734,8.415651336
735,8.400821544
736,8.381355175
737,8.39462064
738,8.393696515
739,8.3878355
740,8.403564118
741,8.394789243
742,8.409293638
743,8.418597132
744,8.398174382
745,8.409236286
746,8.400153592
747,8.387137525
748,8.383118376
749,8.390577364
750,8.423781004
751,8.416110984
752,8.408341865
753,8.383076587
754,8.404846747
755,8.417541297
756,8.401680941
757,8.403165556
758,8.395059827
759,8.409670927
760,8.395128362
761,8.388569115
762,8.401551692
763,8.409496863
764,8.399099188
765,8.415116539
766,8.40734603
767,8.390748491
768,8.414588043
769,8.404604759
770,8.401474638
771,8.412964844
772,8.380154028
773,8.388279858
774,8.412123876
775,8.401433982
776,8.396244591
777,8.405024462
778,8.403458114
779,8.395143631
780,8.415012031
781,8.403585616
782,8.398619673
783,8.415564231
784,8.404512376
785,8.403381579
786,8.399319663
787,8.40992985
788,8.396143425
789,8.398655365
790,8.41275159
791,8.407574194
792,8.395690059
793,8.399436971
794,8.405549346
795,8.398305676
796,8.415144844
797,8.390933055
798,8.391084939
799,8.392052194
800,8.386910871
801,8.391522128
802,8.40256288
803,8.409286816
804,8.427836903
805,8.397877329
806,8.385672307
807,8.389533515
808,8.397206778
809,8.384256497
810,8.389943016
811,8.391879626
812,8.387903314
813,8.406007518
814,8.377572412
815,8.399397463
816,8.401775489
817,8.410016615
818,8.404184486
819,8.401498279
820,8.398346085
821,8.402095028
822,8.390620281
823,8.395641913
824,8.397389291
825,8.402441505
826,8.393804824
827,8.403412022
828,8.38878061
829,8.394821019
830,8.408699272
831,8.398442277
832,8.404588525
833,8.42162241
834,8.417487384
835,8.40291526
836,8.418863672
837,8.406411782
838,8.402630351
839,8.4011308
840,8.401630004
841,8.413596431
842,8.399187404
843,8.387258747
844,8.398009608
845,8.396936667
846,8.393015897
847,8.395988256
848,8.425196889
849,8.384901891
850,8.416338021
851,8.422864182
852,8.397056628
853,8.399282475
854,8.391341441
855,8.395363429
856,8.408968937
857,8.400677692
858,8.40308546
859,8.406457814
860,8.40849342
861,8.397923382
862,8.398351395
863,8.387679333
864,8.391445583
865,8.407842157
866,8.39607267
867,8.406060686
868,8.396500284
869,8.399370989
870,8.405880986
871,8.421238181
872,8.393744593
873,8.38703871
874,8.403474564
875,8.389835369
876,8.392037115
877,8.396900208
878,8.399018499
879,8.397899226
880,8.401242399
881,8.387563267
882,8.408368443
883,8.391140741
884,8.404034557
885,8.410313088
886,8.379339574
887,8.40616006
888,8.393510506
889,8.390778176
890,8.394515292
891,8.390245073
892,8.412425978
893,8.411666095
894,8.396475209
895,8.408170208
896,8.401734562
897,8.402874508
898,8.414763268
899,8.423247652
900,8.418852417
901,8.385615213
902,8.39902901
903,8.39895408
904,8.409685034
905,8.396373922
906,8.386118434
907,8.411496898
908,8.394200928
909,8.397660815
910,8.407159812
911,8.380932218
912,8.386616845
913,8.378052581
914,8.405879183
915,8.392203004
916,8.392763722
917,8.397558034
918,8.413972421
919,8.408584466
920,8.385880012
921,8.405268549
922,8.384300371
923,8.418412536
924,8.398048675
925,8.404204338
926,8.415401846
927,8.38618853
928,8.401127478
929,8.412735022
930,8.391813895
931,8.39363952
932,8.392854596
933,8.398382897
934,8.405653377
935,8.413819154
936,8.393329948
937,8.411326744
938,8.415053423
939,8.389110589
940,8.402140835
941,8.391000099
942,8.410796567
943,8.41764843
944,8.391102914
945,8.393713116
946,8.38472967
947,8.401512132
948,8.416628927
949,8.384724515
950,8.403107367
951,8.399487902
952,8.401095623
953,8.397958373
954,8.387345443
955,8.391604141
956,8.39070938
957,8.396519077
958,8.405604295
959,8.391596886
960,8.403198898
961,8.380855085
962,8.404357306
963,8.394809352
964,8.401576253
965,8.400835018
966,8.39487239
967,8.40717131
968,8.400681896
969,8.405678285
970,8.403936681
971,8.40317425
972,8.417694869
973,8.391857673
974,8.406715763
975,8.402231115
976,8.394477615
977,8.413126066
978,8.396835986
979,8.381433779
980,8.40226887
981,8.386545789
982,8.384932944
983,8.396110151
984,8.405228347
985,8.407308675
986,8.398275059
987,8.415285976
988,8.39676431
989,8.379925721
990,8.394895955
991,8.402944862
992,8.409778409
993,8.405523195
994,8.39589087
995,8.400366857
996,8.400442388
997,8.403195337
998,8.404730164
999,8.429014132
1000,8.402002743
1001,8.406660931
1002,8.38169568
1003,8.399613506
1004,8.398850048
1005,8.400498518
1006,8.395172643
1007,8.389763766
1008,8.396871068
1009,8.416071636
1010,8.406250004
1011,8.397813115
1012,8.408892461
1013,8.417668238
1014,8.415548829
1015,8.394691312
1016,8.410369188
1017,8.407949483
1018,8.375463908
1019,8.407885741
1020,8.400487868
1021,8.397064635
1022,8.397305689
1023,8.402387368
1024,8.396184469
1025,8.384045263
1026,8.389233078
1027,8.401569699
1028,8.409009935
1029,8.398718112
1030,8.382106514
1031,8.392171864
1032,8.40573144
1033,8.404133987
1034,8.412242431
1035,8.3963074
1036,8.397591444
1037,8.38344682
1038,8.404651009
1039,8.39332622
1040,8.40564347
1041,8.404463035
1042,8.400698809
1043,8.396840205
1044,8.402812104
1045,8.398869805
1046,8.419049912
1047,8.396988917
1048,8.41174365
1049,8.391891866
1050,8.392883769
1051,8.388823537
1052,8.407303355
1053,8.391056566
1054,8.402849581
1055,8.407504072
1056,8.388787217
1057,8.408627958
1058,8.405315825
1059,8.377580089
1060,8.400082619
1061,8.397305771
1062,8.395317865
1063,8.387122779
1064,8.400421108
1065,8.396724106
1066,8.407797249
1067,8.40161442
1068,8.401712193
1069,8.40157848
1070,8.400281675
1071,8.38994524
1072,8.395360887
1073,8.397528712
1074,8.404699702
1075,8.400218712
1076,8.395399278
1077,8.396151251
1078,8.395049356
1079,8.393888911
1080,8.401537796
1081,8.39920803
1082,8.413208876
1083,8.393956976
1084,8.401691587
1085,8.397149156
1086,8.405512457
1087,8.405462509
1088,8.402566646
1089,8.406135107
1090,8.391023765
1091,8.40377943
1092,8.393505765
1093,8.406907617
1094,8.39651647
1095,8.392578478
1096,8.392772349
1097,8.393074782
1098,8.401445115
1099,8.40834203
1100,8.397540468
1101,8.39816412
1102,8.397602006
1103,8.421064239
1104,8.405120723
1105,8.387439977
1106,8.393077429
1107,8.405241293
1108,8.40143065
1109,8.398444173
1110,8.390891448
1111,8.391788962
1112,8.392777046
1113,8.395795368
1114,8.394008689
1115,8.394889349
1116,8.420017489
1117,8.395428866
1118,8.399279559
1119,8.402977219
1120,8.400283596
1121,8.382074419
1122,8.404783241
1123,8.411061633
1124,8.394954945
1125,8.426770324
1126,8.396279131
1127,8.380882078
1128,8.40009217
1129,8.386082127
1130,8.401685155
1131,8.40418588
1132,8.405780115
1133,8.405722048
1134,8.398798721
1135,8.402790851
1136,8.403433985
1137,8.4035233
1138,8.402099168
1139,8.39333672
1140,8.389646053
1141,8.38780878
1142,8.387734788
1143,8.405562129
1144,8.402876034
1145,8.40007577
1146,8.400164718
1147,8.412979092
1148,8.416746494
1149,8.422753692
1150,8.400126439
1151,8.401137395
1152,8.390136362
1153,8.39730837
1154,8.400738521
1155,8.391890512
1156,8.400160222
1157,8.418255752
1158,8.375862079
1159,8.41005075
1160,8.406672054
1161,8.400479087
1162,8.3924382
1163,8.384897602
1164,8.386078199
1165,8.400398769
1166,8.411069698
1167,8.405227729
1168,8.397676967
1169,8.395032645
1170,8.411223635
1171,8.412777876
1172,8.390796758
1173,8.408620041
1174,8.40561676
1175,8.407273487
1176,8.389089629
1177,8.391043082
1178,8.401314783
1179,8.394832916
1180,8.413226298
1181,8.41181952
1182,8.3888987
1183,8.395705392
1184,8.402394547
1185,8.394840127
1186,8.39887415
1187,8.414114067
1188,8.394759034
1189,8.404798358
1190,8.399704447
1191,8.408611348
1192,8.405187367
1193,8.405105901
1194,8.413019072
1195,8.385963123
1196,8.410922607
1197,8.404121774
1198,8.399914151
1199,8.405628794
1200,8.402768393
1201,8.391558437
1202,8.401417
1203,8.409924403
1204,8.406977953
1205,8.411675941
1206,8.428289933
1207,8.417961074
1208,8.395632582
1209,8.409923293
1210,8.409077951
1211,8.418267959
1212,8.409415415
1213,8.395917183
1214,8.405847824
1215,8.411144725
1216,8.399497014
1217,8.399159365
1218,8.418778326
1219,8.408468141
1220,8.394174525
1221,8.388369104
1222,8.410319569
1223,8.408160678
1224,8.390588722
1225,8.39822391
1226,8.390239302
1227,8.405245346
1228,8.40345134
1229,8.394479962
1230,8.396915805
1231,8.405038275
1232,8.405822275
1233,8.404451629
1234,8.410906971
1235,8.418054074
1236,8.390758747
1237,8.396338874
1238,8.395385261
1239,8.414517523
1240,8.415489793
1241,8.40945714
1242,8.407720933
1243,8.398202558
1244,8.391585363
1245,8.40668109
1246,8.415984237
1247,8.385833825
1248,8.393110188
1249,8.397973111
1250,8.395394511
1251,8.41568462
1252,8.415064589
1253,8.402194152
1254,8.409459993
1255,8.393041726
1256,8.398403967
1257,8.412418719
1258,8.398502877
1259,8.403766156
1260,8.407091612
1261,8.39192746
1262,8.388980268
1263,8.404573292
1264,8.390944006
1265,8.3902748
1266,8.407994471
1267,8.421609199
1268,8.403381887
1269,8.383424972
1270,8.411096468
1271,8.393750086
1272,8.403537839
1273,8.402988726
1274,8.398199289
1275,8.394184304
1276,8.394015459
1277,8.400753266
1278,8.413109075
1279,8.405739834
1280,8.414698071
1281,8.411176547
1282,8.426909194
1283,8.394630531
1284,8.390403519
1285,8.405364049
1286,8.404949968
1287,8.40082493
1288,8.389976398
1289,8.392123555
1290,8.390225497
1291,8.402436139
1292,8.39985101
1293,8.392848401
1294,8.406032797
1295,8.397887039
1296,8.412215912
1297,8.407700059
1298,8.414849087
1299,8.4098753
1300,8.412533306
1301,8.400243427
1302,8.411391842
1303,8.411600527
1304,8.399742604
1305,8.390184074
1306,8.398399675
1307,8.408684899
1308,8.421234052
1309,8.40546493
1310,8.399331191
1311,8.409759629
1312,8.401268927
1313,8.396458614
1314,8.384056187
1315,8.407644561
1316,8.406315305
1317,8.409057941
1318,8.397945038
1319,8.40065929
1320,8.39051133
1321,8.389824363
1322,8.400305729
1323,8.412864318
1324,8.398930005
1325,8.410061655
1326,8.391791109
1327,8.39228844
1328,8.411140876
1329,8.395670102
1330,8.408744312
1331,8.419617325
1332,8.408832348
1333,8.414634925
1334,8.423003369
1335,8.378297626
1336,8.398589495
1337,8.391167261
1338,8.401711514
1339,8.403479044
1340,8.391061366
1341,8.417829323
1342,8.395506008
1343,8.420587756
1344,8.405793524
1345,8.390655995
1346,8.414706342
1347,8.406521278
1348,8.411527667
1349,8.389784687
1350,8.404374007
1351,8.401753215
1352,8.402086716
1353,8.409220312
1354,8.398766169
1355,8.393857361
1356,8.404626018
1357,8.40746487
1358,8.407192588
1359,8.40075904
1360,8.393182016
1361,8.408344742
1362,8.404009801
1363,8.396379367
1364,8.406592374
1365,8.384144532
1366,8.391306189
1367,8.400345544
1368,8.39675058
1369,8.398362682
1370,8.397676321
1371,8.399191579
1372,8.390496133
1373,8.415918534
1374,8.411741813
1375,8.404503434
1376,8.390445803
1377,8.396679379
1378,8.401349761
1379,8.386311093
1380,8.38874254
1381,8.375326286
1382,8.392787876
1383,8.406968887
1384,8.407240345
1385,8.400026517
1386,8.397726634
1387,8.400350723
1388,8.398510772
1389,8.411935026
1390,8.387555328
1391,8.403010469
1392,8.39925481
1393,8.397273097
1394,8.382766781
1395,8.3859736
1396,8.390684193
1397,8.411232318
1398,8.415968526
1399,8.401301479
1400,8.393380569
1401,8.42333027
1402,8.38560561
1403,8.400376509
1404,8.406607721
1405,8.389809179
1406,8.393410489
1407,8.399712401
1408,8.394071382
1409,8.395444309
1410,8.400594914
1411,8.407585877
1412,8.411873517
1413,8.393638583
1414,8.39926541
1415,8.389848399
1416,8.407091789
1417,8.403877947
1418,8.409662589
1419,8.404440353
1420,8.406227452
1421,8.397238702
1422,8.393137629
1423,8.398911113
1424,8.403594323
1425,8.399937675
1426,8.396673228
1427,8.410739379
1428,8.41886908
1429,8.391250189
1430,8.400197519
1431,8.405241104
1432,8.392365833
1433,8.398381954
1434,8.397370811
1435,8.389251686
1436,8.400348745
1437,8.406214894
1438,8.399086173
1439,8.406826906
1440,8.404118588
1441,8.389583047
1442,8.381480254
1443,8.416599447
1444,8.379704853
1445,8.38997296
1446,8.402015219
1447,8.396356764
1448,8.399436298
1449,8.402650248
1450,8.403166858
1451,8.406491643
1452,8.393986485
1453,8.403853273
1454,8.398962471
1455,8.380736858
1456,8.397573085
1457,8.387506837
1458,8.40160913
1459,8.399058464
1460,8.410918023
1461,8.404705773
1462,8.385724541
1463,8.401869036
1464,8.400769126
1465,8.392070453
1466,8.400640182
1467,8.418325206
1468,8.408729121
1469,8.385312522
1470,8.386415661
1471,8.409782711
1472,8.393323506
1473,8.392040553
1474,8.396275454
1475,8.389110441
1476,8.39348974
1477,8.384424285
1478,8.415469752
1479,8.395714594
1480,8.409045226
1481,8.39079399
1482,8.395646679
1483,8.393173035
1484,8.399838667
1485,8.400907234
1486,8.4005735
1487,8.393378831
1488,8.412267109
1489,8.39685629
1490,8.402369749
1491,8.400902405
1492,8.402886115
1493,8.380443823
1494,8.410245185
1495,8.403009701
1496,8.408114852
1497,8.388927227
1498,8.397942157
1499,8.409104153
1500,8.392505887
1501,8.39935377
1502,8.402682094
1503,8.394660134
1504,8.39902501
1505,8.399837604
1506,8.40469881
1507,8.401184332
1508,8.383322104
1509,8.397034471
1510,8.391093799
1511,8.409827251
1512,8.398233693
1513,8.411661487
1514,8.378586304
1515,8.411306357
1516,8.409453161
1517,8.395904666
1518,8.397298896
1519,8.412921712
1520,8.389753524
1521,8.385099377
1522,8.398009291
1523,8.396576557
1524,8.392113565
1525,8.422349998
1526,8.394342483
1527,8.38775673
1528,8.404701937
1529,8.410074501
1530,8.404655418
1531,8.397303178
1532,8.399859809
1533,8.399283765
1534,8.398135028
1535,8.394396355
1536,8.399780351
1537,8.399807978
1538,8.403392417
1539,8.41310829
1540,8.398145424
1541,8.40190603
1542,8.40872453
1543,8.396963016
1544,8.399328143
1545,8.392698057
1546,8.402071665
1547,8.417343461
1548,8.397438536
1549,8.405153922
1550,8.402733688
1551,8.396891568
1552,8.397875832
1553,8.386192777
1554,8.416988649
1555,8.382271516
1556,8.396478915
1557,8.399899792
1558,8.40753979
1559,8.411766315
1560,8.411127372
1561,8.395574569
1562,8.393169735
1563,8.415923195
1564,8.407324124
1565,8.384392383
1566,8.397271255
1567,8.397946149
1568,8.404062158
1569,8.390550699
1570,8.417092532
1571,8.389266704
1572,8.406950569
1573,8.404629342
1574,8.400696417
1575,8.401417804
1576,8.413356672
1577,8.392358455
1578,8.390219717
1579,8.400332883
1580,8.388493768
1581,8.390623283
1582,8.39377512
1583,8.39638254
1584,8.390937746
1585,8.40401642
1586,8.405588012
1587,8.405405693
1588,8.403516947
1589,8.39717546
1590,8.410697495
1591,8.39830776
1592,8.420181386
1593,8.396995312
1594,8.409693584
1595,8.421278476
1596,8.4071571
1597,8.390506752
1598,8.400265954
1599,8.380555349
1600,8.400932246
1601,8.384682274
1602,8.405009652
1603,8.399035806
1604,8.412457863
1605,8.417170436
1606,8.402819527
1607,8.390003087
1608,8.407980768
1609,8.404815799
1610,8.402073326
1611,8.404405019
1612,8.400307643
1613,8.385360643
1614,8.41319996
1615,8.400168718
1616,8.385330414
1617,8.385239458
1618,8.40419618
1619,8.406208435
1620,8.412935085
1621,8.39439215
1622,8.400881763
1623,8.391123397
1624,8.385969826
1625,8.411557501
1626,8.406592116
1627,8.403999349
1628,8.393539231
1629,8.412369111
1630,8.416876971
1631,8.400908342
1632,8.383136405
1633,8.40302194
1634,8.391521655
1635,8.410302239
1636,8.40270567
1637,8.386633093
1638,8.408539196
1639,8.398863871
1640,8.402113702
1641,8.399200408
1642,8.393910164
1643,8.397499248
1644,8.395513614
1645,8.404437645
1646,8.381455227
1647,8.381157727
1648,8.398960938
1649,8.415089146
1650,8.405598765
1651,8.401910471
1652,8.416236708
1653,8.385702702
1654,8.406795181
1655,8.383863773
1656,8.396673996
1657,8.401013293
1658,8.408457439
1659,8.402666493
1660,8.412162314
1661,8.396614499
1662,8.390617676
1663,8.387687715
1664,8.386537445
1665,8.398759427
1666,8.389173825
1667,8.405550748
1668,8.393684712
1669,8.415747246
1670,8.394544318
1671,8.396431894
1672,8.388201145
1673,8.402435578
1674,8.409913742
1675,8.409937705
1676,8.392939177
1677,8.41029393
1678,8.375444989
1679,8.410416327
1680,8.412910536
1681,8.401253969
1682,8.399062497
1683,8.405545014
1684,8.405387263
1685,8.399176973
1686,8.390264061
1687,8.396293964
1688,8.387163241
1689,8.409979684
1690,8.400805237
1691,8.384980012
1692,8.401112252
1693,8.398370434
1694,8.403006622
1695,8.402257682
1696,8.411738311
1697,8.390615016
1698,8.398911079
1699,8.398499007
1700,8.394450989
1701,8.385948351
1702,8.391801727
1703,8.382025545
1704,8.396934559
1705,8.392885717
1706,8.410063595
1707,8.395868792
1708,8.402944956
1709,8.39376828
1710,8.400420579
1711,8.37857888
1712,8.415325941
1713,8.389993676
1714,8.3955521
1715,8.402679515
1716,8.392544947
1717,8.404355597
1718,8.387087567
1719,8.393917943
1720,8.396065168
1721,8.401302053
1722,8.378819091
1723,8.413625945
1724,8.40688802
1725,8.399483129
1726,8.380047164
1727,8.397531301
1728,8.396961247
1729,8.401961275
1730,8.395315232
1731,8.385921155
1732,8.393280243
1733,8.391293106
1734,8.400966878
1735,8.396409299
1736,8.401637723
1737,8.40202603
1738,8.400351406
1739,8.407805619
1740,8.392408204
1741,8.421938507
1742,8.411420535
1743,8.400780107
1744,8.389692145
1745,8.398021862
1746,8.407985186
1747,8.413274811
1748,8.40523397
1749,8.412541758
1750,8.399651049
1751,8.41382363
1752,8.41996414
1753,8.396477934
1754,8.415564672
1755,8.40864017
1756,8.397899442
1757,8.384619912
1758,8.373467969
1759,8.416908248
1760,8.390121043
1761,8.403366497
1762,8.413407091
1763,8.389645321
1764,8.411903663
1765,8.398967332
1766,8.407535505
1767,8.383868306
1768,8.397435381
1769,8.389892769
1770,8.403502244
1771,8.404738423
1772,8.393624093
1773,8.389218239
1774,8.422670241
1775,8.3962712
1776,8.407686014
1777,8.411016603
1778,8.38176696
1779,8.401077497
1780,8.390409216
1781,8.392260891
1782,8.404647103
1783,8.399010692
1784,8.400617042
1785,8.387676449
1786,8.38150914
1787,8.401274988
1788,8.404040987
1789,8.403484576
1790,8.387710688
1791,8.407789706
1792,8.408127219
1793,8.409748147
1794,8.382851735
1795,8.376613059
1796,8.385203548
1797,8.413204771
1798,8.388188481
1799,8.410088152
1800,8.39190746
1801,8.400230982
1802,8.400377591
1803,8.389520259
1804,8.426988359
1805,8.400875036
1806,8.409944598
1807,8.405664939
1808,8.391819755
1809,8.38868675
1810,8.411174281
1811,8.40075002
1812,8.399678615
1813,8.390060787
1814,8.398205066
1815,8.411721175
1816,8.405527264
1817,8.393976742
1818,8.395076602
1819,8.41249614
1820,8.397622651
1821,8.405302438
1822,8.412131945
1823,8.39904856
1824,8.40949604
1825,8.398409335
1826,8.403345842
1827,8.395368802
1828,8.373672535
1829,8.390605178
1830,8.395870169
1831,8.395039354
1832,8.393488754
1833,8.404090171
1834,8.41576101
1835,8.391146067
1836,8.385312724
1837,8.397298084
1838,8.390967065
1839,8.395268447
1840,8.399958352
1841,8.388392827
1842,8.390116005
1843,8.390615992
1844,8.4128768
1845,8.41727611
1846,8.391758354
1847,8.371562501
1848,8.378813587
1849,8.395838893
1850,8.392530368
1851,8.374557159
1852,8.416773357
1853,8.399436107
1854,8.40212284
1855,8.406981146
1856,8.411945817
1857,8.404689475
1858,8.402168007
1859,8.391469283
1860,8.409859536
1861,8.396809476
1862,8.383027441
1863,8.423412032
1864,8.41640838
1865,8.397551206
1866,8.407566588
1867,8.394683815
1868,8.406339268
1869,8.404067458
1870,8.388171281
1871,8.406184246
1872,8.398294262
1873,8.403620301
1874,8.411400057
1875,8.393846921
1876,8.392006051
1877,8.398483515
1878,8.39045775
1879,8.410649972
1880,8.398267972
1881,8.402605295
1882,8.40644799
1883,8.404821946
1884,8.40551865
1885,8.417347749
1886,8.396317922
1887,8.393519508
1888,8.413089706
1889,8.409852214
1890,8.399609814
1891,8.402703123
1892,8.393887982
1893,8.415721789
1894,8.389230479
1895,8.399791408
1896,8.395230582
1897,8.39165126
1898,8.402532523
1899,8.396373707
1900,8.413791248
1901,8.407409798
1902,8.416841839
1903,8.394862366
1904,8.392067001
1905,8.38799804
1906,8.386973856
1907,8.399549669
1908,8.410130966
1909,8.406796112
1910,8.376126643
1911,8.403335249
1912,8.397666028
1913,8.409006086
1914,8.396189795
1915,8.401310791
1916,8.403183737
1917,8.391180398
1918,8.391936596
1919,8.400149591
1920,8.406604641
1921,8.389707137
1922,8.401886214
1923,8.391896565
1924,8.392817992
1925,8.404909999
1926,8.405661719
1927,8.397807827
1928,8.401986138
1929,8.3985093
1930,8.403073948
1931,8.408218394
1932,8.385600884
1933,8.412448468
1934,8.399317211
1935,8.396089179
1936,8.414327451
1937,8.396581514
1938,8.389449407
1939,8.398479895
1940,8.404105864
1941,8.420570391
1942,8.406150527
1943,8.407662891
1944,8.395407787
1945,8.386801564
1946,8.406158008
1947,8.387563029
1948,8.403324459
1949,8.398900003
1950,8.38666284
1951,8.398750048
1952,8.385755281
1953,8.405213858
1954,8.400621185
1955,8.418331498
1956,8.398474013
1957,8.391323143
1958,8.397154697
1959,8.399681859
1960,8.406500657
1961,8.412679357
1962,8.402615045
1963,8.401778585
1964,8.392931114
1965,8.407048309
1966,8.368262363
1967,8.382243724
1968,8.393197956
1969,8.38649836
1970,8.408713385
1971,8.406354637
1972,8.394393829
1973,8.399238039
1974,8.393992472
1975,8.424640114
1976,8.379329433
1977,8.386139246
1978,8.395012219
1979,8.401934671
1980,8.395575104
1981,8.395073027
1982,8.39694313
1983,8.40493651
1984,8.39869275
1985,8.401176131
1986,8.405266226
1987,8.413266685
1988,8.398549293
1989,8.407351732
1990,8.41286238
1991,8.393775382
1992,8.405259309
1993,8.401178455
1994,8.386655757
1995,8.408739785
1996,8.415998252
1997,8.409235295
1998,8.383026303
1999,8.384372664
2000,8.401228846
2001,8.413899677
2002,8.412453193
2003,8.402127495
2004,8.409533698
2005,8.411685618
2006,8.414684819
2007,8.404952698
2008,8.399980449
2009,8.398186932
2010,8.407055452
2011,8.401115375
2012,8.383425366
2013,8.407459476
2014,8.408292775
2015,8.3961831
2016,8.40156888
2017,8.401315394
2018,8.401937369
2019,8.401126705
2020,8.393521625
2021,8.392056143
2022,8.397102763
2023,8.40791073
2024,8.397927167
2025,8.39879085
2026,8.413862516
2027,8.380598488
2028,8.407795805
2029,8.39725349
2030,8.40002981
2031,8.41012987
2032,8.394688232
2033,8.40607583
2034,8.40596635
2035,8.407711203
2036,8.398516335
2037,8.393707383
2038,8.382206559
2039,8.404972997
2040,8.390525788
2041,8.392421718
2042,8.386942621
2043,8.406368044
2044,8.411625384
2045,8.411158983
2046,8.400010144
2047,8.397029037
2048,8.397367775
2049,8.380744128
2050,8.401830222
2051,8.40386393
2052,8.387090585
2053,8.403954641
2054,8.402366217
2055,8.387589387
2056,8.412525354
2057,8.390959772
2058,8.407329455
2059,8.417375657
2060,8.400525147
2061,8.413122344
2062,8.40076236
2063,8.383437897
2064,8.410264396
2065,8.396623581
2066,8.379537859
2067,8.387296775
2068,8.399931735
2069,8.390944652
2070,8.379566993
2071,8.391182886
2072,8.407741831
2073,8.39840292
2074,8.393173964
2075,8.394077789
2076,8.390098069
2077,8.414308922
2078,8.381509535
2079,8.395641882
2080,8.39362706
2081,8.412984729
2082,8.408327207
2083,8.399035749
2084,8.392687255
2085,8.405138938
2086,8.392140999
2087,8.407527355
2088,8.394726776
2089,8.394042176
2090,8.417550703
2091,8.395338633
2092,8.387428072
2093,8.403534846
2094,8.403160604
2095,8.405197567
2096,8.3986258
2097,8.398235836
2098,8.38917201
2099,8.389572661
2100,8.390415054
2101,8.401331704
2102,8.421385683
2103,8.412297433
2104,8.406618376
2105,8.41725104
2106,8.393691023
2107,8.398380279
2108,8.397686093
2109,8.395276909
2110,8.392321916
2111,8.404422421
2112,8.405919251
2113,8.395389568
2114,8.384533657
2115,8.399070767
2116,8.38979546
2117,8.394519565
2118,8.409149948
2119,8.388943718
2120,8.409271807
2121,8.406265881
2122,8.399303093
2123,8.381313618
2124,8.413803978
2125,8.409937286
2126,8.41007485
2127,8.407864212
2128,8.400572318
2129,8.40323763
2130,8.402161121
2131,8.384847974
2132,8.40849837
2133,8.389055222
2134,8.406997486
2135,8.414258833
2136,8.414779375
2137,8.414403656
2138,8.402280554
2139,8.420721461
2140,8.407738277
2141,8.403703916
2142,8.397733676
2143,8.393569381
2144,8.418399931
2145,8.397478402
2146,8.380803879
2147,8.385393989
2148,8.389906009
2149,8.388876651
2150,8.399875516
2151,8.395528118
2152,8.394087822
2153,8.40520344
2154,8.402492227
2155,8.416143177
2156,8.39727591
2157,8.378005682
2158,8.405529842
2159,8.388757222
2160,8.386478058
2161,8.386923488
2162,8.395635319
2163,8.377958295
2164,8.404009645
2165,8.395690898
2166,8.392337842
2167,8.398456892
2168,8.40251602
2169,8.420646019
2170,8.377931274
2171,8.393788389
2172,8.407183553
2173,8.382791427
2174,8.393644257
2175,8.40313603
2176,8.41788951
2177,8.417609514
2178,8.380808402
2179,8.384634604
2180,8.408821923
2181,8.400164378
2182,8.406045384
2183,8.401524582
2184,8.404337604
2185,8.388734366
2186,8.40787964
2187,8.396772563
2188,8.419388472
2189,8.382600648
2190,8.406779584
2191,8.422879109
2192,8.396840695
2193,8.399435642
2194,8.408112815
2195,8.414005546
2196,8.38803215
2197,8.391031045
2198,8.39892889
2199,8.407530162
2200,8.401174
2201,8.411435903
2202,8.401314296
2203,8.406176772
2204,8.388188038
2205,8.388632897
2206,8.410124357
2207,8.384476835
2208,8.408849047
2209,8.413177618
2210,8.402314506
2211,8.396023208
2212,8.400387293
2213,8.417249493
2214,8.411372013
2215,8.398615287
2216,8.396281995
2217,8.412563993
2218,8.402692717
2219,8.390635236
2220,8.400146403
2221,8.405092762
2222,8.392568196
2223,8.392982732
2224,8.418145198
2225,8.399553675
2226,8.39644688
2227,8.388770158
2228,8.389323342
2229,8.391635058
2230,8.396178083
2231,8.37571988
2232,8.41973963
2233,8.402628201
2234,8.410958068
2235,8.389715631
2236,8.392925296
2237,8.389419081
2238,8.40310064
2239,8.419208921
2240,8.397028984
2241,8.390991203
2242,8.41077356
2243,8.389121861
2244,8.407286056
2245,8.388374615
2246,8.399418598
2247,8.403688081
2248,8.397741786
2249,8.384873055
2250,8.40130002
2251,8.402287386
2252,8.391271547
2253,8.410518677
2254,8.385067746
2255,8.399662426
2256,8.389006441
2257,8.39896951
2258,8.411660921
2259,8.408348161
2260,8.39710819
2261,8.401772717
2262,8.390811718
2263,8.405880339
2264,8.405111104
2265,8.407587137
2266,8.391386608
2267,8.397048871
2268,8.392870809
2269,8.39534927
2270,8.390119844
2271,8.423343801
2272,8.392196983
2273,8.403872312
2274,8.408200878
2275,8.401144219
2276,8.411078525
2277,8.397019778
2278,8.403173916
2279,8.401603831
2280,8.409366303
2281,8.399504863
2282,8.398162198
2283,8.410131688
2284,8.408982338
2285,8.395501636
2286,8.403159015
2287,8.413630737
2288,8.396636676
2289,8.390111375
2290,8.394820079
2291,8.405798032
2292,8.40885042
2293,8.402419487
2294,8.410670318
2295,8.391523196
2296,8.398313978
2297,8.409665224
2298,8.389543789
2299,8.42055136
2300,8.404234121
2301,8.410854406
2302,8.408352433
2303,8.392678998
2304,8.397830204
2305,8.399699961
2306,8.402566665
2307,8.394777062
2308,8.399045135
2309,8.412718911
2310,8.409759714
2311,8.401917367
2312,8.409193758
2313,8.399458815
2314,8.403769029
2315,8.406615134
2316,8.401321319
2317,8.406242364
2318,8.383806603
2319,8.400337019
2320,8.393227553
2321,8.399261732
2322,8.394275478
2323,8.403258136
2324,8.407324616
2325,8.416932849
2326,8.402716224
2327,8.410841094
2328,8.403117942
2329,8.408397296
2330,8.395585846
2331,8.39298491
2332,8.396984122
2333,8.408812377
2334,8.414403729
2335,8.381908944
2336,8.399014269
2337,8.388858789
2338,8.400612024
2339,8.376764576
2340,8.398983731
2341,8.38880042
2342,8.408544609
2343,8.410538441
2344,8.414727584
2345,8.384037401
2346,8.401783128
2347,8.387789378
2348,8.394699553
2349,8.402386107
2350,8.390103502
2351,8.389897108
2352,8.39991105
2353,8.407833464
2354,8.414842725
2355,8.402586284
2356,8.400160339
2357,8.39682915
2358,8.395838385
2359,8.378755585
2360,8.402861551
2361,8.406891125
2362,8.398828428
2363,8.401375932
2364,8.386514936
2365,8.383215652
2366,8.397768437
2367,8.404859882
2368,8.401385362
2369,8.391527421
2370,8.411000994
2371,8.393012397
2372,8.392517673
2373,8.384617022
2374,8.404320519
2375,8.39778038
2376,8.411525907
2377,8.414720372
2378,8.393570336
2379,8.392347938
2380,8.405328769
2381,8.412408981
2382,8.399055437
2383,8.420329072
2384,8.389883661
2385,8.40278474
2386,8.407218947
2387,8.409371789
2388,8.403776402
2389,8.402282436
2390,8.388507898
2391,8.405705414
2392,8.406303306
2393,8.393843871
2394,8.380538925
2395,8.412960654
2396,8.395237693
2397,8.41802056
2398,8.412422287
2399,8.418150617
2400,8.401343001
2401,8.397237605
2402,8.389117944
2403,8.399253769
2404,8.399880915
2405,8.395412721
2406,8.411846302
2407,8.388533291
2408,8.407092121
2409,8.40373797
2410,8.403842849
2411,8.406604315
2412,8.402728973
2413,8.402277731
2414,8.382627075
2415,8.418687386
2416,8.3948747
2417,8.406276211
2418,8.400823014
2419,8.382046305
2420,8.399814204
2421,8.392337141
2422,8.385707892
2423,8.403587904
2424,8.400130458
2425,8.408121481
2426,8.409527138
2427,8.396356925
2428,8.40566345
2429,8.40013793
2430,8.398203006
2431,8.394744338
2432,8.386111405
2433,8.406217081
2434,8.407802642
2435,8.409128351
2436,8.394010826
2437,8.413249489
2438,8.398372781
2439,8.380273921
2440,8.398851758
2441,8.415438678
2442,8.410274017
2443,8.387156551
2444,8.408251106
2445,8.399120641
2446,8.419188518
2447,8.416577655
2448,8.399815748
2449,8.399741158
2450,8.39616904
2451,8.386566044
2452,8.397921821
2453,8.412384492
2454,8.409269984
2455,8.397491397
2456,8.396644711
2457,8.411895658
2458,8.407869626
2459,8.402079545
2460,8.406847022
2461,8.405897848
2462,8.40624082
2463,8.393316782
2464,8.39656425
2465,8.402903673
2466,8.394991544
2467,8.384590646
2468,8.39926453
2469,8.413754178
2470,8.413778711
2471,8.382761583
2472,8.38895912
2473,8.414055059
2474,8.407246814
2475,8.396073815
2476,8.378584548
2477,8.41522338
2478,8.409460462
2479,8.403482109
2480,8.400165489
2481,8.408232559
2482,8.402192624
2483,8.405127883
2484,8.423471127
2485,8.40801567
2486,8.393545344
2487,8.392834295
2488,8.41073239
2489,8.402963149
2490,8.392348311
2491,8.409210562
2492,8.416103728
2493,8.38949373
2494,8.406874753
2495,8.406874265
2496,8.404827861
2497,8.403253758
2498,8.394564233
2499,8.405911239
2500,8.399352127
2501,8.401456438
2502,8.406772792
2503,8.406860001
2504,8.393454315
2505,8.390823714
2506,8.386770238
2507,8.40584529
2508,8.399103469
2509,8.401831934
2510,8.389031233
2511,8.405903653
2512,8.413700024
2513,8.398337951
2514,8.42323358
2515,8.382049227
2516,8.400274431
2517,8.388776684
2518,8.413626133
2519,8.402943802
2520,8.409437305
2521,8.395141601
2522,8.410701428
2523,8.395247139
2524,8.417067573
2525,8.403901016
2526,8.397559661
2527,8.403267388
2528,8.421128267
2529,8.379732586
2530,8.403833044
2531,8.405236467
2532,8.407497332
2533,8.401479128
2534,8.404420979
2535,8.396565421
2536,8.404789782
2537,8.423639286
2538,8.385497235
2539,8.404962153
2540,8.385281134
2541,8.404018993
2542,8.415274356
2543,8.394479947
2544,8.40227367
2545,8.397913916
2546,8.403500858
2547,8.389854644
2548,8.408827987
2549,8.408539476
2550,8.403189479
2551,8.402273733
2552,8.402786712
2553,8.403452954
2554,8.40026921
2555,8.402600297
2556,8.385209073
2557,8.420104763
2558,8.40097061
2559,8.407442922
2560,8.404457452
2561,8.392077853
2562,8.405431
2563,8.405876973
2564,8.382433889
2565,8.411979045
2566,8.392632602
2567,8.404309353
2568,8.406121005
2569,8.392888264
2570,8.398023522
2571,8.399922791
2572,8.389393113
2573,8.405787574
2574,8.403052386
2575,8.401697781
2576,8.392228071
2577,8.39871101
2578,8.400120929
2579,8.397590547
2580,8.411657237
2581,8.399059498
2582,8.388971065
2583,8.395169908
2584,8.412265037
2585,8.387529092
2586,8.388119201
2587,8.403173232
2588,8.391226587
2589,8.401360489
2590,8.401365708
2591,8.419359886
2592,8.407643384
2593,8.400246209
2594,8.40305949
2595,8.42376984
2596,8.412296741
2597,8.398034401
2598,8.405985057
2599,8.410339332
2600,8.407569401
2601,8.401947105
2602,8.393295995
2603,8.396896772
2604,8.392534018
2605,8.412624958
2606,8.386888808
2607,8.379364501
2608,8.397286133
2609,8.399843832
2610,8.393951868
2611,8.409401546
2612,8.404185909
2613,8.394993762
2614,8.388458543
2615,8.415848233
2616,8.406734538
2617,8.384928916
2618,8.420791801
2619,8.382309075
2620,8.410030354
2621,8.418309899
2622,8.403941223
2623,8.407000256
2624,8.397896771
2625,8.400893027
2626,8.398312696
2627,8.379724153
2628,8.418760725
2629,8.39353906
2630,8.417489354
2631,8.409745682
2632,8.393257541
2633,8.41738975
2634,8.374178353
2635,8.395972121
2636,8.411236364
2637,8.408966038
2638,8.415516724
2639,8.399798
2640,8.407409154
2641,8.409159789
2642,8.38650897
2643,8.39092264
2644,8.398310818
2645,8.415880956
2646,8.399398425
2647,8.418269724
2648,8.403379647
2649,8.369292454
2650,8.404201672
2651,8.401787024
2652,8.408804991
2653,8.395944553
2654,8.410428962
2655,8.399142626
2656,8.416073909
2657,8.406352814
2658,8.409952132
2659,8.408753734
2660,8.38969378
2661,8.400104699
2662,8.400691334
2663,8.410446645
2664,8.405547475
2665,8.418602988
2666,8.398451785
2667,8.38013527
2668,8.396602057
2669,8.393710302
2670,8.39289582
2671,8.39349493
2672,8.370407697
2673,8.410872933
2674,8.420667115
2675,8.421277433
2676,8.393284003
2677,8.398996546
2678,8.4120287
2679,8.385807179
2680,8.407813395
2681,8.403513301
2682,8.395464407
2683,8.421926128
2684,8.402415127
2685,8.398021021
2686,8.400987408
2687,8.394377163
2688,8.404013273
2689,8.409050223
2690,8.396183088
2691,8.388607347
2692,8.388667979
2693,8.410659084
2694,8.386504606
2695,8.39962305
2696,8.404105005
2697,8.374815811
2698,8.390844418
2699,8.404062717
2700,8.413290546
2701,8.389578811
2702,8.405308018
2703,8.415028644
2704,8.403638799
2705,8.399310152
2706,8.394891632
2707,8.39842916
2708,8.417395366
2709,8.389109968
2710,8.379294929
2711,8.401279225
2712,8.398323328
2713,8.392581256
2714,8.400850486
2715,8.399302898
2716,8.38682514
2717,8.399013758
2718,8.399625096
2719,8.38816418
2720,8.398445968
2721,8.409166258
2722,8.39825752
2723,8.387700726
2724,8.401445406
2725,8.408425237
2726,8.40336165
2727,8.396628884
2728,8.390171845
2729,8.403127909
2730,8.420384876
2731,8.385569275
2732,8.412073264
2733,8.392332534
2734,8.400647692
2735,8.389469781
2736,8.397546328
2737,8.396540551
2738,8.411477128
2739,8.405150713
2740,8.383310371
2741,8.407972052
2742,8.405189538
2743,8.412902031
2744,8.399320161
2745,8.414771541
2746,8.405763672
2747,8.403984405
2748,8.40216659
2749,8.391500875
2750,8.412979069
2751,8.410479339
2752,8.381985631
2753,8.395997612
2754,8.40310131
2755,8.40413947
2756,8.396467544
2757,8.395175399
2758,8.398109608
2759,8.405583419
2760,8.405957328
2761,8.412290833
2762,8.39234579
2763,8.403031243
2764,8.402257772
2765,8.405746821
2766,8.394232031
2767,8.411522148
2768,8.402887671
2769,8.39605775
2770,8.392624638
2771,8.392891527
2772,8.39717228
2773,8.416205445
2774,8.405144718
2775,8.39423587
2776,8.400372413
2777,8.424214869
2778,8.38424416
2779,8.3991665
2780,8.391347506
2781,8.404307572
2782,8.393119188
2783,8.397158911
2784,8.388681911
2785,8.381357069
2786,8.395177694
2787,8.385332706
2788,8.392003347
2789,8.409748897
2790,8.405127311
2791,8.402582067
2792,8.409518579
2793,8.394168041
2794,8.391900136
2795,8.416707448
2796,8.397076719
2797,8.398641348
2798,8.39571028
2799,8.402419128
2800,8.389064748
2801,8.400694601
2802,8.390585966
2803,8.379682391
2804,8.395540324
2805,8.383962535
2806,8.384365642
2807,8.409660082
2808,8.390361484
2809,8.403592915
2810,8.393331503
2811,8.399535073
2812,8.402551088
2813,8.384411037
2814,8.401349484
2815,8.379925857
2816,8.424687267
2817,8.392379094
2818,8.405575081
2819,8.400561556
2820,8.377112661
2821,8.397482433
2822,8.403556744
2823,8.416650694
2824,8.400975274
2825,8.408009595
2826,8.397931646
2827,8.394883672
2828,8.404830147
2829,8.372591974
2830,8.402270917
2831,8.379911172
2832,8.423843631
2833,8.399713568
2834,8.414173211
2835,8.40328762
2836,8.409050891
2837,8.39368168
2838,8.402405508
2839,8.39386604
2840,8.398993727
2841,8.392575239
2842,8.397698843
2843,8.380592344
2844,8.408702551
2845,8.396146063
2846,8.420526703
2847,8.394597854
2848,8.391705129
2849,8.396987218
2850,8.395000403
2851,8.397308136
2852,8.393434226
2853,8.397832366
2854,8.406660772
2855,8.411177346
2856,8.382873383
2857,8.404810927
2858,8.391366729
2859,8.389143548
2860,8.403332531
2861,8.393769488
2862,8.415333705
2863,8.418799543
2864,8.401995492
2865,8.402363231
2866,8.405775956
2867,8.389864196
2868,8.388183292
2869,8.401682138
2870,8.39280841
2871,8.404933129
2872,8.397410635
2873,8.395964101
2874,8.388748747
2875,8.392977736
2876,8.40887272
2877,8.404394513
2878,8.389989818
2879,8.397939511
2880,8.414481186
2881,8.398615608
2882,8.403621586
2883,8.392200126
2884,8.402849265
2885,8.401195841
2886,8.408147373
2887,8.385589564
2888,8.392891555
2889,8.407128147
2890,8.387607789
2891,8.411361568
2892,8.402089593
2893,8.388398222
2894,8.393878219
2895,8.399096834
2896,8.39338724
2897,8.408502518
2898,8.385449972
2899,8.413758518
2900,8.414246539
2901,8.397153385
2902,8.389368419
2903,8.398664104
2904,8.388385664
2905,8.39645233
2906,8.388260992
2907,8.395995576
2908,8.402418498
2909,8.409169388
2910,8.397941752
2911,8.388874505
2912,8.393341252
2913,8.406543018
2914,8.390025851
2915,8.392432752
2916,8.418542825
2917,8.390557773
2918,8.422818081
2919,8.404621387
2920,8.407491907
2921,8.414348691
2922,8.403211345
2923,8.380741085
2924,8.395399849
2925,8.392068022
2926,8.394008175
2927,8.412230197
2928,8.40022084
2929,8.398161895
2930,8.426795829
2931,8.392908947
2932,8.410216531
2933,8.415146979
2934,8.417744606
2935,8.395267014
2936,8.385402831
2937,8.398109172
2938,8.401169935
2939,8.394705688
2940,8.386700617
2941,8.385856696
2942,8.386881163
2943,8.406862269
2944,8.401437468
2945,8.396119736
2946,8.397354465
2947,8.409920661
2948,8.394160459
2949,8.387284064
2950,8.39772692
2951,8.403731506
2952,8.414897945
2953,8.383504972
2954,8.390143532
2955,8.394569145
2956,8.406505598
2957,8.382649281
2958,8.408282539
2959,8.401207208
2960,8.41201076
2961,8.40876238
2962,8.372968588
2963,8.400694377
2964,8.392804431
2965,8.394205955
2966,8.409598238
2967,8.392948039
2968,8.387627796
2969,8.402072129
2970,8.407123248
2971,8.397807406
2972,8.400977995
2973,8.403947685
2974,8.417752966
2975,8.416911005
2976,8.405820496
2977,8.383898137
2978,8.401443049
2979,8.397368935
2980,8.417846135
2981,8.400969593
2982,8.404432916
2983,8.39664302
2984,8.406658153
2985,8.417418559
2986,8.39551574
2987,8.408911993
2988,8.396469489
2989,8.408144725
2990,8.386839684
2991,8.384555002
2992,8.417411481
2993,8.388007906
2994,8.411525453
2995,8.400591362
2996,8.406121077
2997,8.399564439
2998,8.392113358
2999,8.391129869
3000,8.410801186
3001,8.402614316
3002,8.411152793
3003,8.397614901
3004,8.395850537
3005,8.379231946
3006,8.401491578
3007,8.40572907
3008,8.404849619
3009,8.405778773
3010,8.392221168
3011,8.403280039
3012,8.393827159
3013,8.403486157
3014,8.395210212
3015,8.41667631
3016,8.401235805
3017,8.405040095
3018,8.391205893
3019,8.41254343
3020,8.39921317
3021,8.39960397
3022,8.39661959
3023,8.388397088
3024,8.39851922
3025,8.387650905
3026,8.399343145
3027,8.417206643
3028,8.40652099
3029,8.380975668
3030,8.402833745
3031,8.382900133
3032,8.417410964
3033,8.407852837
3034,8.403590473
3035,8.426392306
3036,8.404595469
3037,8.385713319
3038,8.40078113
3039,8.39310912
3040,8.401386599
3041,8.404046617
3042,8.414807086
3043,8.41774611
3044,8.398332087
3045,8.388656076
3046,8.406899295
3047,8.406704378
3048,8.400829776
3049,8.376352409
3050,8.393720442
3051,8.405060565
3052,8.391047696
3053,8.410309639
3054,8.379624739
3055,8.395075836
3056,8.39314339
3057,8.388746343
3058,8.40199701
3059,8.390379044
3060,8.399742566
3061,8.392312688
3062,8.42193716
3063,8.395881556
3064,8.403568277
3065,8.392463884
3066,8.382225098
3067,8.406486101
3068,8.404054004
3069,8.412426036
3070,8.397130006
3071,8.407111433
3072,8.42077719
3073,8.402676614
3074,8.403120401
3075,8.411336554
3076,8.395725366
3077,8.391142016
3078,8.390286511
3079,8.376066362
3080,8.393436933
3081,8.391543171
3082,8.403904321
3083,8.405247044
3084,8.395020411
3085,8.405610011
3086,8.390994858
3087,8.389782612
3088,8.396474368
3089,8.390283453
3090,8.413019193
3091,8.386465253
3092,8.375410404
3093,8.400942474
3094,8.384103457
3095,8.409558184
3096,8.400184967
3097,8.406917902
3098,8.403685545
3099,8.387381028
3100,8.396994557
3101,8.394364278
3102,8.389525262
3103,8.394177793
3104,8.403748412
3105,8.410526061
3106,8.379217899
3107,8.392481921
3108,8.409747061
3109,8.40916323
3110,8.413701039
3111,8.402783473
3112,8.418153948
3113,8.41300359
3114,8.387605434
3115,8.389512741
3116,8.417103645
3117,8.384477367
3118,8.399453632
3119,8.405689165
3120,8.381514248
3121,8.418062041
3122,8.403015684
3123,8.396624714
3124,8.39109365
3125,8.403646125
3126,8.417456857
3127,8.402590266
3128,8.403695131
3129,8.404023395
3130,8.377861903
3131,8.388214248
3132,8.4249655
3133,8.414392245
3134,8.395462896
3135,8.376588027
3136,8.376110776
3137,8.405863038
3138,8.407938915
3139,8.402330891
3140,8.408041533
3141,8.401938826
3142,8.41905915
3143,8.400538219
3144,8.397559123
3145,8.407869203
3146,8.404334348
3147,8.418103971
3148,8.407837532
3149,8.399061654
3150,8.391175282
3151,8.399069327
3152,8.4084639
3153,8.409166673
3154,8.38758561
3155,8.396611339
3156,8.423926247
3157,8.401578446
3158,8.39538894
3159,8.389468307
3160,8.400857321
3161,8.390509017
3162,8.394217547
3163,8.388205751
3164,8.402971674
3165,8.411240737
3166,8.401887002
3167,8.3971611
3168,8.398288272
3169,8.39898285
3170,8.418749333
3171,8.410854563
3172,8.40824041
3173,8.385354631
3174,8.408633387
3175,8.390540056
3176,8.390856045
3177,8.415440746
3178,8.404521835
3179,8.386981448
3180,8.417402052
3181,8.415200998
3182,8.404697004
3183,8.403437618
3184,8.395608651
3185,8.38212976
3186,8.400124901
3187,8.41180573
3188,8.392642612
3189,8.397016973
3190,8.389500152
3191,8.400791809
3192,8.4044046
3193,8.380302505
3194,8.405561635
3195,8.403562226
3196,8.390613284
3197,8.378661386
3198,8.40506409
3199,8.401928773
3200,8.404574551
3201,8.393605388
3202,8.411784598
3203,8.415997908
3204,8.420304278
3205,8.390269117
3206,8.388410063
3207,8.396437063
3208,8.404776878
3209,8.408712282
3210,8.397636189
3211,8.413214996
3212,8.407068344
3213,8.396898633
3214,8.392980032
3215,8.40144665
3216,8.415141506
3217,8.400104618
3218,8.405514705
3219,8.397203908
3220,8.393460937
3221,8.405626799
3222,8.390555933
3223,8.420745755
3224,8.405353981
3225,8.402647454
3226,8.395809824
3227,8.403825802
3228,8.38188431
3229,8.407884678
3230,8.402651407
3231,8.399124577
3232,8.417366768
3233,8.388640048
3234,8.385853113
3235,8.399662158
3236,8.406638374
3237,8.406032006
3238,8.401001015
3239,8.400939538
3240,8.368194585
3241,8.418833578
3242,8.385293844
3243,8.40492288
3244,8.384245753
3245,8.387173347
3246,8.413926116
3247,8.374486177
3248,8.40919803
3249,8.406676552
3250,8.393581805
3251,8.403772517
3252,8.395546972
3253,8.400823183
3254,8.412124282
3255,8.392160861
3256,8.409343827
3257,8.400869008
3258,8.380950984
3259,8.398757306
3260,8.400216645
3261,8.383758252
3262,8.400261893
3263,8.389862444
3264,8.410900878
3265,8.400247839
3266,8.415150292
3267,8.401443174
3268,8.394501614
3269,8.414059007
3270,8.393678702
3271,8.393325647
3272,8.389988979
3273,8.410275363
3274,8.390204781
3275,8.405630969
3276,8.396775824
3277,8.407233687
3278,8.399892043
3279,8.408900809
3280,8.404578674
3281,8.398507018
3282,8.40282387
3283,8.402136554
3284,8.395396101
3285,8.405105618
3286,8.396011681
3287,8.414200738
3288,8.397250031
3289,8.392596415
3290,8.403000853
3291,8.390265372
3292,8.414521675
3293,8.384058775
3294,8.392759077
3295,8.407934037
3296,8.39992238
3297,8.39674422
3298,8.407815464
3299,8.412956965
3300,8.391056993
3301,8.414280806
3302,8.39705288
3303,8.39097055
3304,8.395065684
3305,8.409912157
3306,8.392729322
3307,8.393024401
3308,8.417150021
3309,8.376701383
3310,8.391329332
3311,8.391753117
3312,8.3883311
3313,8.398693848
3314,8.401209232
3315,8.409177179
3316,8.400893556
3317,8.404723173
3318,8.394309083
3319,8.381880243
3320,8.387564582
3321,8.393631881
3322,8.397648468
3323,8.407552835
3324,8.397955399
3325,8.379098643
3326,8.427787455
3327,8.400968182
3328,8.384830002
3329,8.412180516
3330,8.404010635
3331,8.406955847
3332,8.408197951
3333,8.411793651
3334,8.395513167
3335,8.395748127
3336,8.384713078
3337,8.42789254
3338,8.399189421
3339,8.412868915
3340,8.396385767
3341,8.396819996
3342,8.380497905
3343,8.377270241
3344,8.380917073
3345,8.410671136
3346,8.394389069
3347,8.398814522
3348,8.407058183
3349,8.391816796
3350,8.400613579
3351,8.375536041
3352,8.416320029
3353,8.394264798
3354,8.39360765
3355,8.389706369
3356,8.389650178
3357,8.429978137
3358,8.410610221
3359,8.386870024
3360,8.401194868
3361,8.402219932
3362,8.401221292
3363,8.38037926
3364,8.400112937
3365,8.392030953
3366,8.400739176
3367,8.388743073
3368,8.384184617
3369,8.394810813
3370,8.388577994
3371,8.378262951
3372,8.409478311
3373,8.390014463
3374,8.403898909
3375,8.381927195
3376,8.391445484
3377,8.407925253
3378,8.395223155
3379,8.400218676
3380,8.392876704
3381,8.411928126
3382,8.40399487
3383,8.40245718
3384,8.400520993
3385,8.41192614
3386,8.410098891
3387,8.397128048
3388,8.399179103
3389,8.400002182
3390,8.409462141
3391,8.389246485
3392,8.425949717
3393,8.386652609
3394,8.398438284
3395,8.397558906
3396,8.403873778
3397,8.389258749
3398,8.388376327
3399,8.41619571
3400,8.387299484
3401,8.390489414
3402,8.397762537
3403,8.394339987
3404,8.391996745
3405,8.397723587
3406,8.397042532
3407,8.388445002
3408,8.381549236
3409,8.402200071
3410,8.408344509
3411,8.388806193
3412,8.398147265
3413,8.404932689
3414,8.409178953
3415,8.390713826
3416,8.397415216
3417,8.411122114
3418,8.394308504
3419,8.404817184
3420,8.382116802
3421,8.417886306
3422,8.400229592
3423,8.382931685
3424,8.404396983
3425,8.383599188
3426,8.409567517
3427,8.396585558
3428,8.410849032
3429,8.41146803
3430,8.415016259
3431,8.392501666
3432,8.410404539
3433,8.395128892
3434,8.401579935
3435,8.390098682
3436,8.404831621
3437,8.390772353
3438,8.394121333
3439,8.413597576
3440,8.41365279
3441,8.368963435
3442,8.401832068
3443,8.402435297
3444,8.407326114
3445,8.3886866
3446,8.41143294
3447,8.402062842
3448,8.413217534
3449,8.404188291
3450,8.40863035
3451,8.401684459
3452,8.396618662
3453,8.390251363
3454,8.400553076
3455,8.418661962
3456,8.410711636
3457,8.390357411
3458,8.407095542
3459,8.386656553
3460,8.390321254
3461,8.396249967
3462,8.40743083
3463,8.429329668
3464,8.400559036
3465,8.399483298
3466,8.395038996
3467,8.39906652
3468,8.396786043
3469,8.393023006
3470,8.403426319
3471,8.414231289
3472,8.395738013
3473,8.420534566
3474,8.41116576
3475,8.388688475
3476,8.409140988
3477,8.406969414
3478,8.394669509
3479,8.390308563
3480,8.404377928
3481,8.399152699
3482,8.404458541
3483,8.390856303
3484,8.42387381
3485,8.39203277
3486,8.409367261
3487,8.39273508
3488,8.408171898
3489,8.406025281
3490,8.409113741
3491,8.395879968
3492,8.402595172
3493,8.407378094
3494,8.400768134
3495,8.40528828
3496,8.387351362
3497,8.385382097
3498,8.393244516
3499,8.409612332
3500,8.405418975
3501,8.395805566
3502,8.419134629
3503,8.39335927
3504,8.394059025
3505,8.395530056
3506,8.393582599
3507,8.419024368
3508,8.396485155
3509,8.395597799
3510,8.403678594
3511,8.379796485
3512,8.382738239
3513,8.395995377
3514,8.395318482
3515,8.399313632
3516,8.397601557
3517,8.412458387
3518,8.388744411
3519,8.411499473
3520,8.393266172
3521,8.414711297
3522,8.416944821
3523,8.399483406
3524,8.424686437
3525,8.388399852
3526,8.400299517
3527,8.383766954
3528,8.400521967
3529,8.403012339
3530,8.382741923
3531,8.395802288
3532,8.380336894
3533,8.392097014
3534,8.404165815
3535,8.403059928
3536,8.386623833
3537,8.394911208
3538,8.399427122
3539,8.401428701
3540,8.418792113
3541,8.396576876
3542,8.395403121
3543,8.40012939
3544,8.39002646
3545,8.409811012
3546,8.409639985
3547,8.401433656
3548,8.39685164
3549,8.398064383
3550,8.419886085
3551,8.396405372
3552,8.399959297
3553,8.401106008
3554,8.399081373
3555,8.390190953
3556,8.393721527
3557,8.372489683
3558,8.381381464
3559,8.396801929
3560,8.393528482
3561,8.402070071
3562,8.389360013
3563,8.401423147
3564,8.365470626
3565,8.404986109
3566,8.387594845
3567,8.395985436
3568,8.40077044
3569,8.412224409
3570,8.386195617
3571,8.411092529
3572,8.39265735
3573,8.399970814
3574,8.408777715
3575,8.400341272
3576,8.410259297
3577,8.40204111
3578,8.406001587
3579,8.395681563
3580,8.387193805
3581,8.389864633
3582,8.398897775
3583,8.405763211
3584,8.386197003
3585,8.373861277
3586,8.389033966
3587,8.41077986
3588,8.406268863
3589,8.41870283
3590,8.404354076
3591,8.389407415
3592,8.406127376
3593,8.413848603
3594,8.403620993
3595,8.39441395
3596,8.383964811
3597,8.398379224
3598,8.412527885
3599,8.39939891
3600,8.404464189
3601,8.410200296
3602,8.398204788
3603,8.399005667
3604,8.400847414
3605,8.379125508
3606,8.408110158
3607,8.402601942
3608,8.380093992
3609,8.395725714
3610,8.40308136
3611,8.395560452
3612,8.415670327
3613,8.410670735
3614,8.397247604
3615,8.390075051
3616,8.404313
3617,8.416685257
3618,8.403427907
3619,8.39438491
3620,8.405041525
3621,8.394625515
3622,8.404656921
3623,8.418739975
3624,8.427570629
3625,8.408473773
3626,8.418754319
3627,8.439037982
3628,8.448239501
3629,8.456738351
3630,8.466651097
3631,8.482122132
3632,8.506254741
3633,8.52378721
3634,8.57753259
3635,8.567924704
3636,8.609199964
3637,8.684084329
3638,8.733001727
3639,8.76553546
3640,8.823149874
3641,8.896776892
3642,8.935785275
3643,8.987251798
3644,9.067703225
3645,9.124120232
3646,9.188595302
3647,9.243306573
3648,9.30250842
3649,9.314637557
3650,9.330931018
3651,9.372592145
3652,9.398495463
3653,9.39688085
3654,9.406644011
3655,9.371894323
3656,9.354741857
3657,9.319200775
3658,9.297834988
3659,9.237542404
3660,9.173292118
3661,9.110767253
3662,9.060327801
3663,9.008131776
3664,8.944296307
3665,8.884347975
3666,8.840593825
3667,8.765534696
3668,8.713277157
3669,8.677066319
3670,8.632081731
3671,8.607906148
3672,8.571953358
3673,8.549579801
3674,8.508977911
3675,8.471515574
3676,8.47264578
3677,8.453420306
3678,8.434067074
3679,8.431422873
3680,8.415932413
3681,8.414856833
3682,8.431189168
3683,8.427196474
3684,8.413002074
3685,8.404654337
3686,8.408048474
3687,8.41985449
3688,8.409518435
3689,8.412457713
3690,8.4164298
3691,8.391609586
3692,8.404785138
3693,8.400943878
3694,8.427798287
3695,8.408552431
3696,8.396022843
3697,8.395005209
3698,8.391900333
3699,8.38921734
3700,8.410225419
3701,8.411614766
3702,8.401865909
3703,8.398459498
3704,8.404450523
3705,8.4015162
3706,8.4018456
3707,8.394294218
3708,8.39420877
3709,8.40664359
3710,8.40636162
3711,8.382205511
3712,8.391569739
3713,8.391063247
3714,8.393061522
3715,8.408795492
3716,8.397035947
3717,8.413842975
3718,8.388532296
3719,8.405905515
3720,8.414881767
3721,8.41714772
3722,8.417535535
3723,8.398186672
3724,8.40105188
3725,8.406192683
3726,8.398936844
3727,8.412891048
3728,8.40149622
3729,8.395927493
3730,8.403324018
3731,8.412649622
3732,8.383483654
3733,8.404797748
3734,8.394547312
3735,8.411873156
3736,8.385496056
3737,8.410070601
3738,8.400660249
3739,8.398728085
3740,8.405367692
3741,8.372377407
3742,8.399921021
3743,8.398659993
3744,8.405544603
3745,8.407278401
3746,8.391285019
3747,8.393610143
3748,8.395049529
3749,8.399605726
3750,8.421879408
3751,8.406074578
3752,8.403845042
3753,8.407337253
3754,8.400109718
3755,8.38154996
3756,8.405418129
3757,8.415684595
3758,8.399949152
3759,8.389198397
3760,8.408012472
3761,8.408915228
3762,8.390057378
3763,8.401999298
3764,8.400739137
3765,8.407598089
3766,8.379255334
3767,8.400321228
3768,8.429916637
3769,8.407196018
3770,8.409525632
3771,8.410696829
3772,8.393006032
3773,8.408509908
3774,8.407873079
3775,8.40745972
3776,8.40784369
3777,8.394331364
3778,8.396815952
3779,8.397616585
3780,8.413414118
3781,8.378543656
3782,8.38720427
3783,8.416968414
3784,8.398341871
3785,8.391055807
3786,8.404076718
3787,8.388949397
3788,8.396503939
3789,8.400493668
3790,8.409653272
3791,8.400031581
3792,8.405301601
3793,8.398224768
3794,8.392788421
3795,8.395364476
3796,8.390876391
3797,8.394607274
3798,8.409065219
3799,8.392608903
3800,8.400399366
3801,8.40013213
3802,8.394811051
3803,8.398622108
3804,8.387851922
3805,8.404002236
3806,8.42328668
3807,8.392250088
3808,8.409882019
3809,8.41055362
3810,8.392543444
3811,8.402544959
3812,8.404218125
3813,8.391065457
3814,8.391676555
3815,8.40635585
3816,8.389156363
3817,8.409328458
3818,8.387584329
3819,8.38958383
3820,8.405573134
3821,8.390407848
3822,8.384409381
3823,8.387282167
3824,8.406894529
3825,8.401536112
3826,8.40726214
3827,8.415577656
3828,8.37548014
3829,8.405243139
3830,8.391884261
3831,8.404777042
3832,8.402428254
3833,8.402400155
3834,8.410976132
3835,8.412352737
3836,8.394204853
3837,8.400632579
3838,8.389331686
3839,8.389322384
3840,8.391900016
3841,8.386074047
3842,8.398632863
3843,8.381563536
3844,8.410170493
3845,8.399349576
3846,8.3982396
3847,8.389713068
3848,8.388655061
3849,8.388555281
3850,8.417742884
3851,8.403727513
3852,8.401022556
3853,8.403425053
3854,8.393167973
3855,8.407052492
3856,8.392143421
3857,8.39589192
3858,8.406528292
3859,8.389165432
3860,8.397458475
3861,8.37505185
3862,8.411453303
3863,8.398502351
3864,8.411638465
3865,8.396974461
3866,8.410873106
3867,8.385099065
3868,8.395027218
3869,8.417852648
3870,8.404466808
3871,8.397664001
3872,8.399837106
3873,8.402757364
3874,8.394369626
3875,8.40028239
3876,8.380862337
3877,8.403536026
3878,8.415057408
3879,8.422196191
3880,8.416612554
3881,8.395209899
3882,8.427123216
3883,8.392875696
3884,8.399289381
3885,8.390615097
3886,8.390666776
3887,8.38514726
3888,8.4064888
3889,8.392764875
3890,8.386000056
3891,8.387665617
3892,8.404568849
3893,8.398713893
3894,8.411234378
3895,8.404814612
3896,8.411818638
3897,8.382622961
3898,8.393558236
3899,8.400559018
3900,8.388705632
3901,8.398515497
3902,8.410853938
3903,8.420495263
3904,8.400400795
3905,8.391077749
3906,8.411422627
3907,8.392997978
3908,8.391262121
3909,8.409217199
3910,8.410128175
3911,8.409975277
3912,8.397274578
3913,8.401102882
3914,8.408558362
3915,8.402810864
3916,8.402692191
3917,8.383282102
3918,8.397780791
3919,8.401153888
3920,8.400187383
3921,8.416190283
3922,8.398707269
3923,8.400008949
3924,8.39640338
3925,8.406764872
3926,8.413736708
3927,8.400313215
3928,8.409974548
3929,8.398959807
3930,8.398413736
3931,8.400209766
3932,8.40110683
3933,8.409251257
3934,8.392822083
3935,8.401257175
3936,8.385566734
3937,8.401019614
3938,8.402089653
3939,8.392983911
3940,8.408407852
3941,8.388227051
3942,8.396777926
3943,8.415702762
3944,8.413903401
3945,8.398071946
3946,8.408434311
3947,8.401984757
3948,8.395895934
3949,8.393086398
3950,8.394308251
3951,8.405016417
3952,8.407846081
3953,8.402991159
3954,8.395687934
3955,8.404472868
3956,8.400854212
3957,8.407001412
3958,8.413438361
3959,8.384777797
3960,8.398092412
3961,8.383012488
3962,8.385807935
3963,8.402986209
3964,8.386267541
3965,8.420186149
3966,8.403579782
3967,8.39914824
3968,8.395858435
3969,8.392535656
3970,8.381969826
3971,8.393425225
3972,8.404743614
3973,8.394749784
3974,8.404640897
3975,8.410139566
3976,8.400985601
3977,8.397898433
3978,8.421639468
3979,8.398579292
3980,8.384843524
3981,8.406557477
3982,8.388029907
3983,8.400935144
3984,8.402292685
3985,8.3965741
3986,8.409225361
3987,8.395912994
3988,8.4017311
3989,8.395982597
3990,8.403787794
3991,8.399328516
3992,8.397294991
3993,8.417244886
3994,8.381493798
3995,8.394987842
3996,8.4022584
3997,8.39469441
3998,8.399398195
3999,8.3988622
4000,8.390432344
