Raman Shift,Intensity
114.254,9129.0
115.644,9266.0
117.034,9338.0
118.424,9415.0
119.813,9545.0
121.203,9423.0
122.592,9703.0
123.981,9579.0
125.369,9537.0
126.758,9688.0
128.146,9696.0
129.534,9738.0
130.922,9675.0
132.309,9973.0
133.696,9984.0
135.083,10162.0
136.47,10210.0
137.857,10486.0
139.243,10695.0
140.63,10944.0
142.016,11003.0
143.401,10988.0
144.787,10827.0
146.172,10805.0
147.557,10764.0
148.942,10784.0
150.327,10869.0
151.711,10987.0
153.096,11235.0
154.48,11610.0
155.863,11438.259
157.247,11581.0
158.63,11171.0
160.013,10891.0
161.396,10749.0
162.779,10691.0
164.161,10762.0
165.544,10796.0
166.926,10790.0
168.308,10785.0
169.689,10714.0
171.07,10745.478
172.452,10650.0
173.833,10767.0
175.213,10750.0
176.594,10753.0
177.974,10840.0
179.354,10686.0
180.734,10896.0
182.114,10940.0
183.493,10928.0
184.872,10785.0
186.251,10978.0
187.63,11021.0
189.008,11042.0
190.387,10854.0
191.765,11093.0
193.143,11124.0
194.52,11205.0
195.898,11294.0
197.275,11141.0
198.652,11278.0
200.029,11320.0
201.405,11476.0
202.782,11297.0
204.158,11412.0
205.534,11421.0
206.909,11585.0
208.285,11605.0
209.66,11449.0
211.035,11570.0
212.41,11604.0
213.784,11427.0
215.159,11447.0
216.533,11650.0
217.907,11728.0
219.281,11756.0
220.654,11731.0
222.027,11718.0
223.4,11724.0
224.773,11796.954
226.146,11970.0
227.518,12038.0
228.891,12187.0
230.263,12422.0
231.634,12804.0
233.006,13698.0
234.377,14888.0
235.748,16284.0
237.119,18280.0
238.49,20444.0
239.86,22553.0
241.231,23548.0
242.601,20925.0
243.97,17905.0
245.34,15798.0
246.709,14546.0
248.079,13934.0
249.448,13415.0
250.816,13399.0
252.185,13152.0
253.553,13198.0
254.921,13242.0
256.289,13281.0
257.657,13669.0
259.024,13952.0
260.391,14976.0
261.758,16910.0
263.125,19924.0
264.492,23345.0
265.858,28013.0
267.224,34604.0
268.59,40281.0
269.956,37497.0
271.321,28243.0
272.687,22110.0
274.052,18858.0
275.416,17356.0
276.781,16817.0
278.146,17640.0
279.51,19396.0
280.874,22433.0
282.237,26972.0
283.601,32069.0
284.964,39403.0
286.327,44744.0
287.69,43897.0
289.053,37259.0
290.416,29112.0
291.778,23470.0
293.14,20208.0
294.502,17882.0
295.863,16708.0
297.225,15746.0
298.586,15299.0
299.947,15040.0
301.308,14678.0
302.668,14786.0
304.029,14520.0
305.389,14507.0
306.749,14524.0
308.108,14542.0
309.468,14413.0
310.827,14693.0
312.186,14434.0
313.545,14759.0
314.903,14618.0
316.262,14989.0
317.62,15053.0
318.978,14965.0
320.336,15208.0
321.693,15395.0
323.051,15872.0
324.408,16634.0
325.765,18011.0
327.121,19686.0
328.478,22630.0
329.834,25779.0
331.19,29936.0
332.546,33655.0
333.902,33618.0
335.257,28745.0
336.612,24061.0
337.967,20612.0
339.322,18650.0
340.677,17228.0
342.031,16379.0
343.385,15920.0
344.739,15483.0
346.093,15352.0
347.446,15126.0
348.799,15097.0
350.153,15056.0
351.505,14918.0
352.858,15053.0
354.21,15042.0
355.563,14952.0
356.915,15092.0
358.267,15198.0
359.618,15235.0
360.969,15305.0
362.321,15101.0
363.672,15099.0
365.022,15060.0
366.373,15015.0
367.723,15176.0
369.073,15027.0
370.423,15168.0
371.773,15236.0
373.122,15201.0
374.471,15145.0
375.821,15187.0
377.169,15437.0
378.518,15237.0
379.866,15429.0
381.215,15329.0
382.563,15417.0
383.91,15696.0
385.258,15580.0
386.605,15678.0
387.952,15691.0
389.299,15848.409
390.646,15936.0
391.992,16389.0
393.339,16786.0
394.685,17353.0
396.031,18049.0
397.376,19157.0
398.722,20999.0
400.067,22492.0
401.412,24670.0
402.757,26601.0
404.101,27328.0
405.446,26620.0
406.79,24005.0
408.134,21483.0
409.478,19739.0
410.821,18513.0
412.165,17749.0
413.508,17144.0
414.851,16643.0
416.193,16577.0
417.536,16442.0
418.878,16195.0
420.22,16257.0
421.562,16219.0
422.904,16139.0
424.245,15895.0
425.586,16118.0
426.927,16013.0
428.268,16096.0
429.609,16217.0
430.949,16090.0
432.289,15998.0
433.629,16281.0
434.969,16425.0
436.309,16212.0
437.648,16524.0
438.987,16450.0
440.326,16602.0
441.665,16588.0
443.003,16773.0
444.342,16889.0
445.68,17219.0
447.018,17580.0
448.355,18187.0
449.693,19216.0
451.03,20507.0
452.367,22722.0
453.704,25544.0
455.041,29264.0
456.377,32318.0
457.713,34633.0
459.049,33590.0
460.385,30760.0
461.721,27248.0
463.056,24288.0
464.391,22383.0
465.726,20568.0
467.061,19529.0
468.395,19051.0
469.73,18455.0
471.064,18003.0
472.398,17951.0
473.731,17687.0
475.065,17792.0
476.398,17475.0
477.731,17800.0
479.064,17567.0
480.397,18403.0
481.729,17456.0
483.062,17942.0
484.394,17856.0
485.725,17512.0
487.057,17293.0
488.389,17412.0
489.72,17560.0
491.051,17578.0
492.382,17604.043
493.712,17562.0
495.043,17484.0
496.373,17573.0
497.703,17385.0
499.032,17441.0
500.362,17396.0
501.691,17538.0
503.02,17545.0
504.349,17422.0
505.678,17356.0
507.007,17609.0
508.335,17698.0
509.663,17566.0
510.991,17624.0
512.319,17575.0
513.646,17837.0
514.973,17739.0
516.3,17887.0
517.627,17729.0
518.954,18037.0
520.28,17987.0
521.607,17736.0
522.933,17956.0
524.259,17813.0
525.584,17993.0
526.91,17788.0
528.235,17817.0
529.56,18102.0
530.885,17938.0
532.209,18068.0
533.534,17966.0
534.858,18023.0
536.182,18149.0
537.506,18165.0
538.829,18243.0
540.152,18186.0
541.476,18262.0
542.799,18190.0
544.121,18536.0
545.444,18392.0
546.766,18678.0
548.088,18777.0
549.41,18796.0
550.732,18845.0
552.053,18835.0
553.375,18954.0
554.696,19157.0
556.017,19203.0
557.337,19299.0
558.658,19646.0
559.978,19835.0
561.298,19827.0
562.618,19554.0
563.938,19508.0
565.257,19176.0
566.576,19024.0
567.895,19044.0
569.214,18734.0
570.533,19072.0
571.851,18893.0
573.17,18913.0
574.488,18888.0
575.805,18854.934
577.123,18880.0
578.44,18884.0
579.758,18889.0
581.075,18923.0
582.391,19000.0
583.708,18926.0
585.024,19230.0
586.341,18956.0
587.657,19023.0
588.972,19235.0
590.288,19072.0
591.603,19413.0
592.918,19248.0
594.233,19154.0
595.548,19325.0
596.863,19403.0
598.177,19392.0
599.491,19357.0
600.805,19464.0
602.119,19478.0
603.432,19445.0
604.746,19536.0
606.059,19666.0
607.372,19715.0
608.685,19802.252
609.997,19814.279
611.309,19912.0
612.621,19786.0
613.933,19782.0
615.245,19731.0
616.557,19972.0
617.868,19889.0
619.179,19947.0
620.49,20004.0
621.801,19971.0
623.111,19936.0
624.421,20179.0
625.731,20091.0
627.041,20328.0
628.351,20078.0
629.66,20443.0
630.97,20331.0
632.279,20314.0
633.588,20745.0
634.896,20470.0
636.205,20715.0
637.513,20732.0
638.821,21056.0
640.129,20981.0
641.437,21272.0
642.744,21678.0
644.051,21544.0
645.358,21407.0
646.665,21458.0
647.972,21283.0
649.278,21137.0
650.584,20869.0
651.89,20908.0
653.196,20649.0
654.502,20879.0
655.807,20627.0
657.113,20811.0
658.418,20684.0
659.722,20792.0
661.027,21104.0
662.331,20918.0
663.636,20861.0
664.94,20791.0
666.244,20972.0
667.547,20631.0
668.851,21000.0
670.154,20878.0
671.457,21164.0
672.76,20980.0
674.062,20979.0
675.365,21200.0
676.667,20962.0
677.969,21019.0
679.271,21284.0
680.572,21162.0
681.874,21129.0
683.175,21078.0
684.476,21355.0
685.777,21376.0
687.077,21300.0
688.378,21316.0
689.678,21192.0
690.978,21464.0
692.278,21536.0
693.577,21529.0
694.877,21125.0
696.176,21906.0
697.475,21363.0
698.774,21664.0
700.072,21658.0
701.371,21724.0
702.669,21697.0
703.967,21853.0
705.265,21530.0
706.562,21974.0
707.86,22232.0
709.157,22028.0
710.454,21944.0
711.751,22216.0
713.047,21735.0
714.344,22423.0
715.64,21973.0
716.936,22136.0
718.232,21886.0
719.527,22331.0
720.823,22386.0
722.118,22102.0
723.413,22240.0
724.708,22337.0
726.002,22289.0
727.297,22299.0
728.591,22397.0
729.885,22420.736
731.179,22505.0
732.472,22548.0
733.766,22592.0
735.059,22594.0
736.352,22626.586
737.645,22747.0
738.937,22656.0
740.23,22761.0
741.522,22778.0
742.814,22791.93
744.106,22960.0
745.397,22846.0
746.689,22997.0
747.98,22999.0
749.271,22690.0
750.562,22930.0
751.853,22874.0
753.143,23316.0
754.433,22958.0
755.723,23088.0
757.013,23105.0
758.303,23053.0
759.592,23151.299
760.881,23156.918
762.17,23245.0
763.459,23265.0
764.748,23316.0
766.036,23407.0
767.325,23115.0
768.613,23662.0
769.901,23346.0
771.188,23613.0
772.476,23720.0
773.763,23594.0
775.05,23833.0
776.337,23575.0
777.624,23724.0
778.91,23763.0
780.196,23846.0
781.482,23862.0
782.768,23793.0
784.054,23970.0
785.339,23766.0
786.625,23904.0
787.91,24144.0
789.195,23869.0
790.479,24150.0
791.764,24065.0
793.048,24035.0
794.332,24269.0
795.616,24206.0
796.9,24418.0
798.183,24424.0
799.467,24519.0
800.75,24281.0
802.033,24495.0
803.316,24484.0
804.598,24330.0
805.88,24881.0
807.163,24480.0
808.445,24932.0
809.726,24850.0
811.008,24988.0
812.289,24822.0
813.57,24976.0
814.851,24883.0
816.132,25174.0
817.413,25093.0
818.693,25160.0
819.973,25233.0
821.253,25502.0
822.533,25487.0
823.813,25546.0
825.092,25846.0
826.371,25864.0
827.65,25856.0
828.929,26220.0
830.208,26252.0
831.486,26825.0
832.764,26794.0
834.042,26696.0
835.32,27203.0
836.598,27653.0
837.875,28187.0
839.152,28788.0
840.429,29719.939
841.706,30884.0
842.983,32027.0
844.259,33124.0
845.536,34790.0
846.812,36717.0
848.088,37830.0
849.363,39280.0
850.639,39992.0
851.914,41141.0
853.189,41688.0
854.464,41947.0
855.739,42220.0
857.013,42292.0
858.288,41286.0
859.562,39201.0
860.836,37352.0
862.11,35760.0
863.383,34437.0
864.656,32755.0
865.93,32242.0
867.203,31098.0
868.475,30656.0
869.748,30327.0
871.02,29947.0
872.292,29658.068
873.564,29346.0
874.836,29105.0
876.108,28930.0
877.379,28612.0
878.65,28546.0
879.922,28766.0
881.192,28485.0
882.463,28480.0
883.733,28292.0
885.004,28296.0
886.274,28310.0
887.544,28418.0
888.813,28057.0
890.083,28850.0
891.352,28380.0
892.621,28474.0
893.89,28891.0
895.159,28744.0
896.427,29021.0
897.695,28878.0
898.964,29043.0
900.232,29645.0
901.499,29673.0
902.767,29964.0
904.034,30289.0
905.301,30740.0
906.568,31194.99
907.835,31617.0
909.102,32210.0
910.368,32908.0
911.634,33336.0
912.9,34289.0
914.166,35297.0
915.432,36552.0
916.697,38560.0
917.962,39872.0
919.227,41678.0
920.492,44139.0
921.757,45905.0
923.021,48067.0
924.285,49284.0
925.55,50216.0
926.813,50264.0
928.077,48866.0
929.341,47588.0
930.604,45700.0
931.867,43961.0
933.13,42496.0
934.393,40738.0
935.655,39522.0
936.918,38593.0
938.18,36694.0
939.442,35939.0
940.703,34473.0
941.965,33584.0
943.226,33051.0
944.488,32411.0
945.749,31686.0
947.009,31457.0
948.27,31310.0
949.53,30963.0
950.791,30791.141
952.051,30342.0
953.311,30310.0
954.57,30200.0
955.83,29888.0
957.089,29952.0
958.348,29799.0
959.607,29698.0
960.866,29521.0
962.124,29576.0
963.383,29317.0
964.641,29365.0
965.899,29488.0
967.156,29428.0
968.414,29478.0
969.671,29283.0
970.928,29347.0
972.185,29424.0
973.442,29214.0
974.699,29381.0
975.955,29413.0
977.211,29480.0
978.468,29496.0
979.723,29187.0
980.979,29412.0
982.234,29627.0
983.49,29423.0
984.745,29837.0
986.0,29151.0
987.254,29760.0
988.509,29713.0
989.763,29382.0
991.017,29656.0
992.271,29662.0
993.525,29600.0
994.779,29658.0
996.032,29672.0
997.285,29786.0
998.538,29745.0
999.791,29935.0
1001.044,29507.0
1002.296,30136.0
1003.548,29925.0
1004.8,30656.0
1006.052,30442.0
1007.304,30587.0
1008.555,30945.0
1009.807,30684.0
1011.058,30605.0
1012.309,30708.0
1013.559,30592.0
1014.81,30439.0
1016.06,30345.0
1017.31,30134.0
1018.56,30360.0
1019.81,30228.0
1021.06,29914.0
1022.309,30170.0
1023.558,30418.0
1024.807,30187.0
1026.056,30314.0
1027.305,30220.0
1028.553,30257.0
1029.801,30286.0
1031.049,30685.0
1032.297,30486.0
1033.545,30627.812
1034.793,30216.0
1036.04,30556.0
1037.287,30568.0
1038.534,30330.0
1039.781,30523.0
1041.027,30520.0
1042.274,30698.0
1043.52,30658.0
1044.766,30604.0
1046.012,30752.0
1047.257,30614.0
1048.503,30885.0
1049.748,31009.0
1050.993,31085.0
1052.238,30693.0
1053.483,31046.0
1054.727,30961.0
1055.971,30698.0
1057.216,30760.0
1058.459,30761.736
1059.703,31046.0
1060.947,30914.0
1062.19,31030.0
1063.433,31022.0
1064.676,30993.0
1065.919,31050.0
1067.162,31170.0
1068.404,31019.0
1069.646,31344.0
1070.888,30806.0
1072.13,31042.0
1073.372,31409.0
1074.613,31160.0
1075.855,31180.0
1077.096,31572.0
1078.337,31096.0
1079.578,31326.0
1080.818,31602.0
1082.059,31428.0
1083.299,31510.0
1084.539,31289.0
1085.779,31705.0
1087.018,31408.0
1088.258,31566.0
1089.497,31661.0
1090.736,31438.0
1091.975,31582.0
1093.213,31403.0
1094.452,31533.0
1095.69,31473.0
1096.928,31654.0
1098.166,31435.0
1099.404,31537.0
1100.642,31468.0
1101.879,31877.0
1103.116,31674.0
1104.353,31740.0
1105.59,31772.0
1106.827,31754.0
1108.063,31730.0
1109.299,31853.0
1110.536,31608.0
1111.771,31937.0
1113.007,32056.0
1114.243,31785.0
1115.478,32068.0
1116.713,32115.0
1117.948,31962.0
1119.183,32074.0
1120.418,32256.0
1121.652,32057.0
1122.886,32248.0
1124.12,32265.0
1125.354,32308.0
1126.588,32539.0
1127.821,32217.0
1129.055,32406.0
1130.288,32184.0
1131.521,32526.0
1132.753,32688.0
1133.986,32483.0
1135.218,32280.0
1136.45,32555.0
1137.682,32820.0
1138.914,32283.0
1140.146,32912.0
1141.377,32594.0
1142.609,32685.0
1143.84,32761.0
1145.071,32626.0
1146.301,32848.0
1147.532,33067.0
1148.762,32934.0
1149.992,33014.0
1151.222,33002.0
1152.452,32868.0
1153.682,33040.0
1154.911,33196.0
1156.14,32817.0
1157.369,33403.0
1158.598,33182.0
1159.827,33248.0
1161.055,33382.0
1162.284,33501.0
1163.512,33637.0
1164.74,33711.0
1165.967,33722.0
1167.195,33814.0
1168.422,33766.613
1169.65,34016.0
1170.877,33714.0
1172.103,33772.0
1173.33,33838.0
1174.557,33640.0
1175.783,33649.0
1177.009,34060.0
1178.235,33918.0
1179.461,33442.0
1180.686,33960.0
1181.912,33915.0
1183.137,33782.0
1184.362,34198.0
1185.587,34276.0
1186.811,34019.0
1188.036,34097.0
1189.26,34338.0
1190.484,34230.0
1191.708,34237.0
1192.932,34256.0
1194.155,34253.492
1195.378,34136.0
1196.602,34420.0
1197.825,34488.0
1199.047,34763.0
1200.27,34398.0
1201.492,34798.0
1202.715,34315.0
1203.937,34963.0
1205.159,34403.0
1206.38,34721.0
1207.602,34761.0
1208.823,35000.0
1210.044,34634.0
1211.265,34649.0
1212.486,35051.0
1213.707,34905.0
1214.927,35075.0
1216.147,35029.0
1217.367,35114.0
1218.587,35036.0
1219.807,35341.0
1221.027,35254.0
1222.246,35276.0
1223.465,35370.0
1224.684,35136.0
1225.903,35370.0
1227.121,35622.0
1228.34,35384.0
1229.558,35321.0
1230.776,35754.0
1231.994,35798.0
1233.212,35594.0
1234.429,35466.0
1235.646,35829.0
1236.864,35729.0
1238.081,35575.0
1239.297,36033.0
1240.514,35660.0
1241.73,36085.0
1242.947,36086.0
1244.163,35953.0
1245.378,36037.0
1246.594,35971.0
1247.81,36244.0
1249.025,36376.0
1250.24,35942.0
1251.455,36352.0
1252.67,36228.0
1253.885,36280.0
1255.099,36425.0
1256.313,36335.0
1257.527,36520.0
1258.741,36160.0
1259.955,36524.0
1261.168,36620.0
1262.382,36209.0
1263.595,36524.0
1264.808,36716.0
1266.021,36803.0
1267.233,36876.0
1268.446,36868.0
1269.658,36685.0
1270.87,36938.0
1272.082,36731.0
1273.294,36893.0
1274.505,36873.0
1275.716,36908.0
1276.928,37102.0
1278.139,37150.0
1279.349,37171.0
1280.56,37408.0
1281.77,37186.0
1282.981,37536.0
1284.191,37344.0
1285.401,37365.0
1286.61,37673.0
1287.82,37413.0
1289.029,37452.0
1290.239,37590.0
1291.448,37321.0
1292.656,37816.0
1293.865,37625.0
1295.073,37686.0
1296.282,37816.0
1297.49,37826.0
1298.698,37952.547
1299.906,37852.0
1301.113,38118.0
1302.32,37966.0
1303.528,37933.0
1304.735,38019.0
1305.942,38289.0
1307.148,37937.0
1308.355,38060.0
1309.561,38400.0
1310.767,37937.0
1311.973,38570.0
