Raman Shift,Intensity 
400,1.224921464
401,1.19565074
402,1.193443926
403,1.231710062
404,1.190237111
405,1.205086447
406,1.15953573
407,1.112725899
408,1.181517835
409,1.141491963
410,1.202481259
411,1.196122551
412,1.191686605
413,1.196374112
414,1.19419197
415,1.282653475
416,1.189343281
417,1.212246626
418,1.105668167
419,1.251732756
420,1.1597216
421,1.213537194
422,1.213164764
423,1.175973411
424,1.108562582
425,1.224347406
426,1.138616441
427,1.222063836
428,1.196435329
429,1.140522331
430,1.21700413
431,1.253732466
432,1.222728147
433,1.221201248
434,1.230948728
435,1.169018737
436,1.166908203
437,1.209709685
438,1.262107737
439,1.127151225
440,1.152715739
441,1.193347311
442,1.287300701
443,1.202573999
444,1.12678365
445,1.217956386
446,1.22845473
447,1.248305425
448,1.213399553
449,1.120808859
450,1.236323727
451,1.335960298
452,1.205092965
453,1.178573262
454,1.19392831
455,1.066158776
456,1.191187316
457,1.177450755
458,1.239599122
459,1.173860073
460,1.269519687
461,1.231550195
462,1.189005888
463,1.2110859
464,1.180589365
465,1.244367158
466,1.311516004
467,1.203459649
468,1.197924343
469,1.165083233
470,1.143971819
471,1.208756276
472,1.180649517
473,1.198888367
474,1.140562949
475,1.218356226
476,1.164004025
477,1.209824201
478,1.181706278
479,1.166363075
480,1.183994326
481,1.177448722
482,1.236782031
483,1.101961171
484,1.177983347
485,1.2264253
486,1.223045034
487,1.243785914
488,1.275163917
489,1.174839601
490,1.35501587
491,1.125453951
492,1.207275628
493,1.184346012
494,1.216203511
495,1.167816428
496,1.174578222
497,1.166740133
498,1.145830509
499,1.221990169
500,1.183659845
501,1.222277281
502,1.244365308
503,1.159023554
504,1.222541715
505,1.197313981
506,1.178468613
507,1.210085223
508,1.260114134
509,1.194180938
510,1.196763106
511,1.192763751
512,1.203888193
513,1.201267028
514,1.140825164
515,1.146727557
516,1.135130484
517,1.175123452
518,1.231656302
519,1.211380444
520,1.271965748
521,1.179060122
522,1.143848102
523,1.200770235
524,1.254727641
525,1.11872425
526,1.15947441
527,1.175179245
528,1.259636845
529,1.269952508
530,1.207470471
531,1.163548058
532,1.121430585
533,1.168622632
534,1.128306979
535,1.21687479
536,1.227204391
537,1.209555159
538,1.217937521
539,1.149273864
540,1.145610908
541,1.194003679
542,1.172306415
543,1.215394293
544,1.239088967
545,1.215730923
546,1.173367753
547,1.18030627
548,1.271356715
549,1.192780443
550,1.195608569
551,1.261416261
552,1.164656861
553,1.1879156
554,1.206223471
555,1.188878891
556,1.199093824
557,1.205492606
558,1.118142405
559,1.287747644
560,1.214508971
561,1.155647147
562,1.205170167
563,1.168474045
564,1.209637487
565,1.076024664
566,1.158659033
567,1.291003533
568,1.243962169
569,1.199010726
570,1.19723853
571,1.278272782
572,1.21213648
573,1.159881147
574,1.150685345
575,1.114543679
576,1.242415901
577,1.1831196
578,1.266906883
579,1.220442553
580,1.261071592
581,1.165272669
582,1.206136945
583,1.144065466
584,1.225041853
585,1.312225494
586,1.124574103
587,1.111558913
588,1.27988379
589,1.262279845
590,1.191811487
591,1.171761022
592,1.238459116
593,1.23704474
594,1.211616539
595,1.173994514
596,1.167795628
597,1.279210154
598,1.139337783
599,1.17503149
600,1.191442525
601,1.214591513
602,1.172792454
603,1.216313823
604,1.093123268
605,1.304014457
606,1.264585732
607,1.183132575
608,1.207529595
609,1.226538708
610,1.207746322
611,1.158950598
612,1.192378964
613,1.170245279
614,1.229465347
615,1.121538937
616,1.184783705
617,1.131287888
618,1.166260194
619,1.127235684
620,1.238639705
621,1.194997882
622,1.12263909
623,1.229071165
624,1.233845208
625,1.194972513
626,1.21584824
627,1.187784312
628,1.152408497
629,1.147879057
630,1.181727198
631,1.235149574
632,1.19946855
633,1.14987076
634,1.166065911
635,1.188018857
636,1.259950467
637,1.146075162
638,1.211025005
639,1.158020473
640,1.228087465
641,1.286007693
642,1.216649005
643,1.147262537
644,1.14984122
645,1.130353564
646,1.208197439
647,1.195404801
648,1.217174253
649,1.192055845
650,1.184755089
651,1.225493626
652,1.109679499
653,1.215441629
654,1.111669456
655,1.136730606
656,1.223758162
657,1.148016265
658,1.188639171
659,1.140354789
660,1.13926741
661,1.224481564
662,1.224933261
663,1.174813127
664,1.170359233
665,1.311425751
666,1.171407837
667,1.132226755
668,1.179243
669,1.250667275
670,1.163177826
671,1.208799334
672,1.08472926
673,1.178076006
674,1.22725631
675,1.185891756
676,1.143840374
677,1.140537885
678,1.153862
679,1.159272409
680,1.231358692
681,1.158567587
682,1.234641172
683,1.191658456
684,1.220648412
685,1.134777201
686,1.130134524
687,1.264600744
688,1.169642511
689,1.169362047
690,1.181726283
691,1.205147161
692,1.045098223
693,1.157408981
694,1.227940277
695,1.18662965
696,1.263977088
697,1.182634332
698,1.176174652
699,1.187895907
700,1.255703989
701,1.194298719
702,1.155454555
703,1.22853887
704,1.216094571
705,1.191401718
706,1.15199068
707,1.225453147
708,1.125106969
709,1.244971501
710,1.174334398
711,1.081430586
712,1.210091687
713,1.190595729
714,1.174337705
715,1.228709711
716,1.213824565
717,1.238989229
718,1.205996435
719,1.177665337
720,1.246479222
721,1.187257797
722,1.146336584
723,1.111223906
724,1.213526935
725,1.237692927
726,1.223727605
727,1.192389467
728,1.20882738
729,1.279015127
730,1.234807193
731,1.171620296
732,1.203119042
733,1.129140956
734,1.28860014
735,1.128370437
736,1.121454107
737,1.101821041
738,1.183155054
739,1.182341792
740,1.144389252
741,1.171275812
742,1.206417174
743,1.164466986
744,1.21693827
745,1.134079064
746,1.139213658
747,1.16004516
748,1.270477057
749,1.24952471
750,1.181858251
751,1.163871165
752,1.180197751
753,1.140373767
754,1.160211371
755,1.18199125
756,1.133346213
757,1.202000766
758,1.166227307
759,1.238113444
760,1.169178701
761,1.159188187
762,1.205985797
763,1.193397403
764,1.187307832
765,1.179106159
766,1.177834047
767,1.21641341
768,1.195706499
769,1.216171703
770,1.189976069
771,1.117812418
772,1.191311296
773,1.198524708
774,1.181074694
775,1.187265827
776,1.201663783
777,1.194109543
778,1.189437136
779,1.214512159
780,1.160170615
781,1.210183467
782,1.154734536
783,1.215155518
784,1.242578126
785,1.235724377
786,1.187911798
787,1.145945662
788,1.194930497
789,1.184428543
790,1.219430202
791,1.113436746
792,1.187884869
793,1.19900853
794,1.170253051
795,1.178613914
796,1.180552394
797,1.168291147
798,1.174838781
799,1.264977418
800,1.12545108
801,1.161835529
802,1.150476077
803,1.181041203
804,1.185862611
805,1.179473068
806,1.157066699
807,1.24364577
808,1.173817837
809,1.180325574
810,1.234547487
811,1.15558312
812,1.235263533
813,1.214966554
814,1.223719114
815,1.180388552
816,1.1703798
817,1.215346596
818,1.200735786
819,1.215613997
820,1.193011059
821,1.197852861
822,1.216991001
823,1.219191341
824,1.239216804
825,1.285001551
826,1.178018855
827,1.13603632
828,1.183125674
829,1.108314999
830,1.232008296
831,1.164921488
832,1.153829684
833,1.208327477
834,1.187196726
835,1.21194745
836,1.225505815
837,1.220217793
838,1.227980001
839,1.208944719
840,1.190385553
841,1.219665875
842,1.187463179
843,1.185949264
844,1.176541481
845,1.190473449
846,1.15333784
847,1.208650305
848,1.126440262
849,1.157926877
850,1.25255631
851,1.178369462
852,1.208831009
853,1.251771124
854,1.185599728
855,1.178767157
856,1.190627843
857,1.138525781
858,1.262046886
859,1.218190413
860,1.210682269
861,1.206296842
862,1.220432649
863,1.213467572
864,1.164200023
865,1.161058965
866,1.205568746
867,1.150366809
868,1.210742258
869,1.150225056
870,1.230784601
871,1.133960871
872,1.153232528
873,1.268595933
874,1.270455877
875,1.213735822
876,1.202171303
877,1.100701229
878,1.190548005
879,1.169462281
880,1.216009445
881,1.185253938
882,1.187597493
883,1.132378113
884,1.267039681
885,1.153028985
886,1.17202392
887,1.136247436
888,1.206225073
889,1.177217415
890,1.16582988
891,1.158810453
892,1.21494698
893,1.060671853
894,1.201858146
895,1.201296455
896,1.166341177
897,1.358055901
898,1.22873132
899,1.234767338
900,1.219189196
901,1.223012098
902,1.215340906
903,1.145967585
904,1.036476439
905,1.24136871
906,1.160961054
907,1.11778681
908,1.23811859
909,1.21433916
910,1.156559113
911,1.208874381
912,1.213129785
913,1.226813194
914,1.252154782
915,1.294594193
916,1.175619469
917,1.173966937
918,1.129150355
919,1.226232546
920,1.184419897
921,1.253769174
922,1.249592061
923,1.159729174
924,1.183254446
925,1.250650376
926,1.181476712
927,1.25644726
928,1.177612779
929,1.193069141
930,1.045959991
931,1.245545047
932,1.123186836
933,1.271838888
934,1.178583967
935,1.205182126
936,1.208635238
937,1.191220395
938,1.139924389
939,1.218399313
940,1.144016613
941,1.180305713
942,1.214703266
943,1.181466162
944,1.286216135
945,1.220924065
946,1.107537021
947,1.253853801
948,1.19524869
949,1.114743476
950,1.257033272
951,1.120670841
952,1.192855667
953,1.157923436
954,1.166456647
955,1.115681057
956,1.255829487
957,1.177948006
958,1.204194611
959,1.200753574
960,1.227109397
961,1.163413888
962,1.134674178
963,1.145162369
964,1.242746769
965,1.284216173
966,1.265453705
967,1.252394386
968,1.218839327
969,1.158652889
970,1.175293427
971,1.117693647
972,1.217376028
973,1.174956589
974,1.236486931
975,1.236305089
976,1.182296134
977,1.13733816
978,1.172859601
979,1.19009558
980,1.146651129
981,1.188591627
982,1.273748666
983,1.068032031
984,1.161645594
985,1.29517763
986,1.128386505
987,1.197652929
988,1.210108529
989,1.159035866
990,1.234974408
991,1.171085031
992,1.189572924
993,1.197613471
994,1.176727166
995,1.225229652
996,1.188898716
997,1.147755603
998,1.210178245
999,1.204294423
1000,1.144516566
1001,1.201290448
1002,1.153260787
1003,1.233172087
1004,1.210444648
1005,1.23834421
1006,1.190418025
1007,1.216448951
1008,1.266662351
1009,1.102171926
1010,1.189050493
1011,1.195630855
1012,1.227228126
1013,1.170422903
1014,1.211021629
1015,1.255492459
1016,1.228030832
1017,1.190493192
1018,1.164600855
1019,1.193631303
1020,1.130188435
1021,1.147293498
1022,1.169301888
1023,1.221289127
1024,1.107171586
1025,1.152935473
1026,1.182297133
1027,1.173834548
1028,1.168223772
1029,1.145994017
1030,1.159600184
1031,1.237992416
1032,1.193806257
1033,1.255725482
1034,1.197347732
1035,1.153858119
1036,1.146557346
1037,1.272440747
1038,1.158594256
1039,1.23781669
1040,1.195153366
1041,1.274916876
1042,1.146527924
1043,1.131549245
1044,1.211141548
1045,1.211212516
1046,1.149639109
1047,1.215705316
1048,1.194921835
1049,1.31074821
1050,1.168395633
1051,1.182727107
1052,1.217553508
1053,1.276959523
1054,1.176781593
1055,1.208530775
1056,1.1610302
1057,1.188068992
1058,1.194984719
1059,1.230961689
1060,1.169778148
1061,1.256890739
1062,1.24430572
1063,1.146198648
1064,1.26983957
1065,1.20771188
1066,1.170851188
1067,1.206655769
1068,1.151624523
1069,1.306598673
1070,1.175606481
1071,1.190099289
1072,1.227070564
1073,1.240581961
1074,1.212776939
1075,1.172552678
1076,1.191037586
1077,1.151645766
1078,1.153759084
1079,1.206740037
1080,1.225770837
1081,1.178920904
1082,1.283696197
1083,1.245556435
1084,1.192226934
1085,1.211788431
1086,1.156181912
1087,1.12957847
1088,1.209258416
1089,1.223116521
1090,1.089878581
1091,1.162535701
1092,1.232445006
1093,1.226765424
1094,1.196204848
1095,1.241654615
1096,1.235901998
1097,1.181741714
1098,1.26439459
1099,1.074477227
1100,1.115665506
1101,1.250276447
1102,1.255057333
1103,1.261625699
1104,1.194011518
1105,1.242490667
1106,1.213486159
1107,1.276067071
1108,1.227561901
1109,1.186435759
1110,1.196377259
1111,1.159865585
1112,1.1795416
1113,1.191252998
1114,1.152598619
1115,1.218120469
1116,1.166836765
1117,1.151573284
1118,1.18958525
1119,1.16081737
1120,1.166668486
1121,1.152812754
1122,1.184074971
1123,1.138067348
1124,1.161149782
1125,1.231479292
1126,1.126039481
1127,1.24429922
1128,1.136706207
1129,1.228288797
1130,1.19685247
1131,1.107833883
1132,1.206658298
1133,1.207415735
1134,1.22093626
1135,1.137385883
1136,1.245041999
1137,1.175161478
1138,1.241303924
1139,1.210706753
1140,1.178885774
1141,1.327134686
1142,1.20150879
1143,1.199586096
1144,1.179887273
1145,1.113155885
1146,1.11511682
1147,1.178737105
1148,1.203288244
1149,1.176921149
1150,1.124117693
1151,1.139267873
1152,1.35618818
1153,1.192922283
1154,1.169867451
1155,1.248142065
1156,1.206446287
1157,1.186510888
1158,1.134912341
1159,1.222487635
1160,1.19814464
1161,1.152154881
1162,1.200417261
1163,1.194907805
1164,1.195258818
1165,1.288585581
1166,1.211917177
1167,1.192064926
1168,1.2436156
1169,1.149911753
1170,1.157212234
1171,1.179146875
1172,1.185598362
1173,1.190951117
1174,1.324835662
1175,1.223713058
1176,1.221903204
1177,1.216389596
1178,1.301122233
1179,1.166979956
1180,1.13990994
1181,1.163273973
1182,1.166384929
1183,1.301108962
1184,1.268428439
1185,1.160262564
1186,1.199107671
1187,1.205426263
1188,1.197830127
1189,1.153908038
1190,1.161414829
1191,1.159095589
1192,1.202187769
1193,1.209823359
1194,1.233077933
1195,1.203667915
1196,1.131906648
1197,1.177863344
1198,1.14544091
1199,1.155680283
1200,1.230355405
1201,1.180465073
1202,1.195512425
1203,1.233939596
1204,1.260879005
1205,1.207248653
1206,1.243938351
1207,1.211142009
1208,1.211428752
1209,1.196933661
1210,1.189598339
1211,1.253060918
1212,1.281072362
1213,1.180918053
1214,1.257960332
1215,1.245786034
1216,1.133743508
1217,1.282565721
1218,1.204263418
1219,1.20233763
1220,1.195619448
1221,1.195568288
1222,1.143613527
1223,1.28643885
1224,1.180043285
1225,1.10949167
1226,1.187749588
1227,1.206140893
1228,1.281523936
1229,1.227091114
1230,1.183137393
1231,1.240577248
1232,1.196572172
1233,1.217679424
1234,1.162934866
1235,1.212772132
1236,1.200640235
1237,1.155624918
1238,1.177079456
1239,1.263971617
1240,1.181262962
1241,1.30006297
1242,1.286528042
1243,1.21413496
1244,1.174112508
1245,1.158371577
1246,1.22478429
1247,1.21360641
1248,1.129638726
1249,1.213536797
1250,1.265820257
1251,1.277976986
1252,1.157278894
1253,1.217450968
1254,1.173484371
1255,1.324876899
1256,1.127911348
1257,1.207860646
1258,1.224706583
1259,1.239179513
1260,1.241169981
1261,1.191790963
1262,1.249337452
1263,1.28166861
1264,1.157296967
1265,1.199381737
1266,1.187494633
1267,1.199681131
1268,1.20989155
1269,1.242175661
1270,1.203028374
1271,1.279384933
1272,1.237093544
1273,1.174948657
1274,1.16473694
1275,1.258430254
1276,1.132163646
1277,1.179900565
1278,1.158040965
1279,1.192430889
1280,1.120490578
1281,1.223367748
1282,1.200344901
1283,1.231536908
1284,1.103703739
1285,1.264094846
1286,1.189452281
1287,1.207374047
1288,1.260479986
1289,1.171663063
1290,1.2707711
1291,1.218478181
1292,1.262488218
1293,1.259842809
1294,1.259054632
1295,1.103070484
1296,1.172534895
1297,1.232210013
1298,1.207326193
1299,1.147717111
1300,1.196261567
1301,1.243300531
1302,1.165590567
1303,1.029606374
1304,1.114137867
1305,1.213465775
1306,1.147177364
1307,1.204459825
1308,1.20570274
1309,1.268695049
1310,1.195707042
1311,1.19882377
1312,1.171917775
1313,1.127563484
1314,1.237637832
1315,1.268722006
1316,1.227089801
1317,1.158638267
1318,1.229529974
1319,1.206176549
1320,1.235106214
1321,1.167394739
1322,1.268287163
1323,1.116011571
1324,1.185243259
1325,1.18933019
1326,1.212159207
1327,1.274363614
1328,1.136574442
1329,1.16257627
1330,1.280325771
1331,1.187312418
1332,1.265995395
1333,1.207510149
1334,1.169513246
1335,1.212774353
1336,1.135381092
1337,1.145764962
1338,1.201764558
1339,1.118823797
1340,1.115562101
1341,1.215855369
1342,1.183258175
1343,1.19406718
1344,1.24986844
1345,1.185966081
1346,1.25391519
1347,1.196124291
1348,1.246564947
1349,1.177467343
1350,1.206259889
1351,1.170639782
1352,1.166326102
1353,1.23499206
1354,1.219237187
1355,1.261750446
1356,1.196289232
1357,1.220285493
1358,1.214516114
1359,1.203704202
1360,1.208201009
1361,1.103831197
1362,1.262425247
1363,1.302074002
1364,1.142341953
1365,1.276562697
1366,1.270036003
1367,1.245899124
1368,1.17201201
1369,1.18769668
1370,1.182342148
1371,1.241631174
1372,1.287963234
1373,1.198789902
1374,1.276531489
1375,1.148213427
1376,1.228873778
1377,1.171684043
1378,1.220374054
1379,1.232188414
1380,1.205283991
1381,1.295580555
1382,1.102205354
1383,1.18027438
1384,1.131859457
1385,1.241698446
1386,1.090051919
1387,1.273856845
1388,1.184226574
1389,1.152725762
1390,1.250752345
1391,1.232198804
1392,1.206129762
1393,1.168016792
1394,1.145653552
1395,1.174281714
1396,1.246182245
1397,1.192011267
1398,1.264115682
1399,1.269357606
1400,1.218463566
1401,1.25029638
1402,1.178702626
1403,1.187647634
1404,1.278294575
1405,1.209238508
1406,1.22181836
1407,1.339745329
1408,1.294824903
1409,1.188582755
1410,1.242544178
1411,1.201510946
1412,1.233604698
1413,1.137824873
1414,1.17758638
1415,1.248303455
1416,1.21069614
1417,1.192481141
1418,1.216994993
1419,1.282916033
1420,1.152705084
1421,1.247512458
1422,1.230519377
1423,1.204606088
1424,1.277888182
1425,1.197580365
1426,1.260417149
1427,1.230196306
1428,1.245237185
1429,1.250706948
1430,1.189239765
1431,1.166488977
1432,1.260255128
1433,1.247719967
1434,1.277834957
1435,1.254029213
1436,1.277882153
1437,1.242620617
1438,1.339169804
1439,1.216879769
1440,1.213512322
1441,1.342045971
1442,1.295751419
1443,1.230174458
1444,1.215892954
1445,1.175406145
1446,1.213322064
1447,1.34562598
1448,1.229948252
1449,1.335232252
1450,1.238073025
1451,1.200756326
1452,1.276403087
1453,1.23262385
1454,1.275076154
1455,1.208206964
1456,1.224612156
1457,1.219996606
1458,1.312482954
1459,1.221827442
1460,1.24203049
1461,1.287971286
1462,1.233210713
1463,1.260898025
1464,1.17841338
1465,1.26595203
1466,1.256432869
1467,1.235109792
1468,1.220442271
1469,1.306673194
1470,1.390166151
1471,1.266921339
1472,1.333340182
1473,1.305236659
1474,1.210004966
1475,1.275563004
1476,1.24757817
1477,1.287364435
1478,1.273015519
1479,1.219550084
1480,1.242255215
1481,1.331583169
1482,1.292347949
1483,1.330181087
1484,1.264278515
1485,1.277459438
1486,1.249610757
1487,1.340222514
1488,1.328685467
1489,1.272257633
1490,1.264865467
1491,1.333304413
1492,1.36355212
1493,1.337779119
1494,1.42658627
1495,1.401982136
1496,1.292313457
1497,1.453419541
1498,1.387281014
1499,1.393028544
1500,1.388297602
1501,1.278425952
1502,1.366915262
1503,1.392146356
1504,1.339399294
1505,1.392911206
1506,1.336277132
1507,1.405745479
1508,1.376592002
1509,1.332985185
1510,1.415472671
1511,1.368800103
1512,1.288609272
1513,1.337827468
1514,1.412813959
1515,1.372534251
1516,1.412279684
1517,1.500326287
1518,1.345622831
1519,1.29613647
1520,1.384261676
1521,1.363549678
1522,1.417893819
1523,1.378321864
1524,1.387752384
1525,1.473825072
1526,1.461579092
1527,1.464952763
1528,1.357551099
1529,1.334283195
1530,1.367914267
1531,1.381651349
1532,1.413484141
1533,1.438415926
1534,1.404001112
1535,1.442894181
1536,1.410137643
1537,1.443013129
1538,1.417519012
1539,1.398299718
1540,1.37762965
1541,1.387382245
1542,1.311877031
1543,1.387860955
1544,1.446484526
1545,1.42931737
1546,1.467843793
1547,1.464772492
1548,1.454191135
1549,1.410989762
1550,1.469036712
1551,1.507213344
1552,1.49208394
1553,1.460229542
1554,1.529962305
1555,1.453176479
1556,1.45701806
1557,1.368181752
1558,1.49320821
1559,1.349875429
1560,1.383204426
1561,1.497375754
1562,1.410033027
1563,1.474503266
1564,1.546383621
1565,1.445391756
1566,1.484894702
1567,1.348201753
1568,1.529801505
1569,1.43844998
1570,1.504737984
1571,1.407836976
1572,1.395382525
1573,1.517589757
1574,1.549410581
1575,1.423363618
1576,1.359073594
1577,1.463919569
1578,1.517141888
1579,1.553970785
1580,1.44045136
1581,1.554635002
1582,1.466979615
1583,1.492174392
1584,1.489770809
1585,1.490247107
1586,1.493119039
1587,1.440762176
1588,1.473413998
1589,1.509083614
1590,1.44212725
1591,1.532361572
1592,1.456640517
1593,1.539411824
1594,1.515943528
1595,1.453134369
1596,1.457043145
1597,1.34289105
1598,1.572900569
1599,1.564841031
1600,1.515753277
1601,1.45597472
1602,1.430742121
1603,1.498647257
1604,1.537570109
1605,1.471176651
1606,1.472025477
1607,1.457379342
1608,1.500662411
1609,1.342977651
1610,1.549178185
1611,1.456494186
1612,1.481414877
1613,1.588517325
1614,1.479149862
1615,1.49394544
1616,1.402606306
1617,1.435870948
1618,1.468127512
1619,1.548852203
1620,1.444825493
1621,1.512990911
1622,1.477398216
1623,1.477910414
1624,1.523953163
1625,1.466964337
1626,1.436027948
1627,1.376336653
1628,1.525150299
1629,1.424540875
1630,1.468084923
1631,1.458961822
1632,1.567079398
1633,1.507044098
1634,1.483334946
1635,1.501508456
1636,1.4879996
1637,1.573162476
1638,1.492832457
1639,1.449204667
1640,1.578389503
1641,1.503334007
1642,1.388406648
1643,1.508948612
1644,1.540853411
1645,1.460682595
1646,1.498720774
1647,1.44093122
1648,1.420166615
1649,1.495981447
1650,1.35458959
1651,1.418977095
1652,1.544995425
1653,1.400919543
1654,1.479914092
1655,1.51448694
1656,1.428947591
1657,1.479054027
1658,1.57051348
1659,1.388110885
1660,1.489727718
1661,1.538169752
1662,1.497193203
1663,1.446626928
1664,1.422961757
1665,1.476896167
1666,1.502485665
1667,1.38349259
1668,1.438060257
1669,1.385647483
1670,1.409189832
1671,1.433577516
1672,1.426884767
1673,1.388399762
1674,1.427782933
1675,1.346691721
1676,1.482674645
1677,1.358306799
1678,1.348810378
1679,1.385975564
1680,1.423568923
1681,1.511156649
1682,1.462692352
1683,1.420966973
1684,1.31353051
1685,1.320016851
1686,1.423353944
1687,1.374294033
1688,1.379608542
1689,1.332955231
1690,1.415648703
1691,1.439256598
1692,1.362099332
1693,1.360589702
1694,1.4478798
1695,1.427837308
1696,1.41810801
1697,1.322541707
1698,1.464269769
1699,1.35725045
1700,1.347908017
1701,1.296314086
1702,1.33203359
1703,1.430600931
1704,1.379613931
1705,1.284794796
1706,1.477305399
1707,1.38369813
1708,1.350648028
1709,1.345877834
1710,1.34041493
1711,1.33614901
1712,1.28997364
1713,1.390070859
1714,1.33863713
1715,1.272085491
1716,1.337711769
1717,1.35117894
1718,1.299494347
1719,1.3379987
1720,1.383385297
1721,1.407650841
1722,1.332843637
1723,1.325135453
1724,1.290223352
1725,1.455580091
1726,1.25130818
1727,1.272900631
1728,1.298022005
1729,1.290226803
1730,1.290734681
1731,1.281246815
1732,1.350108752
1733,1.314867021
1734,1.333456894
1735,1.332856882
1736,1.246419225
1737,1.357435835
1738,1.258639456
1739,1.355898703
1740,1.320952007
1741,1.286076008
1742,1.403030898
1743,1.330664924
1744,1.203308753
1745,1.245075121
1746,1.287993855
1747,1.256403658
1748,1.240531664
1749,1.352247941
1750,1.229226168
1751,1.314635988
1752,1.317612446
1753,1.166728028
1754,1.258895853
1755,1.290237123
1756,1.306090246
1757,1.299599819
1758,1.273815189
1759,1.304168149
1760,1.318655008
1761,1.310295915
1762,1.264656773
1763,1.397698461
1764,1.279042981
1765,1.174120639
1766,1.351113567
1767,1.275169102
1768,1.250649736
1769,1.331175612
1770,1.287024776
1771,1.275718646
1772,1.32546244
1773,1.293083188
1774,1.270167747
1775,1.302504121
1776,1.282820967
1777,1.181536197
1778,1.253855476
1779,1.2135375
1780,1.302933655
1781,1.270881162
1782,1.287740041
1783,1.311966772
1784,1.302656558
1785,1.244059286
1786,1.192287356
1787,1.248672255
1788,1.248196467
1789,1.244295228
1790,1.281917044
1791,1.259143301
1792,1.129211993
1793,1.25488486
1794,1.176064359
1795,1.180385477
1796,1.156439428
1797,1.222904058
1798,1.275638511
1799,1.153862285
1800,1.242406207
1801,1.32242905
1802,1.271804631
1803,1.236000932
1804,1.11877675
1805,1.200617872
1806,1.30408668
1807,1.137972447
1808,1.284381742
1809,1.085850224
1810,1.32189612
1811,1.271601347
1812,1.228470392
1813,1.240267664
1814,1.192491525
1815,1.235672456
1816,1.259925033
1817,1.228509546
1818,1.236533743
1819,1.167647023
1820,1.131404219
1821,1.222681627
1822,1.228642358
1823,1.306385442
1824,1.264271814
1825,1.147034535
1826,1.271307737
1827,1.145252729
1828,1.177820954
1829,1.261551703
1830,1.180255209
1831,1.2631697
1832,1.276615933
1833,1.201893963
1834,1.224077454
1835,1.251335729
1836,1.211031112
1837,1.136334111
1838,1.265958197
1839,1.172445247
1840,1.14067203
1841,1.199860347
1842,1.220240344
1843,1.275446915
1844,1.22872776
1845,1.315198673
1846,1.254725894
1847,1.222963381
1848,1.263663315
1849,1.264082915
1850,1.210463292
1851,1.149936222
1852,1.250983261
1853,1.200933957
1854,1.228621029
1855,1.157078939
1856,1.128007151
1857,1.195476011
1858,1.143098798
1859,1.194176546
1860,1.129680287
1861,1.173744869
1862,1.155434772
1863,1.336068624
1864,1.23446319
1865,1.305970511
1866,1.133496787
1867,1.206797127
1868,1.170123314
1869,1.228016741
1870,1.244460854
1871,1.253384586
1872,1.168426
1873,1.220333552
1874,1.2591282
1875,1.23641992
1876,1.22576114
1877,1.196955721
1878,1.203046541
1879,1.093688167
1880,1.150600089
1881,1.187567761
1882,1.287757253
1883,1.185341739
1884,1.280812658
1885,1.216102217
1886,1.130684084
1887,1.19646768
1888,1.245891447
1889,1.233048425
1890,1.182186519
1891,1.223879603
1892,1.24785496
1893,1.205189321
1894,1.204596339
1895,1.19504525
1896,1.177412537
1897,1.142200185
1898,1.258848305
1899,1.163055345
1900,1.173359961
1901,1.281615859
1902,1.268080499
1903,1.206950239
1904,1.125496932
1905,1.190339976
1906,1.170630157
1907,1.162568356
1908,1.243030636
1909,1.16969526
1910,1.10461646
1911,1.252800966
1912,1.165545256
1913,1.224555409
1914,1.241721388
1915,1.155962711
1916,1.245006026
1917,1.160169504
1918,1.293336541
1919,1.064297282
1920,1.156925283
1921,1.295198484
1922,1.214329445
1923,1.211839023
1924,1.217228267
1925,1.175475094
1926,1.113944416
1927,1.074610644
1928,1.164128521
1929,1.163995627
1930,1.122802804
1931,1.149515656
1932,1.162783067
1933,1.19176173
1934,1.234319151
1935,1.122486105
1936,1.115145131
1937,1.256036602
1938,1.236636871
1939,1.237349931
1940,1.237149494
1941,1.064485878
1942,1.302226827
1943,1.278205093
1944,1.161082698
1945,1.211740536
1946,1.178534494
1947,1.168409819
1948,1.310660519
1949,1.280173989
1950,1.268423943
1951,1.082722859
1952,1.22672875
1953,1.227477089
1954,1.214217818
1955,1.158486651
1956,1.190279737
1957,1.15483962
1958,1.123212062
1959,1.161728799
1960,1.228123863
1961,1.217115896
1962,1.20985297
1963,1.162980744
1964,1.178205322
1965,1.184648768
1966,1.165228593
1967,1.070359111
1968,1.127630131
1969,1.146815325
1970,1.209476772
1971,1.174560577
1972,1.155692182
1973,1.18794649
1974,1.228479839
1975,1.180889369
1976,1.196955725
1977,1.315395376
1978,1.216600041
1979,1.224770738
1980,1.198930087
1981,1.161433793
1982,1.252778823
1983,1.207047013
1984,1.233716503
1985,1.246213746
1986,1.246291244
1987,1.225095452
1988,1.207368433
1989,1.243640636
1990,1.22012146
1991,1.143284437
1992,1.12858539
1993,1.220062331
1994,1.167401754
1995,1.148841084
1996,1.114719801
1997,1.221956762
1998,1.188942551
1999,1.186036914
2000,1.192141032
2001,1.230502568
2002,1.210418561
2003,1.240083895
2004,1.18351039
2005,1.261661298
2006,1.229411981
2007,1.185204653
2008,1.180175338
2009,1.173830102
2010,1.142495407
2011,1.260435746
2012,1.264198345
2013,1.138065469
2014,1.246532346
2015,1.174565456
2016,1.174157374
2017,1.170635846
2018,1.221646231
2019,1.192514406
2020,1.210897309
2021,1.306244633
2022,1.219447132
2023,1.194392135
2024,1.168810746
2025,1.145590536
2026,1.255223476
2027,1.199427316
2028,1.260599385
2029,1.188857963
2030,1.151477624
2031,1.266145096
2032,1.29674908
2033,1.215160154
2034,1.249474891
2035,1.235504907
2036,1.242020093
2037,1.191674274
2038,1.128676463
2039,1.147923397
2040,1.225878315
2041,1.102228407
2042,1.187526542
2043,1.202802646
2044,1.173394052
2045,1.164566624
2046,1.086867382
2047,1.20265754
2048,1.227815402
2049,1.216425973
2050,1.172978549
2051,1.146205509
2052,1.148021623
2053,1.18727156
2054,1.201207329
2055,1.29142758
2056,1.249326216
2057,1.146163233
2058,1.263008386
2059,1.188073803
2060,1.297153125
2061,1.192572742
2062,1.264849628
2063,1.275044736
2064,1.288721286
2065,1.249624231
2066,1.150652633
2067,1.300398728
2068,1.15944088
2069,1.190202912
2070,1.045202604
2071,1.210381331
2072,1.116203658
2073,1.189434493
2074,1.319033514
2075,1.156194311
2076,1.142918589
2077,1.064394292
2078,1.233891844
2079,1.111557113
2080,1.146343768
2081,1.193422384
2082,1.180717426
2083,1.075012768
2084,1.184392929
2085,1.18211396
2086,1.179367674
2087,1.201021602
2088,1.223887692
2089,1.243633475
2090,1.24458989
2091,1.22579564
2092,1.182387182
2093,1.190383207
2094,1.201868217
2095,1.159156529
2096,1.222641558
2097,1.230507292
2098,1.155929995
2099,1.172417167
2100,1.184529966
2101,1.246724925
2102,1.214760392
2103,1.28476567
2104,1.22965476
2105,1.254832667
2106,1.269378397
2107,1.150769751
2108,1.251329953
2109,1.236300208
2110,1.194216971
2111,1.306557437
2112,1.222757806
2113,1.229068424
2114,1.175154582
2115,1.187681781
2116,1.20735111
2117,1.191713481
2118,1.171257628
2119,1.177487152
2120,1.115410177
2121,1.18253404
2122,1.170261712
2123,1.187600535
2124,1.237791991
2125,1.216496595
2126,1.130491847
2127,1.178452404
2128,1.110821914
2129,1.218371631
2130,1.170928423
2131,1.265676703
2132,1.221153821
2133,1.198374245
2134,1.150173162
2135,1.283255592
2136,1.185693085
2137,1.261503761
2138,1.15900053
2139,1.257075312
2140,1.212491006
2141,1.111242895
2142,1.231386883
2143,1.244032433
2144,1.138379002
2145,1.216468279
2146,1.193966989
2147,1.278206305
2148,1.237070598
2149,1.228336564
2150,1.207080937
2151,1.239468033
2152,1.26927804
2153,1.208151376
2154,1.155853233
2155,1.211350968
2156,1.275138063
2157,1.225106214
2158,1.164418384
2159,1.147284645
2160,1.141977583
2161,1.188289646
2162,1.129195902
2163,1.165614058
2164,1.249384569
2165,1.315957997
2166,1.17507031
2167,1.234086916
2168,1.148306424
2169,1.141126875
2170,1.258534018
2171,1.157350835
2172,1.144289828
2173,1.197300295
2174,1.271055337
2175,1.217702227
2176,1.181329363
2177,1.100734507
2178,1.271295516
2179,1.142678772
2180,1.281153159
2181,1.193438373
2182,1.25545465
2183,1.183286869
2184,1.330277257
2185,1.195091776
2186,1.229207532
2187,1.162177924
2188,1.202696868
2189,1.198838838
2190,1.162629013
2191,1.199661714
2192,1.198960122
2193,1.17579516
2194,1.22834691
2195,1.201064735
2196,1.129537017
2197,1.149475568
2198,1.183350468
2199,1.243024202
2200,1.189399127
2201,1.142491152
2202,1.272079279
2203,1.238047495
2204,1.225277999
2205,1.204394259
2206,1.26185366
2207,1.134659699
2208,1.317619142
2209,1.161062416
2210,1.168963653
2211,1.112505156
2212,1.194327461
2213,1.179992096
2214,1.146384258
2215,1.268005012
2216,1.21001964
2217,1.175805291
2218,1.238250876
2219,1.104994623
2220,1.177222793
2221,1.371984749
2222,1.182068931
2223,1.196888108
2224,1.177748303
2225,1.210205172
2226,1.18526601
2227,1.146834617
2228,1.215836846
2229,1.213601752
2230,1.120126497
2231,1.224653121
2232,1.222544362
2233,1.214060103
2234,1.11475952
2235,1.211547857
2236,1.192265846
2237,1.1930321
2238,1.159301522
2239,1.221269466
2240,1.201699073
2241,1.110343959
2242,1.136127439
2243,1.209601742
2244,1.156973171
2245,1.168354054
2246,1.104576606
2247,1.233243391
2248,1.174102096
2249,1.063656066
2250,1.179939094
2251,1.173232858
2252,1.173648739
2253,1.188956668
2254,1.249729616
2255,1.271334994
2256,1.163921059
2257,1.230526736
2258,1.240433485
2259,1.155687689
2260,1.174181353
2261,1.201153108
2262,1.263852528
2263,1.190625159
2264,1.237477661
2265,1.176599874
2266,1.287301794
2267,1.272056574
2268,1.184802892
2269,1.232075028
2270,1.221388398
2271,1.265181877
2272,1.225389234
2273,1.093006478
2274,1.194082592
2275,1.139165775
2276,1.152867213
2277,1.230053083
2278,1.1531459
2279,1.223824113
2280,1.220582397
2281,1.210739437
2282,1.236288826
2283,1.124309588
2284,1.217425005
2285,1.16725301
2286,1.201589794
2287,1.242454321
2288,1.182720044
2289,1.223276159
2290,1.195171431
2291,1.16769855
2292,1.153256606
2293,1.258991498
2294,1.216468851
2295,1.091553049
2296,1.160299234
2297,1.15578828
2298,1.145033964
2299,1.189452626
2300,1.242225061
2301,1.178296737
2302,1.201797889
2303,1.217471944
2304,1.275780112
2305,1.227290997
2306,1.183413823
2307,1.230516769
2308,1.291518146
2309,1.318984763
2310,1.223788687
2311,1.195414131
2312,1.188633659
2313,1.172552917
2314,1.228693673
2315,1.22073637
2316,1.155152583
2317,1.180293866
2318,1.288118876
2319,1.120518816
2320,1.170477122
2321,1.191048011
2322,1.19032029
2323,1.255926605
2324,1.245267998
2325,1.188668759
2326,1.187766549
2327,1.257431191
2328,1.09372285
2329,1.15529973
2330,1.247523458
2331,1.206737549
2332,1.191304554
2333,1.138642893
2334,1.231841919
2335,1.253979231
2336,1.225429143
2337,1.177663889
2338,1.059515545
2339,1.190885871
2340,1.078350962
2341,1.159780138
2342,1.263581531
2343,1.215434305
2344,1.357971413
2345,1.253660004
2346,1.210463604
2347,1.298068999
2348,1.17030622
2349,1.194497561
2350,1.221099438
2351,1.23213812
2352,1.206313157
2353,1.181253025
2354,1.294378969
2355,1.307473163
2356,1.199507218
2357,1.106311917
2358,1.173672719
2359,1.203778062
2360,1.178577059
2361,1.11624412
2362,1.235918273
2363,1.150127239
2364,1.165767549
2365,1.201690201
2366,1.214674546
2367,1.250612064
2368,1.288548868
2369,1.167358317
2370,1.112665359
2371,1.314958766
2372,1.167385855
2373,1.156914457
2374,1.230377184
2375,1.182049261
2376,1.153832344
2377,1.183306759
2378,1.167143652
2379,1.195672243
2380,1.1665456
2381,1.277345042
2382,1.166483717
2383,1.175153384
2384,1.261929956
2385,1.177224329
2386,1.189760217
2387,1.223730455
2388,1.250934919
2389,1.194344484
2390,1.215313681
2391,1.194640351
2392,1.15212493
2393,1.256333841
2394,1.201528318
2395,1.188471019
2396,1.157670421
2397,1.186271252
2398,1.139705813
2399,1.217919212
2400,1.220995186
2401,1.226686476
2402,1.243106676
2403,1.223122047
2404,1.230263409
2405,1.158366522
2406,1.204066021
2407,1.314484424
2408,1.228891147
2409,1.13170248
2410,1.157283656
2411,1.178664233
2412,1.192641395
2413,1.217595101
2414,1.161422066
2415,1.244077236
2416,1.213066414
2417,1.148581446
2418,1.149895602
2419,1.182440799
2420,1.244701572
2421,1.202176034
2422,1.209466022
2423,1.242940613
2424,1.131754563
2425,1.215632994
2426,1.223223526
2427,1.236160515
2428,1.268090137
2429,1.131900038
2430,1.187765193
2431,1.208854655
2432,1.048490421
2433,1.206353883
2434,1.252315628
2435,1.112675706
2436,1.206288049
2437,1.332776128
2438,1.198664331
2439,1.178257947
2440,1.11936752
2441,1.182016151
2442,1.094239037
2443,1.292663773
2444,1.158495964
2445,1.19461111
2446,1.251136433
2447,1.337238664
2448,1.182357685
2449,1.10310767
2450,1.195634592
2451,1.19656622
2452,1.256982792
2453,1.118088256
2454,1.250617373
2455,1.118122384
2456,1.185637426
2457,1.224279398
2458,1.151536517
2459,1.181991671
2460,1.219468667
2461,1.196126216
2462,1.242106417
2463,1.195062274
2464,1.146246924
2465,1.158169075
2466,1.148184459
2467,1.211930492
2468,1.222820494
2469,1.231363739
2470,1.146253165
2471,1.229080617
2472,1.206072719
2473,1.226511459
2474,1.237754646
2475,1.174585794
2476,1.232834361
2477,1.130736483
2478,1.264814028
2479,1.200062766
2480,1.154972623
2481,1.161213492
2482,1.237399969
2483,1.100253121
2484,1.171203858
2485,1.242495622
2486,1.290665
2487,1.19763378
2488,1.184252886
2489,1.099879423
2490,1.130544932
2491,1.141591316
2492,1.157457084
2493,1.148273299
2494,1.172424521
2495,1.252148716
2496,1.233892091
2497,1.099091941
2498,1.221565274
2499,1.188102994
2500,1.194947289
2501,1.222257901
2502,1.164819767
2503,1.179112155
2504,1.239600981
2505,1.215078434
2506,1.144634096
2507,1.175858443
2508,1.113681764
2509,1.317945262
2510,1.232978866
2511,1.155781688
2512,1.259334158
2513,1.23316562
2514,1.218852412
2515,1.233188035
2516,1.276349746
2517,1.208570746
2518,1.261478461
2519,1.195823975
2520,1.178678828
2521,1.233478669
2522,1.25189334
2523,1.136512648
2524,1.110041682
2525,1.101612613
2526,1.103153623
2527,1.197063409
2528,1.28074444
2529,1.202722112
2530,1.157140376
2531,1.188239635
2532,1.240723365
2533,1.122264457
2534,1.22036485
2535,1.211787404
2536,1.325559889
2537,1.210188705
2538,1.26827415
2539,1.206368256
2540,1.154543197
2541,1.167768373
2542,1.203579513
2543,1.219097365
2544,1.184663377
2545,1.21706857
2546,1.237139409
2547,1.181238528
2548,1.223913701
2549,1.255151063
2550,1.24810591
2551,1.217099608
2552,1.227655412
2553,1.149816751
2554,1.22980331
2555,1.131528149
2556,1.223360619
2557,1.158087922
2558,1.216621447
2559,1.241627939
2560,1.195985673
2561,1.175514433
2562,1.237721784
2563,1.169088094
2564,1.213504051
2565,1.202480431
2566,1.212399771
2567,1.227650608
2568,1.171535663
2569,1.187769935
2570,1.276096699
2571,1.078720291
2572,1.181906888
2573,1.148388983
2574,1.118313313
2575,1.232932082
2576,1.249857397
2577,1.184771055
2578,1.182511859
2579,1.213313149
2580,1.273842474
2581,1.224921673
2582,1.219765029
2583,1.097691577
2584,1.190181574
2585,1.213901845
2586,1.216585123
2587,1.203544713
2588,1.134991825
2589,1.176981843
2590,1.208711987
2591,1.320012145
2592,1.184920068
2593,1.266333376
2594,1.228971732
2595,1.244744682
2596,1.184802651
2597,1.104262466
2598,1.19764123
2599,1.215713119
2600,1.213876915
2601,1.205360216
2602,1.330832823
2603,1.223842056
2604,1.217664145
2605,1.183063065
2606,1.273828539
2607,1.191272986
2608,1.247731919
2609,1.245183571
2610,1.136925316
2611,1.299782374
2612,1.263321702
2613,1.177862677
2614,1.199588331
2615,1.207319546
2616,1.130220888
2617,1.171638617
2618,1.225889602
2619,1.20030445
2620,1.204070577
2621,1.181189022
2622,1.254204014
2623,1.275553918
2624,1.210211428
2625,1.14560274
2626,1.137177429
2627,1.22927773
2628,1.195955282
2629,1.195406303
2630,1.258429893
2631,1.235892255
2632,1.233792252
2633,1.159180398
2634,1.180728593
2635,1.194625724
2636,1.1505068
2637,1.208290836
2638,1.141050787
2639,1.211746554
2640,1.153775257
2641,1.111855432
2642,1.178735582
2643,1.201889075
2644,1.183222752
2645,1.156918838
2646,1.127890969
2647,1.176657336
2648,1.207943194
2649,1.19623463
2650,1.258494976
2651,1.204068348
2652,1.176499948
2653,1.230198092
2654,1.223246489
2655,1.214095805
2656,1.161720403
2657,1.233103959
2658,1.215805794
2659,1.311457924
2660,1.196684403
2661,1.155868789
2662,1.222369715
2663,1.157334099
2664,1.225501743
2665,1.267644509
2666,1.117084994
2667,1.210342832
2668,1.225396321
2669,1.125128182
2670,1.145576989
2671,1.219443522
2672,1.232621123
2673,1.191695893
2674,1.151930973
2675,1.197015502
2676,1.248612627
2677,1.166180947
2678,1.309332858
2679,1.173809738
2680,1.261795326
2681,1.264122846
2682,1.100724212
2683,1.212349236
2684,1.24788496
2685,1.211488228
2686,1.251138206
2687,1.208216647
2688,1.208245495
2689,1.261853606
2690,1.22529227
2691,1.202566656
2692,1.154438142
2693,1.218978601
2694,1.166497567
2695,1.106184653
2696,1.224794879
2697,1.197864984
2698,1.206221834
2699,1.194063988
2700,1.088607606
2701,1.20809068
2702,1.202015815
2703,1.226466196
2704,1.167765523
2705,1.16547012
2706,1.188979556
2707,1.200593834
2708,1.163433849
2709,1.178007879
2710,1.205787471
2711,1.129971236
2712,1.210272259
2713,1.232168611
2714,1.201748595
2715,1.129313273
2716,1.191451371
2717,1.202193739
2718,1.174425114
2719,1.180329221
2720,1.301136672
2721,1.190095648
2722,1.254342947
2723,1.15989512
2724,1.282098951
2725,1.21349532
2726,1.136144522
2727,1.18447285
2728,1.273312319
2729,1.201207504
2730,1.235508461
2731,1.203966568
2732,1.193116942
2733,1.225589012
2734,1.22313058
2735,1.190563053
2736,1.212214615
2737,1.235646761
2738,1.318860459
2739,1.239805404
2740,1.205078862
2741,1.185515922
2742,1.23235261
2743,1.242571424
2744,1.131547202
2745,1.15696221
2746,1.27784405
2747,1.20977181
2748,1.191824119
2749,1.2535169
2750,1.130189972
2751,1.22838577
2752,1.143800117
2753,1.165119544
2754,1.225037209
2755,1.179350109
2756,1.260218286
2757,1.200445693
2758,1.257260185
2759,1.164935802
2760,1.178580403
2761,1.271091742
2762,1.198211859
2763,1.135106367
2764,1.095888329
2765,1.245784951
2766,1.213920175
2767,1.316850028
2768,1.259373733
2769,1.216149518
2770,1.176841221
2771,1.231245482
2772,1.230061494
2773,1.189908352
2774,1.196075674
2775,1.206452868
2776,1.048160057
2777,1.239504601
2778,1.229207367
2779,1.15539246
2780,1.112634955
2781,1.244463257
2782,1.244955417
2783,1.120984989
2784,1.228445301
2785,1.239751049
2786,1.148799301
2787,1.139006023
2788,1.188784166
2789,1.1573493
2790,1.214213464
2791,1.187639032
2792,1.219157978
2793,1.208911965
2794,1.302342885
2795,1.114416746
2796,1.193925531
2797,1.182409455
2798,1.19359084
2799,1.206779642
2800,1.150385387
2801,1.258147567
2802,1.160659467
2803,1.25632947
2804,1.243057713
2805,1.285527777
2806,1.12499943
2807,1.276111575
2808,1.158924121
2809,1.123015785
2810,1.151283329
2811,1.239200701
2812,1.196563587
2813,1.198341309
2814,1.202541742
2815,1.222165637
2816,1.23682574
2817,1.285010699
2818,1.095676216
2819,1.356814732
2820,1.098912427
2821,1.118615451
2822,1.181922821
2823,1.180396956
2824,1.180267979
2825,1.146859767
2826,1.196266526
2827,1.181021344
2828,1.23341119
2829,1.223944593
2830,1.216288048
2831,1.231129152
2832,1.2087723
2833,1.091265142
2834,1.242026598
2835,1.242084015
2836,1.209611002
2837,1.177950133
2838,1.188516666
2839,1.304736422
2840,1.20641905
2841,1.272611726
2842,1.097724071
2843,1.177927186
2844,1.266067765
2845,1.193889225
2846,1.093291653
2847,1.2389606
2848,1.181143859
2849,1.115036323
2850,1.257733376
2851,1.212671741
2852,1.17899285
2853,1.241999411
2854,1.189497185
2855,1.179541265
2856,1.287348845
2857,1.106132835
2858,1.14218483
2859,1.103898487
2860,1.223795053
2861,1.191537415
2862,1.125777145
2863,1.235873739
2864,1.214908227
2865,1.212895993
2866,1.213148179
2867,1.202766723
2868,1.264545594
2869,1.223046058
2870,1.216415161
2871,1.214138917
2872,1.226702192
2873,1.167654147
2874,1.179139062
2875,1.201871291
2876,1.182733492
2877,1.172031656
2878,1.170650885
2879,1.145606847
2880,1.126614326
2881,1.193011252
2882,1.261478534
2883,1.237932573
2884,1.198727541
2885,1.249039615
2886,1.211437441
2887,1.056753629
2888,1.078751471
2889,1.244412963
2890,1.285893353
2891,1.278718462
2892,1.213027214
2893,1.137272189
2894,1.278862747
2895,1.171790066
2896,1.144773489
2897,1.109823545
2898,1.237546473
2899,1.18543351
2900,1.153719874
2901,1.143781965
2902,1.194641017
2903,1.124529267
2904,1.204767992
2905,1.156275056
2906,1.09910396
2907,1.252420353
2908,1.129178769
2909,1.194197651
2910,1.261368928
2911,1.253794764
2912,1.184490903
2913,1.232046727
2914,1.192333624
2915,1.141469901
2916,1.291997151
2917,1.239621763
2918,1.191549238
2919,1.118325835
2920,1.161543644
2921,1.205897547
2922,1.198351492
2923,1.21019766
2924,1.2825649
2925,1.194634748
2926,1.278020993
2927,1.229119001
2928,1.248051522
2929,1.211869057
2930,1.217438884
2931,1.226432516
2932,1.235859915
2933,1.172526277
2934,1.184741738
2935,1.252993453
2936,1.194735754
2937,1.146322933
2938,1.2186296
2939,1.179090964
2940,1.183251573
2941,1.196554893
2942,1.170116565
2943,1.164061459
2944,1.184555838
2945,1.184675697
2946,1.17510348
2947,1.163142403
2948,1.214610103
2949,1.231164602
2950,1.240659802
2951,1.211506368
2952,1.166871858
2953,1.239863981
2954,1.259400698
2955,1.191484413
2956,1.302692635
2957,1.272987834
2958,1.179301595
2959,1.165650898
2960,1.214012148
2961,1.14384865
2962,1.274849054
2963,1.182438538
2964,1.249983179
2965,1.145225266
2966,1.221492403
2967,1.184107038
2968,1.175026313
2969,1.167489815
2970,1.160601051
2971,1.112668986
2972,1.262225735
2973,1.152956525
2974,1.14010829
2975,1.272976129
2976,1.236684864
2977,1.20302314
2978,1.185938917
2979,1.224379562
2980,1.213694967
2981,1.158154857
2982,1.254847127
2983,1.262736688
2984,1.242248688
2985,1.186731598
2986,1.0693525
2987,1.2864269
2988,1.177215063
2989,1.21227292
2990,1.165701749
2991,1.156058833
2992,1.176112373
2993,1.208758079
2994,1.192205439
2995,1.182422408
2996,1.233143799
2997,1.188275136
2998,1.08553651
2999,1.231457013
3000,1.224798644
3001,1.199429994
3002,1.241486674
3003,1.232101161
3004,1.186992637
3005,1.358420964
3006,1.319492092
3007,1.21699067
3008,1.274077584
3009,1.221187132
3010,1.154917708
3011,1.27306995
3012,1.14627237
3013,1.212903695
3014,1.262047189
3015,1.156460853
3016,1.225984964
3017,1.279181945
3018,1.234314484
3019,1.229340231
3020,1.234500824
3021,1.221170378
3022,1.233016684
3023,1.152483789
3024,1.203971478
3025,1.243735156
3026,1.118573401
3027,1.249672299
3028,1.238556891
3029,1.117980072
3030,1.266257038
3031,1.210849959
3032,1.173575633
3033,1.161003275
3034,1.288326139
3035,1.130731851
3036,1.123245561
3037,1.129679287
3038,1.209970447
3039,1.203431798
3040,1.096726929
3041,1.246612216
3042,1.183431891
3043,1.149657825
3044,1.178327429
3045,1.219335832
3046,1.154167953
3047,1.20951017
3048,1.221712416
3049,1.193097822
3050,1.214849302
3051,1.227676388
3052,1.213509675
3053,1.248050648
3054,1.241988941
3055,1.106541288
3056,1.151232433
3057,1.165332289
3058,1.199614081
3059,1.208384261
3060,1.141091557
3061,1.146861484
3062,1.277102989
3063,1.199701529
3064,1.244035604
3065,1.217604706
3066,1.141330986
3067,1.196060935
3068,1.305683093
3069,1.17169425
3070,1.186902648
3071,1.200749747
3072,1.090973809
3073,1.17590675
3074,1.199710897
3075,1.204431187
3076,1.223986953
3077,1.237707273
3078,1.269604323
3079,1.158525452
3080,1.194782036
3081,1.188759864
3082,1.181711272
3083,1.189719337
3084,1.160339216
3085,1.255563403
3086,1.254080271
3087,1.199698081
3088,1.10043446
3089,1.201343754
3090,1.213739735
3091,1.157080252
3092,1.211586012
3093,1.17709633
3094,1.179635724
3095,1.215334442
3096,1.249853824
3097,1.242119189
3098,1.190652357
3099,1.205765963
3100,1.217315548
3101,1.200376526
3102,1.171963499
3103,1.270417381
3104,1.160374917
3105,1.206342684
3106,1.194342268
3107,1.18741144
3108,1.21874895
3109,1.155043746
3110,1.087747891
3111,1.233070998
3112,1.221558818
3113,1.182579931
3114,1.246267128
3115,1.163646461
3116,1.181142809
3117,1.090359804
3118,1.289499491
3119,1.182369223
3120,1.263519772
3121,1.149068892
3122,1.279986398
3123,1.194268591
3124,1.242695957
3125,1.157592017
3126,1.218279372
3127,1.234781616
3128,1.250326179
3129,1.305699022
3130,1.259161992
3131,1.223803766
3132,1.220004015
3133,1.239822563
3134,1.194294555
3135,1.117998079
3136,1.211325225
3137,1.101551306
3138,1.182361117
3139,1.175093416
3140,1.174012007
3141,1.213825742
3142,1.14845577
3143,1.256598467
3144,1.155587702
3145,1.247866217
3146,1.179302371
3147,1.228176583
3148,1.209415675
3149,1.247500628
3150,1.25422606
3151,1.215844401
3152,1.201144527
3153,1.20979184
3154,1.173723164
3155,1.233689853
3156,1.19995391
3157,1.310499376
3158,1.292074728
3159,1.14896291
3160,1.237859368
3161,1.230824597
3162,1.229899917
3163,1.183078713
3164,1.239265839
3165,1.166822744
3166,1.298055398
3167,1.215681989
3168,1.226855071
3169,1.211413084
3170,1.280173084
3171,1.235252416
3172,1.220285609
3173,1.174470774
3174,1.231992251
3175,1.168630237
3176,1.281284286
3177,1.191310636
3178,1.134846057
3179,1.214570345
3180,1.271170448
3181,1.231932451
3182,1.156794601
3183,1.15688612
3184,1.159886492
3185,1.268423497
3186,1.225606679
3187,1.167343956
3188,1.218661963
3189,1.163416765
3190,1.215936342
3191,1.189424787
3192,1.17695733
3193,1.217832712
3194,1.133741474
3195,1.258402741
3196,1.228977922
3197,1.294399053
3198,1.108204169
3199,1.161994217
3200,1.280363657
3201,1.278710616
3202,1.214873998
3203,1.178478566
3204,1.257676966
3205,1.238295878
3206,1.332556556
3207,1.149902286
3208,1.282082736
3209,1.145436321
3210,1.260498552
3211,1.135529617
3212,1.227275767
3213,1.161886343
3214,1.183452509
3215,1.242421975
3216,1.196559116
3217,1.193572313
3218,1.210664527
3219,1.222100626
3220,1.171540716
3221,1.178681934
3222,1.229569061
3223,1.257086266
3224,1.267952438
3225,1.165033603
3226,1.243890074
3227,1.291494882
3228,1.289210634
3229,1.257339972
3230,1.161750711
3231,1.146671675
3232,1.101674197
3233,1.17579656
3234,1.2232209
3235,1.207352307
3236,1.268486363
3237,1.187568214
3238,1.195005715
3239,1.249465654
3240,1.210803026
3241,1.167868718
3242,1.139130603
3243,1.285340815
3244,1.229333975
3245,1.191935587
3246,1.233821891
3247,1.257835865
3248,1.194925604
3249,1.181688608
3250,1.229213353
3251,1.152591642
3252,1.273146692
3253,1.184376919
3254,1.184513926
3255,1.190834602
3256,1.127465669
3257,1.264471252
3258,1.156159842
3259,1.186147298
3260,1.168362045
3261,1.211060938
3262,1.160868333
3263,1.171675458
3264,1.201065937
3265,1.307401781
3266,1.183453645
3267,1.232567496
3268,1.203718567
3269,1.168610549
3270,1.175728936
3271,1.23974772
3272,1.20054034
3273,1.154089951
3274,1.216024328
3275,1.188462579
3276,1.287134631
3277,1.216324893
3278,1.244674013
3279,1.143277983
3280,1.273877205
3281,1.178597953
3282,1.198109529
3283,1.224795037
3284,1.247117889
3285,1.25420491
3286,1.265566143
3287,1.268706029
3288,1.141379391
3289,1.200501988
3290,1.21111648
3291,1.235173218
3292,1.250977747
3293,1.224897344
3294,1.130147129
3295,1.210681977
3296,1.285673202
3297,1.175207505
3298,1.223890087
3299,1.127170072
3300,1.098767624
3301,1.305774175
3302,1.187003657
3303,1.218975383
3304,1.176851871
3305,1.201865973
3306,1.163579195
3307,1.208450018
3308,1.242560138
3309,1.217038817
3310,1.28973731
3311,1.216680319
3312,1.294983324
3313,1.160662218
3314,1.224328859
3315,1.279237467
3316,1.280946234
3317,1.206098764
3318,1.217520253
3319,1.337337697
3320,1.226943102
3321,1.053851058
3322,1.160491813
3323,1.173958503
3324,1.216606804
3325,1.227241931
3326,1.188996008
3327,1.178519761
3328,1.250744024
3329,1.242095381
3330,1.19151809
3331,1.254466312
3332,1.146274506
3333,1.231531546
3334,1.224473743
3335,1.111909297
3336,1.259216497
3337,1.243872989
3338,1.335505787
3339,1.252874077
3340,1.133240085
3341,1.1119888
3342,1.143409106
3343,1.187930871
3344,1.240865843
3345,1.234135954
3346,1.244524468
3347,1.261869548
3348,1.177964722
3349,1.189294544
3350,1.196166548
3351,1.183467475
3352,1.271221601
3353,1.270317869
3354,1.116196363
3355,1.227861497
3356,1.201666656
3357,1.151762189
3358,1.214531561
3359,1.194634744
3360,1.173024177
3361,1.243202938
3362,1.239436572
3363,1.254352952
3364,1.231702504
3365,1.224459508
3366,1.137394415
3367,1.113822928
3368,1.264733759
3369,1.26718599
3370,1.211754074
3371,1.155850563
3372,1.160006808
3373,1.132719781
3374,1.178946777
3375,1.162849112
3376,1.216840468
3377,1.173111184
3378,1.116992622
3379,1.19510751
3380,1.217203468
3381,1.322424124
3382,1.148053774
3383,1.135149238
3384,1.239241625
3385,1.161264504
3386,1.242926446
3387,1.215849825
3388,1.236910078
3389,1.215391765
3390,1.217655359
3391,1.231499749
3392,1.221457376
3393,1.194743506
3394,1.199244495
3395,1.238470913
3396,1.198562668
3397,1.183810422
3398,1.143338852
3399,1.256884394
3400,1.164407589
3401,1.196290964
3402,1.218140047
3403,1.281317191
3404,1.230681527
3405,1.164428411
3406,1.145700959
3407,1.193517595
3408,1.209690186
3409,1.24255475
3410,1.242369374
3411,1.219779728
3412,1.272188536
3413,1.201467898
3414,1.158902369
3415,1.229063983
3416,1.108090083
3417,1.203063122
3418,1.200572461
3419,1.107086905
3420,1.194683983
3421,1.244976972
3422,1.166542944
3423,1.182137666
3424,1.188099162
3425,1.299679253
3426,1.200175082
3427,1.191390193
3428,1.188385686
3429,1.16978251
3430,1.242035525
3431,1.2205996
3432,1.214422132
3433,1.23895935
3434,1.170383577
3435,1.113987653
3436,1.175180687
3437,1.138913314
3438,1.145453495
3439,1.119446131
3440,1.134959036
3441,1.096908954
3442,1.179007792
3443,1.164793083
3444,1.163755683
3445,1.238936108
3446,1.101237652
3447,1.258248313
3448,1.139864611
3449,1.080389747
3450,1.283706509
3451,1.300742578
3452,1.195718039
3453,1.280670232
3454,1.175160496
3455,1.150146954
3456,1.08349232
3457,1.204820269
3458,1.205811208
3459,1.201918267
3460,1.17668996
3461,1.16823816
3462,1.249443411
3463,1.125966375
3464,1.169553301
3465,1.196158865
3466,1.154943722
3467,1.11088099
3468,1.177411306
3469,1.209470875
3470,1.152361283
3471,1.205120275
3472,1.200293879
3473,1.274764387
3474,1.168395771
3475,1.274609574
3476,1.190226058
3477,1.124530514
3478,1.19207988
3479,1.132394326
3480,1.218383182
3481,1.143640184
3482,1.159764076
3483,1.229196171
3484,1.223780614
3485,1.169622337
3486,1.237538667
3487,1.152458523
3488,1.21089215
3489,1.248900764
3490,1.189333477
3491,1.212521269
3492,1.2981447
3493,1.22455414
3494,1.126336965
3495,1.233165409
3496,1.168137678
3497,1.206608571
3498,1.293025296
3499,1.213947426
3500,1.195537708
3501,1.172822945
3502,1.201189343
3503,1.184734087
3504,1.237793924
3505,1.183012861
3506,1.171581645
3507,1.27904315
3508,1.219843832
3509,1.166890119
3510,1.111789371
3511,1.13845805
3512,1.174835345
3513,1.197598133
3514,1.200294215
3515,1.226627621
3516,1.180073249
3517,1.171687533
3518,1.262885324
3519,1.215089882
3520,1.248871936
3521,1.14159088
3522,1.171618782
3523,1.254139549
3524,1.272376906
3525,1.310015873
3526,1.170457476
3527,1.290854809
3528,1.138842789
3529,1.190543379
3530,1.167414153
3531,1.123303575
3532,1.165999681
3533,1.152459462
3534,1.313306683
3535,1.263445815
3536,1.100430563
3537,1.211852419
3538,1.266186108
3539,1.238313239
3540,1.232807695
3541,1.193658147
3542,1.157603631
3543,1.295203976
3544,1.127563468
3545,1.156448076
3546,1.257091407
3547,1.150169185
3548,1.181159622
3549,1.299691862
3550,1.21281459
3551,1.122746689
3552,1.226066836
3553,1.209479843
3554,1.149939407
3555,1.168410448
3556,1.25459762
3557,1.240439269
3558,1.163117947
3559,1.135053546
3560,1.146882875
3561,1.253029062
3562,1.161419091
3563,1.192355725
3564,1.271759475
3565,1.198756691
3566,1.227462882
3567,1.145294647
3568,1.139496453
3569,1.182361298
3570,1.132131746
3571,1.204536372
3572,1.241098412
3573,1.246736196
3574,1.192737808
3575,1.258427368
3576,1.223493399
3577,1.125716874
3578,1.161304609
3579,1.20402331
3580,1.315405692
3581,1.249953136
3582,1.168720573
3583,1.211835693
3584,1.257937291
3585,1.222885705
3586,1.237644669
3587,1.23561805
3588,1.246303932
3589,1.199973254
3590,1.259816223
3591,1.156921662
3592,1.128120038
3593,1.18769216
3594,1.130964681
3595,1.164690656
3596,1.215213155
3597,1.227937675
3598,1.251533062
3599,1.249911177
3600,1.178014372
3601,1.250948918
3602,1.27333575
3603,1.176782641
3604,1.141283607
3605,1.188918544
3606,1.264721723
3607,1.29278267
3608,1.151959627
3609,1.214042419
3610,1.144127948
3611,1.282578425
3612,1.22618955
3613,1.179677602
3614,1.225380629
3615,1.12779915
3616,1.255279221
3617,1.154113828
3618,1.180309797
3619,1.280376805
3620,1.138945562
3621,1.203167381
3622,1.220472776
3623,1.254734822
3624,1.201976433
3625,1.151420694
3626,1.209623697
3627,1.229174849
3628,1.23478324
3629,1.127676877
3630,1.128418309
3631,1.109589199
3632,1.114814173
3633,1.129002773
3634,1.32437122
3635,1.171999847
3636,1.228567002
3637,1.172847453
3638,1.158835782
3639,1.190540299
3640,1.194085634
3641,1.190885842
3642,1.271596149
3643,1.24136429
3644,1.258108737
3645,1.157369205
3646,1.258853927
3647,1.205624964
3648,1.185838271
3649,1.293044675
3650,1.12947835
3651,1.242205675
3652,1.160678374
3653,1.210230434
3654,1.149675483
3655,1.23601145
3656,1.122969371
3657,1.270560414
3658,1.175137303
3659,1.164404413
3660,1.224402747
3661,1.146184196
3662,1.200538661
3663,1.289343208
3664,1.194764301
3665,1.167936738
3666,1.198412742
3667,1.26082271
3668,1.140220897
3669,1.253991992
3670,1.202549308
3671,1.203592661
3672,1.172336925
3673,1.176542058
3674,1.20922367
3675,1.103701872
3676,1.22125731
3677,1.258268479
3678,1.186143156
3679,1.20725993
3680,1.185023103
3681,1.179244543
3682,1.293807938
3683,1.239036077
3684,1.231245543
3685,1.241102291
3686,1.246849444
3687,1.245803863
3688,1.158244751
3689,1.253270351
3690,1.214793545
3691,1.318626915
3692,1.236033466
3693,1.273414365
3694,1.196128546
3695,1.140855131
3696,1.176625795
3697,1.204292819
3698,1.172618531
3699,1.18918806
3700,1.263540297
3701,1.13503142
3702,1.221730099
3703,1.108962638
3704,1.124816029
3705,1.168415892
3706,1.21760167
3707,1.212948438
3708,1.223208412
3709,1.157479975
3710,1.203940251
3711,1.228244304
3712,1.23065256
3713,1.224605336
3714,1.173520805
3715,1.188244673
3716,1.236927366
3717,1.228276422
3718,1.235659479
3719,1.273036226
3720,1.17201812
3721,1.213027971
3722,1.15345944
3723,1.217676968
3724,1.168982375
3725,1.210339306
3726,1.19669891
3727,1.23899824
3728,1.175948226
3729,1.255409178
3730,1.1664514
3731,1.226304964
3732,1.129366
3733,1.189342688
3734,1.209681525
3735,1.181686836
3736,1.327815702
3737,1.125500725
3738,1.224473743
3739,1.198791362
3740,1.219914744
3741,1.284582784
3742,1.290823483
3743,1.219157189
3744,1.259959177
3745,1.245917882
3746,1.202773161
3747,1.170098541
3748,1.166452856
3749,1.209275584
3750,1.167791309
3751,1.249319043
3752,1.282333037
3753,1.153944353
3754,1.154059592
3755,1.177540649
3756,1.144582046
3757,1.190055576
3758,1.289866564
3759,1.262729703
3760,1.168616879
3761,1.236204193
3762,1.22854751
3763,1.198429251
3764,1.155913635
3765,1.221681539
3766,1.234294541
3767,1.218110117
3768,1.128031716
3769,1.244701078
3770,1.161064531
3771,1.125514639
3772,1.210706342
3773,1.162964902
3774,1.195925131
3775,1.276627947
3776,1.260359007
3777,1.151132002
3778,1.255896709
3779,1.147204331
3780,1.215239148
3781,1.175610833
3782,1.208516712
3783,1.14675308
3784,1.135330352
3785,1.238120663
3786,1.216034504
3787,1.26991917
3788,1.212881473
3789,1.172179213
3790,1.162341771
3791,1.259961734
3792,1.205036647
3793,1.188715308
3794,1.302415559
3795,1.280269131
3796,1.167246007
3797,1.223893044
3798,1.210292957
3799,1.228886468
3800,1.211239173
3801,1.205530024
3802,1.143580782
3803,1.300567678
3804,1.206066183
3805,1.120065575
3806,1.21582314
3807,1.222590422
3808,1.192199006
3809,1.202298755
3810,1.175443746
3811,1.249590687
3812,1.264352644
3813,1.15281905
3814,1.246765553
3815,1.21017588
3816,1.214636975
3817,1.27235999
3818,1.228082854
3819,1.135077516
3820,1.204497989
3821,1.298270494
3822,1.223983708
3823,1.17898667
3824,1.256948709
3825,1.154449064
3826,1.13823236
3827,1.221050133
3828,1.198419437
3829,1.094775641
3830,1.261598851
3831,1.113642262
3832,1.139297827
3833,1.158590399
3834,1.197387736
3835,1.199017333
3836,1.200912146
3837,1.137660906
3838,1.178953529
3839,1.190770065
3840,1.246766182
3841,1.253683472
3842,1.191578501
3843,1.189128826
3844,1.206390703
3845,1.143094386
3846,1.157505478
3847,1.245849339
3848,1.20676794
3849,1.224021528
3850,1.251152772
3851,1.201585419
3852,1.097924227
3853,1.219114618
3854,1.248886037
3855,1.228109301
3856,1.218814756
3857,1.290000855
3858,1.139871791
3859,1.283225196
3860,1.148061003
3861,1.145349121
3862,1.209957378
3863,1.105292141
3864,1.249508884
3865,1.23813709
3866,1.215338246
3867,1.233941179
3868,1.325300307
3869,1.216501353
3870,1.273569478
3871,1.208837952
3872,1.12203738
3873,1.264036807
3874,1.251897322
3875,1.175155104
3876,1.098580559
3877,1.187604468
3878,1.118793263
3879,1.223155472
3880,1.186623905
3881,1.27084852
3882,1.169426791
3883,1.206976458
3884,1.206593553
3885,1.193618795
3886,1.271126426
3887,1.200478729
3888,1.21917203
3889,1.255742678
3890,1.209650884
3891,1.159197859
3892,1.177297366
3893,1.154500424
3894,1.13033611
3895,1.273947488
3896,1.256522666
3897,1.116544563
3898,1.146747117
3899,1.208786239
3900,1.089985785
3901,1.257028934
3902,1.290666016
3903,1.190035478
3904,1.229889837
3905,1.231407874
3906,1.110809999
3907,1.140820691
3908,1.288162314
3909,1.245459213
3910,1.255059279
3911,1.227773646
3912,1.27339755
3913,1.188403833
3914,1.149546429
3915,1.324173219
3916,1.32329434
3917,1.245126886
3918,1.17395941
3919,1.160484633
3920,1.224556129
3921,1.192844964
3922,1.229964528
3923,1.200929756
3924,1.285660362
3925,1.231749499
3926,1.233348715
3927,1.240892159
3928,1.15587543
3929,1.186252534
3930,1.195166708
3931,1.143062107
3932,1.206673483
3933,1.20327293
3934,1.203632705
3935,1.245453173
3936,1.200886916
3937,1.155224138
3938,1.15552192
3939,1.135693234
3940,1.205941578
3941,1.243314334
3942,1.29851548
3943,1.197482783
3944,1.181815482
3945,1.294388765
3946,1.198451902
3947,1.222823519
3948,1.073786085
3949,1.213491134
3950,1.229197856
3951,1.144296438
3952,1.194680443
3953,1.204145342
3954,1.182715139
3955,1.075223459
3956,1.272440176
3957,1.181993505
3958,1.179196739
3959,1.257189169
3960,1.216759681
3961,1.2469348
3962,1.187947577
3963,1.208463969
3964,1.268369168
3965,1.15578601
3966,1.248434507
3967,1.182179148
3968,1.286552894
3969,1.141544146
3970,1.211688008
3971,1.173587146
3972,1.15413667
3973,1.099251043
3974,1.122191288
3975,1.29538182
3976,1.279629768
3977,1.183646793
3978,1.07404876
3979,1.245929774
3980,1.23055501
3981,1.194397547
3982,1.106472086
3983,1.205361025
3984,1.175261978
3985,1.159635581
3986,1.252107307
3987,1.233325479
3988,1.192977067
3989,1.166888413
3990,1.224415917
3991,1.191993803
3992,1.216311938
3993,1.183346491
3994,1.26335162
3995,1.266151359
3996,1.30805031
3997,1.23253747
3998,1.14523387
3999,1.277167683
4000,1.204709038
