Raman shift,Intensity
776.1482,1618.09438
776.1482,1639.95994
778.36044,1620.43712
778.36044,1641.52177
780.57267,1621.99895
780.57267,1642.30268
782.78491,1623.56077
782.78491,1642.30268
784.99714,1622.77986
784.99714,1643.08359
787.20938,1646.20724
787.20938,1621.21803
789.42161,1619.65621
789.42161,1649.33089
791.63385,1652.45454
791.63385,1618.87529
793.84609,1617.31347
793.84609,1654.79728
796.05832,1615.75164
796.05832,1657.14002
798.27056,1613.40891
798.27056,1657.92093
800.48279,1611.06617
800.48279,1654.01637
802.69503,1609.50434
802.69503,1650.89272
804.90726,1646.98816
804.90726,1607.94252
807.1195,1605.59978
807.1195,1640.74085
809.33173,1634.49355
809.33173,1604.03795
811.54397,1603.25704
811.54397,1629.02716
813.75621,1621.99895
813.75621,1604.81886
815.96844,1614.97073
818.18068,1610.28525
820.39291,1605.59978
822.60515,1599.35247
824.81738,1598.57156
827.02962,1591.54335
827.02962,1612.62799
829.24186,1590.76243
829.24186,1615.75164
831.45409,1604.03795
833.66633,1606.38069
835.87856,1609.50434
838.0908,1600.9143
838.0908,1625.90351
840.30303,1604.03795
840.30303,1629.02716
842.51527,1632.93172
842.51527,1607.1616
844.72751,1607.94252
844.72751,1635.27446
846.93974,1608.72343
846.93974,1636.05538
849.15198,1636.83629
849.15198,1610.28525
851.36421,1612.62799
851.36421,1637.6172
853.57645,1614.18982
853.57645,1637.6172
855.78868,1614.97073
855.78868,1636.83629
858.00092,1638.39811
858.00092,1617.31347
860.21315,1618.87529
860.21315,1639.95994
862.42539,1620.43712
862.42539,1641.52177
864.63763,1621.21803
864.63763,1643.8645
866.84986,1646.20724
866.84986,1621.21803
869.0621,1650.11181
869.0621,1621.99895
871.27433,1652.45454
871.27433,1622.77986
873.48657,1655.5782
873.48657,1624.34168
875.6988,1657.14002
875.6988,1625.1226
877.91104,1658.70185
877.91104,1626.68442
880.12328,1657.92093
880.12328,1627.46534
882.33551,1655.5782
882.33551,1627.46534
884.54775,1652.45454
884.54775,1626.68442
886.75998,1646.98816
886.75998,1623.56077
888.97222,1635.27446
891.18445,1631.3699
893.39669,1625.90351
895.60892,1622.77986
897.82116,1618.87529
900.0334,1615.75164
902.24563,1611.84708
904.45787,1608.72343
906.6701,1607.94252
908.88234,1606.38069
911.09457,1610.28525
911.09457,1602.47613
913.30681,1610.28525
913.30681,1601.69521
915.51905,1610.28525
915.51905,1600.9143
917.73128,1610.28525
917.73128,1600.13339
919.94352,1610.28525
919.94352,1598.57156
922.15575,1610.28525
922.15575,1599.35247
924.36799,1610.28525
924.36799,1600.13339
926.58022,1610.28525
926.58022,1600.13339
928.79246,1609.50434
928.79246,1601.69521
931.0047,1604.81886
933.21693,1604.03795
935.42917,1603.25704
937.6414,1602.47613
939.85364,1601.69521
942.06587,1602.47613
944.27811,1604.81886
946.49034,1606.38069
948.70258,1608.72343
950.91482,1611.84708
953.12705,1612.62799
955.33929,1613.40891
957.55152,1621.99895
957.55152,1606.38069
959.76376,1625.1226
959.76376,1605.59978
961.97599,1629.02716
961.97599,1604.81886
964.18823,1633.71264
964.18823,1604.03795
966.40047,1635.27446
966.40047,1604.03795
968.6127,1638.39811
968.6127,1603.25704
970.82494,1604.81886
970.82494,1641.52177
973.03717,1604.81886
973.03717,1643.8645
975.24941,1606.38069
975.24941,1643.8645
977.46164,1607.1616
977.46164,1641.52177
979.67388,1608.72343
979.67388,1639.17903
981.88611,1611.06617
981.88611,1636.83629
984.09835,1634.49355
984.09835,1611.84708
986.31059,1630.58899
986.31059,1613.40891
988.52282,1623.56077
990.73506,1620.43712
992.94729,1614.97073
995.15953,1610.28525
997.37176,1607.94252
999.584,1607.1616
1001.79624,1607.94252
1004.00847,1611.06617
1006.22071,1613.40891
1008.43294,1618.09438
1010.64518,1621.21803
1012.85741,1625.1226
1015.06965,1629.02716
1017.28189,1632.15081
1019.49412,1635.27446
1021.70636,1639.17903
1023.91859,1644.64542
1026.13083,1649.33089
1028.34306,1649.33089
1030.5553,1646.98816
1032.76753,1643.8645
1034.97977,1640.74085
1037.19201,1639.17903
1039.40424,1636.05538
1041.61648,1632.93172
1043.82871,1629.80807
1046.04095,1630.58899
1048.25318,1632.93172
1050.46542,1636.83629
1052.67766,1639.95994
1054.88989,1642.30268
1057.10213,1643.8645
1059.31436,1644.64542
1061.5266,1643.08359
1063.73883,1641.52177
1065.95107,1639.17903
1068.16331,1635.27446
1070.37554,1630.58899
1072.58778,1627.46534
1074.80001,1622.77986
1077.01225,1620.43712
1079.22448,1615.75164
1081.43672,1614.97073
1083.64895,1616.53256
1085.86119,1618.87529
1088.07343,1622.77986
1090.28566,1625.1226
1092.4979,1626.68442
1094.71013,1629.02716
1096.92237,1630.58899
1099.1346,1632.15081
1101.34684,1633.71264
1103.55908,1635.27446
1105.77131,1634.49355
1107.98355,1631.3699
1110.19578,1629.02716
1112.40802,1625.1226
1114.62025,1621.99895
1116.83249,1621.21803
1119.04472,1620.43712
1121.25696,1619.65621
1123.4692,1618.87529
1125.68143,1618.87529
1127.89367,1618.09438
1130.1059,1616.53256
1132.31814,1614.18982
1134.53037,1612.62799
1136.74261,1611.84708
1138.95485,1608.72343
1138.95485,1618.87529
1141.16708,1607.1616
1141.16708,1620.43712
1143.37932,1620.43712
1143.37932,1607.94252
1145.59155,1621.99895
1145.59155,1608.72343
1147.80379,1623.56077
1147.80379,1610.28525
1150.01602,1612.62799
1150.01602,1624.34168
1152.22826,1613.40891
1152.22826,1625.90351
1154.4405,1627.46534
1154.4405,1615.75164
1156.65273,1616.53256
1156.65273,1629.02716
1158.86497,1629.80807
1158.86497,1618.09438
1161.0772,1618.87529
1161.0772,1629.80807
1163.28944,1620.43712
1163.28944,1631.3699
1165.50167,1631.3699
1165.50167,1620.43712
1167.71391,1620.43712
1167.71391,1631.3699
1169.92614,1629.80807
1169.92614,1619.65621
1172.13838,1619.65621
1172.13838,1629.02716
1174.35062,1618.87529
1174.35062,1628.24625
1176.56285,1618.09438
1176.56285,1627.46534
1178.77509,1626.68442
1178.77509,1618.09438
1180.98732,1624.34168
1183.19956,1625.1226
1185.41179,1626.68442
1187.62403,1620.43712
1187.62403,1632.15081
1189.83627,1621.21803
1189.83627,1632.93172
1192.0485,1628.24625
1194.26074,1627.46534
1196.47297,1625.90351
1198.68521,1622.77986
1200.89744,1621.99895
1203.10968,1621.21803
1205.32192,1627.46534
1205.32192,1613.40891
1207.53415,1612.62799
1207.53415,1629.02716
1209.74639,1630.58899
1209.74639,1611.06617
1211.95862,1610.28525
1211.95862,1629.80807
1214.17086,1608.72343
1214.17086,1627.46534
1216.38309,1607.94252
1216.38309,1625.90351
1218.59533,1609.50434
1218.59533,1622.77986
1220.80756,1616.53256
1223.0198,1614.97073
1225.23204,1613.40891
1227.44427,1611.06617
1229.65651,1607.1616
1231.86874,1604.03795
1234.08098,1597.00974
1234.08098,1620.43712
1236.29321,1621.99895
1236.29321,1593.88609
1238.50545,1589.20061
1238.50545,1621.99895
1240.71769,1586.07696
1240.71769,1621.21803
1242.92992,1583.73422
1242.92992,1620.43712
1245.14216,1584.51513
1245.14216,1618.09438
1247.35439,1585.29604
1247.35439,1614.97073
1249.56663,1611.84708
1249.56663,1586.85787
1251.77886,1586.85787
1251.77886,1607.94252
1253.9911,1605.59978
1253.9911,1586.85787
1256.20333,1599.35247
1258.41557,1597.00974
1260.62781,1594.667
1262.84004,1596.22882
1265.05228,1600.13339
1267.26451,1604.03795
1269.47675,1609.50434
1271.68898,1614.18982
1273.90122,1617.31347
1276.11346,1619.65621
1278.32569,1621.99895
1280.53793,1624.34168
1282.75016,1616.53256
1282.75016,1633.71264
1284.9624,1617.31347
1284.9624,1636.83629
1287.17463,1617.31347
1287.17463,1637.6172
1289.38687,1614.97073
1289.38687,1636.05538
1291.59911,1613.40891
1291.59911,1633.71264
1293.81134,1621.99895
1296.02358,1609.50434
1296.02358,1630.58899
1298.23581,1607.94252
1298.23581,1627.46534
1300.44805,1605.59978
1300.44805,1625.90351
1302.66028,1625.90351
1302.66028,1605.59978
1304.87252,1626.68442
1304.87252,1607.1616
1307.08475,1627.46534
1307.08475,1608.72343
1309.29699,1628.24625
1309.29699,1611.06617
1311.50923,1628.24625
1311.50923,1612.62799
1313.72146,1627.46534
1313.72146,1614.97073
1315.9337,1619.65621
1318.14593,1621.21803
1320.35817,1621.99895
1322.5704,1623.56077
1324.78264,1623.56077
1326.99488,1622.77986
1329.20711,1621.21803
1331.41935,1628.24625
1331.41935,1614.97073
1333.63158,1628.24625
1333.63158,1614.18982
1335.84382,1626.68442
1335.84382,1612.62799
1338.05605,1625.1226
1338.05605,1611.84708
1340.26829,1624.34168
1340.26829,1612.62799
1342.48052,1618.09438
1344.69276,1618.87529
1346.905,1621.21803
1349.11723,1624.34168
1351.32947,1627.46534
1353.5417,1629.02716
1355.75394,1629.02716
1357.96617,1627.46534
1360.17841,1626.68442
1362.39065,1625.1226
1364.60288,1621.99895
1366.81512,1618.09438
1369.02735,1613.40891
1371.23959,1607.94252
1373.45182,1604.03795
1375.66406,1600.13339
1377.8763,1595.44791
1380.08853,1594.667
1382.30077,1604.03795
1382.30077,1587.63878
1384.513,1605.59978
1384.513,1588.4197
1386.72524,1597.79065
1388.93747,1600.13339
1391.14971,1601.69521
1393.36194,1604.03795
1395.57418,1609.50434
1397.78642,1613.40891
1399.99865,1618.87529
1402.21089,1619.65621
1404.42312,1614.97073
1404.42312,1625.1226
1406.63536,1625.90351
1406.63536,1613.40891
1408.84759,1625.90351
1408.84759,1612.62799
1411.05983,1624.34168
1411.05983,1610.28525
1413.27207,1623.56077
1413.27207,1608.72343
1415.4843,1621.99895
1415.4843,1605.59978
1417.69654,1620.43712
1417.69654,1603.25704
1419.90877,1618.87529
1419.90877,1600.13339
1422.12101,1600.13339
1422.12101,1617.31347
1424.33324,1605.59978
1426.54548,1604.81886
1428.75772,1604.03795
1430.96995,1604.03795
1433.18219,1603.25704
1435.39442,1603.25704
1437.60666,1605.59978
1439.81889,1607.1616
1442.03113,1607.94252
1444.24336,1609.50434
1446.4556,1611.06617
1448.66784,1612.62799
1450.88007,1613.40891
1450.88007,1613.40891
1453.09231,1626.68442
1453.09231,1607.94252
1453.09231,1626.68442
1453.09231,1607.94252
1455.30454,1610.28525
1455.30454,1625.90351
1455.30454,1610.28525
1455.30454,1625.90351
1457.51678,1620.43712
1457.51678,1620.43712
1459.72901,1621.21803
1459.72901,1621.21803
1461.94125,1617.31347
1461.94125,1617.31347
1464.15349,1612.62799
1464.15349,1612.62799
1466.36572,1607.94252
1466.36572,1607.94252
1468.57796,1603.25704
1468.57796,1603.25704
1470.79019,1601.69521
1470.79019,1601.69521
1473.00243,1600.13339
1473.00243,1600.13339
1475.21466,1597.79065
1475.21466,1597.79065
1477.4269,1594.667
1477.4269,1594.667
1479.63913,1592.32426
1479.63913,1591.54335
1481.85137,1593.10517
1481.85137,1593.10517
1484.06361,1598.57156
1484.06361,1597.79065
1486.27584,1601.69521
1486.27584,1601.69521
1488.48808,1606.38069
1488.48808,1606.38069
1490.70031,1612.62799
1490.70031,1612.62799
1492.91255,1619.65621
1492.91255,1619.65621
1495.12478,1628.24625
1495.12478,1628.24625
1497.33702,1635.27446
1497.33702,1635.27446
1499.54926,1639.17903
1499.54926,1639.17903
1501.76149,1641.52177
1501.76149,1641.52177
1503.97373,1643.8645
1503.97373,1643.8645
1506.18596,1656.35911
1506.18596,1636.05538
1506.18596,1656.35911
1506.18596,1636.05538
1508.3982,1654.01637
1508.3982,1637.6172
1508.3982,1654.01637
1508.3982,1637.6172
1510.61043,1646.20724
1510.61043,1646.20724
1512.82267,1639.17903
1512.82267,1639.17903
1515.03491,1633.71264
1515.03491,1633.71264
1517.24714,1628.24625
1517.24714,1628.24625
1519.45938,1625.1226
1519.45938,1625.1226
1521.67161,1621.99895
1521.67161,1621.99895
1523.88385,1624.34168
1523.88385,1624.34168
1526.09608,1627.46534
1526.09608,1627.46534
1528.30832,1629.80807
1528.30832,1629.80807
1530.52055,1639.17903
1530.52055,1639.17903
1532.73279,1649.33089
1532.73279,1649.33089
1534.94503,1659.48276
1534.94503,1659.48276
1541.58173,1683.69106
1546.0062,1700.87114
1548.21844,1704.7757
1550.43068,1708.68027
1552.64291,1708.68027
1554.85515,1707.11844
1559.27962,1699.30931
1559.27962,1689.15745
1561.49185,1697.74749
1561.49185,1690.71927
1563.70409,1690.71927
1563.70409,1696.18566
1565.91633,1688.37653
1565.91633,1690.71927
1568.12856,1686.03379
1568.12856,1685.25288
1579.33096,1671.89202
1579.33096,1676.88761
1581.40197,1651.67363
1581.40197,1651.67363
1583.61421,1646.20724
1583.61421,1646.20724
1585.82645,1643.08359
1585.82645,1643.08359
1588.03868,1639.17903
1588.03868,1639.17903
1590.25092,1635.27446
1590.25092,1635.27446
1592.46315,1633.71264
1592.46315,1633.71264
1594.67539,1635.27446
1594.67539,1635.27446
1596.88762,1636.83629
1596.88762,1636.83629
1599.09986,1638.39811
1599.09986,1638.39811
1601.3121,1639.95994
1601.3121,1639.95994
1603.52433,1642.30268
1603.52433,1642.30268
1605.73657,1637.6172
1605.73657,1637.6172
1605.73657,1648.54998
1605.73657,1648.54998
1607.9488,1638.39811
1607.9488,1648.54998
1607.9488,1648.54998
1607.9488,1638.39811
1610.16104,1644.64542
1610.16104,1644.64542
1612.37327,1644.64542
1612.37327,1644.64542
1614.58551,1642.30268
1614.58551,1642.30268
1616.79774,1638.39811
1616.79774,1638.39811
1619.00998,1633.71264
1619.00998,1633.71264
1621.22222,1629.02716
1621.22222,1629.02716
1623.43445,1627.46534
1623.43445,1627.46534
1625.64669,1625.1226
1625.64669,1625.1226
1627.85892,1622.77986
1627.85892,1622.77986
1630.07116,1623.56077
1630.07116,1623.56077
1632.28339,1624.34168
1632.28339,1624.34168
1634.49563,1625.90351
1634.49563,1625.90351
1636.70787,1626.68442
1636.70787,1626.68442
1638.9201,1628.24625
1638.9201,1628.24625
1641.13234,1629.02716
1641.13234,1629.02716
1643.34457,1630.58899
1643.34457,1630.58899
1645.55681,1632.15081
1645.55681,1632.15081
1647.76904,1633.71264
1647.76904,1633.71264
1649.98128,1634.49355
1649.98128,1634.49355
1652.19352,1633.71264
1652.19352,1633.71264
1654.40575,1630.58899
1654.40575,1630.58899
1656.61799,1628.24625
1656.61799,1628.24625
1658.83022,1625.1226
1658.83022,1625.1226
1661.04246,1622.77986
1661.04246,1622.77986
1663.25469,1621.21803
1663.25469,1621.21803
1665.46693,1618.09438
1665.46693,1618.09438
1667.67916,1615.75164
1667.67916,1615.75164
1669.8914,1614.18982
1669.8914,1614.18982
1672.10364,1613.40891
1672.10364,1613.40891
1674.31587,1612.62799
1674.31587,1612.62799
1676.52811,1613.40891
1676.52811,1613.40891
1678.74034,1612.62799
1678.74034,1612.62799
1680.95258,1611.84708
1680.95258,1611.84708
1683.16481,1610.28525
1683.16481,1610.28525
1685.37705,1609.50434
1685.37705,1609.50434
1687.58929,1607.94252
1687.58929,1607.94252
1689.80152,1606.38069
1689.80152,1606.38069
1692.01376,1605.59978
1692.01376,1605.59978
1694.22599,1605.59978
1694.22599,1605.59978
1696.43823,1605.59978
1696.43823,1605.59978
1698.65046,1605.59978
1698.65046,1605.59978
1700.8627,1607.1616
1700.8627,1607.1616
1703.07493,1609.50434
1703.07493,1609.50434
1705.28717,1611.06617
1705.28717,1611.06617
1707.49941,1612.62799
1707.49941,1612.62799
1709.71164,1614.18982
1709.71164,1614.18982
1711.92388,1614.97073
1711.92388,1614.97073
1714.13611,1616.53256
1714.13611,1616.53256
1716.34835,1618.87529
1716.34835,1618.87529
1718.56058,1620.43712
1718.56058,1620.43712
1720.77282,1621.99895
1720.77282,1621.99895
1722.98506,1621.99895
1722.98506,1621.99895
1725.19729,1621.99895
1725.19729,1621.99895
1727.40953,1622.77986
1727.40953,1622.77986
1729.62176,1622.77986
1729.62176,1622.77986
1731.834,1623.56077
1731.834,1623.56077
1734.04623,1625.90351
1734.04623,1625.90351
1736.25847,1626.68442
1736.25847,1626.68442
1738.47071,1627.46534
1738.47071,1627.46534
1740.68294,1625.1226
1740.68294,1625.1226
1742.89518,1632.15081
1742.89518,1632.15081
1742.89518,1618.87529
1742.89518,1618.87529
1745.10741,1632.15081
1745.10741,1617.31347
1745.10741,1632.15081
1745.10741,1617.31347
1747.31965,1614.97073
1747.31965,1632.15081
1747.31965,1632.15081
1747.31965,1614.97073
1749.53188,1630.58899
1749.53188,1614.18982
1749.53188,1614.18982
1749.53188,1630.58899
1751.74412,1629.02716
1751.74412,1612.62799
1751.74412,1629.02716
1751.74412,1612.62799
1753.95635,1612.62799
1753.95635,1612.62799
1753.95635,1628.24625
1753.95635,1628.24625
1756.16859,1619.65621
1756.16859,1619.65621
1758.38083,1619.65621
1758.38083,1619.65621
1760.59306,1622.77986
1760.59306,1622.77986
1762.8053,1626.68442
1762.8053,1626.68442
1765.01753,1630.58899
1765.01753,1630.58899
1767.22977,1633.71264
1767.22977,1633.71264
1769.442,1636.05538
1769.442,1636.05538
1771.65424,1638.39811
1771.65424,1638.39811
1773.86648,1640.74085
1773.86648,1640.74085
1776.07871,1636.83629
1776.07871,1647.76907
1776.07871,1636.83629
1776.07871,1647.76907
1778.29095,1636.83629
1778.29095,1649.33089
1778.29095,1636.83629
1778.29095,1649.33089
1780.50318,1649.33089
1780.50318,1637.6172
1780.50318,1649.33089
1780.50318,1637.6172
1782.71542,1644.64542
1782.71542,1644.64542
1784.92765,1643.8645
1784.92765,1643.8645
1787.13989,1642.30268
1787.13989,1642.30268
1789.35213,1639.95994
1789.35213,1639.95994
1791.56436,1637.6172
1791.56436,1637.6172
1793.7766,1634.49355
1793.7766,1634.49355
1795.98883,1632.15081
1795.98883,1632.15081
1798.20107,1630.58899
1798.20107,1630.58899
1800.4133,1629.80807
1800.4133,1629.80807
1802.62554,1629.02716
1802.62554,1629.02716
1804.83777,1626.68442
1804.83777,1626.68442
1807.05001,1624.34168
1807.05001,1624.34168
1809.26225,1621.99895
1809.26225,1621.99895
1811.47448,1619.65621
1811.47448,1619.65621
1813.68672,1618.09438
1813.68672,1618.09438
1815.89895,1617.31347
1815.89895,1617.31347
1818.11119,1615.75164
1818.11119,1615.75164
1820.32342,1609.50434
1820.32342,1622.77986
1820.32342,1609.50434
1820.32342,1622.77986
1822.53566,1621.99895
1822.53566,1606.38069
1822.53566,1621.99895
1822.53566,1606.38069
1824.7479,1605.59978
1824.7479,1620.43712
1824.7479,1620.43712
1824.7479,1605.59978
1826.96013,1606.38069
1826.96013,1618.87529
1826.96013,1618.87529
1826.96013,1606.38069
1829.17237,1611.84708
1829.17237,1611.84708
1831.3846,1611.84708
1831.3846,1611.84708
1833.59684,1611.06617
1833.59684,1611.06617
1835.80907,1611.84708
1835.80907,1611.84708
1838.02131,1613.40891
1838.02131,1613.40891
1840.23354,1613.40891
1840.23354,1613.40891
1842.44578,1613.40891
1842.44578,1613.40891
1844.65802,1616.53256
1844.65802,1610.28525
1844.65802,1610.28525
1844.65802,1616.53256
1846.87025,1616.53256
1846.87025,1616.53256
1846.87025,1610.28525
1846.87025,1610.28525
1849.08249,1612.62799
1849.08249,1612.62799
1851.29472,1613.40891
1851.29472,1613.40891
1853.50696,1613.40891
1853.50696,1613.40891
1855.71919,1614.18982
1855.71919,1614.18982
1857.93143,1614.18982
1857.93143,1614.18982
1860.14367,1614.18982
1860.14367,1614.18982
1862.3559,1612.62799
1862.3559,1612.62799
1864.56814,1611.84708
1864.56814,1611.84708
1866.78037,1611.84708
1866.78037,1611.84708
1868.99261,1611.84708
1868.99261,1611.84708
1871.20484,1611.84708
1871.20484,1611.84708
1873.41708,1618.87529
1873.41708,1604.81886
1873.41708,1604.81886
1873.41708,1618.87529
1875.62932,1619.65621
1875.62932,1604.03795
1875.62932,1619.65621
1875.62932,1604.03795
1877.84155,1604.03795
1877.84155,1620.43712
1877.84155,1604.03795
1877.84155,1620.43712
1880.05379,1604.81886
1880.05379,1620.43712
1880.05379,1620.43712
1880.05379,1604.81886
1882.26602,1604.81886
1882.26602,1620.43712
1882.26602,1604.81886
1882.26602,1620.43712
1884.47826,1604.03795
1884.47826,1620.43712
1884.47826,1604.03795
1884.47826,1620.43712
1886.69049,1620.43712
1886.69049,1602.47613
1886.69049,1620.43712
1886.69049,1602.47613
1888.90273,1620.43712
1888.90273,1600.13339
1888.90273,1620.43712
1888.90273,1600.13339
1891.11496,1620.43712
1891.11496,1597.79065
1891.11496,1597.79065
1891.11496,1620.43712
1893.3272,1594.667
1893.3272,1619.65621
1893.3272,1619.65621
1893.3272,1594.667
1895.53944,1591.54335
1895.53944,1618.09438
1895.53944,1618.09438
1895.53944,1591.54335
1897.75167,1589.20061
1897.75167,1617.31347
1897.75167,1617.31347
1897.75167,1588.4197
1899.96391,1615.75164
1899.96391,1586.07696
1899.96391,1615.75164
1899.96391,1587.63878
1902.17614,1615.75164
1902.17614,1586.07696
1902.17614,1615.75164
1902.17614,1587.63878
1904.38838,1618.09438
1904.38838,1589.98152
1904.38838,1618.09438
1904.38838,1587.63878
1906.60061,1620.43712
1906.60061,1620.43712
1906.60061,1591.54335
1906.60061,1593.10517
1908.81285,1606.38069
1908.81285,1607.1616
1911.02509,1609.50434
1911.02509,1609.50434
1913.23732,1611.84708
1913.23732,1611.84708
1915.44956,1615.75164
1915.44956,1615.75164
1917.66179,1618.87529
1917.66179,1618.87529
1919.87403,1622.77986
1919.87403,1622.77986
1922.08626,1625.1226
1922.08626,1625.1226
1924.2985,1628.24625
1924.2985,1628.24625
1926.51073,1627.46534
1926.51073,1627.46534
1928.72297,1625.1226
1928.72297,1625.1226
1930.93521,1621.99895
1930.93521,1621.99895
1933.14744,1618.09438
1933.14744,1618.09438
1935.35968,1615.75164
1935.35968,1615.75164
1937.57191,1614.18982
1937.57191,1614.18982
1939.78415,1611.84708
1939.78415,1611.84708
1941.99638,1600.9143
1941.99638,1620.43712
1941.99638,1600.9143
1941.99638,1620.43712
1944.20862,1618.09438
1944.20862,1597.00974
1944.20862,1618.09438
1944.20862,1597.00974
1946.42086,1593.88609
1946.42086,1615.75164
1946.42086,1615.75164
1946.42086,1593.88609
1948.63309,1593.10517
1948.63309,1614.18982
1948.63309,1593.10517
1948.63309,1614.18982
1950.84533,1611.84708
1950.84533,1593.10517
1950.84533,1611.84708
1950.84533,1593.10517
1953.05756,1610.28525
1953.05756,1593.10517
1953.05756,1593.10517
1953.05756,1610.28525
1955.2698,1593.10517
1955.2698,1608.72343
1955.2698,1608.72343
1955.2698,1593.10517
1957.48203,1607.94252
1957.48203,1592.32426
1957.48203,1607.94252
1957.48203,1592.32426
1959.69427,1590.76243
1959.69427,1606.38069
1959.69427,1590.76243
1959.69427,1606.38069
1961.90651,1589.20061
1961.90651,1605.59978
1961.90651,1589.20061
1961.90651,1605.59978
1964.11874,1588.4197
1964.11874,1587.63878
1964.11874,1604.81886
1964.11874,1604.81886
1966.33098,1604.81886
1966.33098,1586.07696
1966.33098,1604.81886
1966.33098,1587.63878
1968.54321,1583.73422
1968.54321,1604.03795
1968.54321,1604.03795
1968.54321,1586.07696
1970.75545,1603.25704
1970.75545,1584.51513
1970.75545,1603.25704
1970.75545,1580.61057
1972.96768,1578.26783
1972.96768,1582.95331
1972.96768,1602.47613
1972.96768,1602.47613
1975.17992,1602.47613
1975.17992,1602.47613
1975.17992,1577.48692
1975.17992,1581.39148
1977.39215,1576.706
1977.39215,1581.39148
1977.39215,1601.69521
1977.39215,1601.69521
1979.60439,1602.47613
1979.60439,1602.47613
1979.60439,1577.48692
1979.60439,1582.17239
1981.81663,1579.82966
1981.81663,1604.03795
1981.81663,1583.73422
1981.81663,1604.03795
1984.02886,1584.51513
1984.02886,1580.61057
1984.02886,1604.81886
1984.02886,1604.81886
1986.2411,1582.17239
1986.2411,1605.59978
1986.2411,1605.59978
1986.2411,1585.29604
1988.45333,1606.38069
1988.45333,1586.07696
1988.45333,1584.51513
1988.45333,1606.38069
1990.66557,1606.38069
1990.66557,1586.85787
1990.66557,1606.38069
1990.66557,1586.85787
1992.8778,1588.4197
1992.8778,1588.4197
1992.8778,1606.38069
1992.8778,1606.38069
1995.09004,1607.1616
1995.09004,1607.1616
1995.09004,1589.20061
1995.09004,1589.20061
1997.30228,1590.76243
1997.30228,1607.94252
1997.30228,1607.94252
1997.30228,1590.76243
1999.51451,1590.76243
1999.51451,1608.72343
1999.51451,1608.72343
1999.51451,1590.76243
2001.72675,1591.54335
2001.72675,1609.50434
2001.72675,1609.50434
2001.72675,1591.54335
2003.93898,1592.32426
2003.93898,1610.28525
2003.93898,1610.28525
2003.93898,1592.32426
2006.15122,1611.06617
2006.15122,1592.32426
2006.15122,1592.32426
2006.15122,1611.06617
2008.36345,1592.32426
2008.36345,1592.32426
2008.36345,1611.06617
2008.36345,1611.06617
2010.57569,1610.28525
2010.57569,1610.28525
2010.57569,1593.10517
2010.57569,1593.10517
2012.78793,1609.50434
2012.78793,1609.50434
2012.78793,1594.667
2012.78793,1594.667
2015.00016,1610.28525
2015.00016,1596.22882
2015.00016,1610.28525
2015.00016,1596.22882
2017.2124,1605.59978
2017.2124,1605.59978
2019.42463,1607.1616
2019.42463,1607.1616
2021.63687,1607.94252
2021.63687,1607.94252
2023.8491,1610.28525
2023.8491,1610.28525
2026.06134,1604.81886
2026.06134,1604.81886
2026.06134,1618.09438
2026.06134,1618.09438
2028.27357,1606.38069
2028.27357,1618.09438
2028.27357,1618.09438
2028.27357,1606.38069
2030.48581,1614.18982
2030.48581,1614.18982
2032.69805,1613.40891
2032.69805,1613.40891
2034.91028,1612.62799
2034.91028,1612.62799
2037.12252,1611.84708
2037.12252,1611.84708
2039.33475,1610.28525
2039.33475,1610.28525
2041.54699,1609.50434
2041.54699,1609.50434
2043.75922,1608.72343
2043.75922,1608.72343
2045.97146,1608.72343
2045.97146,1608.72343
2048.1837,1608.72343
2048.1837,1608.72343
2050.39593,1608.72343
2050.39593,1608.72343
2052.60817,1609.50434
2052.60817,1609.50434
2054.8204,1609.50434
2054.8204,1609.50434
2057.03264,1609.50434
2057.03264,1609.50434
2059.24487,1609.50434
2059.24487,1609.50434
2061.45711,1614.97073
2061.45711,1604.03795
2061.45711,1604.03795
2061.45711,1614.97073
2063.66934,1604.81886
2063.66934,1615.75164
2063.66934,1615.75164
2063.66934,1604.81886
2065.88158,1616.53256
2065.88158,1606.38069
2065.88158,1616.53256
2065.88158,1606.38069
2068.09382,1610.28525
2068.09382,1610.28525
2070.30605,1608.72343
2070.30605,1608.72343
2072.51829,1604.03795
2074.73052,1598.57156
2076.94276,1597.00974
2079.15499,1612.62799
2079.15499,1593.10517
2081.36723,1590.76243
2083.57947,1600.13339
2083.57947,1582.95331
2085.7917,1601.69521
2085.7917,1582.17239
2088.00394,1582.95331
2088.00394,1602.47613
2090.21617,1604.03795
2090.21617,1585.29604
2092.42841,1606.38069
2092.42841,1587.63878
2094.64064,1607.1616
2094.64064,1589.98152
2096.85288,1598.57156
2099.06512,1600.9143
2101.27735,1603.25704
2103.48959,1606.38069
2105.70182,1607.94252
2107.91406,1611.84708
2110.12629,1611.84708
2112.33853,1611.06617
2114.55076,1610.28525
2116.763,1610.28525
2118.97524,1611.06617
2121.18747,1611.84708
2123.39971,1613.40891
2125.61194,1614.18982
2127.82418,1614.18982
2130.03641,1609.50434
2130.03641,1621.21803
2130.03641,1609.50434
2130.03641,1621.21803
2132.24865,1621.21803
2132.24865,1608.72343
2132.24865,1608.72343
2132.24865,1621.21803
2134.46089,1607.1616
2134.46089,1607.1616
2134.46089,1621.21803
2134.46089,1621.21803
2136.67312,1621.21803
2136.67312,1604.81886
2136.67312,1621.21803
2136.67312,1604.81886
2138.88536,1621.21803
2138.88536,1603.25704
2138.88536,1621.21803
2138.88536,1603.25704
2141.09759,1621.21803
2141.09759,1601.69521
2141.09759,1601.69521
2141.09759,1621.21803
2143.30983,1600.9143
2143.30983,1621.21803
2143.30983,1600.9143
2143.30983,1621.21803
2145.52206,1620.43712
2145.52206,1600.13339
2145.52206,1600.13339
2145.52206,1620.43712
2147.7343,1619.65621
2147.7343,1600.13339
2147.7343,1600.13339
2147.7343,1619.65621
2149.94654,1599.35247
2149.94654,1599.35247
2149.94654,1618.09438
2149.94654,1618.09438
2152.15877,1615.75164
2152.15877,1598.57156
2152.15877,1598.57156
2152.15877,1615.75164
2154.37101,1613.40891
2154.37101,1597.79065
2154.37101,1597.79065
2154.37101,1613.40891
2156.58324,1611.06617
2156.58324,1597.00974
2156.58324,1611.06617
2156.58324,1597.00974
2158.79548,1604.81886
2158.79548,1604.81886
2161.00771,1603.25704
2161.00771,1603.25704
2163.21995,1600.9143
2163.21995,1600.9143
2165.43218,1600.13339
2165.43218,1600.13339
2167.64442,1598.57156
2167.64442,1598.57156
2169.85666,1598.57156
2169.85666,1598.57156
2172.06889,1600.13339
2172.06889,1600.13339
2174.28113,1602.47613
2174.28113,1602.47613
2176.49336,1604.81886
2176.49336,1604.81886
2178.7056,1607.1616
2178.7056,1607.1616
2180.91783,1609.50434
2183.13007,1611.06617
2185.34231,1613.40891
2187.55454,1614.97073
2189.76678,1618.87529
2191.97901,1623.56077
2194.19125,1626.68442
2196.40348,1630.58899
2198.61572,1632.93172
2200.82795,1634.49355
2203.04019,1633.71264
2205.25243,1630.58899
2207.46466,1626.68442
2209.6769,1624.34168
2211.88913,1620.43712
2214.10137,1618.09438
2216.3136,1614.18982
2216.3136,1631.3699
2218.52584,1631.3699
2218.52584,1611.06617
2220.73808,1632.15081
2220.73808,1607.94252
2222.95031,1603.25704
2222.95031,1632.15081
2225.16255,1600.13339
2225.16255,1629.80807
2227.37478,1627.46534
2227.37478,1600.13339
2229.58702,1624.34168
2229.58702,1600.13339
2231.79925,1601.69521
2231.79925,1621.99895
2234.01149,1602.47613
2234.01149,1621.21803
2236.22373,1602.47613
2236.22373,1618.87529
2238.43596,1617.31347
2238.43596,1603.25704
2240.6482,1603.25704
2240.6482,1618.09438
2242.86043,1619.65621
2242.86043,1602.47613
2245.07267,1602.47613
2245.07267,1621.21803
2245.07267,1602.47613
2245.07267,1621.21803
2247.2849,1624.34168
2247.2849,1624.34168
2247.2849,1600.9143
2247.2849,1600.9143
2249.49714,1626.68442
2249.49714,1601.69521
2249.49714,1626.68442
2249.49714,1601.69521
2251.70937,1602.47613
2251.70937,1602.47613
2251.70937,1629.02716
2251.70937,1629.02716
2253.92161,1630.58899
2253.92161,1604.81886
2253.92161,1630.58899
2253.92161,1604.81886
2256.13385,1631.3699
2256.13385,1607.1616
2256.13385,1631.3699
2256.13385,1607.1616
2258.34608,1609.50434
2258.34608,1630.58899
2258.34608,1630.58899
2258.34608,1609.50434
2260.55832,1628.24625
2260.55832,1610.28525
2260.55832,1628.24625
2260.55832,1610.28525
2262.77055,1618.09438
2262.77055,1618.09438
2264.98279,1618.87529
2264.98279,1618.87529
2267.19502,1617.31347
2267.19502,1617.31347
2269.40726,1614.97073
2269.40726,1614.97073
2271.6195,1612.62799
2271.6195,1612.62799
2273.83173,1609.50434
2273.83173,1609.50434
2276.04397,1608.72343
2276.04397,1608.72343
2278.2562,1608.72343
2278.2562,1608.72343
2280.46844,1607.94252
2280.46844,1607.94252
2303.75096,1621.02784
2303.75096,1641.46434
2310.18453,1661.90085
2317.90481,1676.88761
2332.05866,1715.03575
2353.9328,1689.60366
2360.36637,1654.18039
2362.32116,1640.74085
2364.53339,1633.71264
2366.74563,1627.46534
2368.95786,1621.99895
2371.1701,1617.31347
2373.38234,1614.18982
2373.38234,1614.18982
2375.59457,1612.62799
2375.59457,1612.62799
2377.80681,1610.28525
2377.80681,1610.28525
2380.01904,1607.94252
2380.01904,1607.94252
2382.23128,1605.59978
2382.23128,1605.59978
2384.44351,1603.25704
2384.44351,1602.47613
2386.65575,1600.13339
2386.65575,1603.25704
2388.86798,1600.9143
2388.86798,1604.03795
2391.08022,1607.94252
2391.08022,1604.03795
2393.29246,1611.84708
2393.29246,1607.94252
2395.50469,1611.84708
2397.71693,1613.40891
2399.92916,1615.75164
2402.1414,1618.87529
2404.35363,1621.99895
2406.56587,1625.1226
2408.77811,1627.46534
2410.99034,1629.02716
2413.20258,1632.15081
2415.41481,1631.3699
2417.62705,1629.80807
2419.83928,1627.46534
2422.05152,1624.34168
2424.26375,1622.77986
2426.47599,1619.65621
2428.68823,1615.75164
2430.90046,1612.62799
2433.1127,1611.84708
2435.32493,1618.87529
2435.32493,1604.03795
2437.53717,1603.25704
2437.53717,1618.87529
2439.7494,1618.09438
2439.7494,1601.69521
2441.96164,1600.13339
2441.96164,1617.31347
2444.17388,1615.75164
2444.17388,1599.35247
2446.38611,1614.97073
2446.38611,1599.35247
2448.59835,1613.40891
2448.59835,1600.13339
2450.81058,1612.62799
2450.81058,1601.69521
2453.02282,1608.72343
2455.23505,1611.06617
2457.44729,1613.40891
2459.65953,1614.97073
2461.87176,1617.31347
2464.084,1617.31347
2466.29623,1616.53256
2468.50847,1628.24625
2468.50847,1611.06617
2470.7207,1630.58899
2470.7207,1609.50434
2472.93294,1632.93172
2472.93294,1607.94252
2475.14517,1635.27446
2475.14517,1608.72343
2477.35741,1637.6172
2477.35741,1611.84708
2479.56965,1624.34168
2481.78188,1626.68442
2483.99412,1629.80807
2486.20635,1632.93172
2488.41859,1646.98816
2488.41859,1631.3699
2490.63082,1638.39811
2492.84306,1640.74085
2495.0553,1639.95994
2497.26753,1635.27446
2499.47977,1630.58899
2501.692,1625.1226
2503.90424,1621.21803
2506.11647,1619.65621
2508.32871,1618.09438
2510.54095,1627.46534
2510.54095,1607.94252
2512.75318,1626.68442
2512.75318,1607.1616
2514.96542,1608.72343
2514.96542,1626.68442
2517.17765,1616.53256
2519.38989,1618.87529
2521.60212,1620.43712
2523.81436,1622.77986
2526.02659,1625.1226
2528.23883,1627.46534
2530.45107,1626.68442
2532.6633,1625.90351
2534.87554,1625.1226
2537.08777,1619.65621
2537.08777,1633.71264
2539.30001,1616.53256
2539.30001,1633.71264
2541.51224,1614.97073
2541.51224,1632.15081
2543.72448,1630.58899
2543.72448,1613.40891
2545.93672,1612.62799
2545.93672,1628.24625
2548.14895,1626.68442
2548.14895,1611.84708
2550.36119,1621.21803
2552.57342,1620.43712
2554.78566,1618.87529
2556.99789,1619.65621
2559.21013,1620.43712
2561.42236,1621.99895
2563.6346,1622.77986
2565.84684,1621.99895
2568.05907,1619.65621
2570.27131,1614.97073
2572.48354,1610.28525
2574.69578,1606.38069
2576.90801,1604.03795
2579.12025,1600.9143
2581.33249,1598.57156
2583.54472,1597.00974
2585.75696,1587.63878
2585.75696,1602.47613
2587.96919,1586.07696
2587.96919,1601.69521
2590.18143,1586.85787
2590.18143,1600.9143
2592.39366,1593.88609
2594.6059,1595.44791
2596.81814,1597.79065
2599.03037,1601.69521
2601.24261,1604.81886
2603.45484,1607.1616
2605.66708,1610.28525
2607.87931,1613.40891
2610.09155,1616.53256
2612.30378,1617.31347
2614.51602,1617.31347
2616.72826,1618.09438
2618.94049,1618.87529
2621.15273,1619.65621
2623.36496,1621.21803
2625.5772,1622.77986
2627.78943,1624.34168
2630.00167,1625.90351
2632.21391,1625.1226
2634.42614,1619.65621
2634.42614,1629.02716
2636.63838,1618.87529
2636.63838,1629.80807
2638.85061,1616.53256
2638.85061,1629.80807
2641.06285,1614.18982
2641.06285,1627.46534
2643.27508,1617.31347
2645.48732,1614.18982
2647.69955,1613.40891
2649.91179,1611.84708
2652.12403,1609.50434
2654.33626,1608.72343
2656.5485,1607.1616
2658.76073,1606.38069
2660.97297,1606.38069
2663.1852,1607.94252
2665.39744,1611.06617
2667.60968,1614.18982
2669.82191,1616.53256
2672.03415,1604.03795
2672.03415,1625.1226
2674.24638,1604.81886
2674.24638,1628.24625
2676.45862,1605.59978
2676.45862,1631.3699
2678.67085,1605.59978
2678.67085,1632.93172
2680.88309,1632.93172
2680.88309,1604.81886
2683.09533,1604.03795
2683.09533,1631.3699
2685.30756,1604.03795
2685.30756,1629.80807
2687.5198,1605.59978
2687.5198,1627.46534
2689.73203,1607.94252
2689.73203,1625.1226
2691.94427,1612.62799
2694.1565,1613.40891
2696.36874,1615.75164
2698.58097,1618.87529
2700.79321,1620.43712
2703.00545,1620.43712
2705.21768,1619.65621
2707.42992,1618.09438
2709.64215,1616.53256
2711.85439,1614.18982
2714.06662,1611.84708
2716.27886,1609.50434
2718.4911,1607.94252
2720.70333,1606.38069
2722.91557,1604.81886
2725.1278,1604.81886
2727.34004,1604.81886
2729.55227,1606.38069
2731.76451,1611.84708
2731.76451,1602.47613
2733.97675,1602.47613
2733.97675,1613.40891
2736.18898,1614.18982
2736.18898,1601.69521
2738.40122,1614.18982
2738.40122,1599.35247
2740.61345,1613.40891
2740.61345,1597.79065
2742.82569,1612.62799
2742.82569,1596.22882
2745.03792,1611.06617
2745.03792,1594.667
2747.25016,1610.28525
2747.25016,1593.88609
2749.46239,1609.50434
2749.46239,1593.88609
2751.67463,1601.69521
2753.88687,1601.69521
2756.0991,1604.03795
2758.31134,1606.38069
2760.52357,1607.1616
2762.73581,1607.1616
2764.94804,1604.03795
2767.16028,1599.35247
2769.37252,1596.22882
2771.58475,1594.667
2773.79699,1593.10517
2776.00922,1591.54335
2778.22146,1589.98152
2780.43369,1589.20061
2782.64593,1587.63878
2784.85816,1586.07696
2787.0704,1586.07696
2789.28264,1587.63878
2791.49487,1591.54335
2793.70711,1595.44791
2795.91934,1599.35247
2798.13158,1602.47613
2800.34381,1604.81886
2802.55605,1604.81886
2804.76829,1604.03795
2806.98052,1602.47613
2809.19276,1601.69521
2811.40499,1600.13339
2813.61723,1598.57156
2815.82946,1599.35247
2818.0417,1600.9143
2820.25394,1604.03795
2822.46617,1605.59978
2824.67841,1605.59978
2826.89064,1611.06617
2826.89064,1594.667
2829.10288,1614.18982
2829.10288,1593.10517
2831.31511,1616.53256
2831.31511,1590.76243
2833.52735,1618.09438
2833.52735,1588.4197
2835.73958,1614.97073
2835.73958,1584.51513
2837.95182,1611.84708
2837.95182,1582.95331
2840.16406,1607.94252
2840.16406,1580.61057
2842.37629,1606.38069
2842.37629,1578.26783
2844.58853,1602.47613
2844.58853,1579.04874
2846.80076,1590.76243
2849.013,1587.63878
2851.22523,1586.85787
2853.43747,1589.98152
2855.64971,1594.667
2857.86194,1597.00974
2860.07418,1603.25704
2860.07418,1587.63878
2862.28641,1603.25704
2862.28641,1588.4197
2864.49865,1601.69521
2864.49865,1588.4197
2866.71088,1597.79065
2868.92312,1597.79065
2871.13536,1594.667
2873.34759,1591.54335
2875.55983,1588.4197
2877.77206,1586.85787
2879.9843,1586.85787
2882.19653,1587.63878
2884.40877,1589.20061
2886.621,1589.98152
2888.83324,1593.88609
2888.83324,1580.61057
2891.04548,1596.22882
2891.04548,1580.61057
2893.25771,1582.17239
2893.25771,1598.57156
2895.46995,1583.73422
2895.46995,1600.13339
2897.68218,1586.07696
2897.68218,1600.9143
2899.89442,1600.9143
2899.89442,1588.4197
2902.10665,1592.32426
2904.31889,1594.667
2906.53113,1598.57156
2908.74336,1603.25704
2910.9556,1605.59978
2913.16783,1607.94252
2915.38007,1608.72343
2917.5923,1609.50434
2919.80454,1609.50434
2922.01677,1610.28525
2924.22901,1611.06617
2926.44125,1611.06617
2928.65348,1611.84708
2930.86572,1614.18982
2933.07795,1614.18982
2935.29019,1613.40891
2937.50242,1612.62799
2939.71466,1611.06617
2941.9269,1611.06617
2944.13913,1610.28525
2946.35137,1610.28525
2948.5636,1610.28525
2950.77584,1608.72343
2952.98807,1607.1616
2955.20031,1606.38069
2957.41255,1606.38069
2959.62478,1613.40891
2959.62478,1600.9143
2961.83702,1598.57156
2961.83702,1614.97073
2964.04925,1615.75164
2964.04925,1597.00974
2966.26149,1616.53256
2966.26149,1596.22882
2968.47372,1617.31347
2968.47372,1597.00974
2970.68596,1617.31347
2970.68596,1598.57156
2972.89819,1616.53256
2972.89819,1600.13339
2975.11043,1607.1616
2977.32267,1607.94252
2979.5349,1609.50434
2981.74714,1610.28525
2983.95937,1609.50434
2986.17161,1607.94252
2988.38384,1606.38069
2990.59608,1606.38069
2992.80832,1604.81886
2995.02055,1605.59978
2997.23279,1606.38069
2999.44502,1610.28525
2999.44502,1617.31347
3001.65726,1621.21803
3001.65726,1614.97073
3003.86949,1618.87529
3003.86949,1624.34168
3006.08173,1625.90351
3006.08173,1621.21803
3008.29396,1623.56077
3008.29396,1626.68442
3010.5062,1627.46534
3010.5062,1627.46534
3012.71844,1627.46534
3012.71844,1627.46534
3014.93067,1636.05538
3014.93067,1636.05538
3014.93067,1621.21803
3014.93067,1620.43712
3017.14291,1619.65621
3017.14291,1618.09438
3017.14291,1637.6172
3017.14291,1637.6172
3019.35514,1615.75164
3019.35514,1637.6172
3019.35514,1618.87529
3019.35514,1637.6172
3021.56738,1635.27446
3021.56738,1614.18982
3021.56738,1635.27446
3021.56738,1617.31347
3023.77961,1616.53256
3023.77961,1632.93172
3023.77961,1611.84708
3023.77961,1632.93172
3025.99185,1630.58899
3025.99185,1615.75164
3025.99185,1630.58899
3025.99185,1611.84708
3028.20409,1625.90351
3028.20409,1621.21803
3030.41632,1624.34168
3030.41632,1619.65621
3032.62856,1618.87529
3032.62856,1622.77986
3034.84079,1621.21803
3034.84079,1618.09438
3037.05303,1619.65621
3037.05303,1620.43712
3039.26526,1621.21803
3039.26526,1621.21803
3041.4775,1621.99895
3041.4775,1621.99895
3043.68974,1621.99895
3043.68974,1621.99895
3045.90197,1621.21803
3045.90197,1621.21803
3048.11421,1619.65621
3048.11421,1621.21803
3050.32644,1618.87529
3050.32644,1620.43712
3052.53868,1619.65621
3052.53868,1618.09438
3054.75091,1618.09438
3054.75091,1619.65621
3056.96315,1618.87529
3056.96315,1620.43712
3059.17538,1621.21803
3059.17538,1619.65621
3061.38762,1621.99895
3061.38762,1621.99895
3063.59986,1622.77986
3063.59986,1622.77986
3065.81209,1623.56077
3065.81209,1623.56077
3068.02433,1624.34168
3070.23656,1625.90351
3072.4488,1628.24625
3074.66103,1628.24625
3076.87327,1628.24625
3079.08551,1627.46534
3081.29774,1626.68442
3083.50998,1625.90351
3085.72221,1625.90351
3087.93445,1625.90351
3090.14668,1627.46534
3092.35892,1629.02716
3094.57116,1631.3699
3096.78339,1633.71264
3098.99563,1636.05538
3101.20786,1628.24625
3101.20786,1640.74085
3103.4201,1625.90351
3103.4201,1642.30268
3105.63233,1623.56077
3105.63233,1643.8645
3107.84457,1623.56077
3107.84457,1644.64542
3110.0568,1622.77986
3110.0568,1643.8645
3112.26904,1643.8645
3112.26904,1621.99895
3114.48128,1643.08359
3114.48128,1623.56077
3116.69351,1625.90351
3116.69351,1643.08359
3118.90575,1626.68442
3118.90575,1643.8645
3121.11798,1643.8645
3121.11798,1628.24625
3123.33022,1634.49355
3125.54245,1637.6172
3127.75469,1640.74085
3129.96693,1643.08359
3132.17916,1645.42633
3134.3914,1646.20724
3136.60363,1647.76907
3138.81587,1649.33089
3141.0281,1648.54998
3143.24034,1647.76907
3145.45257,1647.76907
3147.66481,1646.98816
3149.87705,1646.98816
3152.08928,1647.76907
3154.30152,1647.76907
3156.51375,1646.20724
3158.72599,1644.64542
3160.93822,1645.42633
3163.15046,1648.54998
3165.3627,1653.23546
3167.57493,1656.35911
3169.78717,1657.92093
3171.9994,1660.26367
3174.21164,1662.60641
3176.42387,1652.45454
3176.42387,1676.66284
3178.63611,1654.79728
3178.63611,1679.78649
3180.84835,1656.35911
3180.84835,1679.78649
3183.06058,1676.66284
3183.06058,1657.92093
3185.27282,1659.48276
3185.27282,1675.10102
3187.48505,1671.19645
3189.69729,1668.85371
3191.90952,1666.51097
3194.12176,1661.8255
3196.33399,1661.8255
3198.54623,1661.04459
3200.75847,1661.8255
3202.9707,1661.8255
3205.18294,1663.38732
3207.39517,1664.16824
3209.60741,1664.16824
3211.81964,1659.48276
3211.81964,1668.0728
3214.03188,1668.0728
3214.03188,1659.48276
3216.24412,1663.38732
3218.45635,1663.38732
3220.66859,1662.60641
3222.88082,1662.60641
3225.09306,1662.60641
3227.30529,1664.16824
3229.51753,1664.94915
3231.72976,1664.94915
3233.942,1664.16824
3236.15424,1662.60641
3238.36647,1661.04459
3240.57871,1660.26367
3242.79094,1654.79728
3242.79094,1654.79728
3242.79094,1668.85371
3242.79094,1668.85371
3245.00318,1651.67363
3245.00318,1670.41554
3245.00318,1651.67363
3245.00318,1670.41554
3247.21541,1649.33089
3247.21541,1672.75828
3247.21541,1672.75828
3247.21541,1649.33089
3249.42765,1648.54998
3249.42765,1648.54998
3249.42765,1675.10102
3249.42765,1675.10102
3251.63989,1649.33089
3251.63989,1649.33089
3251.63989,1677.44375
3251.63989,1677.44375
3253.85212,1679.78649
3253.85212,1679.78649
3253.85212,1650.89272
3253.85212,1650.89272
3256.06436,1682.91014
3256.06436,1682.12923
3256.06436,1653.23546
3256.06436,1653.23546
3258.27659,1686.81471
3258.27659,1655.5782
3258.27659,1683.69106
3258.27659,1655.5782
3260.48883,1685.25288
3260.48883,1657.14002
3260.48883,1657.14002
3260.48883,1689.15745
3262.70106,1658.70185
3262.70106,1691.50018
3262.70106,1658.70185
3262.70106,1686.81471
3264.9133,1692.2811
3264.9133,1687.59562
3264.9133,1660.26367
3264.9133,1660.26367
3267.12554,1692.2811
3267.12554,1661.8255
3267.12554,1686.81471
3267.12554,1661.8255
3269.33777,1684.47197
3269.33777,1663.38732
3269.33777,1689.15745
3269.33777,1663.38732
3271.55001,1688.37653
3271.55001,1664.94915
3271.55001,1683.69106
3271.55001,1664.94915
3273.76224,1682.91014
3273.76224,1685.25288
3273.76224,1665.73006
3273.76224,1665.73006
3275.97448,1682.91014
3275.97448,1666.51097
3275.97448,1682.91014
3275.97448,1666.51097
3278.18671,1667.29189
3278.18671,1679.78649
3278.18671,1667.29189
3278.18671,1679.78649
3280.39895,1674.3201
3280.39895,1674.3201
3282.61118,1676.66284
3282.61118,1676.66284
3284.82342,1678.22467
3284.82342,1680.56741
3287.03566,1679.00558
3287.03566,1682.91014
3289.24789,1679.78649
3289.24789,1686.03379
3291.46013,1688.37653
3291.46013,1680.56741
3329.06813,1679.00558
3329.06813,1679.00558
3331.28037,1675.10102
3331.28037,1675.10102
3333.4926,1671.19645
3333.4926,1671.19645
3335.70484,1668.0728
3335.70484,1668.0728
3337.91708,1666.51097
3337.91708,1666.51097
3340.12931,1667.29189
3340.12931,1667.29189
3342.34155,1673.53919
3342.34155,1678.22467
3344.55378,1679.00558
3344.55378,1673.53919
3346.76602,1673.53919
3348.97825,1675.88193
3371.7236,1694.59925
3385.87745,1684.60807
3385.87745,1684.60807
3407.75159,1684.60807
3435.25544,1679.00558
3437.46768,1675.10102
3439.67992,1664.16824
3441.89215,1661.8255
3444.10439,1659.48276
3446.31662,1659.48276
3448.52886,1661.04459
3450.74109,1662.60641
3450.74109,1662.60641
3452.95333,1664.94915
3452.95333,1664.94915
3455.16557,1666.51097
3455.16557,1666.51097
3457.3778,1668.0728
3457.3778,1668.0728
3459.59004,1668.85371
3459.59004,1668.85371
3461.80227,1670.41554
3461.80227,1670.41554
3464.01451,1670.41554
3464.01451,1670.41554
3466.22674,1669.63463
3466.22674,1669.63463
3468.43898,1667.29189
3468.43898,1667.29189
3470.65121,1665.73006
3470.65121,1665.73006
3472.86345,1661.8255
3472.86345,1661.8255
3475.07569,1657.92093
3475.07569,1657.92093
3477.28792,1654.01637
3477.28792,1654.01637
3479.50016,1650.89272
3479.50016,1650.89272
3481.71239,1648.54998
3481.71239,1648.54998
3483.92463,1645.42633
3483.92463,1645.42633
3486.13686,1644.64542
3486.13686,1644.64542
3488.3491,1646.20724
3488.3491,1646.20724
3490.56134,1649.33089
3490.56134,1649.33089
3492.77357,1652.45454
3494.98581,1655.5782
3497.19804,1659.48276
3499.41028,1662.60641
3501.62251,1666.51097
3503.83475,1669.63463
3506.04698,1671.19645
3508.25922,1670.41554
3510.47146,1668.0728
3512.68369,1666.51097
3525.95711,1654.79728
3528.16934,1654.01637
3530.38158,1652.45454
3532.59381,1650.89272
3534.80605,1648.54998
3537.01828,1646.98816
3539.23052,1645.42633
3541.44276,1645.42633
3543.65499,1646.20724
3545.86723,1647.76907
3548.07946,1648.54998
3550.2917,1650.11181
3552.50393,1651.67363
3554.71617,1652.45454
3556.9284,1654.01637
3559.14064,1654.79728
3561.35288,1656.35911
3592.32417,1655.5782
3594.53641,1652.45454
3596.74865,1650.11181
3598.96088,1648.54998
3601.17312,1648.54998
3603.38535,1647.76907
3605.59759,1646.98816
3607.80982,1646.98816
3610.02206,1646.20724
3612.2343,1646.20724
3614.44653,1646.20724
3616.65877,1645.42633
3618.871,1645.42633
3621.08324,1646.98816
3623.29547,1648.54998
3625.50771,1655.5782
3627.71995,1654.79728
3629.93218,1653.23546
3632.14442,1652.45454
3634.35665,1649.33089
3636.56889,1647.76907
3638.78112,1646.20724
3640.99336,1643.8645
3643.20559,1643.08359
3645.41783,1643.08359
3647.63007,1634.49355
3647.63007,1650.89272
3649.8423,1634.49355
3649.8423,1651.67363
3652.05454,1636.05538
3652.05454,1654.01637
3654.26677,1655.5782
3654.26677,1639.17903
3656.47901,1649.33089
3658.69124,1652.45454
3660.90348,1654.79728
3667.54019,1653.23546
3669.75242,1655.5782
3671.96466,1655.5782
3674.17689,1655.5782
3676.38913,1654.79728
3678.60137,1654.01637
3680.8136,1653.23546
3687.45031,1653.23546
3689.66254,1647.76907
3691.87478,1641.52177
3694.08701,1638.39811
3696.29925,1635.27446
3698.51149,1632.93172
3700.72372,1639.17903
3700.72372,1625.1226
3702.93596,1639.17903
3702.93596,1621.99895
3705.14819,1620.43712
3705.14819,1639.17903
3707.36043,1638.39811
3707.36043,1619.65621
3709.57266,1637.6172
3709.57266,1619.65621
3711.7849,1637.6172
3711.7849,1623.56077
3713.99714,1632.15081
3716.20937,1635.27446
3718.42161,1636.05538
3720.63384,1637.6172
3722.84608,1641.52177
3725.05831,1644.64542
3727.27055,1646.98816
3729.48278,1646.98816
3731.69502,1647.76907
3733.90726,1649.33089
3736.11949,1649.33089
3738.33173,1648.54998
3740.54396,1654.79728
3740.54396,1639.17903
3742.7562,1655.5782
3742.7562,1639.17903
3744.96843,1639.17903
3744.96843,1655.5782
3747.18067,1641.52177
3747.18067,1655.5782
3749.39291,1647.76907
3751.60514,1648.54998
3753.81738,1649.33089
3756.02961,1647.76907
3758.24185,1645.42633
3760.45408,1643.8645
3762.66632,1640.74085
3764.87856,1639.17903
3767.09079,1639.17903
3769.30303,1638.39811
3771.51526,1637.6172
3773.7275,1636.83629
3775.93973,1636.05538
3778.15197,1635.27446
3780.3642,1632.93172
3782.57644,1631.3699
3784.78868,1628.24625
3787.00091,1625.90351
3789.21315,1624.34168
3791.42538,1624.34168
3793.63762,1619.65621
3793.63762,1635.27446
3795.84985,1616.53256
3795.84985,1634.49355
3798.06209,1633.71264
3798.06209,1615.75164
3800.27433,1632.15081
3800.27433,1616.53256
3802.48656,1623.56077
3804.6988,1623.56077
3806.91103,1624.34168
3809.12327,1624.34168
3811.3355,1624.34168
3813.54774,1621.99895
3815.75998,1621.21803
3817.97221,1620.43712
3820.18445,1618.09438
3822.39668,1615.75164
3824.60892,1610.28525
3824.60892,1617.31347
3826.82115,1616.53256
3826.82115,1610.28525
3829.03339,1610.28525
3829.03339,1616.53256
3831.24562,1609.50434
3831.24562,1616.53256
3833.45786,1609.50434
3833.45786,1615.75164
3835.6701,1612.62799
3837.88233,1612.62799
3840.09457,1611.84708
3842.3068,1610.28525
3844.51904,1607.94252
3846.73127,1606.38069
3848.94351,1604.81886
3851.15575,1603.25704
3853.36798,1601.69521
3855.58022,1599.35247
3857.79245,1598.57156
3860.00469,1597.79065
3862.21692,1596.22882
3864.42916,1602.47613
3864.42916,1592.32426
3866.64139,1595.44791
3868.85363,1595.44791
3871.06587,1595.44791
3873.2781,1595.44791
3875.49034,1597.79065
3877.70257,1600.13339
3879.91481,1600.9143
3882.12704,1601.69521
3884.33928,1603.25704
3886.55152,1604.81886
3888.76375,1605.59978
3890.97599,1606.38069
3893.18822,1604.81886
3895.40046,1604.81886
3897.61269,1604.03795
3899.82493,1603.25704
3902.03717,1604.81886
3904.2494,1607.1616
3906.46164,1611.06617
3908.67387,1614.97073
3910.88611,1618.87529
3913.09834,1621.21803
3915.31058,1622.77986
3917.52281,1622.77986
3919.73505,1612.62799
3919.73505,1632.93172
3921.94729,1609.50434
3921.94729,1633.71264
3924.15952,1632.15081
3924.15952,1604.81886
3926.37176,1600.13339
3926.37176,1629.80807
3928.58399,1597.00974
3928.58399,1628.24625
3930.79623,1626.68442
3930.79623,1595.44791
3933.00846,1623.56077
3933.00846,1592.32426
3935.2207,1621.21803
3935.2207,1591.54335
3937.43294,1593.10517
3937.43294,1618.09438
3939.64517,1597.00974
3939.64517,1617.31347
3941.85741,1604.03795
3944.06964,1604.81886
3946.28188,1606.38069
3948.49411,1607.94252
3950.70635,1607.94252
3952.91858,1607.1616
3955.13082,1604.81886
3957.34306,1602.47613
3959.55529,1600.9143
3961.76753,1602.47613
3963.97976,1604.03795
3966.192,1604.81886
3968.40423,1606.38069
3970.61647,1607.94252
3972.82871,1610.28525
3975.04094,1606.38069
3975.04094,1618.87529
3977.25318,1607.1616
3977.25318,1620.43712
3979.46541,1606.38069
3979.46541,1620.43712
3981.67765,1611.84708
3983.88988,1609.50434
3986.10212,1607.1616
3988.31436,1603.25704
3990.52659,1600.9143
3992.73883,1600.13339
