Wavenumber (cm⁻¹),Intensity
200.0,1919.547081518357
201.00097751710655,1902.5022926737304
202.0019550342131,1888.8961958479147
203.00293255131965,1903.681049884395
204.0039100684262,1970.4728410912353
205.00488758553274,2004.586410987649
206.0058651026393,2069.060026493328
207.00684261974584,2154.7615400550917
208.0078201368524,2231.206902663344
209.00879765395894,2324.574712925671
210.00977517106548,2385.235235907867
211.01075268817203,2403.646794119812
212.01173020527858,2380.069499238729
213.01270772238513,2314.811740064597
214.01368523949168,2202.768887551876
215.01466275659823,2041.6044611076582
216.01564027370478,1847.1518318295473
217.01661779081132,1644.9816506569616
218.01759530791787,1441.0803498629255
219.01857282502445,1296.7829163017448
220.019550342131,1191.386553230075
221.02052785923755,1097.532391562815
222.0215053763441,1027.3895614660764
223.02248289345064,977.5254466501942
224.0234604105572,944.8259973480541
225.02443792766374,924.8161489368055
226.0254154447703,908.8224246376484
227.02639296187684,876.250649572767
228.02737047898339,858.9300864023336
229.02834799608993,842.0931579333486
230.02932551319648,817.9640013008216
231.03030303030303,837.096821209607
232.03128054740958,847.7572570253795
233.03225806451613,838.8986467042708
234.03323558162268,827.3238027042814
235.03421309872923,842.2017786351089
236.03519061583577,834.4027808424287
237.03616813294232,842.3189612799814
238.03714565004887,856.4101016197552
239.03812316715542,854.7657482450619
240.03910068426197,843.317743342188
241.04007820136852,856.230548816823
242.04105571847506,857.9621083278131
243.0420332355816,849.1412111019056
244.0430107526882,878.1896697847683
245.04398826979474,881.7905434296799
246.0449657869013,892.7413348020832
247.04594330400784,915.8864981438533
248.04692082111438,938.0958771263433
249.04789833822093,942.5768970799388
250.04887585532748,946.2487090010246
251.04985337243403,946.5132314617559
252.05083088954058,950.1384410839838
253.05180840664713,977.8339795136058
254.05278592375367,996.6846460335737
255.05376344086022,1018.5912254451297
256.05474095796677,1039.524126441564
257.0557184750733,1055.1209248583154
258.05669599217987,1092.4630304348268
259.0576735092864,1107.7250757931606
260.05865102639297,1131.4778831383464
261.0596285434995,1175.0891017716774
262.06060606060606,1211.3808407472357
263.0615835777126,1249.739834162124
264.06256109481916,1263.731248515581
265.0635386119257,1261.5864344198758
266.06451612903226,1257.7309640082703
267.0654936461388,1234.8419431839975
268.06647116324535,1222.0628674881377
269.0674486803519,1201.975231959274
270.06842619745845,1179.9623061765215
271.069403714565,1186.5624463901518
272.07038123167155,1188.5146038482665
273.0713587487781,1195.437261945595
274.07233626588464,1208.5961253640853
275.0733137829912,1221.0054567821255
276.07429130009774,1217.523485801062
277.0752688172043,1245.4504726365149
278.07624633431084,1290.680755425462
279.0772238514174,1331.4884609010387
280.07820136852393,1354.9004141614869
281.0791788856305,1379.8763476359838
282.08015640273703,1403.016799740991
283.0811339198436,1446.613346644475
284.08211143695013,1509.887151934261
285.0830889540567,1549.0156824535372
286.0840664711632,1595.6858603085263
287.0850439882698,1657.2894509894093
288.0860215053764,1710.0562055701657
289.0869990224829,1736.4167947909425
290.0879765395895,1792.5141862033229
291.088954056696,1866.5146615990325
292.0899315738026,1907.9031161554672
293.0909090909091,1909.3315140578152
294.09188660801567,1922.4515094151668
295.0928641251222,1965.9668963485224
296.09384164222877,1971.4525566969041
297.0948191593353,1949.5271659826478
298.09579667644186,1941.8182172330064
299.0967741935484,1954.4935304681806
300.09775171065496,1957.3469515108125
301.0987292277615,1964.2640345723942
302.09970674486806,1979.3698839443275
303.1006842619746,1997.6709344084206
304.10166177908116,2041.599056522227
305.1026392961877,2098.1776168564847
306.10361681329425,2137.523741010483
307.1045943304008,2164.8961793860476
308.10557184750735,2220.3246214520914
309.1065493646139,2253.212308761989
310.10752688172045,2285.6004729175447
311.108504398827,2322.223959274581
312.10948191593354,2343.629206293215
313.1104594330401,2312.8983046676085
314.11143695014664,2275.475151481696
315.1124144672532,2248.5000774367077
316.11339198435974,2232.8304320899338
317.1143695014663,2222.9321218149335
318.11534701857283,2210.04652697112
319.1163245356794,2225.22434884384
320.11730205278593,2260.73827191521
321.1182795698925,2299.9484941018545
322.119257086999,2339.9219020469477
323.1202346041056,2432.9973746548753
324.1212121212121,2540.1345552706644
325.1221896383187,2657.502833401971
326.1231671554252,2795.302487110099
327.12414467253177,2935.4453424270177
328.1251221896383,3158.172127673543
329.12609970674487,3386.731116230854
330.1270772238514,3614.5985917244975
331.12805474095796,3885.7260389688845
332.1290322580645,4188.988591417917
333.13000977517106,4437.94306454634
334.1309872922776,4658.114792234323
335.13196480938416,4889.364346937059
336.1329423264907,5142.938679515716
337.13391984359725,5415.719215324856
338.1348973607038,5557.860507608757
339.13587487781035,5663.012942693695
340.1368523949169,5815.700126041919
341.13782991202345,5889.410434468242
342.13880742913,5957.232567300359
343.13978494623655,5922.285158370747
344.1407624633431,5825.505088527534
345.14173998044964,5754.212348545174
346.1427174975562,5638.832369954646
347.14369501466274,5449.168037601366
348.1446725317693,5207.407256549889
349.14565004887584,4913.662965394365
350.1466275659824,4557.586268268246
351.14760508308893,4183.6615976658495
352.1485826001955,3818.453866480734
353.14956011730203,3558.2869482858796
354.1505376344086,3374.001057274072
355.1515151515151,3119.7823852526503
356.1524926686217,2979.9059096122114
357.1534701857282,2902.9553218515125
358.1544477028348,2826.372540095948
359.1554252199413,2753.2969033882196
360.15640273704787,2746.777962233492
361.1573802541544,2742.4333876953287
362.15835777126097,2733.9401794379555
363.1593352883675,2724.64626871704
364.16031280547406,2722.0650979088514
365.1612903225806,2747.0138393118805
366.16226783968716,2763.929819524307
367.1632453567937,2769.466476913179
368.16422287390026,2765.983522025158
369.1652003910068,2757.415594896193
370.16617790811335,2765.207451259286
371.1671554252199,2769.6932010546475
372.16813294232645,2773.853879358334
373.169110459433,2804.4491415536404
374.17008797653955,2875.767254948869
375.1710654936461,2907.4329744878555
376.1720430107527,3019.4059323546385
377.17302052785925,3158.483526142048
378.1739980449658,3288.8724203712786
379.17497556207235,3441.1315781840312
380.1759530791789,3605.9773926340085
381.17693059628544,3704.6378402642567
382.177908113392,3816.981753301731
383.17888563049854,3967.7990935812945
384.1798631476051,4062.22669339662
385.18084066471164,4064.6489697064994
386.1818181818182,4082.0726699100524
387.18279569892474,4060.1869456455056
388.1837732160313,3941.824765694764
389.18475073313783,3767.4705411375326
390.1857282502444,3577.9511413180276
391.18670576735093,3343.7955614711414
392.1876832844575,3107.6768488632006
393.188660801564,2890.600428378985
394.1896383186706,2637.6004702982564
395.1906158357771,2423.2424250350587
396.1915933528837,2221.85658666822
397.1925708699902,2031.8455085962146
398.19354838709677,1863.8095532840111
399.1945259042033,1720.3209636416782
400.19550342130987,1573.150410819765
401.1964809384164,1470.6576686752198
402.19745845552296,1401.4883791154418
403.1984359726295,1332.276760602189
404.19941348973606,1263.67415587161
405.2003910068426,1197.9672166044897
406.20136852394916,1152.4224914763797
407.2023460410557,1122.477995629458
408.20332355816225,1093.5850253456942
409.20430107526886,1059.3585457217848
410.2052785923754,1036.5513903006213
411.20625610948196,1013.2253985094519
412.2072336265885,990.2318402352397
413.20821114369505,977.2995809612878
414.2091886608016,971.0901466333851
415.21016617790815,937.9481202708763
416.2111436950147,924.5082001009149
417.21212121212125,921.6429621252976
418.2130987292278,904.530366165357
419.21407624633434,905.9996204315058
420.2150537634409,876.2459879302684
421.21603128054744,860.9261953559018
422.217008797654,852.0460362392405
423.21798631476054,823.0263594876112
424.2189638318671,800.896409194885
425.21994134897363,805.1155222625723
426.2209188660802,803.4420900924725
427.22189638318673,791.4226188451348
428.2228739002933,782.1004777522699
429.2238514173998,775.1588342501964
430.2248289345064,771.2963095367631
431.2258064516129,775.0026771095543
432.2267839687195,779.2332937932631
433.227761485826,778.9655031861665
434.22873900293257,790.1504034314682
435.2297165200391,791.8576900784345
436.23069403714567,796.3004038089915
437.2316715542522,792.4729775950887
438.23264907135876,777.3839439404585
439.2336265884653,785.4993109707997
440.23460410557186,768.8845363136957
441.2355816226784,769.1635937263117
442.23655913978496,784.1476507727174
443.2375366568915,793.9743358482959
444.23851417399806,803.3103961297337
445.2394916911046,805.5509097393834
446.24046920821115,794.502874637992
447.2414467253177,801.622887284694
448.24242424242425,834.535704787137
449.2434017595308,829.8239338593519
450.24437927663735,823.0594297713063
451.2453567937439,843.830792348257
452.24633431085044,874.910664317747
453.247311827957,889.1403308212502
454.24828934506354,888.7544853386424
455.2492668621701,926.7189877723805
456.25024437927664,943.6962869296981
457.2512218963832,953.819029596424
458.25219941348973,976.7600397592417
459.2531769305963,993.3453684511577
460.25415444770283,1004.1751365072936
461.2551319648094,1016.0813771956874
462.2561094819159,1014.809349281806
463.2570869990225,1004.2360820913634
464.258064516129,1005.2645826725816
465.2590420332356,1006.0885522472859
466.2600195503421,980.1645563538523
467.26099706744867,950.4503217891427
468.2619745845552,931.5761667428651
469.26295210166177,922.6546806628422
470.2639296187683,933.0262753002047
471.26490713587486,920.8374570213247
472.2658846529814,897.591594276944
473.26686217008796,884.5595777284863
474.2678396871945,888.1394588860888
475.26881720430106,881.6156355690539
476.2697947214076,904.2183548654743
477.27077223851416,922.2177501369356
478.2717497556207,928.7915514496322
479.27272727272725,933.9207202277913
480.2737047898338,930.5357212111885
481.27468230694035,940.9627288625807
482.2756598240469,973.6824945568034
483.27663734115345,1001.4376936486929
484.27761485826,1018.0064694054572
485.27859237536654,1062.3194465215402
486.2795698924731,1098.4569945823923
487.28054740957964,1127.89920559044
488.2815249266862,1180.9531044726702
489.2825024437928,1254.1265052694894
490.28347996089934,1299.6267606151662
491.2844574780059,1349.0207206302357
492.28543499511244,1420.4030959740976
493.286412512219,1493.941099299601
494.28739002932554,1555.5756887815487
495.2883675464321,1605.9886575492565
496.28934506353863,1639.7427810767203
497.2903225806452,1663.3253587798015
498.29130009775173,1649.5935187318917
499.2922776148583,1627.196974933712
500.2932551319648,1618.7187467934723
501.2942326490714,1564.7982216640166
502.2952101661779,1470.342861396144
503.2961876832845,1396.0135236653603
504.297165200391,1336.0387712074667
505.29814271749757,1278.577412338451
506.2991202346041,1240.5569115515268
507.30009775171067,1202.3173741952103
508.3010752688172,1203.1625512375297
509.30205278592376,1206.575774355319
510.3030303030303,1196.9378582087204
511.30400782013686,1198.0648138812296
512.3049853372434,1197.5879546668077
513.3059628543499,1204.101497322219
514.3069403714564,1234.100259890997
515.307917888563,1285.3324004936837
516.3088954056695,1337.148293138137
517.3098729227761,1362.480987740989
518.3108504398826,1420.3533736055758
519.3118279569892,1478.218655780153
520.3128054740957,1544.777710636886
521.3137829912023,1634.019002817579
522.3147605083088,1734.6190051359624
523.3157380254154,1848.547447462554
524.3167155425219,1972.902581246142
525.3176930596285,2116.186110620417
526.318670576735,2272.9413931033655
527.3196480938416,2429.504435623464
528.3206256109481,2603.8190184264176
529.3216031280547,2824.720327889062
530.3225806451612,3063.298501575752
531.3235581622678,3312.48848631464
532.3245356793743,3577.701050834115
533.3255131964809,3851.181951547492
534.3264907135874,4195.100659723245
535.327468230694,4535.006449828739
536.3284457478005,4868.923133349853
537.3294232649071,5189.738871945844
538.3304007820136,5460.400999734971
539.3313782991202,5707.734295306262
540.3323558162267,5912.618418625435
541.3333333333333,6097.978657470773
542.3343108504398,6209.633105395442
543.3352883675464,6173.355868395839
544.3362658846529,6027.624877996311
545.3372434017595,5834.172541010422
546.338220918866,5590.713543773208
547.3391984359725,5285.026877594047
548.3401759530791,4979.638629620804
549.3411534701856,4780.31794425661
550.3421309872922,4528.66495104549
551.3431085043987,4402.835100356406
552.3440860215054,4264.4929305792475
553.345063538612,4140.164067782021
554.3460410557185,4129.792801748336
555.347018572825,4069.879664729881
556.3479960899316,4043.7204014491012
557.3489736070381,4055.6466536541934
558.3499511241447,4006.0332026791793
559.3509286412512,3905.3952016872668
560.3519061583578,3876.962532484044
561.3528836754643,3784.1755936550003
562.3538611925709,3593.0567206466612
563.3548387096774,3406.2302260473375
564.355816226784,3231.808269797966
565.3567937438905,3013.1203013303452
566.3577712609971,2748.2601942483807
567.3587487781036,2563.786038702051
568.3597262952102,2390.0473475394665
569.3607038123167,2231.159317507365
570.3616813294233,2095.4979667054095
571.3626588465298,1956.3862366015132
572.3636363636364,1864.9622508012542
573.3646138807429,1804.9419976621525
574.3655913978495,1715.5298844258816
575.366568914956,1620.4145917988326
576.3675464320626,1556.6836527669072
577.3685239491691,1489.3031016595505
578.3695014662757,1456.0871961670634
579.3704789833822,1384.8082023555728
580.3714565004888,1319.9438073607998
581.3724340175953,1282.272632860512
582.3734115347019,1232.1313544007432
583.3743890518084,1178.1074185573748
584.375366568915,1139.9947423728415
585.3763440860215,1101.180520003211
586.377321603128,1056.8341142948843
587.3782991202346,1012.2687425066637
588.3792766373411,971.1823008327841
589.3802541544477,955.8533921420274
590.3812316715542,929.1863194648798
591.3822091886608,893.6209118023671
592.3831867057673,875.8562509719427
593.3841642228739,872.9469866393443
594.3851417399804,813.0685997367963
595.386119257087,782.7801240972161
596.3870967741935,789.6755521388278
597.3880742913001,783.1367446769918
598.3890518084066,759.3078110536685
599.3900293255132,751.0195463506737
600.3910068426197,720.857876755997
601.3919843597263,716.3302181514241
602.3929618768328,697.7956710709677
603.3939393939394,692.3604517760065
604.3949169110459,707.4931507703035
605.3958944281525,680.4782474109985
606.396871945259,676.2608066267184
607.3978494623656,678.1145301035122
608.3988269794721,671.0013038820725
609.3998044965787,653.8124959681534
610.4007820136852,639.1258913684895
611.4017595307918,647.1968271006175
612.4027370478983,664.638754252767
613.4037145650049,642.4650983900071
614.4046920821114,629.4741813453368
615.405669599218,638.2567676409599
616.4066471163245,637.8441368946303
617.4076246334312,631.3531599623722
618.4086021505377,641.0406431211575
619.4095796676443,635.7330698988181
620.4105571847508,631.8351123171418
621.4115347018574,640.7143701600595
622.4125122189639,644.5621980553244
623.4134897360705,635.7760500126823
624.414467253177,634.2692009957862
625.4154447702836,640.123283670154
626.4164222873901,649.2200823608962
627.4173998044967,658.3438541974137
628.4183773216032,664.6483299581428
629.4193548387098,661.2296036814718
630.4203323558163,632.4290098533343
631.4213098729228,633.7563137284509
632.4222873900294,660.6674913683499
633.423264907136,675.0332782330593
634.4242424242425,663.0104361882669
635.425219941349,670.278426655743
636.4261974584556,691.5428073278114
637.4271749755621,702.004104440008
638.4281524926687,698.0212322199852
639.4291300097752,693.1490157348217
640.4301075268818,696.4836154891351
641.4310850439883,705.8640467349902
642.4320625610949,729.1329262269753
643.4330400782014,719.3688269286173
644.434017595308,711.7931890942697
645.4349951124145,745.062103576614
646.4359726295211,745.2459171109697
647.4369501466276,749.3407270934049
648.4379276637342,764.8826194836888
649.4389051808407,778.4558542164934
650.4398826979473,792.6602230993325
651.4408602150538,812.5343624048388
652.4418377321604,822.1948023526517
653.4428152492669,849.1488218081827
654.4437927663735,837.1336336474266
655.44477028348,845.4715249425846
656.4457478005866,878.5083244179158
657.4467253176931,899.6079873000045
658.4477028347997,933.5320681143298
659.4486803519062,959.9459948715962
660.4496578690128,1019.0729824896525
661.4506353861193,1052.1316574758566
662.4516129032259,1089.2991883092136
663.4525904203324,1186.0139149276279
664.453567937439,1255.2128980531388
665.4545454545455,1346.53022781015
666.455522971652,1435.293208928722
667.4565004887586,1511.7499241916335
668.4574780058651,1601.9010905575747
669.4584555229717,1720.7811105760238
670.4594330400782,1802.0904050381996
671.4604105571848,1879.2192559809594
672.4613880742913,1930.1077746272586
673.4623655913979,1946.5303666262967
674.4633431085044,1954.1415446718427
675.464320625611,1960.1629789072447
676.4652981427175,1910.7647349055078
677.4662756598241,1848.4480509979307
678.4672531769306,1781.1835512898422
679.4682306940372,1656.7474945145716
680.4692082111437,1513.2562735537629
681.4701857282503,1410.6221180253067
682.4711632453568,1315.7499706203505
683.4721407624634,1190.8763010418115
684.4731182795699,1096.4924618191462
685.4740957966765,1020.5650380247862
686.475073313783,958.6699498241123
687.4760508308896,915.625585074807
688.4770283479961,880.2253792970546
689.4780058651027,847.580338143604
690.4789833822092,816.2251707615717
691.4799608993158,785.7590953840131
692.4809384164223,753.7684939438353
693.4819159335289,733.3886124666577
694.4828934506354,743.3306659165684
695.483870967742,734.1724847314508
696.4848484848485,716.0502167191522
697.485826001955,700.9109185658516
698.4868035190616,693.9516467953315
699.4877810361681,694.617414157635
700.4887585532747,695.6791604974026
701.4897360703812,686.8280314835935
702.4907135874878,678.9647801059351
703.4916911045943,660.9717105317225
704.4926686217009,654.6820862466935
705.4936461388074,663.6853428279019
706.494623655914,669.3737042729784
707.4956011730205,671.0973611386157
708.4965786901271,642.987828907194
709.4975562072336,650.9104044825872
710.4985337243402,661.3583307120426
711.4995112414467,655.039414162785
712.5004887585533,657.3636965300873
713.5014662756598,685.2897822118041
714.5024437927664,661.4533956741883
715.5034213098729,659.2915850354722
716.5043988269795,666.3980080698386
717.505376344086,666.4260850254153
718.5063538611926,660.6964951482424
719.5073313782991,652.0650294740567
720.5083088954057,640.159427007798
721.5092864125122,661.0896191878443
722.5102639296188,664.8909287742226
723.5112414467253,661.1624847748975
724.5122189638319,663.2148641363349
725.5131964809384,663.5157934079946
726.514173998045,670.7178604576693
727.5151515151515,656.2180358362726
728.516129032258,649.2794059397395
729.5171065493646,655.9567753861924
730.5180840664711,665.7197094934529
731.5190615835777,673.5362016657327
732.5200391006842,682.5532493427403
733.5210166177908,674.4743113208485
734.5219941348973,675.7363929602952
735.5229716520039,681.6924012193315
736.5239491691104,688.342968103562
737.524926686217,693.195504341344
738.5259042033235,694.4693729503518
739.5268817204301,706.8960668091878
740.5278592375366,706.8020455032695
741.5288367546432,704.561418070157
742.5298142717497,720.6940134291091
743.5307917888563,745.2952052093686
744.5317693059628,754.1679464629634
745.5327468230694,755.3177505680284
746.5337243401759,766.7593354440279
747.5347018572825,787.7715979246306
