Wavenumber (cm⁻¹),Intensity
200.0,16024.922238372095
201.00097751710655,16821.485015429993
202.0019550342131,17722.614292478505
203.00293255131965,18710.887361044795
204.0039100684262,19756.967062788433
205.00488758553274,20495.92692065062
206.0058651026393,21054.32540655825
207.00684261974584,21432.0
208.0078201368524,21432.0
209.00879765395894,20564.49561183685
210.00977517106548,19379.278329334407
211.01075268817203,18221.056344086028
212.01173020527858,16673.562975206623
213.01270772238513,15142.042682067906
214.01368523949168,13769.870200657606
215.01466275659823,12875.906279925357
216.01564027370478,12038.744286078138
217.01661779081132,11407.908686100338
218.01759530791787,11003.896182560931
219.01857282502445,10731.432142242254
220.019550342131,10506.157758303376
221.02052785923755,10310.46494501199
222.0215053763441,10136.9524547925
223.02248289345064,9967.790217566971
224.0234604105572,9900.821396304515
225.02443792766374,9869.347321866551
226.0254154447703,9759.261666307126
227.02639296187684,9708.140535895967
228.02737047898339,9660.659647481558
229.02834799608993,9616.600647213221
230.02932551319648,9620.978099911938
231.03030303030303,9575.54766483213
232.03128054740958,9579.828394449527
233.03225806451613,9678.92746053034
234.03323558162268,9638.041435032188
235.03421309872923,9624.0
236.03519061583577,9659.82027374757
237.03616813294232,9784.668673036569
238.03714565004887,9693.876737303151
239.03812316715542,9702.413125842839
240.03910068426197,9841.992758815652
241.04007820136852,10132.57558289181
242.04105571847506,10231.163552882248
243.0420332355816,10446.240402088699
244.0430107526882,10868.66831488895
245.04398826979474,11316.55095575487
246.0449657869013,11784.232087123984
247.04594330400784,12204.77215146521
248.04692082111438,12516.025014448704
249.04789833822093,12810.512148988175
250.04887585532748,12942.239615755747
251.04985337243403,12980.845895638446
252.05083088954058,13068.280440907341
253.05180840664713,12758.115006888347
254.05278592375367,12332.33657457426
255.05376344086022,11853.985498019234
256.05474095796677,11386.423631476042
257.0557184750733,11126.23445190444
258.05669599217987,10932.56359474586
259.0576735092864,10747.610584929933
260.05865102639297,10676.58291912208
261.0596285434995,10720.009590679907
262.06060606060606,10819.662920352022
263.0615835777126,10917.783613323694
264.06256109481916,11004.244804750431
265.0635386119257,11167.357731187087
266.06451612903226,11366.433382137628
267.0654936461388,11480.014286348109
268.06647116324535,11648.485332234166
269.0674486803519,11815.050347140226
270.06842619745845,11959.483442006022
271.069403714565,12035.015078827979
272.07038123167155,12254.785893698228
273.0713587487781,12528.127296359547
274.07233626588464,12811.842284351402
275.0733137829912,13197.849743294257
276.07429130009774,13629.968636381534
277.0752688172043,14297.361644806784
278.07624633431084,15472.135258290065
279.0772238514174,16808.148251505674
280.07820136852393,18470.74922816278
281.0791788856305,20617.052433070796
282.08015640273703,23710.31531058568
283.0811339198436,27421.76998391817
284.08211143695013,31738.66653255382
285.0830889540567,36437.912454485864
286.0840664711632,40043.047180440415
287.0850439882698,43221.60836347279
288.0860215053764,45916.54541294906
289.0869990224829,47969.48606697458
290.0879765395895,46835.58343571082
291.088954056696,44410.05725867449
292.0899315738026,40901.01767138478
293.0909090909091,36389.269523427916
294.09188660801567,31443.511402212986
295.0928641251222,27146.13218818021
296.09384164222877,23499.712506620774
297.0948191593353,20471.7922639784
298.09579667644186,18411.905550731393
299.0967741935484,16816.110829323767
300.09775171065496,15566.03920411
301.0987292277615,14537.11374751039
302.09970674486806,13904.025409694657
303.1006842619746,13380.186832894842
304.10166177908116,12883.437388591796
305.1026392961877,12655.273395721922
306.10361681329425,12494.367455867978
307.1045943304008,12354.098283986343
308.10557184750735,12202.368064321918
309.1065493646139,11945.020384106721
310.10752688172045,11857.647036483182
311.108504398827,11818.429015642429
312.10948191593354,11656.387033476538
313.1104594330401,11640.598751166151
314.11143695014664,11649.427778905498
315.1124144672532,11667.081890614469
316.11339198435974,11681.812979902277
317.1143695014663,11756.181511538014
318.11534701857283,11919.006751922283
319.1163245356794,12206.533296766418
320.11730205278593,12774.834965167853
321.1182795698925,13493.348000412048
322.119257086999,14420.603701752212
323.1202346041056,15570.397858826953
324.1212121212121,16689.397780308605
325.1221896383187,17726.82114030216
326.1231671554252,18512.51985743822
327.12414467253177,18905.103068625744
328.1251221896383,19256.219721641737
329.12609970674487,18759.143422520963
330.1270772238514,17718.976143103897
331.12805474095796,16482.517926914017
332.1290322580645,15273.759777333711
333.13000977517106,14253.315818764288
334.1309872922776,13406.596466510116
335.13196480938416,12696.678094599134
336.1329423264907,12362.348277441726
337.13391984359725,12059.676035681183
338.1348973607038,11774.272218675265
339.13587487781035,11674.543831362069
340.1368523949169,11604.282431023725
341.13782991202345,11581.231452804117
342.13880742913,11605.70712894418
343.13978494623655,11630.842458029574
344.1407624633431,11640.349021255583
345.14173998044964,11648.025326417797
346.1427174975562,11662.066879300117
347.14369501466274,11705.793986579187
348.1446725317693,11662.197355140708
349.14565004887584,11596.711076553884
350.1466275659824,11561.225906080388
351.14760508308893,11444.030911086435
352.1485826001955,11371.557068431255
353.14956011730203,11311.69058113103
354.1505376344086,11221.36568683591
355.1515151515151,11238.267911935318
356.1524926686217,11220.53103689115
357.1534701857282,11174.946153412346
358.1544477028348,11132.745178208888
359.1554252199413,11075.391548782158
360.15640273704787,11044.355121071028
361.1573802541544,11039.013677345607
362.15835777126097,11039.862139057592
363.1593352883675,11028.830469881113
364.16031280547406,11050.213628760723
365.1612903225806,11100.41240658055
366.16226783968716,11103.376070583825
367.1632453567937,11170.731830129247
368.16422287390026,11160.477610513744
369.1652003910068,11053.473826436404
370.16617790811335,11178.039917454107
371.1671554252199,11152.12124470512
372.16813294232645,11114.665965231114
373.169110459433,11133.879144393557
374.17008797653955,11046.321437189277
375.1710654936461,11064.596764780417
376.1720430107527,11136.468866660285
377.17302052785925,11222.603609929369
378.1739980449658,11123.915685707594
379.17497556207235,11202.09523685211
380.1759530791789,11261.639672267276
381.17693059628544,11073.167997437726
382.177908113392,11169.576911307004
383.17888563049854,11335.823145602153
384.1798631476051,11438.755881781346
385.18084066471164,11270.936209032023
386.1818181818182,11314.238374839711
387.18279569892474,11305.255047057979
388.1837732160313,11309.759538774484
389.18475073313783,11528.9788168342
390.1857282502444,11438.139441690415
391.18670576735093,11522.214985497012
392.1876832844575,11765.183041711023
393.188660801564,11909.347583892666
394.1896383186706,11984.717873021544
395.1906158357771,12115.169822173224
396.1915933528837,12304.835254572345
397.1925708699902,12459.633264652766
398.19354838709677,12607.048650721375
399.1945259042033,12634.112506768124
400.19550342130987,12537.414004295262
401.1964809384164,12501.691386584394
402.19745845552296,12482.904304345771
403.1984359726295,12459.234429548946
404.19941348973606,12422.1125446391
405.2003910068426,12372.401545209623
406.20136852394916,12375.264159946235
407.2023460410557,12329.320643066616
408.20332355816225,12191.056675627244
409.20430107526886,12076.361335125444
410.2052785923754,11982.182191574426
411.20625610948196,11932.726435582787
412.2072336265885,11942.15723613771
413.20821114369505,11945.883883632521
414.2091886608016,11856.675622994282
415.21016617790815,11812.539440848564
416.2111436950147,11919.242903902721
417.21212121212125,11987.813217807263
418.2130987292278,11896.982030292826
419.21407624633434,11798.77189907828
420.2150537634409,11836.812028267872
421.21603128054744,11812.507427527522
422.217008797654,11873.796019422145
423.21798631476054,11946.550444650007
424.2189638318671,11945.117277735135
425.21994134897363,11977.737990600966
426.2209188660802,12025.51000369576
427.22189638318673,12031.574011749157
428.2228739002933,11918.114964321714
429.2238514173998,12007.80107271751
430.2248289345064,11989.472418698295
431.2258064516129,11925.272291766973
432.2267839687195,11933.489271385011
433.227761485826,11987.943757021345
434.22873900293257,12012.204848802907
435.2297165200391,12013.362796752308
436.23069403714567,12012.098875887425
437.2316715542522,12121.562940348094
438.23264907135876,12183.225671395105
439.2336265884653,12219.076398911662
440.23460410557186,12300.560005606669
441.2355816226784,12214.936010226334
442.23655913978496,12217.56199270296
443.2375366568915,12284.72926791342
444.23851417399806,12304.913280580991
445.2394916911046,12417.67722648151
446.24046920821115,12518.915210253848
447.2414467253177,12600.54541945135
448.24242424242425,12674.664173522811
449.2434017595308,12861.609920264415
450.24437927663735,12953.64960142599
451.2453567937439,13001.100899213385
452.24633431085044,13210.72969860742
453.247311827957,13339.372443522248
454.24828934506354,13544.440266539743
455.2492668621701,13729.145674925809
456.25024437927664,13556.821701172437
457.2512218963832,13671.106403029715
458.25219941348973,13748.650293255132
459.2531769305963,13745.843625798256
460.25415444770283,13691.149494998273
461.2551319648094,13790.16131007779
462.2561094819159,13929.170369882222
463.2570869990225,14096.284327874615
464.258064516129,14316.72432040594
465.2590420332356,14651.602813199039
466.2600195503421,15007.207000047594
467.26099706744867,15446.171681754438
468.2619745845552,16207.785009987681
469.26295210166177,17011.16349797356
470.2639296187683,18187.89319269979
471.26490713587486,19855.339569218242
472.2658846529814,22198.707474708302
473.26686217008796,25030.503074448905
474.2678396871945,27807.426213579394
475.26881720430106,30286.106728294944
476.2697947214076,32035.001429976193
477.27077223851416,33660.804473112374
478.2717497556207,34210.55503685306
479.27272727272725,33494.40653345162
480.2737047898338,31391.077182052144
481.27468230694035,28322.362344749472
482.2756598240469,25472.438573719726
483.27663734115345,23053.93404107927
484.27761485826,21136.896769203282
485.27859237536654,19645.929186927624
486.2795698924731,18580.496674093483
487.28054740957964,17879.44291578971
488.2815249266862,17411.267996001887
489.2825024437928,17209.95713760077
490.28347996089934,17121.606071622406
491.2844574780059,17140.41261283493
492.28543499511244,17305.111392884766
493.286412512219,17743.285842171426
494.28739002932554,18347.496504513416
495.2883675464321,19161.526974327335
496.28934506353863,20310.016967639072
497.2903225806452,21963.379238418696
498.29130009775173,24236.34157051484
499.2922776148583,27260.241618709642
500.2932551319648,31276.193521927973
501.2942326490714,36548.458359168915
502.2952101661779,42305.26198414665
503.2961876832845,48372.40519959683
504.297165200391,54578.616441852595
505.29814271749757,58228.07002523604
506.2991202346041,60503.130649684805
507.30009775171067,60592.32638618988
508.3010752688172,57226.08723604084
509.30205278592376,51084.66874315439
510.3030303030303,44337.91961025915
511.30400782013686,37818.283185527886
512.3049853372434,32427.476557255468
513.3059628543499,28836.270224180727
514.3069403714564,25678.538077127378
515.307917888563,23130.452017316875
516.3088954056695,21381.202024130762
517.3098729227761,20053.60561862396
518.3108504398826,19101.688919729422
519.3118279569892,18353.73324251124
520.3128054740957,17657.67401167277
521.3137829912023,16915.426930412148
522.3147605083088,16610.464009530428
523.3157380254154,16359.660808935978
524.3167155425219,15922.856340397286
525.3176930596285,15798.961764695036
526.318670576735,15538.28536422465
527.3196480938416,15278.944580313182
528.3206256109481,15110.938693078071
529.3216031280547,15133.602334974823
530.3225806451612,15000.29665246501
531.3235581622678,14878.788237604584
532.3245356793743,14823.43261956141
533.3255131964809,14679.896220881987
534.3264907135874,14612.290849731111
535.327468230694,14553.66917395375
536.3284457478005,14485.81044289499
537.3294232649071,14436.668797417704
538.3304007820136,14378.884905791145
539.3313782991202,14331.65827524089
540.3323558162267,14294.177633519688
541.3333333333333,14245.008015105745
542.3343108504398,14173.123896414223
543.3352883675464,14150.981261544239
544.3362658846529,14127.369870159435
545.3372434017595,13929.14151832125
546.338220918866,14059.517008945531
547.3391984359725,14126.363404184838
548.3401759530791,14098.970896313685
549.3411534701856,14019.468143442136
550.3421309872922,14180.401598336584
551.3431085043987,14265.266147346827
552.3440860215054,14248.871154815932
553.345063538612,14131.509948196026
554.3460410557185,14106.682671751827
555.347018572825,14048.239278576097
556.3479960899316,13991.486416955478
557.3489736070381,13980.320396216328
558.3499511241447,14174.302413157486
559.3509286412512,14185.704973488548
560.3519061583578,14142.56652448236
561.3528836754643,14136.141655558515
562.3538611925709,13992.819874700082
563.3548387096774,14146.46642228739
564.355816226784,14247.950747663477
565.3567937438905,14152.10538212471
566.3577712609971,14273.527977073185
567.3587487781036,14340.35399310921
568.3597262952102,14359.89635724804
569.3607038123167,14365.353902694429
570.3616813294233,14504.23099566676
571.3626588465298,14621.792995548516
572.3636363636364,14692.15755737818
573.3646138807429,14742.578526960342
574.3655913978495,14879.28258847716
575.366568914956,15312.936652883463
576.3675464320626,15545.328639322888
577.3685239491691,15600.184775968959
578.3695014662757,15690.629973034775
579.3704789833822,15601.692972111841
580.3714565004888,15424.123671871936
581.3724340175953,15251.535123764363
582.3734115347019,15202.855366093525
583.3743890518084,14794.307955742288
584.375366568915,14734.603205305335
585.3763440860215,14783.711391971
586.377321603128,14701.133999322574
587.3782991202346,14484.356953444641
588.3792766373411,14503.093411237358
589.3802541544477,14557.452400265029
590.3812316715542,14525.350369635273
591.3822091886608,14432.48401443603
592.3831867057673,14446.411276756278
593.3841642228739,14401.936478485331
594.3851417399804,14284.016251314817
595.386119257087,14323.59863221941
596.3870967741935,14435.924003434313
597.3880742913001,14488.008001654489
598.3890518084066,14452.277309105195
599.3900293255132,14340.295806049893
600.3910068426197,14375.575696573931
601.3919843597263,14451.052593247246
602.3929618768328,14482.320273466557
603.3939393939394,14351.956864917265
604.3949169110459,14464.982970074883
605.3958944281525,14535.718269593708
606.396871945259,14627.56006891012
607.3978494623656,14806.019105880807
608.3988269794721,14613.142249957
609.3998044965787,14547.103589991179
610.4007820136852,14612.478084841336
611.4017595307918,14770.172580198125
612.4027370478983,14664.123895077844
613.4037145650049,14726.90769615907
614.4046920821114,14764.866801373293
615.405669599218,14746.022160282999
616.4066471163245,14852.070845403281
617.4076246334312,14865.40465405513
618.4086021505377,14960.904275649396
619.4095796676443,15107.44227616089
620.4105571847508,15144.091338572112
621.4115347018574,15170.196525676043
622.4125122189639,15132.852874721104
623.4134897360705,15199.303169841762
624.414467253177,15597.401861759692
625.4154447702836,15614.423244759837
626.4164222873901,15825.14990933717
627.4173998044967,15958.694990038275
628.4183773216032,15852.927467334608
629.4193548387098,16282.68252051558
630.4203323558163,16384.83918724303
631.4213098729228,16446.404191748687
632.4222873900294,16602.655356890846
633.423264907136,16865.708272005177
634.4242424242425,16732.54517653598
635.425219941349,16543.246885424378
636.4261974584556,16379.376204333954
637.4271749755621,16236.270091414286
638.4281524926687,16399.614125122196
639.4291300097752,16364.811305568253
640.4301075268818,16312.586268126675
641.4310850439883,16560.534827409952
642.4320625610949,16619.099993941938
643.4330400782014,16877.399598821605
644.434017595308,17084.501522368835
645.4349951124145,17060.406502021968
646.4359726295211,17013.689112164662
647.4369501466276,16952.79666223156
648.4379276637342,16835.945357841607
649.4389051808407,16649.560171192727
650.4398826979473,16410.429248269862
651.4408602150538,16087.974246241472
652.4418377321604,15866.858297443629
653.4428152492669,15775.34666978035
654.4437927663735,15792.974910893256
655.44477028348,15648.791703463998
656.4457478005866,15615.987095426926
657.4467253176931,15563.792992588096
658.4477028347997,15343.731146813476
659.4486803519062,15402.070327258338
660.4496578690128,15561.858797092173
661.4506353861193,15545.725621293079
662.4516129032259,15280.915115560501
663.4525904203324,15330.005200690632
664.453567937439,15356.555139760958
665.4545454545455,15355.951477969882
666.455522971652,15342.423490367742
667.4565004887586,15358.624269230568
668.4574780058651,15422.168378818616
669.4584555229717,15386.063318801858
670.4594330400782,15333.69023435654
671.4604105571848,15397.842952086656
672.4613880742913,15351.750357285126
673.4623655913979,15319.119204532315
674.4633431085044,15354.438449056208
675.464320625611,15466.262126993135
676.4652981427175,15428.590930112781
677.4662756598241,15511.85468329797
678.4672531769306,15538.385365472774
679.4682306940372,15490.21279442913
680.4692082111437,15496.367921359839
681.4701857282503,15443.881489189502
682.4711632453568,15469.113349156942
683.4721407624634,15529.283941294876
684.4731182795699,15536.977849958263
685.4740957966765,15635.965686219262
686.475073313783,15568.26973607038
687.4760508308896,15482.159642593899
688.4770283479961,15478.761756523047
689.4780058651027,15486.461583577713
690.4789833822092,15587.198711181298
691.4799608993158,15616.179479660123
692.4809384164223,15590.402303599205
693.4819159335289,15720.629555632315
694.4828934506354,15706.591812231745
695.483870967742,15745.043481784996
696.4848484848485,15754.448270231183
697.485826001955,15603.066765396647
698.4868035190616,15701.70042374125
699.4877810361681,15648.613564443078
700.4887585532747,15602.533138883435
701.4897360703812,15665.301472149804
702.4907135874878,15828.01815636358
703.4916911045943,15781.576085172012
704.4926686217009,15710.461119972526
705.4936461388074,15677.580403985135
706.494623655914,15710.766243025675
707.4956011730205,15912.954642603778
708.4965786901271,15939.465102187092
709.4975562072336,15856.329335838553
710.4985337243402,15787.215082403125
711.4995112414467,16106.725253630653
712.5004887585533,15979.386987406926
713.5014662756598,15968.509619537066
714.5024437927664,16204.915565451414
715.5034213098729,16052.76080397765
716.5043988269795,16104.03323558162
717.505376344086,16033.241935483873
718.5063538611926,15909.92323207162
719.5073313782991,15957.073524383199
720.5083088954057,16251.786922389969
721.5092864125122,16234.180360586817
722.5102639296188,16164.381931407734
723.5112414467253,16233.213793936375
724.5122189638319,16245.58108372302
725.5131964809384,16191.37489971762
726.514173998045,16213.952166577974
727.5151515151515,16334.885977237594
728.516129032258,16490.370120157546
729.5171065493646,16190.673609757649
730.5180840664711,16243.61773415463
731.5190615835777,16446.67314186699
732.5200391006842,16493.282827275598
733.5210166177908,16374.155672998619
734.5219941348973,16376.572840900586
735.5229716520039,16434.88334508924
736.5239491691104,16499.79790797731
737.524926686217,16504.442815249266
738.5259042033235,16498.863670410286
739.5268817204301,16508.31771573984
740.5278592375366,16537.524095947992
741.5288367546432,16585.841251827173
