Wavenumber (cm⁻¹),Intensity
200.0,967.2595812487039
201.00097751710655,926.6265520276944
202.0019550342131,901.6338764862425
203.00293255131965,884.8850904674746
204.0039100684262,888.1680610297526
205.00488758553274,899.9109282621666
206.0058651026393,935.3738785297829
207.00684261974584,1001.8031291405331
208.0078201368524,1098.9308476611952
209.00879765395894,1242.5508501910906
210.00977517106548,1427.2038802254604
211.01075268817203,1638.4125582255162
212.01173020527858,1848.3797359791363
213.01270772238513,2004.4033809301632
214.01368523949168,1940.052021669784
215.01466275659823,1664.4948632230341
216.01564027370478,1302.6987632559444
217.01661779081132,1005.6623969380371
218.01759530791787,810.0560983749658
219.01857282502445,691.0035407388597
220.019550342131,616.352475550879
221.02052785923755,565.2440259438633
222.0215053763441,531.8383054796109
223.02248289345064,508.96234849768297
224.0234604105572,490.2156347213831
225.02443792766374,474.39831418468356
226.0254154447703,464.4725724382351
227.02639296187684,460.3811555613546
228.02737047898339,453.6365037674453
229.02834799608993,446.0556676230559
230.02932551319648,441.6991959856712
231.03030303030303,439.248805044848
232.03128054740958,434.788718432919
233.03225806451613,431.87154556811265
234.03323558162268,430.986945759234
235.03421309872923,429.58678024815265
236.03519061583577,433.3843766329007
237.03616813294232,435.40991362947113
238.03714565004887,435.3994192939492
239.03812316715542,435.4784385921564
240.03910068426197,436.59931548507103
241.04007820136852,440.5830005760477
242.04105571847506,443.9171420830543
243.0420332355816,445.0833718087877
244.0430107526882,445.1323897141315
245.04398826979474,446.5436626346976
246.0449657869013,451.55082374555695
247.04594330400784,457.7308573979554
248.04692082111438,463.0923722621157
249.04789833822093,468.94663328057476
250.04887585532748,479.2864553907302
251.04985337243403,486.3117817851519
252.05083088954058,490.1046319207086
253.05180840664713,497.2308514105262
254.05278592375367,508.4864147001056
255.05376344086022,518.7351493457165
256.05474095796677,529.1571641924395
257.0557184750733,543.2751725787294
258.05669599217987,564.08908837077
259.0576735092864,585.3919425159919
260.05865102639297,611.3563778214108
261.0596285434995,640.6370521594082
262.06060606060606,670.3769532091287
263.0615835777126,702.71208904824
264.06256109481916,732.3718130498025
265.0635386119257,752.9247184141836
266.06451612903226,761.527410699616
267.0654936461388,762.135286302027
268.06647116324535,772.8443616580522
269.0674486803519,798.124894509768
270.06842619745845,837.5154991702565
271.069403714565,886.4366337204473
272.07038123167155,934.0194167555578
273.0713587487781,985.1071265513403
274.07233626588464,1037.922071795905
275.0733137829912,1080.30428162651
276.07429130009774,1094.3161048179772
277.0752688172043,1079.9476103115176
278.07624633431084,1041.0015612560164
279.0772238514174,976.8302382577428
280.07820136852393,897.8480204305563
281.0791788856305,827.3309307826049
282.08015640273703,768.3804780105299
283.0811339198436,721.6277206172381
284.08211143695013,685.6372075788906
285.0830889540567,659.1076470636879
286.0840664711632,642.9333265628011
287.0850439882698,638.9040043860529
288.0860215053764,639.8129786875521
289.0869990224829,643.7594034397375
290.0879765395895,653.6526654568454
291.088954056696,665.3011271744286
292.0899315738026,677.3324779057622
293.0909090909091,688.298192804209
294.09188660801567,693.1280432132108
295.0928641251222,685.3885535060061
296.09384164222877,671.3288082370565
297.0948191593353,655.3604130538781
298.09579667644186,639.9257324076311
299.0967741935484,626.8881619514086
300.09775171065496,618.5596391895347
301.0987292277615,617.7120620586498
302.09970674486806,620.9936567736097
303.1006842619746,628.1304697878074
304.10166177908116,640.848064286562
305.1026392961877,655.6553858963813
306.10361681329425,678.3545558094349
307.1045943304008,701.4094403318173
308.10557184750735,722.0704788403748
309.1065493646139,744.6344620211395
310.10752688172045,755.1308100028326
311.108504398827,758.8565012857971
312.10948191593354,754.6309705082152
313.1104594330401,741.1451048475603
314.11143695014664,722.4319643429498
315.1124144672532,714.1284710716563
316.11339198435974,711.8534772535966
317.1143695014663,716.1247573493531
318.11534701857283,730.7003169153437
319.1163245356794,754.7695495101367
320.11730205278593,789.4492796778636
321.1182795698925,836.6920582821574
322.119257086999,894.8083864566546
323.1202346041056,961.670795171054
324.1212121212121,1050.430449354602
325.1221896383187,1146.9282450901637
326.1231671554252,1252.9955089688885
327.12414467253177,1373.8285477248721
328.1251221896383,1513.132752636871
329.12609970674487,1666.702527755224
330.1270772238514,1842.3996088755523
331.12805474095796,2044.2414287232639
332.1290322580645,2279.3952124776606
333.13000977517106,2563.5863863191776
334.1309872922776,2892.9267694939176
335.13196480938416,3267.251322446813
336.1329423264907,3673.9524720963555
337.13391984359725,4092.202959187186
338.1348973607038,4489.716965097106
339.13587487781035,4780.279496893378
340.1368523949169,4893.232432249914
341.13782991202345,4780.328753386481
342.13880742913,4442.2315984266015
343.13978494623655,3987.8005421018697
344.1407624633431,3526.086308364996
345.14173998044964,3111.6753098577205
346.1427174975562,2765.564094755084
347.14369501466274,2478.8882566733723
348.1446725317693,2213.338332317301
349.14565004887584,1980.785532443703
350.1466275659824,1792.792221768647
351.14760508308893,1656.4201223001476
352.1485826001955,1576.4703529278702
353.14956011730203,1542.2763398018567
354.1505376344086,1543.7566257234807
355.1515151515151,1572.4384447481862
356.1524926686217,1623.0420296034995
357.1534701857282,1695.4964733751779
358.1544477028348,1792.9174126099288
359.1554252199413,1924.6220865409814
360.15640273704787,2094.9046004467236
361.1573802541544,2309.8206980589025
362.15835777126097,2583.6143418675824
363.1593352883675,2905.7712373685645
364.16031280547406,3275.556594186047
365.1612903225806,3656.4390980923326
366.16226783968716,3996.0637278690333
367.1632453567937,4256.518791118317
368.16422287390026,4321.381937331242
369.1652003910068,4114.695152290128
370.16617790811335,3698.3309802136587
371.1671554252199,3211.430215882877
372.16813294232645,2777.5737078969814
373.169110459433,2442.212878994704
374.17008797653955,2212.920152671511
375.1710654936461,2071.3844288698706
376.1720430107527,1994.8267818058516
377.17302052785925,1975.8791387253102
378.1739980449658,2005.8056071423227
379.17497556207235,2073.3327172570794
380.1759530791789,2175.7465047309565
381.17693059628544,2308.911727140962
382.177908113392,2448.069255091614
383.17888563049854,2576.6851360348555
384.1798631476051,2672.750479085147
385.18084066471164,2704.4652883565973
386.1818181818182,2641.718281137449
387.18279569892474,2464.772959348505
388.1837732160313,2214.6648409769646
389.18475073313783,1945.6033678025217
390.1857282502444,1691.2613744865566
391.18670576735093,1471.7398904286642
392.1876832844575,1285.5617157615047
393.188660801564,1136.6576139046663
394.1896383186706,1020.8805866668761
395.1906158357771,930.4246188530013
396.1915933528837,857.6121558042049
397.1925708699902,798.105695309336
398.19354838709677,748.5582146837419
399.1945259042033,706.3155429414089
400.19550342130987,671.8326653642441
401.1964809384164,645.4405059536082
402.19745845552296,615.0078567687843
403.1984359726295,593.3506536887234
404.19941348973606,576.7306796632254
405.2003910068426,561.1039058824796
406.20136852394916,546.337640499643
407.2023460410557,533.6861522520196
408.20332355816225,522.143885447019
409.20430107526886,511.80928169232686
410.2052785923754,503.1633564368342
411.20625610948196,495.11263189515995
412.2072336265885,483.612411561912
413.20821114369505,476.6936716723569
414.2091886608016,471.5345365046572
415.21016617790815,464.8773706701067
416.2111436950147,457.35802122554117
417.21212121212125,451.58808848220843
418.2130987292278,447.924022238504
419.21407624633434,447.0475485911162
420.2150537634409,445.0643424397739
421.21603128054744,437.80132126429186
422.217008797654,432.6446537350338
423.21798631476054,430.7534070314117
424.2189638318671,430.124494212677
425.21994134897363,428.9924957343878
426.2209188660802,428.3669736791405
427.22189638318673,435.4970328544494
428.2228739002933,431.33522887550214
429.2238514173998,427.2195419277383
430.2248289345064,426.2231165641712
431.2258064516129,424.0140966062454
432.2267839687195,421.2119340047401
433.227761485826,421.5390682366135
434.22873900293257,422.7155385892974
435.2297165200391,422.8852359044811
436.23069403714567,421.69953399306615
437.2316715542522,419.8990410422145
438.23264907135876,419.08900155518694
439.2336265884653,418.7634206460452
440.23460410557186,418.8922194094629
441.2355816226784,419.0906395106291
442.23655913978496,418.1352865990554
443.2375366568915,419.7562564785296
444.23851417399806,418.715333492157
445.2394916911046,417.86816926899934
446.24046920821115,420.3075154239061
447.2414467253177,424.7398731212805
448.24242424242425,424.7709149528892
449.2434017595308,424.30206817308925
450.24437927663735,426.22797740672286
451.2453567937439,429.91820937104546
452.24633431085044,432.2424936444355
453.247311827957,433.749775099531
454.24828934506354,430.8016916228346
455.2492668621701,431.7647216974125
456.25024437927664,438.73774771643997
457.2512218963832,445.5330381702283
458.25219941348973,448.7423243086058
459.2531769305963,453.46304257879626
460.25415444770283,458.28860491538427
461.2551319648094,461.85487736387904
462.2561094819159,463.82553433663645
463.2570869990225,463.5321661166739
464.258064516129,465.06930747535984
465.2590420332356,465.58488534263574
466.2600195503421,466.4905261810753
467.26099706744867,467.81656438632064
468.2619745845552,461.75206051759363
469.26295210166177,461.28510404991357
470.2639296187683,464.1066002674638
471.26490713587486,467.65828150136565
472.2658846529814,470.5519005455725
473.26686217008796,472.87700501763715
474.2678396871945,477.7131880709456
475.26881720430106,481.95181847294424
476.2697947214076,489.7872261181375
477.27077223851416,501.7133594637584
478.2717497556207,513.9552939603999
479.27272727272725,530.4228113933356
480.2737047898338,551.7028167285799
481.27468230694035,579.7332534675292
482.2756598240469,614.8667363515915
483.27663734115345,656.3884543000108
484.27761485826,704.7425495490259
485.27859237536654,754.4757983619786
486.2795698924731,815.4579243123129
487.28054740957964,887.6259903230672
488.2815249266862,969.691386349221
489.2825024437928,1067.3976839422198
490.28347996089934,1186.0513365227853
491.2844574780059,1325.3028876641904
492.28543499511244,1486.7194275221077
493.286412512219,1666.0427001212336
494.28739002932554,1856.4104712212286
495.2883675464321,2057.819654362243
496.28934506353863,2235.1479298077447
497.2903225806452,2308.667951315146
498.29130009775173,2240.0509919146452
499.2922776148583,2034.9479329229762
500.2932551319648,1733.439503416431
501.2942326490714,1441.3588119024628
502.2952101661779,1205.2134606589352
503.2961876832845,1038.6377298530815
504.297165200391,927.2982592026391
505.29814271749757,838.7554009427
506.2991202346041,778.8557385502456
507.30009775171067,729.5085117081046
508.3010752688172,695.6996015302678
509.30205278592376,675.3908295865899
510.3030303030303,654.5687547993941
511.30400782013686,636.7746244951961
512.3049853372434,626.1108984859135
513.3059628543499,616.017882347108
514.3069403714564,607.3475110676753
515.307917888563,606.1281934734458
516.3088954056695,613.0918314865534
517.3098729227761,615.9028349354923
518.3108504398826,621.0684594192923
519.3118279569892,629.6579943865652
520.3128054740957,641.781548404935
521.3137829912023,659.350205309066
522.3147605083088,681.2336495631763
523.3157380254154,713.7387187492257
524.3167155425219,751.6596420576251
525.3176930596285,795.5305111051867
526.318670576735,852.580349977561
527.3196480938416,926.7228115255125
528.3206256109481,1014.3282017910756
529.3216031280547,1114.3870718084656
530.3225806451612,1230.612889174374
531.3235581622678,1363.7366673376023
532.3245356793743,1511.649437921768
533.3255131964809,1680.0675492532775
534.3264907135874,1876.570499830567
535.327468230694,2110.4935416590097
536.3284457478005,2386.146868420811
537.3294232649071,2704.4752432387368
538.3304007820136,3058.070070439796
539.3313782991202,3468.223346254527
540.3323558162267,3883.9744517734252
541.3333333333333,4258.335648689736
542.3343108504398,4513.146335419746
543.3352883675464,4552.189468340979
544.3362658846529,4309.93852658834
545.3372434017595,3834.164549380457
546.338220918866,3276.912890468086
547.3391984359725,2751.260100869602
548.3401759530791,2318.5726907280764
549.3411534701856,1987.7115135229617
550.3421309872922,1740.747684987078
551.3431085043987,1556.1882258648664
552.3440860215054,1422.3472075083685
553.345063538612,1328.4705640245313
554.3460410557185,1258.471488796875
555.347018572825,1198.7984774006181
556.3479960899316,1158.0424107538634
557.3489736070381,1132.3153808283769
558.3499511241447,1110.344961165947
559.3509286412512,1086.33332382378
560.3519061583578,1062.2358293055604
561.3528836754643,1035.0309732467274
562.3538611925709,989.7334658410764
563.3548387096774,940.1762833511705
564.355816226784,891.3661585758998
565.3567937438905,839.1460752667667
566.3577712609971,789.169807656742
567.3587487781036,745.6606907293019
568.3597262952102,711.2732704337475
569.3607038123167,684.7704121135887
570.3616813294233,661.989899783551
571.3626588465298,639.7479562716511
572.3636363636364,619.5816809019262
573.3646138807429,609.1767310127386
574.3655913978495,593.9488020022164
575.366568914956,581.3963790646494
576.3675464320626,579.2518165843956
577.3685239491691,567.5193346792694
578.3695014662757,557.8044731270994
579.3704789833822,551.763701886683
580.3714565004888,545.5424724034611
581.3724340175953,538.7572673279356
582.3734115347019,532.8571118960444
583.3743890518084,524.2217074514696
584.375366568915,519.1879467846866
585.3763440860215,514.5796641019465
586.377321603128,513.4248026110776
587.3782991202346,512.6618048262094
588.3792766373411,503.1065949041978
589.3802541544477,496.62574819135
590.3812316715542,493.8729500312355
591.3822091886608,488.73522499438855
592.3831867057673,480.3943804408376
593.3841642228739,473.2559877960608
594.3851417399804,470.9573725170691
595.386119257087,467.0888453957038
596.3870967741935,460.81690150952494
597.3880742913001,453.54170273029604
598.3890518084066,447.2790516309492
599.3900293255132,443.33623932982596
600.3910068426197,441.856669117617
601.3919843597263,434.91472291197914
602.3929618768328,431.70243182113205
603.3939393939394,430.0460281437352
604.3949169110459,427.1183387395038
605.3958944281525,423.63207680638413
606.396871945259,422.5660219186014
607.3978494623656,419.1811184753978
608.3988269794721,418.21070670526854
609.3998044965787,418.84460776564566
610.4007820136852,417.8156024425763
611.4017595307918,414.75944544791525
612.4027370478983,413.21009674715066
613.4037145650049,413.3461000893979
614.4046920821114,413.77239663221934
615.405669599218,413.57473325766244
616.4066471163245,412.97481111297657
617.4076246334312,412.5580827808565
618.4086021505377,410.79931896764384
619.4095796676443,412.93657748780754
620.4105571847508,411.03232920300366
621.4115347018574,407.829468604831
622.4125122189639,408.22878887676376
623.4134897360705,409.69969313414373
624.414467253177,407.7964777739049
625.4154447702836,407.6606365624651
626.4164222873901,406.1820476498529
627.4173998044967,403.4563966401067
628.4183773216032,401.8741489858337
629.4193548387098,402.2392831190376
630.4203323558163,399.3183418098118
631.4213098729228,402.2341174856949
632.4222873900294,402.42302686574584
633.423264907136,400.1800783246682
634.4242424242425,399.8845942700181
635.425219941349,399.7826290666191
636.4261974584556,399.8254700731952
637.4271749755621,402.3552657539933
638.4281524926687,403.42687750437574
639.4291300097752,404.39298983345714
640.4301075268818,406.1927050799258
641.4310850439883,404.75731506392196
642.4320625610949,407.6250214682506
643.4330400782014,407.9963405564771
644.434017595308,410.76690518789707
645.4349951124145,412.68156643105664
646.4359726295211,412.28650149518984
647.4369501466276,418.26598619961214
648.4379276637342,419.15373228866144
649.4389051808407,422.55796398059357
650.4398826979473,425.37832483215857
651.4408602150538,427.8175582895623
652.4418377321604,432.1365874505949
653.4428152492669,436.83406857516695
654.4437927663735,437.35648265615816
655.44477028348,441.2376344690943
656.4457478005866,444.8760268365856
657.4467253176931,448.66286133042905
658.4477028347997,455.3082865317525
659.4486803519062,463.9778816913542
660.4496578690128,467.80304697761505
661.4506353861193,476.77654558899013
662.4516129032259,488.85889186623115
663.4525904203324,500.78264092327476
664.453567937439,514.6330273612766
665.4545454545455,533.6915299994357
666.455522971652,551.8997688534191
667.4565004887586,574.0363210842614
668.4574780058651,597.5856025603425
669.4584555229717,625.2012751981973
670.4594330400782,658.0433134355176
671.4604105571848,692.137282793205
672.4613880742913,726.4180011614653
673.4623655913979,768.7163352668555
674.4633431085044,807.4139856250247
675.464320625611,844.7910843458784
676.4652981427175,877.9886039474184
677.4662756598241,894.0042223651902
678.4672531769306,888.5874060517044
679.4682306940372,868.2128944237105
680.4692082111437,822.7854869878271
681.4701857282503,764.8878912397656
682.4711632453568,702.200288128628
683.4721407624634,641.3375882562887
684.4731182795699,596.0903660293528
685.4740957966765,550.8914492921448
686.475073313783,521.0279476612271
687.4760508308896,498.8391814935244
688.4770283479961,480.3670931719385
689.4780058651027,465.9516716181219
690.4789833822092,452.0132247678746
691.4799608993158,439.51676277699585
692.4809384164223,428.88160505595914
693.4819159335289,421.75015671807284
694.4828934506354,417.5933867449409
695.483870967742,415.00998809710205
696.4848484848485,412.42930261545115
697.485826001955,405.5266322547594
698.4868035190616,402.6057924007321
699.4877810361681,398.4221052575253
700.4887585532747,394.32616728450364
701.4897360703812,392.4368837413418
702.4907135874878,391.50496843530146
703.4916911045943,391.1650021172035
704.4926686217009,391.03333739577766
705.4936461388074,391.74771140803625
706.494623655914,388.17414441366515
707.4956011730205,384.7645132647165
708.4965786901271,386.21047774912745
709.4975562072336,385.66790609517705
710.4985337243402,384.4846835922477
711.4995112414467,381.1015199647883
712.5004887585533,385.72834963132726
713.5014662756598,386.503220024059
714.5024437927664,380.9847786643763
715.5034213098729,383.4456404752505
716.5043988269795,379.89046274090776
717.505376344086,381.5810717231734
718.5063538611926,383.2220490100231
719.5073313782991,385.2510185916819
720.5083088954057,386.4527202222559
721.5092864125122,384.72316942453824
722.5102639296188,383.74193379283327
723.5112414467253,382.7852127537494
724.5122189638319,380.8522103829308
725.5131964809384,378.4619200309497
726.514173998045,379.0434883140779
727.5151515151515,381.8383079374957
728.516129032258,381.30529782002134
729.5171065493646,379.2743363764713
730.5180840664711,380.0690236151181
731.5190615835777,378.867868589036
732.5200391006842,379.4006425057325
733.5210166177908,380.8542914922767
734.5219941348973,379.32657418807383
735.5229716520039,378.6905369062892
736.5239491691104,378.03203204865446
737.524926686217,380.0123783128067
738.5259042033235,379.65866280962064
739.5268817204301,378.70310456821994
740.5278592375366,379.25456522192434
741.5288367546432,379.2074441991426
742.5298142717497,382.31599748995814
743.5307917888563,380.473793751251
744.5317693059628,382.60999459893884
745.5327468230694,384.590399792858
746.5337243401759,386.32560365300606
747.5347018572825,389.18096112738306
