Raman Shift,Intensity
214.3785040343428,48.508
224.78145843945092,324.239
235.01908334044856,76.592
245.41130867789616,-86.804
255.63837774522108,33.19
265.8602158678186,352.323
276.23642015571386,2.553
286.44772684514464,359.982
296.8132434111685,-365.088
307.0140349346475,306.368
317.209615658554,-114.888
327.399989574551,-306.368
337.7442627077253,599.97
347.9241537664129,-76.592
358.09885002992814,-137.866
368.2683554736213,40.849
378.5914504125685,-234.882
388.7505051753542,-176.161
398.90438108190574,-262.966
409.0530820913264,449.339
419.196612158652,4667.003
429.3349752349313,788.897
439.626465572117,5.106
449.75442592354375,288.496
459.8772311743669,199.139
469.994885259468,40.849
480.1073921097559,-375.301
490.2147556521086,232.329
500.31697980943136,-367.641
510.41406850063504,17.871
520.5060256406359,227.223
530.5928551403995,500.401
540.6745609068894,112.335
550.7511468431039,45.955
560.8226168481124,-605.076
570.888974816975,-196.586
580.9502246408374,257.86
590.8492821665859,490.189
600.9004070215597,-114.888
610.9464353206786,-56.167
620.9873709393651,-232.329
631.0232177491416,-359.982
641.0539796175653,224.67
650.9230482019848,66.38
660.9437310766662,-214.457
670.9593405290361,-2.553
680.9698804110958,86.804
690.8190579752118,43.402
700.8195493193562,-45.955
710.8149825658329,270.625
720.805361551138,-219.564
730.6347081696804,145.525
740.6150689503047,324.239
750.4345613154874,-201.692
760.404918953056,48.508
770.3702413346182,-265.519
780.174941402227,301.262
790.1302832356378,-497.848
799.925166080895,33.19
809.8705423523497,-426.362
819.6556227125038,-546.356
829.5910483782136,-217.011
839.3663409610526,-30.637
849.2918309472952,357.429
859.0573504311833,301.262
868.972919634427,-38.296
878.7286806683987,28.084
888.6343439553166,22.978
898.3803611591502,81.698
908.12155022542,528.484
918.0124213310264,40.849
927.743888384779,97.016
937.4705381077074,337.005
947.3466501411676,66.38
957.0635996041163,104.676
966.7757425107702,-262.966
976.6371284824854,-265.519
986.3395928168538,104.676
996.0372613373548,308.921
1005.7301375988682,-155.737
1015.5719657306544,-48.508
1025.255192198514,-58.72
1034.9336371072422,-109.782
1044.6073039976543,-291.049
1054.2761964070742,201.692
1063.9403178693246,148.078
1073.5996719147442,74.039
1083.4074711432768,-89.357
1093.057225399156,-45.955
1102.70222286418,477.423
1112.3424670547538,10.212
1121.9779614837898,132.759
1131.6087096607444,102.123
1141.2347150916105,-125.1
1150.855981278939,-234.882
1160.4725117218331,-45.955
1170.0843099159465,15.318
1179.6913793534914,873.148
1189.293723523253,-5.106
1198.739039559725,-53.614
1208.3320185130287,280.837
1217.9202825891407,12.765
1227.5038352631818,20.425
1237.0826800068826,-311.474
1246.6568202885535,130.206
1256.226259573108,-324.239
1265.639216696829,472.317
1275.1993388504195,45.955
1284.7547703264208,-2.553
1294.3055145761757,347.217
1303.7000868433097,-53.614
1313.241541245312,84.251
1322.778318700337,40.849
1332.310422646282,-227.223
1341.686663866676,188.927
1351.2095051416618,260.413
1360.727683146746,-454.446
1370.0902294598782,423.809
1379.5991650801443,-28.084
1388.9526223370776,15.318
1398.4523290278594,227.223
1407.7967104575073,74.039
1417.287201648047,314.027
1426.7730533080105,181.268
1436.1038095471376,291.049
1445.5804658554116,-137.866
1454.9021792800197,-620.395
1464.369653600741,-314.027
1473.6823373500883,-3878.106
1482.9905472474493,-1189.728
1492.444310209452,-559.121
1501.7435100404182,610.183
1511.1881242589734,-250.2
1520.4783270994303,270.625
1529.764072276041,-15.318
1539.1950247490097,-357.429
1548.4717924494323,35.743
1557.7441121511074,86.804
1567.1614324998736,-68.933
1576.4247941832873,-112.335
1585.6837175051332,-40.849
1594.9382056544855,-188.927
1604.3374199708342,15.318
1613.5829759239496,81.698
1622.8241063047317,-30.637
1632.0608142900164,285.943
1641.2931030535765,176.161
1650.6697762525291,-331.898
1659.8931649322622,191.48
1669.1121439444323,145.525
1678.3267164506542,-61.274
1687.53688560953,-446.786
1696.7426545766284,178.715
1705.9440265045123,5.106
1715.1410045427183,633.16
1724.3335918377925,-204.245
1733.5217915332687,-270.625
1742.705606769683,365.088
1751.8850406845886,239.988
1761.0600964125188,-91.91
1770.230777085024,76.592
1779.397085830693,97.016
1788.55902577511,63.827
1797.7166000408906,71.486
1806.8698117476447,-79.145
1816.0186640120735,-239.988
1825.163159947857,0.0
1834.1559155330324,211.904
1843.29177827917,-191.48
1852.4232939699289,48.508
1861.550465707216,-132.759
1870.673296589972,4414.25
1879.644751645923,1672.258
1888.758979994156,538.697
1897.8688767172423,262.966
1906.974444902422,112.335
1915.9289277003045,-130.206
1925.025917750907,426.362
1934.118588458099,-183.821
1943.060390766601,339.558
1952.144501554074,-168.502
1961.2243021666216,-153.184
1970.153450902042,211.904
1979.224709758193,-160.843
1988.1454604369865,268.072
1997.208189584475,84.251
2006.120554048888,-140.419
2015.1747655127983,-262.966
2024.0787555828572,2.553
2033.12446136566,-97.016
2042.0200888391555,30.637
2051.057300920809,337.005
2059.9445775734057,-173.608
2068.9733079113576,324.239
2077.852245496608,-413.597
2086.8725060258803,347.217
2095.743116275291,68.933
2104.6096010526526,625.501
2113.6172135316083,107.229
2122.4753884816528,-130.206
2131.329446630596,76.592
2140.324437642892,-68.933
2149.170203423979,81.698
2158.011861050589,408.49
2166.994257105456,25.531
2175.8276397748195,339.558
2184.656922912145,10.212
2193.48210937062,308.921
2202.303202000803,477.423
2211.2647105948345,91.91
2220.077557114586,311.474
2228.886318388424,28.084
2237.6909972563008,768.473
2246.4915965555265,153.184
2255.2881191208,439.127
2264.0805677841927,25.531
2272.8689453751285,-377.854
2281.6532547204406,-148.078
2290.5774032157133,-211.904
2299.353517963282,365.088
2308.125572976198,173.608
2316.893571070781,-183.821
2325.6575150607823,45.955
2334.273835606975,589.758
2343.029746164546,135.312
2351.781610997117,-5.106
2360.5294329081007,-28.084
2369.273214698267,10.212
2378.0129591658333,35.743
2386.7486691064114,-33.19
2395.48034731306,61.274
2404.2079965762314,324.239
2412.788641914361,-107.229
2421.5083075861257,-196.586
2430.2239526247795,-204.245
2438.9355798105607,-35.743
2447.64319192111,237.435
2456.204142101211,160.843
2464.9037980916983,-334.452
2473.5994472792227,112.335
2482.148638712344,-181.268
2490.836348166158,114.888
2499.5200590665554,-58.72
2508.0575159626023,-388.066
2516.7333034706826,610.183
2525.405100652257,-53.614
2533.930847154741,-329.345
2542.5947372405863,-513.166
2551.112711590584,-2.553
2559.768705390503,-262.966
2568.2789182109263,252.753
2576.927026515033,30.637
2585.5711635713087,219.564
2594.069721988235,-20.425
2602.5644435408976,377.854
2611.196813145194,255.307
2619.683804921093,-531.038
2628.3083212822166,314.027
2636.7875938271245,-79.145
2645.404267656864,217.011
2653.875831497382,181.268
2662.343576738021,523.378
2670.948539131641,291.049
2679.408591378582,-97.016
2687.8648328054915,679.115
2696.4581076233444,-247.647
2704.906671724595,38.296
2713.351432764532,-81.698
2721.792393310454,17.871
2730.370143142005,913.997
2738.8034471581705,-171.055
2747.232958411034,-89.357
2755.658679458633,485.082
2764.220946338093,-811.875
2772.639031576786,-199.139
2781.053334313052,132.759
2789.463857095703,-20.425
2797.8706024712737,-301.262
2806.2735729839987,76.592
2814.672771175843,395.725
2823.0681995864725,163.396
2831.459860753297,155.737
2839.847757211428,0.0
2848.231891493713,337.005
2856.612266130724,-15.318
2864.988883650767,-444.233
2873.3617465798743,-109.782
2881.7308574418275,-260.413
2890.096218758139,-53.614
2898.457833048058,137.866
2906.815702828586,-28.084
2915.169830614461,-5.106
2923.5202189181878,132.759
2931.8668702499926,158.29
2940.209787117892,-194.033
2948.41001618022,-145.525
2956.7455337723804,-145.525
2965.077324369493,-35.743
2973.405390470638,-140.419
2981.7297345726547,2.553
2989.9117125592966,280.837
2998.2286820744484,303.815
3006.5419370261297,-142.972
3014.8514799023105,-7.659
3023.0189130185245,137.866
3031.3211009634906,-5.106
3039.619584242202,-260.413
3047.776149306213,-344.664
3056.067292329164,28.084
3064.2166442633534,-372.748
3072.500456765243,-321.686
3080.780576892153,255.307
3088.919096831967,5.106
3097.1919010483834,99.57
3105.3232317767324,-222.117
3113.588729774354,334.452
3121.712880813,405.937
3129.9710822664056,114.888
3138.0880631202745,-61.274
3146.338977686973,91.91
3154.448797844241,-288.496
3162.692435164703,-296.156
3170.7951040967964,199.139
3178.894230970407,-260.413
3187.127000956163,114.888
3195.218990740796,-211.904
3203.3074454664093,242.541
3211.5293695924192,-316.58
3219.610701328027,-285.943
3227.688504985643,114.888
3235.899604670318,104.676
3243.9702993997853,43.402
3252.03747301393,-321.686
3260.1011278165533,219.564
3268.297848330192,-737.836
3276.354412870096,308.921
3284.407465536773,250.2
3292.4570086259846,-319.133
3300.5030444314834,43.402
3308.545575245,1051.863
3316.720827896272,-22.978
3324.756296283769,-112.335
3332.788266581294,319.133
3340.816741072602,132.759
3348.8417220394404,40.849
3356.8632117615925,-382.96
3364.8812125168406,-689.328
3372.895726580995,79.145
3380.906756227865,-413.597
3388.91430372934,20.425
3396.918371355256,35.743
3404.9189613735507,-234.882
3412.9160760501472,-725.071
3420.909717649003,-171.055
3428.8998884321263,-214.457
3436.886590659553,1143.773
3444.734546370892,99.57
3452.714376952972,127.653
3460.690745709508,291.049
3468.663654892749,303.815
3476.633106752961,278.284
3484.5991035384795,-48.508
3492.4267178764712,66.38
3500.385869715596,-178.715
3508.341573175334,-2.553
3516.293830496281,-33.19
3524.1079469444667,-150.631
3532.0533770164475,53.614
3539.9953676218797,-260.413
3547.7993978646555,-102.123
3555.734574435446,-288.496
3563.666318194715,148.078
3571.460281747888,229.776
3579.385224652753,388.066
3587.30674138396,296.156
3595.090657713052,-181.268
3603.00538673612,-186.828
3610.782634691175,336.785
3618.6905847266535,1167.361
3626.461172873067,2082.68
3634.362352626544,2860.534
3642.1262895150494,3278.702
3650.020707677235,3114.972
3657.778001843908,2147.128
3665.665667090652,684.221
3673.416327056992,324.239
3681.163701429177,-148.078
3689.041282322214,-61.274
3696.782035212709,7.659
3704.6528847781447,-232.329
3712.3870246721344,163.396
3720.117889469839,227.223
3727.845481251112,-28.084
3735.702951367959,40.849
3743.4239470074463,-173.608
3751.141675895298,-204.245
3758.989119491133,79.145
3766.700264858686,-245.094
3774.408149723422,354.876
3782.1127761528696,-217.011
3789.814146212797,-219.564
3797.644959575024,181.268
3805.339767031168,68.933
3813.03132434014,61.274
3820.7196335607214,127.653
3828.404696749953,-615.289
3836.086515963114,-1052.047
3843.76509325378,-1070.559
3851.4404306737633,-809.618
3859.112530273167,-408.021
3866.7813941003615,-4.565
3874.4470242019815,261.96
3882.109422622947,252.753
3889.7685914064414,-56.167
3897.4245325939337,-280.837
3905.0772482251705,-127.653
3912.7267403381848,-446.786
3920.373010969284,-398.843
3928.016062153074,119.223
3935.655895922435,901.464
3943.292514308545,1741.928
3950.925919340858,2434.666
3958.424585178429,-139.295
3966.051624900327,-139.295
3973.675457311714,-139.295
3981.296084435249,-139.295
3988.913508291902,-139.295
3996.396478310664,-139.295
4004.007556831755,-139.295
4011.615438103967,-139.295
4019.220124141517,-139.295
4026.690583777876,-139.295
4034.288940385857,-139.295
4041.8841077570687,-139.295
4049.3452186808136,-139.295
4056.934068499933,-139.295
4064.519735065173,-139.295
4071.971514814119,-139.295
4079.550875675057,-7.659
4086.996462302253,118.682
4094.5695253181984,199.461
4102.008926541021,238.089
4109.575699558212,237.974
4117.008923081237,202.524
4124.569413932906,135.156
4131.996467447912,39.278
4139.550683954272,-81.698
4146.971575140262,-191.48
4154.519525108568,-171.055
4161.93426163181,-63.827
4169.475952856366,-656.138
4228.011654085007,602.523
4235.396210255021,-109.782
4242.907210725418,-497.848
4250.415076793586,-38.296
4257.7904449892885,181.268
4265.292102093408,222.117
4272.790630641473,-130.206
4280.156827999919,-671.456
4287.649159161061,-245.094
4295.138367597785,-543.803
4302.4954112134365,-58.72
4309.978433811593,607.63
4317.329402006981,48.508
4324.8062464273535,-102.123
4332.151146724958,-20.425
4339.621820615692,-334.452
4346.960660525576,-194.033
4354.425171522191,370.194
4361.757958542046,58.72
4369.216314267462,707.199
4376.543055882612,686.775
4383.9952639471885,270.625
4391.315967630617,94.463
4398.762035632179,140.419
4406.07670884455,354.876
4413.516644368407,183.821
4420.825294558097,324.239
4428.130962180556,-265.519
4435.561739780205,109.782
4442.861395497304,-217.011
4450.1580741507205,135.312
4457.579710724684,554.015
4464.870388562711,160.843
4472.158094827057,76.592
4479.570607232323,602.523
4486.852323743988,416.15
4494.131074158497,173.608
4501.534479210626,556.568
4508.807250907994,2292.653
4516.077061971264,6538.4
4523.3439142079005,158.29
4530.735219799091,-76.592
4537.996107969229,-446.786
4545.254042757973,-89.357
4552.509025966887,-81.698
4559.888261734326,-107.229
4567.13729547953,63.827
4574.383383072374,-278.284
4581.626526308552,-2731.78
4588.866726982291,273.178
4596.103986886381,-393.172
4603.338307812148,-531.038
4610.69653172473,127.653
4617.92492857972,393.172
4625.150391852971,45.955
4632.372923329975,-45.955
4639.592524794789,-43.402
4646.809198030001,548.909
4654.022944816745,176.161
4661.233766934747,594.864
4668.441666162253,375.301
4675.646644276094,114.888
4682.8487030516335,-260.413
4690.047844262837,-58.72
4697.244069682201,-487.635
4704.437381080781,280.837
4711.627780228235,-270.625
4718.815268892759,155.737
4725.999848841122,-462.105
4733.181521838655,-479.976
4740.3602896492885,173.608
4747.536154035501,-372.748
4754.583300303697,22.978
4761.753413983191,199.139
4768.9206294863325,68.933
4776.084948569973,-40.849
4783.246372989488,-188.927
4790.404904498872,-81.698
4797.435032206777,-288.496
4804.5878338284165,165.949
4811.73774776268,-140.419
4818.884775757928,-122.547
4826.028919561082,-321.686
4833.044920461813,-211.904
4840.183351639585,40.849
4847.3189038270575,-270.625
4854.451578765569,349.77
4861.456318765864,270.625
4868.58329482688,38.296
4875.707398824052,-171.055
4882.703723295803,-388.066
4889.822138682386,-204.245
4896.937687177771,10.212
4903.925611277555,298.709
4911.035481404608,543.803
4918.142489800703,337.005
4925.122028648751,-58.72
4932.223368894192,-367.641
4939.197342363797,283.39
4946.293021236786,-140.419
4953.385846941688,-117.441
4960.35146024984,-35.743
4967.43863475923,520.825
4974.398699333346,15.318
4981.480229398396,288.496
4988.43475186592,-380.407
4995.510644227063,569.334
5002.459631204903,-140.419
5009.529892591847,-2022.007
5016.473350686378,-4375.61
5023.537987818112,-6695.871
5030.475923625207,-8477.44
5037.534943210041,-9214.967
5044.467363315067,-8403.103
5051.397052412052,-5536.49
5058.447683028528,-109.782
5065.371866252855,5453.347
5072.416896017057,2264.569
5079.335579928018,-487.635
5086.251540943114,-79.145
5093.288206657562,354.876
5100.198678149784,86.804
5107.106431592307,-99.57
5114.134748143202,469.764
5121.037021830118,53.614
5127.93658230202,137.866
5134.833431158368,63.827
5141.85065500065,227.223
5148.742037069234,5266.973
5155.630712341699,1748.85
5162.516682412504,301.262
5169.522839786696,-229.776
5176.403355996677,250.2
5183.281171809234,12.765
5190.156288813778,326.792
5197.028708598496,500.401
5204.021081907653,-2.553
5210.888063918697,158.29
5217.752353495271,211.904
5224.613952220541,1266.32
5231.472861676462,3073.89
5238.329083443728,214.457
5245.182619101804,63.827
5252.033470228904,38.296
5258.881638402017,45.955
5265.727125196914,-66.38
5272.569932188097,186.374
5279.532181775125,745.495
5286.369586094326,245.094
5293.204315354014,-49.994
5300.036371123795,-6.531
5306.865754971979,225.829
5313.692468465706,497.427
5320.516513170878,658.604
5327.216103720151,559.7
5334.034863128356,51.061
5340.850958410447,-533.591
5347.664391127459,188.927
5354.475162839211,548.909
5361.283275104273,-275.731
5368.088729480027,-48.508
5374.891527522632,-112.335
5381.6916707870405,0.0
5388.489160826968,-321.686
5395.162686039381,487.635
5401.954921596684,-79.145
5408.744508555763,-43.402
5415.531448465517,492.742
5422.31574287366,462.105
5428.976315601984,612.736
5435.7553708175255,372.748
5442.531785139763,423.809
5449.305560111599,10.212
5456.076697274744,482.529
5462.724355191152,-183.821
5469.490268392445,-508.06
5476.253548375513,122.547
5482.893493883399,-15.318
5489.651558992991,-492.742
5496.406995464167,237.435
5503.039241977291,607.63
5509.789472642318,589.758
5516.5370792381145,-142.972
5523.161640139158,-508.06
5529.904049975114,145.525
5536.643840300443,-43.402
5543.260728941095,451.893
5549.995331531944,-165.949
5556.607128017575,-291.049
5563.336548861262,-15.318
5569.943259067753,625.501
5576.667504142417,148.078
5583.269133936614,375.301
5589.988209211173,155.737
5596.58476445092,599.97
5603.298675885118,-94.463
5609.890162419251,390.619
5616.598915963696,477.423
5623.185339632037,362.535
5629.888941228186,-370.194
5636.470307861637,548.909
5643.16876344182,462.105
5649.745078862296,48.508
5656.438394349752,132.759
5663.009664370256,191.48
5669.578436568787,319.133
5676.264076103718,275.731
5682.827811578958,533.591
5689.3890535265455,-393.172
5696.067030305661,357.429
5702.623244186747,-301.262
5709.176968824671,145.525
5715.847296014435,717.411
5722.39600122282,234.882
5728.942221462719,372.748
5735.4859581482815,319.133
5742.146121627004,576.993
5748.684850350968,-331.898
5755.221099782248,533.591
5761.754871330697,160.843
5768.404894310675,-135.312
5774.933669330552,525.931
5781.459970716278,30.637
5787.983799873429,119.994
5794.505158206499,-206.798
5801.142549523138,334.452
5807.658925557145,-97.016
5814.172834999641,7.659
5820.684279250832,-89.357
5827.193259709879,43.402
5833.699777774898,375.301
5840.203834842934,-140.419
5846.7054323099655,451.893
5853.204571570954,109.782
5859.701254019747,316.58
5866.195481049195,-242.541
5872.687254051074,148.078
5879.176574416102,352.323
5885.663443533944,99.57
5892.14786279323,-339.558
5898.629833581537,293.602
5905.109357285379,160.843
5911.586435290243,599.97
5918.061068980562,308.921
5924.533259739736,145.525
5931.003008950094,635.713
5937.470317992949,-209.351
5943.935188248557,35.743
5950.397621096134,671.456
5956.857617913869,158.29
5963.315180078898,148.078
5969.7703089673305,173.608
5976.105705888956,150.631
5982.556016527509,250.2
5989.003897986593,380.407
5995.449351638199,-86.804
6001.8923788532775,114.888
6008.215900781644,181.268
6014.654123287393,554.015
6021.089923438405,142.972
6027.523302601519,551.462
6033.954262142564,-74.039
6040.265942433929,163.396
6046.692110755517,771.026
6053.115863521547,38.296
6059.420472023492,571.887
6065.839441620141,255.307
6072.255999718647,592.311
6078.553548309683,196.586
6084.965331270854,523.378
6091.374706782226,255.307
6097.665207314269,2.553
6104.06981570238,183.821
6110.472020679961,84.251
6116.755484978421,314.027
6123.152930828903,-375.301
6129.431725134898,-610.183
6135.824417162912,487.635
6142.098546680769,20.425
6148.486490183052,-329.345
6154.872039648391,-260.413
6161.139160374798,622.948
6167.519969269015,163.396
6173.782438208022,122.547
6180.158511808193,206.546
6186.416334137088,254.829
6192.787677712448,279.411
6199.040858600842,292.3
6205.291741972564,305.515
6211.656022022646,331.061
6217.902271670246,380.956
6224.261834810408,467.211
6230.503455884398,446.786
6236.742785809074,-10.212
6243.095304999864,344.664
6249.330014038809,-71.486
6255.677829386121,257.86
6261.907922670827,-53.614
6268.1357311500615,331.898
6274.476522051649,-7.659
6280.699722436162,35.743
6286.920641805642,-130.206
6293.139281413962,-140.419
6299.470738832184,308.921
6305.684780516531,199.139
6311.896546218988,28.084
6318.106037189755,538.697
6324.428181717434,-68.933
6330.633084905065,229.776
6336.835717129172,487.635
6343.036079636258,605.076
6349.234173671932,79.145
6355.544716640681,-255.307
6361.738235515753,201.692
6367.929489673777,186.374
6374.118480356665,199.139
6380.305208805476,308.921
6386.489676260331,449.339
6392.671883960451,324.239
6398.851833144166,490.189
6405.143905470883,-20.425
6411.319299566196,538.697
6417.492438877496,68.933
6423.663324639478,196.586
6429.831958085924,137.866
6435.998340449718,265.519
6442.162472962846,206.798
6448.324356856407,-365.088
6454.483993360576,280.837
6460.641383704664,344.664
6466.79652911704,155.737
6472.949430825232,390.619
6479.100090055821,671.456
6485.248508034543,-153.184
6491.280888225534,487.635
6497.424868822251,441.68
6503.5666118162335,426.362
6509.706118429633,456.999
6515.843389883739,635.713
6521.978427398899,168.502
6528.111232194642,635.713
6534.241805489546,314.027
6540.256680928833,365.088
6546.382836142315,58.72
6552.506763482961,308.921
6558.628464165849,188.927
6564.747939405184,321.686
6570.751928194237,-22.978
6576.866997341494,934.422
6582.979844660076,3158.142
6589.090471360658,178.715
6595.0857801617385,359.982
6601.192010321647,-314.027
6607.296023467985,140.419
6613.39782080795,-114.888
6619.384468430493,-22.978
6625.481878753591,112.335
6631.577076864334,209.351
6637.5572509579,571.887
6643.64806916556,204.245
6649.623946782151,1580.347
6655.71038980603,222.117
6661.794626582923,349.77
6667.764048126817,824.727
6673.843916808139,1028.696
6679.809053455574,1020.843
6685.884558743659,860.342
6691.957863728712,606.358
6697.916561697035,318.058
6703.985510351609,54.615
6709.939934962422,-124.804
6716.004531971987,-161.03
6721.954687820689,5.106
6728.014937863976,35.743
6733.960829539363,-666.35
6739.904610751524,411.043
6745.95836937274,-125.1
6751.897893261092,607.63
6757.947316561804,1465.528
6763.8825876987685,2017.973
6769.927680334353,2292.9
6775.858703285812,2318.244
6781.787623684751,2121.944
6787.826249230238,1731.933
6793.750928258974,1176.148
6799.673508107371,482.529
6805.705676935038,-22.978
6811.624022213946,441.68
6817.540271677499,12.765
6823.5659941374615,211.904
6829.478015817709,219.564
6835.387945040406,-188.927
6841.407231460638,556.568
6847.312939671727,-63.827
6853.216558775894,142.972
6859.118089881435,451.893
6865.017534095896,502.954
6871.026143398485,801.662
6876.921377827312,122.547
6882.814528703813,477.423
6888.705597132364,66.38
6894.594584216582,296.156
6900.592544785228,-30.637
6906.477333270021,-160.843
6912.360043737404,584.652
6918.240677287846,278.284
6924.119235021055,122.547
6929.995718035963,81.698
6935.870127430717,53.614
6941.742464302697,342.111
6947.6127297485,-275.731
6953.480924863958,257.86
6959.347050744116,-40.849
6965.21110848328,-957.399
6971.073099174937,316.58
6976.93302391185,-239.988
6982.79088378598,20.425
6988.64667988853,132.759
6994.500413309928,280.837
7000.35208513985,17.871
7006.201696467178,155.737
7012.049248380063,760.813
7017.894741965851,-497.848
7023.738178311156,451.893
7029.579558501813,311.474
7035.418883622879,301.262
7041.2561547586665,395.725
7047.091372992727,298.709
7052.924539407839,145.525
7058.645653010426,314.027
7064.474757695687,421.256
7070.301813785409,232.329
7076.126822359336,382.96
7081.949784496486,99.57
7087.660891581778,-400.831
7093.479802640664,-7.659
7099.296670474898,801.662
7105.111496160462,-270.625
7110.814624476749,45.955
7116.625407570507,337.005
7122.434151718757,451.893
7128.2408579944895,293.602
7133.936024250346,97.016
7139.73869639702,137.866
7145.53933386541,219.564
7151.22854892195,500.401
7157.025158582874,367.641
7162.819736753059,224.67
7168.503009933542,20.425
7174.293566604632,676.562
7180.082094965896,306.368
7185.759435574095,234.882
7191.54394873148,250.2
7197.2173519438,605.076
7202.997854073568,1230.577
7208.667323984642,-171.055
7214.443819257263,-439.127
7220.109359956041,349.77
7225.881852536215,337.005
7231.54346810597,-278.284
7237.311962152613,451.893
7242.969656670975,576.993
7248.734156337254,451.893
7254.387933876205,30.637
7260.148443309525,171.055
7265.798307935409,561.674
7271.554831277448,171.055
7277.20078705097,107.229
7282.953328437674,587.205
7288.59537941395,479.976
7294.235498085545,456.999
7299.982093204053,602.523
7305.618313131272,707.199
7311.252603748333,395.725
7316.993261813666,786.344
7322.623659726734,160.843
7328.252131317968,288.496
7333.9868615261075,-22.978
7339.611446441268,571.887
7345.234108016753,66.38
7350.962919544712,-56.167
7356.581700459581,339.558
7362.198561010817,-81.698
7367.813502182726,551.462
7373.426524958988,288.496
7379.145517410223,1092.712
7384.7546694986595,569.334
7390.361906157261,148.078
7395.967228366993,227.223
7401.570637108154,61.274
7407.279835705631,326.792
7412.879383697611,-15.318
7418.477021176703,270.625
7424.072749120482,651.032
7429.666568505905,122.547
7435.258480309247,56.167
7440.848485506111,725.071
7446.436585071431,347.217
7452.022779979503,382.96
7457.607071203925,605.076
7463.296794702215,551.462
7468.877244915177,-76.592
7474.455794380043,-5.106
7480.032444067743,857.83
7485.607194948596,620.395
7491.18004799222,303.815
7496.751004167574,-395.725
7502.2129850032,441.68
7507.7801867781745,17.871
7513.345494569261,316.58
7518.908909342786,102.123
7524.470432064445,209.351
7530.03006369928,283.39
7535.587805211653,730.177
7541.1436575652915,114.888
7546.697621723266,68.933
7552.249698647978,125.1
7557.693172648,375.301
7563.241514237732,155.737
7568.787971459049,834.852
7574.332545271769,183.821
7579.87523663506,71.486
7585.416046507413,-291.049
7590.848475703144,403.384
7596.385561603231,421.256
7601.920768865631,-630.607
7607.454098446255,426.362
7612.879194899509,354.876
7618.4088080453,505.507
7623.936546354853,497.848
7629.462410781522,638.266
7634.880189328982,-217.011
7640.402344837916,250.2
7645.9226293018255,183.821
7651.334937948188,513.166
7656.851519109852,28.084
7662.260197498763,255.307
7667.773079083498,15.318
7673.284094334183,610.183
7678.687316594296,-140.419
7684.194637864675,398.278
7689.7000956236625,390.619
7695.097870006797,22.978
7700.599639370841,-150.631
7705.993798107356,515.719
7711.491882781789,878.254
7716.882429503323,165.949
7722.376833188511,-204.245
7727.763771521855,454.446
7733.254497913214,-548.909
7738.637831480286,393.172
7744.124884268305,454.446
7749.504616686187,-119.994
7754.987999556393,33.19
7760.364134437317,130.206
7765.738489349154,671.456
7771.216392021717,337.005
7776.587154788423,273.178
7782.061396717661,-222.117
7787.428570939446,615.289
7792.793969640064,342.111
7798.262745065967,-398.278
7803.624560595526,829.746
7808.984603262106,832.299
7814.447920368751,176.161
7819.804385227417,234.882
7825.159079875983,321.686
7830.616946831127,319.133
7835.968069024231,610.183
7841.317423654822,308.921
7846.665011598543,456.999
7852.115636126822,523.378
7857.459658723532,518.272
7862.801917273948,-22.978
7868.142412651388,444.233
7873.481145728587,-308.921
7878.922746278997,173.608
7884.257922859626,293.602
7889.59133977185,165.949
7894.922997886111,234.882
7900.252898072242,28.084
7905.581041199541,515.719
7910.907428136696,359.982
7916.336446752692,444.233
7921.65928952102,342.111
7926.980378718883,426.362
7932.29971521271,816.981
7937.617299868325,107.229
7942.933133550996,620.395
7948.247217125423,1233.966
7953.559551455743,1568.503
7958.870137405502,1672.457
7964.178975837705,1594.265
7969.486067614758,1382.372
7974.791413598527,1085.221
7980.0950146503055,751.255
7985.396871630804,428.915
7990.696985400187,222.117
7995.995356818043,308.921
8001.291986743403,331.898
8006.586876034729,301.262
8011.880025549901,199.139
8017.067699705829,188.927
8022.357406311574,242.541
8027.645375694708,5.106
8032.931608710882,1067.181
8038.216106215201,883.361
8043.498869062179,153.184
8048.779898105804,183.821
8053.955695240969,40.849
8059.233293192043,234.882
8064.509159881611,275.731
8069.783296161415,-229.776
8074.952338977277,227.223
8080.223050878609,5.106
8085.492034905405,559.121
8090.759291907168,-56.167
8095.921593616502,492.742
8101.185432936367,676.562
8106.447547759821,873.148
8111.604810570996,569.334
8116.863512715307,651.032
8122.120492886879,-280.837
8127.272724173963,280.837
8132.526296659391,490.189
8137.778149690843,860.383
8142.925356813517,538.697
8148.173807142077,663.797
8153.4205405305,523.378
8158.562730834117,68.933
8163.806066493191,7166.454
8168.944927307508,1414.398
8174.184868536668,-232.329
8179.32040309432,388.066
8184.55695318873,508.06
8189.689164718173,227.223
8194.922326968728,63.827
8200.051218694258,-291.049
8205.280996387602,554.015
8210.406571529322,303.815
8215.632967947844,602.523
8220.7552297217,324.239
8225.978248143558,541.25
8231.097199761349,171.055
8236.316843460441,1074.84
8241.43248812982,428.915
8246.546496881761,214.457
8251.76110130029,-181.268
8256.871807891675,520.825
8261.98088093357,153.184
8267.190453365733,130.206
8272.296229025691,292.775
8277.400373499535,496.743
8282.604921225458,706.844
8287.705773086778,887.823
8292.804996120794,1004.417
8298.004526406577,1021.364
8303.100461588281,903.41
8308.194770296956,615.289
8313.28745331115,354.876
8318.48031600209,740.389
8323.569717486189,574.44
8328.657495624051,561.674
8333.743651192239,-158.29
8338.828184966831,160.843
8344.012739449463,-303.815
8349.093999566121,612.736
8354.17364022991,-68.933
8359.251662214898,-160.843
8364.328066294685,337.005
8369.402853242376,403.384
8374.476023830553,548.909
8379.547578831349,643.372
8384.718901354245,450.274
8389.787195221597,14.389
8394.853875830348,-537.418
8399.91894395064,-1078.275
8404.98240035212,-1481.314
8410.044245803958,-1619.673
8415.104481074803,-1366.477
8420.163106932847,-594.864
8425.220124145773,474.87
8430.275533480788,635.713
8435.32933570461,-58.72
8440.381531583458,344.664
8445.432121883085,268.072
8450.48110736873,-81.698
8455.528488805172,628.054
8460.473367100913,237.435
8465.51757477424,416.15
8470.560180674485,367.641
8475.601185564497,109.782
8480.64059020661,870.595
8485.67839536271,-391.038
8490.714601794163,-3289.265
8495.749210261878,-6581.485
8500.681576948675,-9025.103
8505.713023691114,-9377.521
8510.742874734438,-6396.138
8515.771130837642,1161.645
8520.797792759218,8851.477
8525.722375497866,776.132
8530.745883175656,531.038
8535.7677989293,1000.802
8540.788123515384,574.44
8545.706498587671,-334.452
8550.723674892208,400.831
8555.739262280982,628.054
8560.652997083213,1067.181
8565.665440644778,3816.832
8570.676297538128,954.846
8575.585398634048,413.597
8580.593116146138,847.618
8585.599249233324,35.743
8590.503723174297,372.748
8595.506721317797,855.277
8600.508137275468,352.323
8605.40799060051,385.513
8610.406276043708,597.417
8615.303062904772,201.692
8620.298220771765,-172.891
8625.191944046568,-352.195
8630.18397727198,-377.658
8635.074639834631,-290.715
8640.063551349394,-132.807
8644.951156070434,54.625
8649.936948801806,230.149
8654.821498548154,352.323
8659.804175419777,557.919
8664.685673054784,832.396
8669.665236986599,1108.978
8674.543685370048,1320.893
8679.520139278378,1401.362
8684.395541266465,1283.615
8689.2694364983,900.877
8694.241246509358,186.374
8699.112099609058,-451.893
8703.981448060618,370.194
8708.948620671701,819.534
8713.81493124642,165.949
8718.779005433622,434.021
8723.642280973501,495.295
8728.504055374753,178.715
8733.364329332315,-181.268
8738.32224658698,204.245
8743.179491154478,61.274
8748.035237374625,888.467
8752.889485940628,56.167
8757.8412577103,51.061
8762.692482517024,462.105
8767.542211760752,742.942
8772.39044613298,390.619
8777.336083836857,702.093
8782.18130006664,370.194
8787.02502351089,485.082
8791.867254859393,296.156
8796.707994801498,903.785
8801.547244026118,2844.115
8806.385003221756,375.301
8811.319956958603,426.362
8816.154707786565,291.049
8820.987970662514,758.26
8825.819746273257,-61.274
8830.650035305174,551.462
8835.478838444196,56.167
8840.306156375878,181.268
8845.131989785303,740.389
8849.956339357173,171.055
8854.779205775758,-168.502
8859.60058972489,446.786
8864.420491888006,-97.016
8869.238912948098,268.072
8874.055853587757,554.015
8878.871314489159,1304.616
8883.685296334032,7.659
8888.497799803714,510.613
8893.308825579123,602.523
8898.118374340735,525.931
8902.926446768637,321.686
8907.634964476681,686.775
8912.440116370435,477.423
8917.243793954342,285.943
8922.045997906822,686.775
8926.846728905857,275.731
8931.645987629043,1113.136
8936.443774753548,1965.86
8941.142221650607,5366.543
8945.937097605834,5621.85
8950.73050397759,6283.093
8955.522441441404,3306.219
8960.215160665939,211.904
8965.004192282166,418.703
8969.791757000756,278.284
8974.577855495572,426.362
8979.26485751475,74.039
8984.048055470721,666.35
8988.829789208343,-214.457
8993.51251749025,436.574
8998.291354655303,628.054
9003.068729603765,1018.673
9007.747189991118,395.725
9012.521672326067,985.483
9017.294694442531,38.296
9021.968892767374,441.68
9026.739026222178,30.637
9031.41039612206,-1286.745
9036.17764353675,1279.086
9040.943434050514,331.898
9045.610551571128,262.966
9050.373459984672,255.307
9055.037755503963,-35.743
9059.797784430888,564.227
9064.45926050758,-173.608
9069.216412558366,385.513
9073.87507174812,280.837
9078.629349530078,408.49
9083.285194385431,426.362
9088.036600502714,513.166
9092.689633573158,446.786
9097.438170626783,561.674
9102.088394458704,-81.698
9106.73722909284,661.244
9111.481482183284,293.602
9116.12751137963,643.372
9120.868901881862,145.525
9125.512128179163,114.888
9130.153968412898,469.764
9134.891084617178,359.982
9139.53012574118,441.68
9144.167782675046,554.015
9148.9006303586,416.15
9153.535491965213,268.072
9158.168971251744,635.713
9162.801068836525,434.021
9167.528243916331,556.568
9172.157551197888,250.2
9176.785478643267,296.156
9181.412026869286,855.277
9186.13353953768,252.753
9190.757302472506,901.232
9195.37968804908,168.502
9200.000696882766,20.425
9204.620329588544,119.994
9209.334785850184,551.462
9213.951639506451,334.452
9218.567118890363,405.937
9223.181224615444,275.731
9227.79395729483,538.697
9232.40531754132,109.782
9237.015305967328,385.513
9241.623923184923,661.244
9246.23116980579,709.752
9250.932987640888,439.127
9255.537466379788,786.344
9260.140576367572,403.384
9264.742318214474,395.725
9269.342692530376,354.876
9273.941699924766,474.87
9278.539341006806,824.64
9283.135616385269,444.233
9287.730526668583,508.06
9292.324072464791,850.171
9296.91625438162,674.009
9301.411444872112,-186.374
9306.00092923447,150.631
9310.589051525738,426.362
9315.175812352172,311.474
9319.761212319692,98.119
9324.345252033823,-116.78
9328.927932099774,-316.398
9333.509253122353,-483.908
9338.08921570604,-602.479
9342.572446701386,-655.285
9347.149722488744,-625.499
9351.7256416359,-496.29
9356.300204745894,-250.834
9360.873412421412,127.699
9365.350032145325,656.138
9369.920558965528,1153.985
9374.489732144635,763.366
9379.05755228394,-171.055
9383.528899030936,1488.437
9388.09404305015,5320.588
9392.657835818722,9331.453
9397.125240831178,860.383
9401.6863610176,314.027
9406.246131739394,262.966
9410.80455359534,-171.055
9415.266701898625,183.821
9419.822455888205,209.351
9424.281993052333,607.63
9428.835081516963,411.043
9433.38682407955,-469.764
9437.84243511156,319.133
9442.391515668474,612.736
9446.84452129656,222.117
9451.390942182352,689.328
9455.93602012123,237.435
9460.385108237591,497.848
9464.927530014324,194.033
9469.374018445214,194.033
9473.913786387537,-288.496
9478.35767741084,204.245
9482.894793843763,239.988
9487.33608973474,306.368
9491.87055698055,444.233
9496.30926001177,446.786
9500.74668109923,587.205
9505.277192831463,388.066
9509.71202445114,12.765
9514.23989277796,245.094
9518.672137195834,-114.888
9523.103102466685,268.072
9527.62702390948,620.395
9532.05540536064,377.854
9536.57668916292,275.731
9541.002489053764,278.284
9545.42701258622,607.63
9549.850260312329,1230.577
9554.36630345335,6877.958
9558.78697410632,1143.773
9563.206370618926,153.184
9567.718482324255,171.055
9572.13530512818,403.384
9576.550855454823,584.652
9580.965133854,334.452
9585.47202083257,436.574
9589.883729992052,801.662
9594.294168883298,868.042
9598.703338054846,497.848
9603.111238054931,-181.268
9607.611613766734,285.943
9612.016950092931,584.652
9616.421018902103,283.39
9620.823820741218,873.148
9625.225356156909,472.317
9629.625625695517,45.955
9634.02462990307,347.217
9638.422369325252,278.284
9642.81884450748,1314.829
9647.21405599481,163.396
9651.701478874824,-1106.253
9656.094137748323,-1845.994
9660.485534571855,-2144.337
9664.875669889248,-2089.806
9669.264544244,-1770.918
9673.65215817932,-1276.19
9678.03851223808,-694.14
9682.423606962846,-113.285
9686.807442895892,377.854
9691.19002057915,541.25
9695.478134071804,132.759
9699.858223622705,398.278
9704.23705653629,262.966
9708.614633353289,472.317
9712.990954614088,347.217
9717.36602085878,359.982
9721.739832627154,594.864
9726.112390458671,403.384
9730.483694892511,400.831
9734.760779687776,911.444
9739.129605581998,783.791
9743.497179682729,1263.767
9747.863502527893,199.139
9752.228574655115,-767.311
9756.499562339395,-1189.501
9760.862161224974,-1193.476
9765.223510992222,-905.274
9769.583612177565,-450.935
9773.849736751828,43.497
9778.207368918504,451.981
9782.563754099236,648.479
9786.918892829211,571.887
9791.18016259473,464.658
9795.532836519418,809.322
9799.884265585692,824.64
9804.14190615754,-104.676
9808.490873566669,566.78
9812.83859770701,-119.994
9817.09261371952,173.608
9821.437879345483,454.446
9825.689490172908,640.819
9830.032299369228,-158.29
9834.373867936378,194.033
9838.621861899856,140.419
9842.960977171238,548.909
9847.206571054325,35.743
9851.543235108787,155.737
9855.786430944943,648.479
9860.12064585897,132.759
9864.361445679362,-229.776
9868.693213527116,753.154
9872.931619360628,375.301
9877.26094221391,68.933
9881.49695608711,209.351
9885.823836015392,691.881
9890.057459952584,559.121
9894.289902518456,926.763
9898.613135046206,408.49
9902.843190697367,541.25
9907.163985452502,732.73
9911.391656207565,474.87
9915.61814808206,33.19
9919.935303126713,633.16
9924.15941311792,160.843
9928.38234571751,947.187
9932.695865648708,273.178
9936.91641937277,1039.098
9941.135797191648,178.715
9945.445686598703,342.111
9949.662688544726,344.664
9953.878516069532,388.066
9958.09316966365,367.641
9962.398234183594,362.535
9966.61051589339,58.72
9970.821625153134,602.523
9975.031562452265,288.496
9979.240328279942,814.428
9983.53937957713,755.707
9987.745778488254,492.742
9991.95100740443,714.858
9996.155066813732,339.558
10000.357957203963,403.384
10004.55967906266,599.97
10008.760232877092,541.25
10013.050897176752,735.283
10017.249090997648,-84.251
10021.446118245014,546.356
10025.641979405023,155.737
10029.83667496358,183.821
10034.03020540632,349.77
10038.222571218605,349.77
10042.413772885537,367.641
10046.603810891938,477.423
10050.79268572236,74.039
10054.980397861098,411.043
10059.16694779218,262.966
10063.352335999334,707.199
10067.536562966066,679.115
10071.719629175575,125.1
10075.90153511081,8494.048
10080.082281254454,10033.546
10084.26186808891,2716.461
10088.440296096323,331.898
10092.52676786215,732.73
10096.702904826674,-188.927
10100.877884398516,-165.949
10105.051707058765,492.742
10109.224373288234,548.909
10113.395883567471,-132.759
10117.475590772649,520.825
10121.64481569536,426.362
10125.812886097472,155.737
10129.979802458443,135.312
10134.145565257517,599.97
10138.219652237512,344.664
10142.383134400929,-28.084
10146.545464428116,227.223
10150.706642797257,694.434
10154.776246850048,694.434
10158.935148346747,293.602
10163.092899607942,140.419
10167.159152430871,2045.005
10171.314629631466,11879.412
10175.468958016776,1327.594
10179.531863747628,459.552
10183.683920879565,-125.1
10187.834830614069,740.389
10191.894393383842,962.506
10196.043034667582,554.015
10200.190529969435,365.088
10204.246753902304,140.419
10208.391983551395,799.109
10212.44599199288,-204.245
10216.588957845182,559.121
10220.640752609928,518.272
10224.781456519388,773.579
10228.831039420063,265.519
10232.969483238625,137.866
10237.016856085897,377.854
10241.15304166346,191.48
10245.19820626604,-112.335
10249.332135450502,607.63
10253.375093615126,500.401
10257.506768252357,-7.659
10261.547521783785,132.759
10265.58718577827,612.736
10269.715494418666,137.866
10273.752956473523,454.446
10277.87901516247,288.496
10281.91427707755,10.212
10285.948451675904,165.949
10290.0711512271,602.523
10294.10312837192,-28.084
10298.13401952729,482.529
10302.253364041218,625.501
10306.282060424935,538.697
10310.309672144327,556.568
10314.425665714796,689.328
10318.451085340042,-84.251
10322.475421623927,538.697
10326.498675003731,528.484
10330.610215200984,79.145
10334.631280043344,469.764
10338.651263301725,194.033
10342.670165412448,620.395
10346.687986811625,554.015
10350.704727935088,86.804
10354.80961387438,561.674
10358.824171771252,490.189
10362.837650708272,398.278
10366.850051120337,43.402
10370.86137344214,505.507
10374.871618108127,61.274
10378.880785552512,622.948
10382.888876209276,745.495
10386.984923052532,303.815
10390.990837530662,554.015
10394.995676531347,5.106
10398.999440487634,472.317
10403.00212983234,-53.614
10407.003744998048,804.216
10411.004286417105,725.071
10415.003754521616,140.419
10419.002149743475,273.178
10422.999472514348,-71.486
10426.995723265634,125.1
10430.990902428544,602.523
10434.985010434026,352.323
10438.889325180557,239.988
10442.881315942828,301.262
10446.872236829608,125.1
10450.86208827093,551.462
10454.85087069661,926.763
10458.838584536235,150.631
10462.82523021915,214.457
10466.810808174472,237.435
10470.706785742112,-298.709
10474.690253232264,247.647
10478.672654271297,354.876
10482.653989287404,462.105
10486.634258708573,206.798
10490.525047770485,145.525
10494.50321094102,61.274
10498.480309789697,158.29
10502.45634474356,86.804
10506.342995080442,74.039
10510.316927143493,188.927
10514.2897965821,-584.652
10518.261603822417,-245.094
10522.144122034457,12.765
10526.113829736623,160.843
10530.082476508169,-209.351
10533.961905709137,837.405
10537.92845544769,285.943
10541.89394552126,375.301
10545.770289396216,79.145
10549.733684937964,150.631
10553.607981637546,81.698
10557.569284306495,68.933
10561.52952941227,469.764
10565.400746905443,97.016
10569.35890163298,132.759
10573.22807600992,135.312
10577.184142013864,-347.217
10581.05127489159,137.866
10585.005253824836,250.2
10588.87034681866,727.624
10592.822240332363,6691.584
10596.685295055897,934.422
10600.635104799476,357.429
10604.496122864624,-168.502
10608.443850485746,38.296
10612.302833502728,262.966
10616.160811022752,638.266
10620.10543022464,30.637
10623.9613750996,0.0
10627.903916281392,137.866
10631.757830117263,352.323
10635.61074043666,431.468
10639.550179321655,316.58
10643.401060998756,275.731
10647.250940343372,365.088
10651.187280591832,142.972
10655.035133687184,242.541
10658.881985632182,61.274
10662.815230898605,48.508
10666.660058983602,324.239
10670.50388709854,482.529
10674.346715633475,-30.637
10678.275847672114,-99.57
10682.116655520924,354.876
10685.956464967534,-81.698
10689.795276401208,30.637
10693.633090210977,104.676
10697.557095575656,-234.882
10701.39289265285,306.368
10705.227693280882,531.038
10709.061497847986,237.435
10712.894306742182,262.966
10716.726120351308,268.072
10720.55693906298,-84.251
10724.386763264632,-153.184
10728.302600658342,176.161
10732.130414421008,270.625
10735.957234843503,296.156
10739.783062312445,102.123
10743.60789721425,114.888
10747.431739935131,523.378
10751.254590861114,497.848
10755.076450378,303.815
10758.897318871408,372.748
10762.717196726757,771.026
10766.536084329256,209.351
10770.353982063916,308.921
10774.170890315563,89.357
10777.98680946881,308.921
10781.801739908076,114.888
10785.615682017564,283.39
10789.341989100834,-278.284
10793.153978142976,188.927
10796.964979998098,541.25
10800.774995049622,-171.055
10804.58402368077,-45.955
10808.392066274577,265.519
10812.199123213884,135.312
10816.005194881312,2.553
10819.723813349112,-43.402
10823.52793799081,497.848
10827.331078498672,508.06
10831.133235254529,137.866
10834.848029253728,-260.413
10838.64824198676,339.558
10842.447472103491,-71.486
10846.24571998498,219.564
10849.956695412544,186.374
10853.753002267928,288.496
10857.548328021428,132.759
10861.342673053316,418.703
10865.049835794096,495.295
10868.842242790466,-25.531
10872.63367019626,-352.323
10876.337982712816,25.531
10880.12747431772,-86.804
10883.82989575329,411.043
10887.617453039476,607.63
10891.404032613404,584.652
10895.103609289945,30.637
10898.88825677408,-142.972
10902.585945994537,-168.502
10906.368662867266,543.803
10910.150403901262,704.646
10913.845253813895,288.496
10917.62506645972,-331.898
10921.318032531915,227.223
10925.095918264182,479.976
10928.787001936307,385.513
10932.562962228116,273.178
10936.252164939066,543.803
10939.940438510435,469.764
10943.713524449233,280.837
10947.399919206764,-607.63
10951.171083372872,354.876
10954.855600751816,446.786
10958.62484461311,270.625
10962.307486047235,337.005
10965.989200819247,119.994
10969.755577991731,-10.212
10973.435418958636,-268.072
10977.114334320191,314.027
10980.877848072992,-51.061
10984.554891765896,896.126
10988.231010908596,411.043
10991.991664505884,227.223
10995.665914113146,-275.731
10999.33924022374,349.77
11003.011643185791,33.19
11006.768495629847,-370.194
11010.439031890255,339.558
11014.108646053544,-342.111
11017.777338467138,645.925
11021.530395518184,58.72
11025.197224058184,-171.055
11028.863131897786,-145.525
11032.528119383707,-79.145
11036.192186862492,99.57
11039.855334680517,22.978
11043.602720353196,206.798
11047.264008520897,-38.296
11050.924378073953,119.994
11054.58382935806,142.972
11058.242362718707,-56.167
11061.899978501227,56.167
11065.556677050785,-260.413
11069.21245871235,-132.759
11072.867323830738,377.854
11076.521272750586,-40.849
11080.174305816368,510.613
11083.826423372368,500.401
11087.477625762698,990.589
11091.127913331318,-51.061
11094.777286422,234.882
11098.425745378345,337.005
11102.073290543767,209.351
11105.719922261547,584.652
11109.36564087477,-446.786
11113.010446726335,275.731
11116.654340159006,234.882
11120.29732151534,-183.821
11123.93939113774,-135.312
11127.580549368427,-137.866
11131.22079654947,-403.384
11134.77550763161,-165.949
11138.413954906267,35.743
11142.051492148485,359.982
11145.688119699626,500.401
11149.323837900913,288.496
11152.958647093375,472.317
11156.508048620988,285.943
11160.141061938251,262.966
11163.773167260852,43.402
11167.40436492916,403.384
11170.950240228543,-91.91
11174.579644697213,196.586
11178.208142523734,224.67
11181.751381744987,239.988
11185.378088371155,-191.48
11189.003889365817,81.698
11192.628785068173,-84.251
11196.16850723805,150.631
11199.79161440632,421.256
11203.413817290922,20.425
11206.950910239968,-142.972
11210.571326582844,-247.647
11214.10667518314,79.145
11217.725306305692,148.078
11221.343034819707,-25.531
11224.875759069631,339.558
11228.49170435076,-145.525
11232.022687482247,837.405
11235.636850848638,199.139
11239.166094148528,-22.978
11242.778476917028,107.229
11246.305981670925,635.713
11249.91658515709,-525.931
11253.442352649325,-56.167
11257.05117816741,819.534
11260.575209681025,-84.251
11264.182258544,168.502
11267.704555360804,-127.653
11271.309828880325,-35.743
11274.83039228086,393.172
11278.350099642112,191.48
11281.952723030843,163.396
11285.470698886753,-33.19
11288.987819646914,-109.782
11292.587795825824,-188.927
11296.103186988752,158.29
11299.70139304264,176.161
11303.215055883851,-5.106
11306.727865201254,-357.429
11310.23982130582,571.887
11313.834511810855,25.531
11317.34474212601,725.071
11320.8541201677,-224.67
11324.446172200132,354.876
11327.953826352135,331.898
11331.460629168672,247.647
11334.96658095964,-413.597
11338.471682034791,686.775
11342.059356881087,370.194
11345.562737216636,-482.529
11349.06526777208,71.486
11352.566948856567,-273.178
11356.067780779093,-201.692
11359.56776384851,53.614
11363.1502007606,-260.413
11366.648466857394,140.419
11370.145885034064,-288.496
11373.642455598843,229.776
11377.138178859836,-283.39
11380.633055125,0.0
11384.1270847021,173.608
11387.620267898808,-268.072
11391.112605022612,165.949
11394.60409638087,1771.827
11398.094742280777,329.345
11401.584543029392,-296.156
11405.073498933603,-285.943
11408.561610300185,30.637
11412.048877435727,107.229
11415.5353006467,-140.419
11419.020880239405,605.076
11422.505616520008,209.351
11425.989509794525,311.474
11429.472560368817,324.239
11432.954768548592,158.29
11436.43613463944,211.904
11439.916658946764,265.519
11443.313501961433,-12.765
11446.79236364179,571.887
11450.270384446749,25.531
11453.74756468115,-485.082
11457.22390464968,398.278
11460.699404656869,245.094
11464.091344754375,661.244
11467.565185732994,-28.084
11471.038187655771,56.167
11474.51035082668,-71.486
11477.981675549512,-237.435
11481.369541233144,-265.519
11484.839209915755,-148.078
11488.30804105362,122.547
11491.693473394258,344.664
11495.16065027576,-321.686
11498.626990514544,-308.921
11502.092494413417,242.541
11505.474679896604,63.827
11508.938531918346,-495.295
11512.401548500471,-380.407
11515.78130675673,142.972
11519.242673239612,89.357
11522.620821260369,-117.441
11526.080538823127,247.647
11529.5394224415,-168.502
11532.915147579475,-546.356
11536.372384051368,-68.933
11539.74650183491,482.529
11543.202092336618,-145.525
11546.574603913472,-204.245
11550.028549620163,-633.16
11553.399456136987,-160.843
11556.85175822272,-234.882
11560.221060825072,7.659
11563.67172046279,-33.19
11567.039420295116,423.809
11570.488438656655,10.212
11573.854536862347,17.871
11577.301915118398,-122.547
11580.666412839755,-155.737
11584.030120381583,0.0
11587.475050538147,99.57
11590.837159300165,-127.653
11594.280452266124,222.117
11597.64096338792,-658.691
11601.000685734118,-255.307
11604.441534950183,-298.709
11607.79966135666,-239.988
11611.156999826935,-58.72
11614.59540789372,94.463
11617.951152122365,199.139
11621.306109253032,201.692
11624.66027956261,275.731
11628.09544335218,22.978
11631.44802167594,-257.86
11634.799814015252,51.061
11638.15082064648,-91.91
11641.58274474832,17.871
11644.932161645294,114.888
11648.280793669244,15.318
11651.62864109602,-265.519
11654.975704201344,-645.925
11658.403590030808,-2078.195
11661.749066206958,-140.419
11665.093758894744,-196.586
11668.43766836938,-176.161
11671.780794905935,-22.978
11675.12313877933,188.927
11678.4647002644,-135.312
11681.805479635816,135.312
11685.145477168146,472.317
11688.484693135812,398.278
11691.904543291126,-370.194
11695.24217790648,-40.849
11698.579031786354,25.531
11701.915105204676,61.274
11705.25039843522,456.999
11708.584911751648,-61.274
11711.918645427471,142.972
11715.251599736104,-722.517
11718.502511651865,-63.827
11721.83392703817,-61.274
11725.164563870054,132.759
11728.4944224204,-250.2
11731.823502961994,-130.206
11735.15180576744,-217.011
11738.479331109273,-76.592
11741.806079259855,53.614
11745.132050491462,-91.91
11748.457245076206,-40.849
11751.70058915004,219.564
11755.024250183047,97.016
11758.34713537819,-367.641
11761.669245007088,-43.402
11764.990579341233,191.48
11768.230158619372,99.57
11771.549962071174,-763.366
11774.86899103535,-691.881
11778.187245782876,-561.674
11781.423821624776,349.77
11784.740547618409,163.396
11788.05650020102,-508.06
11791.371679643096,130.206
11794.605256223578,-224.67
11797.91890903626,173.608
11801.231789512534,446.786
11804.46312397414,201.692
11807.774479408556,86.804
11811.085063309589,247.647
11814.314157983485,-194.033
11817.623218427994,130.206
11820.850827315822,-99.57
11824.158365355152,-421.256
11827.4651331948,196.586
11830.690506166697,68.933
11833.995753182851,-651.032
11837.219642936305,0.0
11840.52337017791,242.541
11843.745777735792,-436.574
11847.047986250807,17.871
11850.26891263506,-211.904
11853.569603470474,28.084
11856.789049702087,7.659
11860.088223903953,178.715
11863.30619100298,153.184
11866.603849616356,308.921
11869.820338601929,-372.748
11873.11648267094,-53.614
11876.331494561222,201.692
11879.545777396996,-10.212
11882.839660941268,362.535
11886.052468201013,270.625
11889.26454715598,-382.96
11892.55617250015,-359.982
11895.766777396242,-403.384
11899.056892350098,257.86
11902.26602420178,-186.374
11905.474428998024,-17.871
11908.682106985869,901.232
11911.969222890988,398.278
11915.17542984806,91.91
11918.380910743392,153.184
11921.66577540321,0.0
11924.869786778698,-48.508
11928.07307283808,395.725
11931.27563382762,-10.212
11934.477469993468,229.776
11937.758600089848,76.592
11940.95896924119,89.357
11944.158614312782,-48.508
11947.35753555032,329.345
11950.55573319941,-51.061
11953.753207505528,270.625
11957.029868231695,6357.132
11960.225878519712,22.978
11963.42116620667,209.351
11966.615731537608,56.167
11969.809574757444,-107.229
11973.002696111003,-643.372
11976.195095842992,117.441
11979.386774197992,-204.245
11982.577731420495,-204.245
11985.767967754866,68.933
11988.957483445382,-176.161
11992.146278736183,-232.329
11995.334353871312,426.362
11998.521709094712,-160.843
12001.708344650193,30.637
12004.894260781464,194.033
12008.079457732136,-291.049
12011.2639357457,-339.558
12014.44769506553,191.48
12017.630735934905,-58.72
12020.81305859698,-599.97
12023.994663294816,270.625
12027.175550271351,84.251
12030.27622427429,571.887
12033.455694464548,-114.888
12036.634447655608,-704.646
12039.812484089987,262.966
12042.989804010074,-268.072
12046.166407658158,-40.849
12049.26290681064,15.318
12052.4380965329,-347.217
12055.612570703324,-84.251
12058.786329563762,-107.229
12061.880055974125,-127.653
12065.052402807443,81.698
12068.224035049663,-273.178
12071.394952942192,-43.402
12074.485910333004,331.898
12077.655418093736,-354.876
12080.824212222367,-388.066
12083.913099633974,280.837
12087.080485047096,-201.692
12090.247157544738,-576.993
12093.333977055809,-99.57
