Raman shift,Intensity
415.55379,1744.60225
417.76603,1744.60225
419.97826,1744.60225
422.1905,1744.60225
424.40273,1744.60225
426.61497,1744.60225
428.8272,1745.38317
431.03944,1745.38317
433.25168,1745.38317
435.46391,1745.38317
437.67615,1745.38317
439.88838,1746.16408
442.10062,1746.16408
444.31285,1746.94499
446.52509,1746.94499
448.73732,1746.94499
450.94956,1747.72591
453.1618,1747.72591
455.37403,1747.72591
457.58627,1748.50682
459.7985,1748.50682
462.01074,1749.28773
464.22297,1749.28773
466.43521,1749.28773
468.64745,1750.06864
470.85968,1750.06864
473.07192,1750.06864
475.28415,1750.06864
477.49639,1750.06864
479.70862,1750.06864
481.92086,1750.06864
484.1331,1750.06864
486.34533,1749.28773
488.55757,1749.28773
490.7698,1748.50682
492.98204,1748.50682
495.19427,1747.72591
497.40651,1747.72591
499.61874,1747.72591
501.83098,1746.94499
504.04322,1746.94499
506.25545,1746.94499
508.46769,1746.16408
510.67992,1746.16408
512.89216,1745.38317
515.10439,1745.38317
517.31663,1745.38317
519.52887,1745.38317
521.7411,1745.38317
523.95334,1744.60225
526.16557,1744.60225
528.37781,1744.60225
530.59004,1744.60225
532.80228,1744.60225
535.01451,1744.60225
537.22675,1744.60225
539.43899,1744.60225
541.65122,1744.60225
543.86346,1744.60225
546.07569,1744.60225
548.28793,1744.60225
550.50016,1744.60225
552.7124,1744.60225
554.92464,1744.60225
557.13687,1744.60225
559.34911,1744.60225
561.56134,1744.60225
563.77358,1744.60225
565.98581,1744.60225
568.19805,1744.60225
570.41029,1744.60225
572.62252,1744.60225
574.83476,1744.60225
577.04699,1744.60225
579.25923,1744.60225
581.47146,1744.60225
583.6837,1744.60225
585.89593,1744.60225
588.10817,1744.60225
590.32041,1744.60225
592.53264,1745.38317
594.74488,1745.38317
596.95711,1745.38317
599.16935,1745.38317
601.38158,1746.16408
603.59382,1746.16408
605.80606,1746.94499
608.01829,1746.94499
610.23053,1746.94499
612.44276,1747.72591
654.18357,1745.46343
661.90385,1745.46343
704.36542,1745.46343
740.39341,1735.01811
762.87479,1743.82134
765.08702,1743.82134
767.29926,1743.82134
769.51149,1743.82134
771.72373,1743.82134
773.93596,1743.82134
776.1482,1743.82134
778.36044,1743.82134
780.57267,1743.82134
782.78491,1743.82134
784.99714,1743.82134
787.20938,1743.82134
789.42161,1743.82134
791.63385,1743.82134
793.84609,1743.82134
796.05832,1743.82134
798.27056,1743.82134
800.48279,1743.82134
802.69503,1743.82134
804.90726,1743.82134
807.1195,1743.82134
809.33173,1743.82134
811.54397,1743.82134
813.75621,1743.82134
815.96844,1743.82134
818.18068,1743.82134
820.39291,1743.82134
822.60515,1743.82134
824.81738,1743.82134
827.02962,1743.82134
829.24186,1743.82134
831.45409,1743.82134
833.66633,1743.82134
835.87856,1743.82134
838.0908,1743.82134
840.30303,1743.82134
842.51527,1743.82134
844.72751,1743.82134
846.93974,1743.82134
849.15198,1743.82134
851.36421,1743.82134
853.57645,1743.82134
855.78868,1743.82134
858.00092,1743.82134
860.21315,1743.82134
862.42539,1743.82134
864.63763,1743.82134
866.84986,1743.82134
869.0621,1743.82134
871.27433,1743.82134
873.48657,1743.82134
875.6988,1743.82134
877.91104,1743.82134
880.12328,1744.60225
882.33551,1745.38317
884.54775,1746.16408
886.75998,1746.16408
888.97222,1746.16408
891.18445,1746.16408
893.39669,1746.16408
895.60892,1746.16408
897.82116,1746.16408
900.0334,1746.94499
902.24563,1746.94499
904.45787,1746.94499
906.6701,1746.94499
908.88234,1746.94499
911.09457,1746.94499
913.30681,1746.16408
915.51905,1746.94499
917.73128,1746.94499
919.94352,1746.94499
922.15575,1746.94499
924.36799,1746.94499
926.58022,1746.94499
928.79246,1746.94499
931.0047,1746.94499
933.21693,1746.16408
935.42917,1746.16408
937.6414,1746.94499
939.85364,1746.94499
942.06587,1747.72591
944.27811,1747.72591
946.49034,1747.72591
948.70258,1746.94499
950.91482,1746.16408
953.12705,1745.38317
955.33929,1745.38317
955.33929,1746.16408
955.33929,1746.94499
955.33929,1747.72591
955.33929,1748.50682
957.55152,1748.50682
959.76376,1748.50682
961.97599,1748.50682
964.18823,1748.50682
964.18823,1749.28773
966.40047,1749.28773
966.40047,1750.06864
968.6127,1750.84956
968.6127,1751.63047
968.6127,1752.41138
968.6127,1761.00142
968.6127,1764.90599
968.6127,1761.78234
968.6127,1765.6869
970.82494,1753.19229
970.82494,1764.12507
970.82494,1757.87777
970.82494,1754.75412
970.82494,1753.97321
970.82494,1760.22051
970.82494,1768.81055
970.82494,1755.53503
970.82494,1762.56325
970.82494,1766.46781
970.82494,1768.02964
973.03717,1757.09686
973.03717,1758.65868
973.03717,1763.34416
973.03717,1767.24872
973.03717,1756.31595
973.03717,1759.4396
973.03717,1769.59146
973.03717,1788.33337
975.24941,1770.37238
975.24941,1787.55246
975.24941,1789.11428
975.24941,1790.67611
975.24941,1789.8952
975.24941,1778.96242
977.46164,1791.45702
977.46164,1771.15329
977.46164,1777.40059
977.46164,1778.1815
977.46164,1775.05785
977.46164,1779.74333
977.46164,1782.86698
977.46164,1786.77154
979.67388,1782.08607
979.67388,1771.9342
979.67388,1783.64789
979.67388,1772.71511
979.67388,1773.49603
979.67388,1785.99063
979.67388,1781.30516
979.67388,1780.52424
979.67388,1776.61968
979.67388,1775.83877
979.67388,1774.27694
979.67388,1792.23793
981.88611,1784.42881
981.88611,1785.20972
981.88611,1793.01885
981.88611,1799.26615
981.88611,1794.58067
984.09835,1795.36159
984.09835,1793.79976
984.09835,1808.6371
984.09835,1797.70432
984.09835,1798.48524
984.09835,1822.69353
984.09835,1800.04706
984.09835,1821.91262
984.09835,1803.95163
984.09835,1821.13171
986.31059,1802.3898
986.31059,1801.60889
986.31059,1800.82797
986.31059,1796.1425
986.31059,1823.47445
986.31059,1807.07528
986.31059,1807.85619
986.31059,1796.92341
986.31059,1809.41802
986.31059,1813.32258
986.31059,1804.73254
986.31059,1803.17071
986.31059,1820.35079
986.31059,1818.78897
988.52282,1814.10349
988.52282,1805.51345
988.52282,1818.00806
988.52282,1824.25536
988.52282,1806.29436
988.52282,1810.19893
988.52282,1810.97984
988.52282,1819.56988
988.52282,1812.54167
988.52282,1811.76075
990.73506,1814.88441
990.73506,1815.66532
990.73506,1817.22714
990.73506,1839.87361
990.73506,1825.03627
990.73506,1839.0927
990.73506,1826.5981
990.73506,1840.65453
990.73506,1841.43544
992.94729,1827.37901
992.94729,1842.21635
992.94729,1845.34
992.94729,1831.28357
992.94729,1832.06449
992.94729,1832.8454
992.94729,1844.55909
992.94729,1825.81718
992.94729,1842.99727
992.94729,1838.31179
992.94729,1816.44623
995.15953,1828.94084
995.15953,1846.12092
995.15953,1834.40722
995.15953,1828.15992
995.15953,1837.53088
995.15953,1847.68274
995.15953,1830.50266
995.15953,1833.62631
995.15953,1843.77818
995.15953,1848.46365
997.37176,1835.96905
997.37176,1829.72175
997.37176,1846.90183
997.37176,1836.74996
997.37176,1835.18814
997.37176,1849.24457
997.37176,1850.02548
997.37176,1850.80639
997.37176,1851.58731
997.37176,1852.36822
999.584,1852.36822
999.584,1851.58731
999.584,1850.80639
1001.79624,1850.80639
1004.00847,1850.80639
1004.00847,1850.02548
1004.00847,1849.24457
1006.22071,1848.46365
1008.43294,1848.46365
1008.43294,1844.55909
1008.43294,1845.34
1010.64518,1848.46365
1010.64518,1846.12092
1010.64518,1843.77818
1012.85741,1847.68274
1012.85741,1848.46365
1012.85741,1846.90183
1012.85741,1842.99727
1012.85741,1828.15992
1015.06965,1842.21635
1015.06965,1829.72175
1015.06965,1828.94084
1015.06965,1826.5981
1015.06965,1827.37901
1017.28189,1841.43544
1017.28189,1825.81718
1017.28189,1824.25536
1017.28189,1823.47445
1017.28189,1822.69353
1017.28189,1840.65453
1017.28189,1832.8454
1017.28189,1832.06449
1017.28189,1831.28357
1017.28189,1830.50266
1017.28189,1833.62631
1017.28189,1818.78897
1017.28189,1819.56988
1019.49412,1835.96905
1019.49412,1836.74996
1019.49412,1815.66532
1019.49412,1825.03627
1019.49412,1818.00806
1019.49412,1839.0927
1019.49412,1839.87361
1019.49412,1821.91262
1019.49412,1834.40722
1019.49412,1820.35079
1019.49412,1816.44623
1021.70636,1821.13171
1021.70636,1838.31179
1021.70636,1817.22714
1021.70636,1835.18814
1021.70636,1837.53088
1021.70636,1814.88441
1023.91859,1814.10349
1023.91859,1803.95163
1023.91859,1803.17071
1026.13083,1802.3898
1026.13083,1807.07528
1026.13083,1813.32258
1026.13083,1804.73254
1026.13083,1805.51345
1026.13083,1806.29436
1028.34306,1812.54167
1028.34306,1807.85619
1028.34306,1811.76075
1028.34306,1810.97984
1028.34306,1810.19893
1028.34306,1801.60889
1030.5553,1808.6371
1030.5553,1809.41802
1030.5553,1800.82797
1030.5553,1800.04706
1032.76753,1799.26615
1032.76753,1798.48524
1032.76753,1797.70432
1032.76753,1796.92341
1032.76753,1796.1425
1032.76753,1793.01885
1032.76753,1775.05785
1032.76753,1777.40059
1032.76753,1778.1815
1032.76753,1792.23793
1032.76753,1775.83877
1032.76753,1778.96242
1034.97977,1790.67611
1034.97977,1795.36159
1034.97977,1794.58067
1034.97977,1779.74333
1034.97977,1780.52424
1034.97977,1781.30516
1034.97977,1782.08607
1034.97977,1776.61968
1034.97977,1789.8952
1034.97977,1772.71511
1034.97977,1788.33337
1034.97977,1774.27694
1034.97977,1793.79976
1034.97977,1791.45702
1034.97977,1789.11428
1037.19201,1773.49603
1037.19201,1771.9342
1037.19201,1784.42881
1037.19201,1787.55246
1037.19201,1782.86698
1039.40424,1785.99063
1039.40424,1786.77154
1039.40424,1785.20972
1039.40424,1783.64789
1039.40424,1771.15329
1041.61648,1770.37238
1041.61648,1769.59146
1043.82871,1768.81055
1043.82871,1768.02964
1043.82871,1767.24872
1043.82871,1766.46781
1043.82871,1765.6869
1046.04095,1764.90599
1046.04095,1764.12507
1046.04095,1753.19229
1046.04095,1758.65868
1046.04095,1759.4396
1046.04095,1751.63047
1046.04095,1752.41138
1048.25318,1760.22051
1048.25318,1761.00142
1048.25318,1757.87777
1048.25318,1753.97321
1048.25318,1751.63047
1048.25318,1761.78234
1048.25318,1762.56325
1048.25318,1763.34416
1050.46542,1757.09686
1050.46542,1754.75412
1050.46542,1751.63047
1052.67766,1755.53503
1052.67766,1756.31595
1052.67766,1751.63047
1054.88989,1751.63047
1057.10213,1751.63047
1059.31436,1751.63047
1059.31436,1750.84956
1059.31436,1750.06864
1059.31436,1749.28773
1059.31436,1748.50682
1059.31436,1747.72591
1059.31436,1746.94499
1059.31436,1746.16408
1061.5266,1746.16408
1063.73883,1745.38317
1065.95107,1746.16408
1068.16331,1746.94499
1070.37554,1746.16408
1072.58778,1745.38317
1074.80001,1746.16408
1077.01225,1746.16408
1079.22448,1746.16408
1079.22448,1746.94499
1081.43672,1746.94499
1083.64895,1746.94499
1085.86119,1747.72591
1085.86119,1748.50682
1085.86119,1749.28773
1085.86119,1750.06864
1085.86119,1750.84956
1085.86119,1751.63047
1085.86119,1752.41138
1085.86119,1753.19229
1088.07343,1753.19229
1088.07343,1753.97321
1090.28566,1753.97321
1090.28566,1754.75412
1092.4979,1754.75412
1092.4979,1755.53503
1094.71013,1756.31595
1096.92237,1756.31595
1099.1346,1756.31595
1101.34684,1756.31595
1103.55908,1756.31595
1105.77131,1756.31595
1105.77131,1757.09686
1107.98355,1757.09686
1110.19578,1757.09686
1110.19578,1757.87777
1112.40802,1757.87777
1112.40802,1758.65868
1114.62025,1758.65868
1114.62025,1759.4396
1116.83249,1759.4396
1119.04472,1759.4396
1119.04472,1760.22051
1121.25696,1760.22051
1121.25696,1761.00142
1123.4692,1761.00142
1125.68143,1761.00142
1127.89367,1761.78234
1130.1059,1761.78234
1130.1059,1762.56325
1132.31814,1762.56325
1134.53037,1762.56325
1134.53037,1763.34416
1136.74261,1763.34416
1138.95485,1763.34416
1138.95485,1764.12507
1141.16708,1764.12507
1141.16708,1764.90599
1141.16708,1765.6869
1141.16708,1766.46781
1141.16708,1767.24872
1143.37932,1766.46781
1145.59155,1765.6869
1147.80379,1764.90599
1150.01602,1764.90599
1152.22826,1764.90599
1154.4405,1765.6869
1156.65273,1766.46781
1158.86497,1767.24872
1161.0772,1768.02964
1161.0772,1767.24872
1163.28944,1767.24872
1165.50167,1767.24872
1165.50167,1766.46781
1165.50167,1765.6869
1165.50167,1764.90599
1165.50167,1764.12507
1165.50167,1763.34416
1165.50167,1762.56325
1165.50167,1761.78234
1165.50167,1761.00142
1167.71391,1761.00142
1167.71391,1760.22051
1169.92614,1760.22051
1169.92614,1759.4396
1169.92614,1758.65868
1172.13838,1758.65868
1172.13838,1757.87777
1174.35062,1757.87777
1174.35062,1757.09686
1174.35062,1756.31595
1176.56285,1756.31595
1176.56285,1755.53503
1178.77509,1755.53503
1178.77509,1754.75412
1180.98732,1754.75412
1183.19956,1754.75412
1185.41179,1754.75412
1187.62403,1754.75412
1189.83627,1753.97321
1192.0485,1753.97321
1192.0485,1753.19229
1192.0485,1752.41138
1194.26074,1752.41138
1194.26074,1751.63047
1196.47297,1751.63047
1196.47297,1750.84956
1196.47297,1750.06864
1196.47297,1749.28773
1196.47297,1748.50682
1196.47297,1747.72591
1196.47297,1746.94499
1198.68521,1746.94499
1198.68521,1746.16408
1200.89744,1746.16408
1200.89744,1745.38317
1203.10968,1745.38317
1203.10968,1744.60225
1205.32192,1744.60225
1207.53415,1744.60225
1209.74639,1744.60225
1211.95862,1745.38317
1214.17086,1746.16408
1216.38309,1746.94499
1218.59533,1746.94499
1220.80756,1746.94499
1223.0198,1746.94499
1225.23204,1746.94499
1227.44427,1746.94499
1229.65651,1746.94499
1231.86874,1746.94499
1234.08098,1746.16408
1236.29321,1745.38317
1238.50545,1744.60225
1240.71769,1743.82134
1242.92992,1743.04043
1245.14216,1743.04043
1247.35439,1743.04043
1249.56663,1743.04043
1251.77886,1743.04043
1253.9911,1743.04043
1256.20333,1743.04043
1258.41557,1743.04043
1260.62781,1743.82134
1262.84004,1743.82134
1265.05228,1743.82134
1267.26451,1743.82134
1269.47675,1743.82134
1271.68898,1743.82134
1273.90122,1743.82134
1276.11346,1743.82134
1278.32569,1743.82134
1280.53793,1743.82134
1282.75016,1744.60225
1284.9624,1745.38317
1287.17463,1746.16408
1289.38687,1746.16408
1291.59911,1746.16408
1293.81134,1746.16408
1296.02358,1746.16408
1298.23581,1746.16408
1300.44805,1745.38317
1302.66028,1744.60225
1304.87252,1743.82134
1307.08475,1743.04043
1309.29699,1743.04043
1311.50923,1743.82134
1313.72146,1744.60225
1315.9337,1745.38317
1318.14593,1746.16408
1320.35817,1746.16408
1322.5704,1746.16408
1324.78264,1746.16408
1326.99488,1746.16408
1329.20711,1746.16408
1331.41935,1745.38317
1333.63158,1744.60225
1335.84382,1743.82134
1338.05605,1743.82134
1340.26829,1743.82134
1342.48052,1743.82134
1344.69276,1743.82134
1346.905,1743.82134
1349.11723,1743.82134
1351.32947,1743.04043
1353.5417,1742.25952
1355.75394,1742.25952
1357.96617,1742.25952
1360.17841,1742.25952
1362.39065,1742.25952
1364.60288,1742.25952
1366.81512,1742.25952
1369.02735,1742.25952
1371.23959,1742.25952
1373.45182,1742.25952
1375.66406,1742.25952
1377.8763,1742.25952
1380.08853,1742.25952
1382.30077,1742.25952
1384.513,1742.25952
1386.72524,1742.25952
1388.93747,1742.25952
1391.14971,1742.25952
1393.36194,1742.25952
1395.57418,1742.25952
1397.78642,1742.25952
1399.99865,1742.25952
1402.21089,1742.25952
1404.42312,1742.25952
1406.63536,1742.25952
1408.84759,1742.25952
1411.05983,1742.25952
1413.27207,1742.25952
1415.4843,1742.25952
1417.69654,1742.25952
1419.90877,1742.25952
1422.12101,1742.25952
1424.33324,1742.25952
1426.54548,1742.25952
1428.75772,1742.25952
1430.96995,1742.25952
1433.18219,1742.25952
1435.39442,1742.25952
1437.60666,1742.25952
1439.81889,1742.25952
1442.03113,1742.25952
1444.24336,1742.25952
1446.4556,1742.25952
1448.66784,1742.25952
1450.88007,1742.25952
1453.09231,1742.25952
1455.30454,1742.25952
1457.51678,1742.25952
1459.72901,1742.25952
1461.94125,1742.25952
1464.15349,1742.25952
1466.36572,1742.25952
1468.57796,1742.25952
1470.79019,1742.25952
1473.00243,1742.25952
1475.21466,1742.25952
1477.4269,1742.25952
1479.63913,1742.25952
1481.85137,1742.25952
1484.06361,1742.25952
1486.27584,1742.25952
1488.48808,1742.25952
1490.70031,1742.25952
1492.91255,1742.25952
1495.12478,1742.25952
1497.33702,1742.25952
1499.54926,1742.25952
1501.76149,1742.25952
1503.97373,1742.25952
1506.18596,1742.25952
1508.3982,1742.25952
1510.61043,1742.25952
1512.82267,1742.25952
1515.03491,1742.25952
1517.24714,1742.25952
1519.45938,1742.25952
1521.67161,1742.25952
1523.88385,1742.25952
1526.09608,1742.25952
1528.30832,1742.25952
1530.52055,1742.25952
1532.73279,1743.04043
1534.94503,1743.82134
1537.15726,1744.60225
1539.3695,1744.60225
1541.58173,1744.60225
1543.79397,1744.60225
1546.0062,1744.60225
1548.21844,1744.60225
1550.43068,1744.60225
1552.64291,1744.60225
1554.85515,1744.60225
1557.06738,1744.60225
1559.27962,1744.60225
1561.49185,1744.60225
1563.70409,1744.60225
1565.91633,1744.60225
1568.12856,1744.60225
1570.3408,1744.60225
1572.55303,1744.60225
1574.76527,1744.60225
1576.9775,1744.60225
1579.18974,1744.60225
1581.40197,1743.82134
1583.61421,1743.04043
1585.82645,1742.25952
1588.03868,1742.25952
1590.25092,1742.25952
1592.46315,1742.25952
1594.67539,1742.25952
1596.88762,1742.25952
1599.09986,1742.25952
1601.3121,1742.25952
1603.52433,1742.25952
1605.73657,1742.25952
1607.9488,1742.25952
1610.16104,1742.25952
1612.37327,1742.25952
1614.58551,1742.25952
1616.79774,1742.25952
1619.00998,1742.25952
1621.22222,1742.25952
1623.43445,1742.25952
1625.64669,1742.25952
1627.85892,1742.25952
1630.07116,1742.25952
1632.28339,1742.25952
1634.49563,1742.25952
1636.70787,1742.25952
1638.9201,1742.25952
1641.13234,1742.25952
1643.34457,1742.25952
1645.55681,1742.25952
1647.76904,1742.25952
1649.98128,1742.25952
1652.19352,1742.25952
1654.40575,1742.25952
1656.61799,1742.25952
1658.83022,1742.25952
1661.04246,1742.25952
1663.25469,1742.25952
1665.46693,1742.25952
1667.67916,1742.25952
1669.8914,1742.25952
1672.10364,1742.25952
1674.31587,1742.25952
1676.52811,1742.25952
1678.74034,1742.25952
1680.95258,1742.25952
1683.16481,1742.25952
1685.37705,1742.25952
1687.58929,1742.25952
1689.80152,1743.04043
1692.01376,1743.04043
1694.22599,1743.04043
1696.43823,1743.04043
1698.65046,1743.04043
1700.8627,1743.04043
1703.07493,1743.04043
1705.28717,1743.04043
1707.49941,1743.04043
1709.71164,1743.04043
1711.92388,1743.82134
1714.13611,1744.60225
1716.34835,1745.38317
1718.56058,1745.38317
1720.77282,1745.38317
1722.98506,1745.38317
1725.19729,1745.38317
1727.40953,1745.38317
1729.62176,1744.60225
1731.834,1743.82134
1734.04623,1743.04043
1736.25847,1742.25952
1738.47071,1742.25952
1740.68294,1742.25952
1742.89518,1742.25952
1745.10741,1742.25952
1747.31965,1742.25952
1749.53188,1742.25952
1751.74412,1742.25952
1753.95635,1742.25952
1756.16859,1742.25952
1758.38083,1742.25952
1760.59306,1742.25952
1762.8053,1742.25952
1765.01753,1742.25952
1767.22977,1742.25952
1769.442,1742.25952
1771.65424,1742.25952
1773.86648,1742.25952
1776.07871,1742.25952
1778.29095,1742.25952
1780.50318,1742.25952
1782.71542,1742.25952
1784.92765,1742.25952
1787.13989,1742.25952
1789.35213,1742.25952
1791.56436,1742.25952
1793.7766,1742.25952
1795.98883,1742.25952
1798.20107,1742.25952
1800.4133,1742.25952
1802.62554,1742.25952
1804.83777,1742.25952
1807.05001,1742.25952
1809.26225,1742.25952
1811.47448,1742.25952
1813.68672,1742.25952
1815.89895,1742.25952
1818.11119,1742.25952
1820.32342,1742.25952
1822.53566,1742.25952
1824.7479,1742.25952
1826.96013,1742.25952
1829.17237,1742.25952
1831.3846,1742.25952
1833.59684,1742.25952
1835.80907,1742.25952
1838.02131,1742.25952
1840.23354,1742.25952
1842.44578,1742.25952
1844.65802,1742.25952
1846.87025,1742.25952
1849.08249,1742.25952
1851.29472,1742.25952
1853.50696,1742.25952
1855.71919,1742.25952
1857.93143,1742.25952
1860.14367,1742.25952
1862.3559,1742.25952
1864.56814,1742.25952
1866.78037,1742.25952
1868.99261,1742.25952
1871.20484,1742.25952
1873.41708,1742.25952
1875.62932,1742.25952
1877.84155,1742.25952
1880.05379,1742.25952
1882.26602,1742.25952
1884.47826,1742.25952
1886.69049,1742.25952
1888.90273,1742.25952
1891.11496,1742.25952
1893.3272,1742.25952
1895.53944,1742.25952
1897.75167,1742.25952
1899.96391,1742.25952
1902.17614,1742.25952
1904.38838,1742.25952
1906.60061,1742.25952
1908.81285,1742.25952
1911.02509,1742.25952
1913.23732,1742.25952
1915.44956,1742.25952
1917.66179,1742.25952
1919.87403,1742.25952
1922.08626,1742.25952
1924.2985,1742.25952
1926.51073,1742.25952
1928.72297,1742.25952
1930.93521,1742.25952
1933.14744,1742.25952
1935.35968,1742.25952
1937.57191,1742.25952
1939.78415,1742.25952
1941.99638,1742.25952
1944.20862,1742.25952
1946.42086,1742.25952
1948.63309,1742.25952
1950.84533,1742.25952
1953.05756,1742.25952
1955.2698,1742.25952
1957.48203,1742.25952
1959.69427,1742.25952
1961.90651,1742.25952
1964.11874,1742.25952
1966.33098,1742.25952
1968.54321,1742.25952
1970.75545,1742.25952
1972.96768,1742.25952
1975.17992,1742.25952
1977.39215,1742.25952
1979.60439,1742.25952
1981.81663,1742.25952
1984.02886,1742.25952
1986.2411,1742.25952
1988.45333,1742.25952
1990.66557,1742.25952
1992.8778,1742.25952
1995.09004,1742.25952
1997.30228,1742.25952
1999.51451,1742.25952
2001.72675,1742.25952
2003.93898,1742.25952
2006.15122,1742.25952
2008.36345,1742.25952
2010.57569,1742.25952
2012.78793,1742.25952
2015.00016,1742.25952
2017.2124,1742.25952
2019.42463,1742.25952
2021.63687,1742.25952
2023.8491,1742.25952
2026.06134,1742.25952
2028.27357,1742.25952
2030.48581,1742.25952
2032.69805,1742.25952
2034.91028,1742.25952
2037.12252,1742.25952
2039.33475,1742.25952
2041.54699,1742.25952
2043.75922,1742.25952
2045.97146,1742.25952
2048.1837,1742.25952
2050.39593,1742.25952
2052.60817,1742.25952
2054.8204,1742.25952
2057.03264,1742.25952
2059.24487,1742.25952
2061.45711,1742.25952
2063.66934,1742.25952
2065.88158,1742.25952
2068.09382,1742.25952
2070.30605,1742.25952
2072.51829,1742.25952
2074.73052,1742.25952
2076.94276,1742.25952
2079.15499,1742.25952
2081.36723,1742.25952
2083.57947,1742.25952
2085.7917,1742.25952
2088.00394,1742.25952
2090.21617,1742.25952
2092.42841,1742.25952
2094.64064,1742.25952
2096.85288,1742.25952
2099.06512,1742.25952
2101.27735,1742.25952
2103.48959,1742.25952
2105.70182,1742.25952
2107.91406,1742.25952
2110.12629,1742.25952
2112.33853,1742.25952
2114.55076,1742.25952
2116.763,1742.25952
2118.97524,1742.25952
2121.18747,1742.25952
2123.39971,1742.25952
2125.61194,1742.25952
2127.82418,1742.25952
2130.03641,1742.25952
2132.24865,1742.25952
2134.46089,1742.25952
2136.67312,1742.25952
2138.88536,1742.25952
2141.09759,1742.25952
2143.30983,1742.25952
2145.52206,1742.25952
2147.7343,1742.25952
2149.94654,1742.25952
2152.15877,1742.25952
2154.37101,1742.25952
2156.58324,1742.25952
2158.79548,1742.25952
2161.00771,1742.25952
2163.21995,1742.25952
2165.43218,1742.25952
2167.64442,1742.25952
2169.85666,1742.25952
2172.06889,1742.25952
2174.28113,1742.25952
2176.49336,1742.25952
2178.7056,1742.25952
2180.91783,1742.25952
2183.13007,1742.25952
2185.34231,1742.25952
2187.55454,1742.25952
2189.76678,1742.25952
2191.97901,1742.25952
2194.19125,1742.25952
2196.40348,1742.25952
2198.61572,1742.25952
2200.82795,1742.25952
2203.04019,1742.25952
2205.25243,1742.25952
2207.46466,1742.25952
2209.6769,1742.25952
2211.88913,1742.25952
2214.10137,1742.25952
2216.3136,1742.25952
2218.52584,1742.25952
2220.73808,1742.25952
2222.95031,1742.25952
2225.16255,1742.25952
2227.37478,1742.25952
2229.58702,1742.25952
2231.79925,1742.25952
2234.01149,1742.25952
2236.22373,1742.25952
2238.43596,1742.25952
2240.6482,1742.25952
2242.86043,1742.25952
2245.07267,1742.25952
2247.2849,1742.25952
2249.49714,1742.25952
2251.70937,1742.25952
2253.92161,1742.25952
2256.13385,1742.25952
2258.34608,1742.25952
2260.55832,1742.25952
2262.77055,1742.25952
2264.98279,1742.25952
2267.19502,1742.25952
2269.40726,1742.25952
2271.6195,1742.25952
2273.83173,1742.25952
2276.04397,1742.25952
2278.2562,1742.25952
2280.46844,1742.25952
2282.68067,1742.25952
2284.89291,1742.25952
2287.10514,1742.25952
2289.31738,1742.25952
2291.52962,1742.25952
2293.74185,1742.25952
2295.95409,1742.25952
2298.16632,1742.25952
2300.37856,1742.25952
2302.59079,1742.25952
2304.80303,1742.25952
2307.01527,1742.25952
2309.2275,1742.25952
2311.43974,1742.25952
2313.65197,1743.04043
2315.86421,1743.82134
2318.07644,1743.82134
2320.28868,1743.82134
2322.50092,1743.82134
2324.71315,1743.82134
2326.92539,1743.82134
2329.13762,1743.82134
2331.34986,1743.82134
2333.56209,1743.82134
2335.77433,1743.82134
2337.98656,1744.60225
2340.1988,1743.82134
2342.41104,1743.82134
2344.62327,1743.82134
2346.83551,1743.82134
2349.04774,1743.82134
2351.25998,1743.82134
2353.47221,1743.82134
2355.68445,1743.82134
2357.89669,1744.60225
2360.10892,1745.38317
2362.32116,1745.38317
2364.53339,1744.60225
2366.74563,1743.82134
2368.95786,1743.04043
2371.1701,1742.25952
2373.38234,1742.25952
2375.59457,1742.25952
2377.80681,1742.25952
2380.01904,1742.25952
2382.23128,1742.25952
2384.44351,1742.25952
2386.65575,1742.25952
2388.86798,1742.25952
2391.08022,1742.25952
2393.29246,1742.25952
2395.50469,1742.25952
2397.71693,1742.25952
2399.92916,1742.25952
2402.1414,1742.25952
2404.35363,1742.25952
2406.56587,1742.25952
2408.77811,1742.25952
2410.99034,1742.25952
2413.20258,1742.25952
2415.41481,1742.25952
2417.62705,1742.25952
2419.83928,1742.25952
2422.05152,1742.25952
2424.26375,1742.25952
2426.47599,1742.25952
2428.68823,1742.25952
2430.90046,1742.25952
2433.1127,1742.25952
2435.32493,1742.25952
2437.53717,1742.25952
2439.7494,1742.25952
2441.96164,1742.25952
2444.17388,1742.25952
2446.38611,1742.25952
2448.59835,1742.25952
2450.81058,1742.25952
2453.02282,1742.25952
2455.23505,1742.25952
2457.44729,1742.25952
2459.65953,1742.25952
2461.87176,1742.25952
2464.084,1742.25952
2466.29623,1742.25952
2468.50847,1742.25952
2470.7207,1742.25952
2472.93294,1742.25952
2475.14517,1742.25952
2477.35741,1742.25952
2479.56965,1742.25952
2481.78188,1742.25952
2483.99412,1742.25952
2486.20635,1742.25952
2488.41859,1742.25952
2490.63082,1742.25952
2492.84306,1742.25952
2495.0553,1742.25952
2497.26753,1742.25952
2499.47977,1742.25952
2501.692,1742.25952
2503.90424,1742.25952
2506.11647,1742.25952
2508.32871,1742.25952
2510.54095,1742.25952
2512.75318,1742.25952
2514.96542,1742.25952
2517.17765,1742.25952
2519.38989,1742.25952
2521.60212,1742.25952
2523.81436,1742.25952
2526.02659,1742.25952
2528.23883,1742.25952
2530.45107,1742.25952
2532.6633,1742.25952
2534.87554,1742.25952
2537.08777,1742.25952
2539.30001,1742.25952
2541.51224,1742.25952
2543.72448,1742.25952
2545.93672,1742.25952
2548.14895,1742.25952
2550.36119,1742.25952
2552.57342,1742.25952
2554.78566,1742.25952
2556.99789,1742.25952
2559.21013,1742.25952
2561.42236,1742.25952
2563.6346,1742.25952
2565.84684,1742.25952
2568.05907,1742.25952
2570.27131,1742.25952
2572.48354,1742.25952
2574.69578,1742.25952
2576.90801,1742.25952
2579.12025,1742.25952
2581.33249,1742.25952
2583.54472,1742.25952
2585.75696,1742.25952
2587.96919,1742.25952
2590.18143,1742.25952
2592.39366,1742.25952
2594.6059,1742.25952
2596.81814,1742.25952
2599.03037,1742.25952
2601.24261,1742.25952
2603.45484,1742.25952
2605.66708,1742.25952
2607.87931,1742.25952
2610.09155,1742.25952
2612.30378,1742.25952
2614.51602,1742.25952
2616.72826,1742.25952
2618.94049,1742.25952
2621.15273,1742.25952
2623.36496,1742.25952
2625.5772,1742.25952
2627.78943,1742.25952
2630.00167,1742.25952
2632.21391,1742.25952
2634.42614,1742.25952
2636.63838,1742.25952
2638.85061,1742.25952
2641.06285,1742.25952
2643.27508,1742.25952
2645.48732,1742.25952
2647.69955,1742.25952
2649.91179,1742.25952
2652.12403,1742.25952
2654.33626,1742.25952
2656.5485,1742.25952
2658.76073,1742.25952
2660.97297,1742.25952
2663.1852,1742.25952
2665.39744,1742.25952
2667.60968,1742.25952
2669.82191,1742.25952
2672.03415,1742.25952
2674.24638,1742.25952
2676.45862,1742.25952
2678.67085,1742.25952
2680.88309,1742.25952
2683.09533,1742.25952
2685.30756,1742.25952
2687.5198,1742.25952
2689.73203,1742.25952
2691.94427,1742.25952
2694.1565,1742.25952
2696.36874,1742.25952
2698.58097,1742.25952
2700.79321,1742.25952
2703.00545,1742.25952
2705.21768,1742.25952
2707.42992,1742.25952
2709.64215,1742.25952
2711.85439,1742.25952
2714.06662,1742.25952
2716.27886,1742.25952
2718.4911,1742.25952
2720.70333,1742.25952
2722.91557,1742.25952
2725.1278,1742.25952
2727.34004,1742.25952
2729.55227,1742.25952
2731.76451,1742.25952
2733.97675,1742.25952
2736.18898,1742.25952
2738.40122,1742.25952
2740.61345,1742.25952
2742.82569,1742.25952
2745.03792,1742.25952
2747.25016,1742.25952
2749.46239,1742.25952
2751.67463,1742.25952
2753.88687,1742.25952
2756.0991,1742.25952
2758.31134,1742.25952
2760.52357,1742.25952
2762.73581,1742.25952
2764.94804,1742.25952
2767.16028,1742.25952
2769.37252,1742.25952
2771.58475,1742.25952
2773.79699,1742.25952
2776.00922,1742.25952
2778.22146,1742.25952
2780.43369,1742.25952
2782.64593,1742.25952
2784.85816,1742.25952
2787.0704,1742.25952
2789.28264,1742.25952
2791.49487,1742.25952
2793.70711,1742.25952
2795.91934,1742.25952
2798.13158,1742.25952
2800.34381,1742.25952
2802.55605,1742.25952
2804.76829,1742.25952
2806.98052,1742.25952
2809.19276,1742.25952
2811.40499,1742.25952
2813.61723,1742.25952
2815.82946,1742.25952
2818.0417,1742.25952
2820.25394,1742.25952
2822.46617,1742.25952
2824.67841,1742.25952
2826.89064,1742.25952
2829.10288,1742.25952
2831.31511,1742.25952
2833.52735,1742.25952
2835.73958,1742.25952
2837.95182,1742.25952
2840.16406,1742.25952
2842.37629,1742.25952
2844.58853,1742.25952
2846.80076,1742.25952
2849.013,1742.25952
2851.22523,1742.25952
2853.43747,1742.25952
2855.64971,1742.25952
2857.86194,1742.25952
2860.07418,1742.25952
2862.28641,1742.25952
2864.49865,1742.25952
2866.71088,1742.25952
2868.92312,1742.25952
2871.13536,1742.25952
2873.34759,1742.25952
2875.55983,1742.25952
2877.77206,1742.25952
2879.9843,1742.25952
2882.19653,1742.25952
2884.40877,1742.25952
2886.621,1742.25952
2888.83324,1742.25952
2891.04548,1742.25952
2893.25771,1742.25952
2895.46995,1742.25952
2897.68218,1742.25952
2899.89442,1742.25952
2902.10665,1742.25952
2904.31889,1742.25952
2906.53113,1742.25952
2908.74336,1742.25952
2910.9556,1742.25952
2913.16783,1742.25952
2915.38007,1742.25952
2917.5923,1742.25952
2919.80454,1742.25952
2922.01677,1742.25952
2924.22901,1742.25952
2926.44125,1742.25952
2928.65348,1742.25952
2930.86572,1742.25952
2933.07795,1742.25952
2935.29019,1742.25952
2937.50242,1742.25952
2939.71466,1742.25952
2941.9269,1742.25952
2944.13913,1742.25952
2946.35137,1742.25952
2948.5636,1742.25952
2950.77584,1742.25952
2952.98807,1742.25952
2955.20031,1742.25952
2957.41255,1742.25952
2959.62478,1742.25952
2961.83702,1742.25952
2964.04925,1742.25952
2966.26149,1742.25952
2968.47372,1742.25952
2970.68596,1742.25952
2972.89819,1742.25952
2975.11043,1742.25952
2977.32267,1742.25952
2979.5349,1742.25952
2981.74714,1742.25952
2983.95937,1742.25952
2986.17161,1742.25952
2988.38384,1742.25952
2990.59608,1742.25952
2992.80832,1742.25952
2995.02055,1742.25952
2997.23279,1742.25952
2999.44502,1742.25952
3001.65726,1742.25952
3003.86949,1742.25952
3006.08173,1742.25952
3008.29396,1742.25952
3010.5062,1742.25952
3012.71844,1742.25952
3014.93067,1742.25952
3017.14291,1742.25952
3019.35514,1742.25952
3021.56738,1742.25952
3023.77961,1742.25952
3025.99185,1742.25952
3028.20409,1742.25952
3030.41632,1742.25952
3032.62856,1742.25952
3034.84079,1742.25952
3037.05303,1742.25952
3039.26526,1742.25952
3041.4775,1742.25952
3043.68974,1742.25952
3045.90197,1742.25952
3048.11421,1742.25952
3050.32644,1742.25952
3052.53868,1742.25952
3054.75091,1742.25952
3056.96315,1742.25952
3059.17538,1742.25952
3061.38762,1742.25952
3063.59986,1742.25952
3065.81209,1742.25952
3068.02433,1742.25952
3070.23656,1742.25952
3072.4488,1742.25952
3074.66103,1742.25952
3076.87327,1742.25952
3079.08551,1742.25952
3081.29774,1742.25952
3083.50998,1742.25952
3085.72221,1742.25952
3087.93445,1742.25952
3090.14668,1742.25952
3092.35892,1742.25952
3094.57116,1742.25952
3096.78339,1742.25952
3098.99563,1742.25952
3101.20786,1742.25952
3103.4201,1742.25952
3105.63233,1742.25952
3107.84457,1742.25952
3110.0568,1742.25952
3112.26904,1742.25952
3114.48128,1742.25952
3116.69351,1742.25952
3118.90575,1742.25952
3121.11798,1742.25952
3123.33022,1742.25952
3125.54245,1742.25952
3127.75469,1742.25952
3129.96693,1742.25952
3132.17916,1742.25952
3134.3914,1742.25952
3136.60363,1742.25952
3138.81587,1742.25952
3141.0281,1742.25952
3143.24034,1742.25952
3145.45257,1742.25952
3147.66481,1742.25952
3149.87705,1742.25952
3152.08928,1742.25952
3154.30152,1742.25952
3156.51375,1742.25952
3158.72599,1742.25952
3160.93822,1742.25952
3163.15046,1742.25952
3165.3627,1742.25952
3167.57493,1742.25952
3169.78717,1742.25952
3171.9994,1742.25952
3174.21164,1742.25952
3176.42387,1742.25952
3178.63611,1742.25952
3180.84835,1742.25952
3183.06058,1742.25952
3185.27282,1742.25952
3187.48505,1742.25952
3189.69729,1742.25952
3191.90952,1742.25952
3194.12176,1742.25952
3196.33399,1742.25952
3198.54623,1742.25952
3200.75847,1742.25952
3202.9707,1742.25952
3205.18294,1742.25952
3207.39517,1742.25952
3209.60741,1742.25952
3211.81964,1742.25952
3214.03188,1742.25952
3216.24412,1742.25952
3218.45635,1742.25952
3220.66859,1742.25952
3222.88082,1742.25952
3225.09306,1742.25952
3227.30529,1742.25952
3229.51753,1742.25952
3231.72976,1742.25952
3233.942,1742.25952
3236.15424,1742.25952
3238.36647,1742.25952
3240.57871,1742.25952
3242.79094,1742.25952
3245.00318,1742.25952
3247.21541,1742.25952
3249.42765,1742.25952
3251.63989,1742.25952
3253.85212,1742.25952
3256.06436,1742.25952
3258.27659,1742.25952
3260.48883,1742.25952
3262.70106,1742.25952
3264.9133,1742.25952
3267.12554,1742.25952
3269.33777,1742.25952
3271.55001,1742.25952
3273.76224,1742.25952
3275.97448,1742.25952
3278.18671,1742.25952
3280.39895,1742.25952
3282.61118,1742.25952
3284.82342,1742.25952
3287.03566,1742.25952
3289.24789,1742.25952
3291.46013,1742.25952
3293.67236,1742.25952
3295.8846,1742.25952
3298.09683,1742.25952
3300.30907,1742.25952
3302.52131,1742.25952
3304.73354,1742.25952
3306.94578,1742.25952
3309.15801,1742.25952
3311.37025,1742.25952
3313.58248,1742.25952
3315.79472,1742.25952
3318.00696,1742.25952
3320.21919,1742.25952
3322.43143,1742.25952
3324.64366,1742.25952
3326.8559,1742.25952
3329.06813,1742.25952
3331.28037,1742.25952
3333.4926,1742.25952
3335.70484,1742.25952
3337.91708,1742.25952
3340.12931,1742.25952
3342.34155,1742.25952
3344.55378,1742.25952
3346.76602,1742.25952
3348.97825,1742.25952
3351.19049,1742.25952
3353.40273,1742.25952
3355.61496,1742.25952
3357.8272,1742.25952
3360.03943,1742.25952
3362.25167,1742.25952
3364.4639,1742.25952
3366.67614,1742.25952
3368.88837,1742.25952
3371.10061,1742.25952
3373.31285,1742.25952
3375.52508,1742.25952
3377.73732,1742.25952
3379.94955,1742.25952
3382.16179,1742.25952
3384.37402,1742.25952
3386.58626,1742.25952
3388.7985,1742.25952
3391.01073,1743.04043
3393.22297,1743.82134
3395.4352,1744.60225
3397.64744,1744.60225
3399.85967,1744.60225
3402.07191,1744.60225
3404.28415,1744.60225
3406.49638,1744.60225
3408.70862,1744.60225
3410.92085,1743.82134
3413.13309,1743.04043
3415.34532,1742.25952
3417.55756,1742.25952
3419.76979,1742.25952
3421.98203,1742.25952
3424.19427,1742.25952
3426.4065,1742.25952
3428.61874,1742.25952
3430.83097,1742.25952
3433.04321,1742.25952
3435.25544,1742.25952
3437.46768,1742.25952
3439.67992,1742.25952
3441.89215,1742.25952
3444.10439,1742.25952
3446.31662,1742.25952
3448.52886,1742.25952
3450.74109,1742.25952
3452.95333,1742.25952
3455.16557,1742.25952
3457.3778,1742.25952
3459.59004,1742.25952
3461.80227,1742.25952
3464.01451,1742.25952
3466.22674,1742.25952
3468.43898,1742.25952
3470.65121,1742.25952
3472.86345,1742.25952
3475.07569,1742.25952
3477.28792,1742.25952
3479.50016,1742.25952
3481.71239,1742.25952
3483.92463,1742.25952
3486.13686,1742.25952
3488.3491,1742.25952
3490.56134,1742.25952
3492.77357,1742.25952
3494.98581,1742.25952
3497.19804,1742.25952
3499.41028,1742.25952
3501.62251,1742.25952
3503.83475,1742.25952
3506.04698,1742.25952
3508.25922,1742.25952
3510.47146,1742.25952
3512.68369,1742.25952
3514.89593,1742.25952
3517.10816,1742.25952
3519.3204,1742.25952
3521.53263,1742.25952
3523.74487,1742.25952
3525.95711,1742.25952
3528.16934,1742.25952
3530.38158,1742.25952
3532.59381,1742.25952
3534.80605,1742.25952
3537.01828,1742.25952
3539.23052,1742.25952
3541.44276,1742.25952
3543.65499,1742.25952
3545.86723,1742.25952
3548.07946,1742.25952
3550.2917,1742.25952
3552.50393,1742.25952
3554.71617,1742.25952
3556.9284,1742.25952
3559.14064,1742.25952
3561.35288,1742.25952
3563.56511,1742.25952
3565.77735,1742.25952
3567.98958,1742.25952
3570.20182,1742.25952
3572.41405,1742.25952
3574.62629,1742.25952
3576.83853,1742.25952
3579.05076,1742.25952
3581.263,1742.25952
3583.47523,1742.25952
3585.68747,1742.25952
3587.8997,1742.25952
3590.11194,1742.25952
3592.32417,1742.25952
3594.53641,1742.25952
3596.74865,1742.25952
3598.96088,1742.25952
3601.17312,1742.25952
3603.38535,1742.25952
3605.59759,1742.25952
3607.80982,1742.25952
3610.02206,1742.25952
3612.2343,1742.25952
3614.44653,1742.25952
3616.65877,1742.25952
3618.871,1742.25952
3621.08324,1742.25952
3623.29547,1742.25952
3625.50771,1742.25952
3627.71995,1742.25952
3629.93218,1742.25952
3632.14442,1742.25952
3634.35665,1742.25952
3636.56889,1742.25952
3638.78112,1742.25952
3640.99336,1742.25952
3643.20559,1742.25952
3645.41783,1742.25952
3647.63007,1742.25952
3649.8423,1742.25952
3652.05454,1742.25952
3654.26677,1742.25952
3656.47901,1742.25952
3658.69124,1742.25952
3660.90348,1742.25952
3663.11572,1742.25952
3665.32795,1742.25952
3667.54019,1742.25952
3669.75242,1742.25952
3671.96466,1742.25952
3674.17689,1742.25952
3676.38913,1742.25952
3678.60137,1742.25952
3680.8136,1742.25952
3683.02584,1742.25952
3685.23807,1742.25952
3687.45031,1742.25952
3689.66254,1742.25952
3691.87478,1742.25952
3694.08701,1742.25952
3696.29925,1742.25952
3698.51149,1742.25952
3700.72372,1742.25952
3702.93596,1742.25952
3705.14819,1742.25952
3707.36043,1742.25952
3709.57266,1742.25952
3711.7849,1742.25952
3713.99714,1742.25952
3716.20937,1742.25952
3718.42161,1742.25952
3720.63384,1742.25952
3722.84608,1742.25952
3725.05831,1742.25952
3727.27055,1742.25952
3729.48278,1742.25952
3731.69502,1742.25952
3733.90726,1742.25952
3736.11949,1742.25952
3738.33173,1742.25952
3740.54396,1742.25952
3742.7562,1742.25952
3744.96843,1742.25952
3747.18067,1742.25952
3749.39291,1742.25952
3751.60514,1742.25952
3753.81738,1742.25952
3756.02961,1742.25952
3758.24185,1742.25952
3760.45408,1742.25952
3762.66632,1742.25952
3764.87856,1742.25952
3767.09079,1742.25952
3769.30303,1742.25952
3771.51526,1742.25952
3773.7275,1742.25952
3775.93973,1742.25952
3778.15197,1742.25952
3780.3642,1742.25952
3782.57644,1742.25952
3784.78868,1742.25952
3787.00091,1742.25952
3789.21315,1742.25952
3791.42538,1742.25952
3793.63762,1742.25952
3795.84985,1742.25952
3798.06209,1742.25952
3800.27433,1742.25952
3802.48656,1742.25952
3804.6988,1742.25952
3806.91103,1742.25952
3809.12327,1742.25952
3811.3355,1742.25952
3813.54774,1742.25952
3815.75998,1742.25952
3817.97221,1742.25952
3820.18445,1742.25952
3822.39668,1742.25952
3824.60892,1742.25952
3826.82115,1742.25952
3829.03339,1742.25952
3831.24562,1742.25952
3833.45786,1742.25952
3835.6701,1742.25952
3837.88233,1742.25952
3840.09457,1742.25952
3842.3068,1742.25952
3844.51904,1742.25952
3846.73127,1742.25952
3848.94351,1742.25952
3851.15575,1742.25952
3853.36798,1742.25952
3855.58022,1742.25952
3857.79245,1742.25952
3860.00469,1742.25952
3862.21692,1742.25952
3864.42916,1742.25952
3866.64139,1742.25952
3868.85363,1742.25952
3871.06587,1742.25952
3873.2781,1742.25952
3875.49034,1742.25952
3877.70257,1742.25952
3879.91481,1742.25952
3882.12704,1742.25952
3884.33928,1742.25952
3886.55152,1742.25952
3888.76375,1742.25952
3890.97599,1742.25952
3893.18822,1742.25952
3895.40046,1742.25952
3897.61269,1742.25952
3899.82493,1742.25952
3902.03717,1742.25952
3904.2494,1742.25952
3906.46164,1742.25952
3908.67387,1742.25952
3910.88611,1742.25952
3913.09834,1742.25952
3915.31058,1742.25952
3917.52281,1742.25952
3919.73505,1742.25952
3921.94729,1742.25952
3924.15952,1742.25952
3926.37176,1742.25952
3928.58399,1742.25952
3930.79623,1742.25952
3933.00846,1742.25952
3935.2207,1742.25952
3937.43294,1742.25952
3939.64517,1742.25952
3941.85741,1742.25952
3944.06964,1742.25952
3946.28188,1742.25952
3948.49411,1742.25952
3950.70635,1742.25952
3952.91858,1742.25952
3955.13082,1742.25952
3957.34306,1742.25952
3959.55529,1742.25952
3961.76753,1742.25952
3963.97976,1742.25952
3966.192,1742.25952
3968.40423,1742.25952
3970.61647,1742.25952
3972.82871,1742.25952
3975.04094,1742.25952
3977.25318,1742.25952
3979.46541,1742.25952
3981.67765,1743.04043
3983.88988,1743.82134
3986.10212,1743.82134
3988.31436,1743.82134
3990.52659,1743.82134
3992.73883,1743.82134
3994.95106,1743.82134
3997.1633,1743.82134
3999.37553,1743.82134
4001.58777,1743.82134
4001.58777,1743.04043
4001.58777,1742.25952
4001.58777,1741.4786
4001.58777,1740.69769
4001.58777,1739.91678
4001.58777,1739.13586
4001.58777,1738.35495
