Raman shift,Intensity
768.75777,1623.78393
770.43367,1623.78393
772.10958,1623.78393
773.78548,1622.68087
775.46139,1622.68087
777.13729,1622.68087
778.8132,1621.57782
780.4891,1620.47476
782.16501,1620.47476
783.84091,1621.57782
785.51682,1621.57782
787.19272,1622.68087
788.86863,1622.68087
790.54453,1622.68087
792.22044,1621.57782
793.89634,1620.47476
795.57225,1620.47476
797.24815,1618.26865
798.92406,1617.16559
800.59996,1614.95948
802.27587,1613.85643
803.95177,1612.75337
805.62768,1611.65032
807.30358,1611.65032
808.97949,1610.54726
810.65539,1608.34115
812.3313,1606.13504
814.0072,1603.92893
815.68311,1601.72282
817.35901,1598.41366
819.03492,1595.10449
820.71082,1592.89838
822.38673,1591.79533
824.06263,1592.89838
825.73854,1595.10449
827.41444,1598.41366
829.09035,1601.72282
830.76625,1603.92893
832.44216,1606.13504
834.11806,1608.34115
835.79397,1610.54726
837.46987,1611.65032
839.14578,1612.75337
840.82168,1612.75337
842.49759,1613.85643
844.17349,1613.85643
845.8494,1612.75337
847.5253,1612.75337
849.20121,1611.65032
850.87711,1611.65032
852.55301,1610.54726
854.22892,1609.44421
855.90482,1609.44421
857.58073,1608.34115
859.25663,1607.2381
860.93254,1607.2381
862.60844,1607.2381
864.28435,1608.34115
865.96025,1609.44421
867.63616,1611.65032
869.31206,1612.75337
870.98797,1616.06254
872.66387,1618.26865
874.33978,1620.47476
876.01568,1621.57782
877.69159,1624.88698
879.36749,1627.09309
881.0434,1628.19615
881.0434,1628.19615
882.7193,1629.2992
882.7193,1629.2992
884.39521,1629.2992
884.39521,1629.2992
886.07111,1628.19615
886.07111,1628.19615
887.74702,1627.09309
887.74702,1627.09309
889.42292,1624.88698
889.42292,1625.99004
891.09883,1622.68087
891.09883,1624.88698
892.77473,1623.78393
892.77473,1621.57782
894.45064,1620.47476
894.45064,1622.68087
896.12654,1619.37171
896.12654,1621.57782
897.80245,1619.37171
897.80245,1621.57782
899.47835,1619.37171
899.47835,1621.57782
901.15426,1621.57782
901.15426,1619.37171
902.83016,1621.57782
902.83016,1619.37171
904.50607,1620.47476
904.50607,1622.68087
906.18197,1622.68087
906.18197,1620.47476
907.85788,1620.47476
907.85788,1622.68087
909.53378,1622.68087
909.53378,1620.47476
911.20969,1621.57782
911.20969,1622.68087
912.88559,1622.68087
912.88559,1621.57782
914.5615,1622.68087
914.5615,1623.78393
916.2374,1623.78393
916.2374,1624.88698
917.91331,1624.88698
917.91331,1624.88698
919.58921,1625.99004
919.58921,1625.99004
921.26512,1627.09309
921.26512,1627.09309
922.94102,1627.09309
922.94102,1627.09309
924.61693,1628.19615
924.61693,1628.19615
926.29283,1629.2992
926.29283,1629.2992
927.96874,1629.2992
927.96874,1629.2992
929.64464,1629.2992
929.64464,1629.2992
931.32055,1630.40226
931.32055,1630.40226
932.99645,1631.50531
932.99645,1631.50531
934.67235,1632.60837
934.67235,1632.60837
936.34826,1633.71142
936.34826,1633.71142
938.02416,1634.81448
938.02416,1634.81448
939.70007,1637.02059
939.70007,1637.02059
941.37597,1640.32975
941.37597,1640.32975
943.05188,1641.43281
943.05188,1641.43281
944.72778,1643.63892
944.72778,1643.63892
946.40369,1646.94808
946.40369,1646.94808
948.07959,1649.15419
948.07959,1648.05114
949.7555,1652.46336
949.7555,1650.25725
951.4314,1653.56642
951.4314,1651.3603
953.10731,1652.46336
953.10731,1655.77253
954.78321,1656.87558
954.78321,1653.56642
956.45912,1659.08169
958.13502,1660.18475
959.81093,1660.18475
961.48683,1661.2878
963.16274,1661.2878
964.83864,1663.49391
966.51455,1663.49391
968.19045,1665.70002
969.86636,1666.80308
971.54226,1667.90613
973.21817,1669.00919
974.89407,1667.90613
976.56998,1666.80308
978.24588,1665.70002
979.92179,1663.49391
981.59769,1661.2878
983.2736,1654.66947
983.2736,1660.18475
984.9495,1657.97864
984.9495,1653.56642
986.62541,1655.77253
986.62541,1652.46336
988.30131,1653.56642
988.30131,1651.3603
989.97722,1650.25725
989.97722,1651.3603
991.65312,1650.25725
991.65312,1650.25725
993.32903,1648.05114
993.32903,1648.05114
995.00493,1646.94808
995.00493,1646.94808
996.68084,1645.84503
996.68084,1645.84503
998.35674,1644.74197
998.35674,1644.74197
1000.03265,1644.74197
1000.03265,1644.74197
1001.70855,1644.74197
1001.70855,1644.74197
1003.38446,1645.84503
1003.38446,1645.84503
1005.06036,1648.05114
1005.06036,1648.05114
1006.73627,1648.05114
1006.73627,1650.25725
1008.41217,1652.46336
1008.41217,1649.15419
1010.08808,1651.3603
1010.08808,1655.77253
1011.76398,1652.46336
1011.76398,1657.97864
1013.43989,1661.2878
1013.43989,1654.66947
1015.11579,1663.49391
1016.79169,1665.70002
1018.4676,1669.00919
1020.1435,1670.11224
1021.81941,1672.31835
1023.49531,1675.62752
1025.17122,1677.83363
1026.84712,1680.03974
1028.52303,1683.3489
1030.19893,1685.55501
1031.87484,1689.96724
1033.55074,1694.37946
1035.22665,1698.79168
1036.90255,1702.10084
1038.57846,1707.61612
1040.25436,1712.02834
1041.93027,1716.44056
1043.60617,1721.95584
1045.28208,1724.16195
1046.95798,1727.47111
1048.63389,1729.67722
1050.30979,1731.88333
1051.9857,1732.98639
1060.36522,1734.08944
1062.04113,1730.78028
1063.71703,1726.36806
1065.39294,1723.05889
1067.06884,1719.74972
1068.74475,1716.44056
1070.42065,1709.82223
1072.09656,1703.2039
1073.77246,1697.68862
1075.44837,1691.07029
1077.12427,1685.55501
1078.80018,1678.93668
1080.47608,1674.52446
1082.15199,1671.2153
1083.82789,1666.80308
1085.5038,1663.49391
1085.5038,1654.66947
1087.1797,1653.56642
1087.1797,1659.08169
1088.85561,1652.46336
1088.85561,1655.77253
1090.53151,1654.66947
1090.53151,1651.3603
1092.20742,1651.3603
1092.20742,1652.46336
1093.88332,1651.3603
1093.88332,1651.3603
1095.55923,1651.3603
1095.55923,1651.3603
1097.23513,1651.3603
1098.91104,1652.46336
1100.58694,1653.56642
1102.26284,1653.56642
1103.93875,1652.46336
1105.61465,1651.3603
1107.29056,1649.15419
1108.96646,1646.94808
1110.64237,1645.84503
1112.31827,1641.43281
1113.99418,1638.12364
1115.67008,1633.71142
1117.34599,1630.40226
1119.02189,1625.99004
1120.6978,1621.57782
1122.3737,1618.26865
1124.04961,1614.95948
1125.72551,1610.54726
1127.40142,1607.2381
1129.07732,1602.82588
1130.75323,1599.51671
1132.42913,1597.3106
1134.10504,1595.10449
1135.78094,1592.89838
1137.45685,1591.79533
1139.13275,1591.79533
1140.80866,1591.79533
1142.48456,1592.89838
1144.16047,1594.00144
1145.83637,1595.10449
1147.51228,1596.20755
1149.18818,1597.3106
1150.86409,1599.51671
1152.53999,1601.72282
1154.2159,1602.82588
1155.8918,1605.03199
1157.56771,1606.13504
1159.24361,1608.34115
1160.91952,1609.44421
1162.59542,1609.44421
1164.27133,1609.44421
1165.94723,1608.34115
1167.62314,1606.13504
1169.29904,1603.92893
1170.97495,1601.72282
1172.65085,1600.61977
1174.32676,1599.51671
1176.00266,1598.41366
1177.67857,1597.3106
1179.35447,1597.3106
1181.03038,1597.3106
1182.70628,1598.41366
1184.38218,1600.61977
1186.05809,1601.72282
1187.73399,1603.92893
1189.4099,1606.13504
1191.0858,1608.34115
1192.76171,1610.54726
1194.43761,1612.75337
1196.11352,1614.95948
1197.78942,1616.06254
1199.46533,1618.26865
1201.14123,1619.37171
1202.81714,1619.37171
1204.49304,1618.26865
1206.16895,1617.16559
1207.84485,1614.95948
1209.52076,1613.85643
1211.19666,1611.65032
1212.87257,1611.65032
1214.54847,1610.54726
1216.22438,1609.44421
1217.90028,1609.44421
1219.57619,1609.44421
1221.25209,1608.34115
1222.928,1606.13504
1224.6039,1605.03199
1226.27981,1602.82588
1227.95571,1600.61977
1229.63162,1598.41366
1231.30752,1596.20755
1232.98343,1595.10449
1234.65933,1592.89838
1236.33524,1590.69227
1238.01114,1590.69227
1239.68705,1589.58922
1241.36295,1588.48616
1243.03886,1588.48616
1244.71476,1587.38311
1246.39067,1587.38311
1248.06657,1587.38311
1249.74248,1588.48616
1251.41838,1591.79533
1253.09429,1595.10449
1254.77019,1597.3106
1256.4461,1600.61977
1258.122,1606.13504
1259.79791,1608.34115
1261.47381,1611.65032
1263.14972,1614.95948
1264.82562,1617.16559
1266.50152,1618.26865
1268.17743,1618.26865
1269.85333,1618.26865
1271.52924,1619.37171
1273.20514,1619.37171
1274.88105,1620.47476
1276.55695,1621.57782
1276.55695,1621.57782
1278.23286,1622.68087
1278.23286,1622.68087
1279.90876,1623.78393
1279.90876,1623.78393
1281.58467,1623.78393
1281.58467,1623.78393
1283.26057,1623.78393
1283.26057,1623.78393
1284.93648,1622.68087
1284.93648,1622.68087
1286.61238,1621.57782
1286.61238,1621.57782
1288.28829,1620.47476
1288.28829,1620.47476
1289.96419,1620.47476
1289.96419,1620.47476
1291.6401,1621.57782
1291.6401,1621.57782
1293.316,1623.78393
1293.316,1623.78393
1294.99191,1624.88698
1294.99191,1624.88698
1296.66781,1627.09309
1296.66781,1627.09309
1298.34372,1629.2992
1298.34372,1629.2992
1300.01962,1630.40226
1300.01962,1630.40226
1301.69553,1632.60837
1301.69553,1632.60837
1303.37143,1632.60837
1303.37143,1632.60837
1305.04734,1632.60837
1305.04734,1632.60837
1306.72324,1632.60837
1306.72324,1632.60837
1308.39915,1632.60837
1308.39915,1632.60837
1310.07505,1632.60837
1310.07505,1632.60837
1311.75096,1632.60837
1311.75096,1632.60837
1313.42686,1633.71142
1313.42686,1633.71142
1315.10277,1633.71142
1315.10277,1633.71142
1316.77867,1634.81448
1316.77867,1634.81448
1318.45458,1635.91753
1318.45458,1635.91753
1320.13048,1635.91753
1320.13048,1635.91753
1321.80639,1635.91753
1321.80639,1635.91753
1323.48229,1634.81448
1323.48229,1634.81448
1325.1582,1633.71142
1325.1582,1633.71142
1326.8341,1632.60837
1326.8341,1632.60837
1328.51001,1632.60837
1328.51001,1632.60837
1330.18591,1632.60837
1330.18591,1632.60837
1331.86182,1633.71142
1331.86182,1633.71142
1333.53772,1634.81448
1333.53772,1634.81448
1335.21363,1637.02059
1335.21363,1637.02059
1336.88953,1639.2267
1336.88953,1639.2267
1338.56544,1641.43281
1338.56544,1641.43281
1340.24134,1644.74197
1340.24134,1644.74197
1341.91725,1646.94808
1341.91725,1646.94808
1343.59315,1649.15419
1343.59315,1649.15419
1345.26906,1651.3603
1345.26906,1650.25725
1346.94496,1651.3603
1346.94496,1652.46336
1348.62087,1654.66947
1348.62087,1652.46336
1350.29677,1655.77253
1350.29677,1653.56642
1351.97267,1656.87558
1351.97267,1654.66947
1353.64858,1656.87558
1353.64858,1654.66947
1355.32448,1656.87558
1355.32448,1654.66947
1357.00039,1653.56642
1357.00039,1655.77253
1358.67629,1654.66947
1358.67629,1652.46336
1360.3522,1652.46336
1360.3522,1650.25725
1362.0281,1648.05114
1362.0281,1650.25725
1363.70401,1648.05114
1363.70401,1646.94808
1365.37991,1644.74197
1365.37991,1644.74197
1367.05582,1641.43281
1367.05582,1641.43281
1368.73172,1639.2267
1368.73172,1639.2267
1370.40763,1638.12364
1370.40763,1638.12364
1372.08353,1638.12364
1372.08353,1638.12364
1373.75944,1640.32975
1373.75944,1640.32975
1375.43534,1641.43281
1375.43534,1641.43281
1377.11125,1644.74197
1377.11125,1644.74197
1378.78715,1646.94808
1378.78715,1646.94808
1380.46306,1649.15419
1380.46306,1649.15419
1382.13896,1651.3603
1382.13896,1649.15419
1383.81487,1650.25725
1383.81487,1654.66947
1385.49077,1652.46336
1385.49077,1656.87558
1387.16668,1659.08169
1387.16668,1653.56642
1388.84258,1654.66947
1388.84258,1660.18475
1390.51849,1662.39086
1392.19439,1663.49391
1393.8703,1664.59697
1395.5462,1664.59697
1397.22211,1662.39086
1398.89801,1660.18475
1398.89801,1653.56642
1400.57392,1651.3603
1400.57392,1657.97864
1402.24982,1649.15419
1402.24982,1654.66947
1403.92573,1650.25725
1403.92573,1646.94808
1405.60163,1646.94808
1405.60163,1645.84503
1407.27754,1643.63892
1407.27754,1643.63892
1408.95344,1640.32975
1408.95344,1640.32975
1410.62935,1637.02059
1410.62935,1637.02059
1412.30525,1633.71142
1412.30525,1633.71142
1413.98116,1631.50531
1413.98116,1631.50531
1415.65706,1629.2992
1415.65706,1629.2992
1417.33297,1628.19615
1417.33297,1628.19615
1419.00887,1627.09309
1419.00887,1627.09309
1420.68478,1625.99004
1420.68478,1625.99004
1422.36068,1624.88698
1422.36068,1624.88698
1424.03659,1624.88698
1424.03659,1624.88698
1425.71249,1624.88698
1425.71249,1624.88698
1427.3884,1624.88698
1427.3884,1624.88698
1429.0643,1624.88698
1429.0643,1624.88698
1430.74021,1625.99004
1430.74021,1625.99004
1432.41611,1625.99004
1432.41611,1625.99004
1434.09201,1628.19615
1434.09201,1628.19615
1435.76792,1629.2992
1435.76792,1629.2992
1437.44382,1630.40226
1437.44382,1630.40226
1439.11973,1631.50531
1439.11973,1631.50531
1440.79563,1632.60837
1440.79563,1632.60837
1442.47154,1633.71142
1442.47154,1633.71142
1444.14744,1634.81448
1444.14744,1634.81448
1445.82335,1635.91753
1445.82335,1635.91753
1447.49925,1635.91753
1447.49925,1635.91753
1449.17516,1635.91753
1449.17516,1635.91753
1450.85106,1635.91753
1450.85106,1635.91753
1452.52697,1634.81448
1452.52697,1634.81448
1454.20287,1632.60837
1454.20287,1632.60837
1455.87878,1630.40226
1455.87878,1630.40226
1457.55468,1628.19615
1457.55468,1628.19615
1459.23059,1625.99004
1459.23059,1625.99004
1460.90649,1624.88698
1460.90649,1623.78393
1462.5824,1622.68087
1462.5824,1620.47476
1464.2583,1617.16559
1464.2583,1620.47476
1465.93421,1619.37171
1465.93421,1614.95948
1467.61011,1618.26865
1467.61011,1612.75337
1469.28602,1610.54726
1470.96192,1607.2381
1472.63783,1606.13504
1474.31373,1606.13504
1475.98964,1607.2381
1477.66554,1608.34115
1477.66554,1616.06254
1479.34145,1618.26865
1479.34145,1611.65032
1481.01735,1614.95948
1482.69326,1618.26865
1484.36916,1620.47476
1486.04507,1622.68087
1487.72097,1624.88698
1489.39688,1627.09309
1491.07278,1628.19615
1492.74869,1628.19615
1494.42459,1628.19615
1496.1005,1627.09309
1497.7764,1625.99004
1499.45231,1623.78393
1501.12821,1621.57782
1502.80412,1618.26865
1504.48002,1616.06254
1506.15593,1613.85643
1507.83183,1611.65032
1509.50774,1609.44421
1511.18364,1608.34115
1512.85955,1608.34115
1514.53545,1611.65032
1516.21135,1614.95948
1517.88726,1619.37171
1519.56316,1623.78393
1521.23907,1631.50531
1522.91497,1637.02059
1524.59088,1641.43281
1526.26678,1644.74197
1527.94269,1649.15419
1542.44371,1701.48288
1542.44371,1664.37963
1551.11704,1696.25037
1559.0676,1733.35362
1566.4885,1730.78028
1568.16441,1732.98639
1569.84031,1735.1925
1571.51622,1736.29555
1573.19212,1738.50166
1574.86803,1739.60472
1576.54393,1741.81083
1578.21984,1742.91388
1579.89574,1745.11999
1581.57165,1748.42916
1583.24755,1750.63527
1584.92346,1752.84138
1586.59936,1755.04749
1588.27527,1758.35666
1589.95117,1760.56277
1591.62708,1761.66582
1593.30298,1763.87193
1594.97889,1763.87193
1596.65479,1763.87193
1598.3307,1763.87193
1600.0066,1762.76888
1601.6825,1762.76888
1603.35841,1761.66582
1605.03431,1761.66582
1606.71022,1762.76888
1608.38612,1762.76888
1610.06203,1762.76888
1611.73793,1763.87193
1613.41384,1763.87193
1615.08974,1764.97499
1616.76565,1766.07804
1618.44155,1766.07804
1620.11746,1767.1811
1621.79336,1764.97499
1623.46927,1763.87193
1625.14517,1761.66582
1626.82108,1759.45971
1628.49698,1755.04749
1630.17289,1750.63527
1631.84879,1747.3261
1633.5247,1742.91388
1635.2006,1738.50166
1636.87651,1732.98639
1638.55241,1727.47111
1640.22832,1724.16195
1640.22832,1708.71917
1641.90422,1706.51306
1643.58013,1703.2039
1645.25603,1700.99779
1646.93194,1700.99779
1648.60784,1699.89473
1650.28375,1696.58557
1651.95965,1692.17335
1653.63556,1689.96724
1655.31146,1687.76113
1656.98737,1686.65807
1658.66327,1684.45196
1660.33918,1682.24585
1662.01508,1678.93668
1663.69099,1676.73057
1665.36689,1672.31835
1667.0428,1670.11224
1668.7187,1665.70002
1670.39461,1661.2878
1672.07051,1657.97864
1673.74642,1654.66947
1675.42232,1652.46336
1677.09823,1650.25725
1678.77413,1648.05114
1680.45004,1646.94808
1682.12594,1644.74197
1692.18137,1641.43281
1693.85727,1644.74197
1693.85727,1641.43281
1695.53318,1642.53586
1695.53318,1644.74197
1697.20908,1642.53586
1697.20908,1644.74197
1698.88499,1641.43281
1700.56089,1641.43281
1702.2368,1639.2267
1703.9127,1637.02059
1705.58861,1633.71142
1707.26451,1631.50531
1708.94042,1628.19615
1710.61632,1625.99004
1712.29223,1621.57782
1713.96813,1618.26865
1715.64404,1614.95948
1717.31994,1611.65032
1718.99585,1608.34115
1720.67175,1605.03199
1722.34766,1602.82588
1724.02356,1601.72282
1725.69947,1599.51671
1727.37537,1598.41366
1729.05128,1597.3106
1730.72718,1597.3106
1732.40309,1597.3106
1734.07899,1597.3106
1735.7549,1598.41366
1737.4308,1599.51671
1739.10671,1599.51671
1740.78261,1601.72282
1742.45852,1602.82588
1744.13442,1605.03199
1745.81033,1606.13504
1747.48623,1607.2381
1749.16214,1608.34115
1750.83804,1610.54726
1752.51395,1611.65032
1754.18985,1613.85643
1755.86576,1616.06254
1757.54166,1619.37171
1759.21757,1621.57782
1760.89347,1623.78393
1762.56938,1627.09309
1764.24528,1627.09309
1765.92118,1627.09309
1767.59709,1624.88698
1769.27299,1622.68087
1770.9489,1620.47476
1772.6248,1617.16559
1774.30071,1613.85643
1775.97661,1611.65032
1777.65252,1608.34115
1779.32842,1605.03199
1781.00433,1601.72282
1782.68023,1598.41366
1784.35614,1596.20755
1786.03204,1595.10449
1787.70795,1592.89838
1789.38385,1591.79533
1791.05976,1590.69227
1792.73566,1589.58922
1794.41157,1589.58922
1796.08747,1590.69227
1797.76338,1591.79533
1799.43928,1591.79533
1801.11519,1592.89838
1802.79109,1594.00144
1804.467,1594.00144
1806.1429,1596.20755
1807.81881,1597.3106
1809.49471,1599.51671
1811.17062,1601.72282
1812.84652,1602.82588
1814.52243,1605.03199
1816.19833,1607.2381
1817.87424,1608.34115
1819.55014,1610.54726
1821.22605,1612.75337
1822.90195,1613.85643
1824.57786,1614.95948
1826.25376,1616.06254
1827.92967,1616.06254
1829.60557,1614.95948
1831.28148,1612.75337
1832.95738,1610.54726
1834.63329,1608.34115
1836.30919,1606.13504
1837.9851,1603.92893
1839.661,1601.72282
1841.33691,1599.51671
1843.01281,1598.41366
1844.68872,1597.3106
1846.36462,1598.41366
1848.04052,1598.41366
1849.71643,1599.51671
1851.39233,1600.61977
1853.06824,1601.72282
1854.74414,1602.82588
1856.42005,1605.03199
1858.09595,1606.13504
1859.77186,1607.2381
1861.44776,1609.44421
1863.12367,1610.54726
1864.79957,1611.65032
1866.47548,1612.75337
1868.15138,1612.75337
1869.82729,1610.54726
1871.50319,1609.44421
1873.1791,1608.34115
1874.855,1606.13504
1876.53091,1605.03199
1878.20681,1603.92893
1879.88272,1601.72282
1881.55862,1600.61977
1883.23453,1599.51671
1884.91043,1598.41366
1886.58634,1596.20755
1888.26224,1595.10449
1889.93815,1594.00144
1891.61405,1592.89838
1893.28996,1592.89838
1894.96586,1595.10449
1896.64177,1597.3106
1898.31767,1598.41366
1899.99358,1601.72282
1901.66948,1606.13504
1903.34539,1610.54726
1905.02129,1613.85643
1906.6972,1618.26865
1908.3731,1622.68087
1910.04901,1627.09309
1911.72491,1630.40226
1913.40082,1633.71142
1915.07672,1635.91753
1916.75263,1640.32975
1918.42853,1642.53586
1920.10444,1644.74197
1921.78034,1645.84503
1923.45625,1648.05114
1925.13215,1646.94808
1926.80806,1646.94808
1928.48396,1645.84503
1930.15987,1643.63892
1931.83577,1641.43281
1933.51167,1638.12364
1935.18758,1635.91753
1936.86348,1632.60837
1938.53939,1628.19615
1940.21529,1624.88698
1941.8912,1621.57782
1943.5671,1617.16559
1945.24301,1614.95948
1946.91891,1611.65032
1948.59482,1609.44421
1950.27072,1608.34115
1951.94663,1607.2381
1953.62253,1605.03199
1955.29844,1605.03199
1956.97434,1605.03199
1958.65025,1603.92893
1960.32615,1607.2381
1962.00206,1608.34115
1963.67796,1611.65032
1965.35387,1613.85643
1967.02977,1617.16559
1968.70568,1619.37171
1970.38158,1622.68087
1972.05749,1623.78393
1973.73339,1623.78393
1975.4093,1623.78393
1977.0852,1622.68087
1978.76111,1621.57782
1980.43701,1620.47476
1982.11292,1618.26865
1983.78882,1617.16559
1985.46473,1614.95948
1987.14063,1613.85643
1988.81654,1611.65032
1990.49244,1610.54726
1992.16835,1610.54726
1993.84425,1610.54726
1995.52016,1610.54726
1997.19606,1611.65032
1998.87197,1611.65032
2000.54787,1612.75337
2002.22378,1613.85643
2003.89968,1616.06254
2005.57559,1616.06254
2007.25149,1618.26865
2008.9274,1619.37171
2010.6033,1620.47476
2012.27921,1621.57782
2013.95511,1623.78393
2015.63101,1624.88698
2017.30692,1625.99004
2018.98282,1628.19615
2020.65873,1629.2992
2022.33463,1630.40226
2024.01054,1632.60837
2025.68644,1634.81448
2027.36235,1635.91753
2029.03825,1637.02059
2030.71416,1639.2267
2032.39006,1641.43281
2034.06597,1643.63892
2035.74187,1643.63892
2037.41778,1642.53586
2039.09368,1641.43281
2040.76959,1639.2267
2042.44549,1638.12364
2044.1214,1635.91753
2045.7973,1634.81448
2047.47321,1634.81448
2049.14911,1633.71142
2050.82502,1633.71142
2052.50092,1632.60837
2054.17683,1632.60837
2055.85273,1632.60837
2057.52864,1632.60837
2059.20454,1632.60837
2060.88045,1632.60837
2062.55635,1630.40226
2064.23226,1629.2992
2065.90816,1627.09309
2067.58407,1624.88698
2069.25997,1623.78393
2070.93588,1621.57782
2072.61178,1619.37171
2074.28769,1617.16559
2075.96359,1616.06254
2077.6395,1616.06254
2079.3154,1616.06254
2080.99131,1617.16559
2082.66721,1618.26865
2084.34312,1619.37171
2086.01902,1621.57782
2087.69493,1623.78393
2089.37083,1624.88698
2091.04674,1627.09309
2092.72264,1629.2992
2094.39855,1631.50531
2096.07445,1632.60837
2097.75035,1633.71142
2099.42626,1634.81448
2101.10216,1634.81448
2102.77807,1633.71142
2104.45397,1632.60837
2106.12988,1631.50531
2107.80578,1631.50531
2109.48169,1631.50531
2111.15759,1632.60837
2112.8335,1633.71142
2114.5094,1635.91753
2116.18531,1637.02059
2117.86121,1638.12364
2119.53712,1638.12364
2121.21302,1638.12364
2122.88893,1638.12364
2124.56483,1635.91753
2126.24074,1635.91753
2127.91664,1635.91753
2129.59255,1635.91753
2131.26845,1635.91753
2132.94436,1637.02059
2134.62026,1638.12364
2136.29617,1639.2267
2137.97207,1640.32975
2139.64798,1640.32975
2141.32388,1639.2267
2142.99979,1639.2267
2144.67569,1639.2267
2146.3516,1639.2267
2148.0275,1639.2267
2149.70341,1638.12364
2151.37931,1638.12364
2153.05522,1637.02059
2154.73112,1635.91753
2156.40703,1633.71142
2158.08293,1633.71142
2159.75884,1632.60837
2161.43474,1630.40226
2163.11065,1628.19615
2164.78655,1627.09309
2166.46246,1625.99004
2168.13836,1624.88698
2169.81427,1624.88698
2171.49017,1623.78393
2173.16608,1622.68087
2174.84198,1622.68087
2176.51789,1621.57782
2178.19379,1620.47476
2179.8697,1619.37171
2181.5456,1619.37171
2183.2215,1620.47476
2184.89741,1621.57782
2186.57331,1623.78393
2188.24922,1624.88698
2189.92512,1627.09309
2191.60103,1628.19615
2193.27693,1630.40226
2194.95284,1631.50531
2196.62874,1631.50531
2198.30465,1631.50531
2199.98055,1631.50531
2201.65646,1631.50531
2203.33236,1632.60837
2205.00827,1632.60837
2206.68417,1632.60837
2208.36008,1633.71142
2210.03598,1633.71142
2211.71189,1633.71142
2213.38779,1633.71142
2215.0637,1633.71142
2216.7396,1632.60837
2218.41551,1632.60837
2220.09141,1632.60837
2221.76732,1632.60837
2223.44322,1632.60837
2225.11913,1632.60837
2226.79503,1632.60837
2228.47094,1632.60837
2230.14684,1631.50531
2231.82275,1630.40226
2233.49865,1629.2992
2235.17456,1628.19615
2236.85046,1627.09309
2238.52637,1625.99004
2240.20227,1625.99004
2241.87818,1625.99004
2243.55408,1627.09309
2245.22999,1627.09309
2246.90589,1628.19615
2248.5818,1628.19615
2250.2577,1629.2992
2251.93361,1630.40226
2253.60951,1631.50531
2255.28542,1631.50531
2256.96132,1631.50531
2258.63723,1630.40226
2260.31313,1629.2992
2261.98904,1628.19615
2263.66494,1627.09309
2265.34084,1627.09309
2267.01675,1628.19615
2268.69265,1629.2992
2270.36856,1630.40226
2272.04446,1631.50531
2273.72037,1632.60837
2275.39627,1632.60837
2277.07218,1632.60837
2278.74808,1631.50531
2280.42399,1630.40226
2282.09989,1630.40226
2300.63767,1642.9739
2320.87545,1645.828
2352.67767,1645.828
2389.35781,1644.74197
2391.03371,1649.15419
2392.70962,1654.66947
2394.38552,1659.08169
2396.06143,1663.49391
2397.73733,1665.70002
2399.41324,1665.70002
2401.08914,1665.70002
2402.76505,1664.59697
2404.44095,1662.39086
2406.11686,1661.2878
2407.79276,1656.87558
2409.46867,1652.46336
2411.14457,1648.05114
2412.82048,1642.53586
2414.49638,1638.12364
2416.17229,1633.71142
2417.84819,1628.19615
2419.5241,1624.88698
2421.2,1623.78393
2422.87591,1624.88698
2424.55181,1625.99004
2426.22772,1628.19615
2427.90362,1629.2992
2429.57953,1631.50531
2431.25543,1632.60837
2432.93133,1634.81448
2434.60724,1634.81448
2436.28314,1633.71142
2437.95905,1632.60837
2439.63495,1631.50531
2441.31086,1629.2992
2442.98676,1628.19615
2444.66267,1625.99004
2446.33857,1623.78393
2448.01448,1622.68087
2449.69038,1621.57782
2451.36629,1621.57782
2453.04219,1620.47476
2454.7181,1619.37171
2456.394,1618.26865
2458.06991,1617.16559
2459.74581,1614.95948
2461.42172,1613.85643
2463.09762,1613.85643
2464.77353,1613.85643
2466.44943,1616.06254
2468.12534,1618.26865
2469.80124,1621.57782
2471.47715,1625.99004
2473.15305,1629.2992
2474.82896,1632.60837
2476.50486,1637.02059
2478.18077,1640.32975
2479.85667,1642.53586
2481.53258,1644.74197
2483.20848,1646.94808
2484.88439,1649.15419
2486.56029,1650.25725
2488.2362,1650.25725
2489.9121,1648.05114
2491.58801,1644.74197
2493.26391,1641.43281
2494.93982,1637.02059
2496.61572,1632.60837
2498.29163,1628.19615
2499.96753,1623.78393
2501.64344,1619.37171
2503.31934,1613.85643
2504.99525,1610.54726
2506.67115,1607.2381
2508.34706,1606.13504
2510.02296,1605.03199
2511.69887,1605.03199
2513.37477,1606.13504
2515.05067,1608.34115
2516.72658,1609.44421
2518.40248,1610.54726
2520.07839,1612.75337
2521.75429,1613.85643
2523.4302,1613.85643
2525.1061,1616.06254
2526.78201,1617.16559
2528.45791,1618.26865
2530.13382,1619.37171
2531.80972,1620.47476
2533.48563,1621.57782
2535.16153,1621.57782
2536.83744,1621.57782
2538.51334,1621.57782
2540.18925,1619.37171
2541.86515,1619.37171
2543.54106,1618.26865
2545.21696,1617.16559
2546.89287,1617.16559
2548.56877,1616.06254
2550.24468,1617.16559
2551.92058,1617.16559
2553.59649,1617.16559
2555.27239,1616.06254
2556.9483,1616.06254
2558.6242,1614.95948
2560.30011,1613.85643
2561.97601,1612.75337
2563.65192,1611.65032
2565.32782,1610.54726
2567.00373,1609.44421
2568.67963,1608.34115
2570.35554,1607.2381
2572.03144,1607.2381
2573.70735,1606.13504
2575.38325,1606.13504
2577.05916,1606.13504
2578.73506,1606.13504
2580.41097,1606.13504
2582.08687,1607.2381
2583.76278,1607.2381
2585.43868,1607.2381
2587.11459,1607.2381
2588.79049,1608.34115
2590.4664,1609.44421
2592.1423,1610.54726
2593.81821,1612.75337
2595.49411,1613.85643
2597.17001,1616.06254
2598.84592,1617.16559
2600.52182,1619.37171
2602.19773,1620.47476
2603.87363,1622.68087
2605.54954,1623.78393
2607.22544,1625.99004
2608.90135,1628.19615
2610.57725,1630.40226
2612.25316,1632.60837
2613.92906,1633.71142
2615.60497,1635.91753
2617.28087,1635.91753
2618.95678,1635.91753
2620.63268,1634.81448
2622.30859,1631.50531
2623.98449,1628.19615
2625.6604,1624.88698
2627.3363,1621.57782
2629.01221,1618.26865
2630.68811,1613.85643
2632.36402,1610.54726
2634.03992,1607.2381
2635.71583,1603.92893
2637.39173,1599.51671
2639.06764,1597.3106
2640.74354,1595.10449
2642.41945,1594.00144
2644.09535,1594.00144
2645.77126,1595.10449
2647.44716,1597.3106
2649.12307,1598.41366
2650.79897,1601.72282
2652.47488,1603.92893
2654.15078,1606.13504
2655.82669,1608.34115
2657.50259,1611.65032
2659.1785,1613.85643
2660.8544,1614.95948
2662.53031,1614.95948
2664.20621,1614.95948
2665.88212,1614.95948
2667.55802,1613.85643
2669.23393,1611.65032
2670.90983,1610.54726
2672.58574,1608.34115
2674.26164,1607.2381
2675.93755,1605.03199
2677.61345,1605.03199
2679.28936,1605.03199
2680.96526,1606.13504
2682.64116,1608.34115
2684.31707,1610.54726
2685.99297,1612.75337
2687.66888,1616.06254
2689.34478,1619.37171
2691.02069,1621.57782
2692.69659,1624.88698
2694.3725,1627.09309
2696.0484,1629.2992
2697.72431,1629.2992
2699.40021,1628.19615
2701.07612,1625.99004
2702.75202,1623.78393
2704.42793,1622.68087
2706.10383,1620.47476
2707.77974,1619.37171
2709.45564,1617.16559
2711.13155,1614.95948
2712.80745,1614.95948
2714.48336,1612.75337
2716.15926,1612.75337
2717.83517,1611.65032
2719.51107,1611.65032
2721.18698,1611.65032
2722.86288,1612.75337
2724.53879,1613.85643
2726.21469,1614.95948
2727.8906,1616.06254
2729.5665,1617.16559
2731.24241,1618.26865
2732.91831,1618.26865
2734.59422,1617.16559
2736.27012,1616.06254
2737.94603,1616.06254
2739.62193,1616.06254
2741.29784,1617.16559
2742.97374,1618.26865
2744.64965,1620.47476
2746.32555,1621.57782
2748.00146,1622.68087
2749.67736,1623.78393
2751.35327,1622.68087
2753.02917,1622.68087
2754.70508,1620.47476
2756.38098,1618.26865
2758.05689,1614.95948
2759.73279,1613.85643
2761.4087,1611.65032
2763.0846,1608.34115
2764.7605,1605.03199
2766.43641,1602.82588
2768.11231,1600.61977
2769.78822,1597.3106
2771.46412,1595.10449
2773.14003,1594.00144
2774.81593,1592.89838
2776.49184,1592.89838
2778.16774,1592.89838
2779.84365,1592.89838
2781.51955,1595.10449
2783.19546,1596.20755
2784.87136,1598.41366
2786.54727,1599.51671
2788.22317,1601.72282
2789.89908,1603.92893
2791.57498,1606.13504
2793.25089,1608.34115
2794.92679,1611.65032
2796.6027,1612.75337
2798.2786,1613.85643
2799.95451,1616.06254
2801.63041,1616.06254
2803.30632,1618.26865
2804.98222,1618.26865
2806.65813,1618.26865
2808.33403,1618.26865
2810.00994,1618.26865
2811.68584,1618.26865
2813.36175,1617.16559
2815.03765,1616.06254
2816.71356,1614.95948
2818.38946,1614.95948
2820.06537,1616.06254
2821.74127,1616.06254
2823.41718,1617.16559
2825.09308,1618.26865
2826.76899,1619.37171
2828.44489,1619.37171
2830.1208,1619.37171
2831.7967,1619.37171
2833.47261,1619.37171
2835.14851,1619.37171
2836.82442,1620.47476
2838.50032,1621.57782
2840.17623,1622.68087
2841.85213,1624.88698
2843.52804,1625.99004
2845.20394,1628.19615
2846.87984,1630.40226
2848.55575,1631.50531
2850.23165,1631.50531
2851.90756,1632.60837
2853.58346,1633.71142
2855.25937,1634.81448
2856.93527,1635.91753
2858.61118,1635.91753
2860.28708,1637.02059
2861.96299,1635.91753
2863.63889,1634.81448
2865.3148,1634.81448
2866.9907,1633.71142
2868.66661,1632.60837
2870.34251,1631.50531
2872.01842,1630.40226
2873.69432,1629.2992
2875.37023,1628.19615
2877.04613,1627.09309
2878.72204,1625.99004
2880.39794,1625.99004
2882.07385,1624.88698
2883.74975,1622.68087
2885.42566,1621.57782
2887.10156,1620.47476
2888.77747,1619.37171
2890.45337,1618.26865
2892.12928,1616.06254
2893.80518,1614.95948
2895.48109,1613.85643
2897.15699,1613.85643
2898.8329,1614.95948
2900.5088,1616.06254
2902.18471,1618.26865
2903.86061,1620.47476
2905.53652,1621.57782
2907.21242,1623.78393
2908.88833,1624.88698
2910.56423,1627.09309
2912.24014,1630.40226
2913.91604,1633.71142
2915.59195,1637.02059
2917.26785,1639.2267
2918.94376,1642.53586
2920.61966,1645.84503
2922.29557,1648.05114
2923.97147,1650.25725
2925.64738,1650.25725
2927.32328,1650.25725
2928.99919,1648.05114
2930.67509,1645.84503
2932.35099,1642.53586
2934.0269,1640.32975
2935.7028,1638.12364
2937.37871,1633.71142
2939.05461,1631.50531
2940.73052,1628.19615
2942.40642,1624.88698
2944.08233,1621.57782
2945.75823,1618.26865
2947.43414,1617.16559
2949.11004,1614.95948
2950.78595,1612.75337
2952.46185,1612.75337
2954.13776,1611.65032
2955.81366,1612.75337
2957.48957,1613.85643
2959.16547,1614.95948
2960.84138,1616.06254
2962.51728,1617.16559
2964.19319,1619.37171
2965.86909,1620.47476
2967.545,1620.47476
2969.2209,1621.57782
2970.89681,1620.47476
2972.57271,1619.37171
2974.24862,1618.26865
2975.92452,1618.26865
2977.60043,1617.16559
2979.27633,1616.06254
2980.95224,1614.95948
2982.62814,1613.85643
2984.30405,1613.85643
2985.97995,1613.85643
2987.65586,1613.85643
2989.33176,1613.85643
2991.00767,1616.06254
2992.68357,1618.26865
2994.35948,1619.37171
2996.03538,1621.57782
2997.71129,1624.88698
2999.38719,1627.09309
3001.0631,1629.2992
3002.739,1631.50531
3004.41491,1633.71142
3006.09081,1634.81448
3007.76672,1635.91753
3009.44262,1635.91753
3011.11853,1634.81448
3012.79443,1633.71142
3014.47033,1632.60837
3016.14624,1631.50531
3017.82214,1630.40226
3019.49805,1630.40226
3021.17395,1629.2992
3022.84986,1630.40226
3024.52576,1630.40226
3026.20167,1631.50531
3027.87757,1631.50531
3029.55348,1632.60837
3031.22938,1633.71142
3032.90529,1634.81448
3034.58119,1635.91753
3036.2571,1637.02059
3037.933,1638.12364
3039.60891,1639.2267
3041.28481,1640.32975
3042.96072,1640.32975
3044.63662,1640.32975
3046.31253,1640.32975
3047.98843,1639.2267
3049.66434,1638.12364
3051.34024,1637.02059
3053.01615,1637.02059
3054.69205,1635.91753
3056.36796,1635.91753
3058.04386,1634.81448
3059.71977,1634.81448
3061.39567,1634.81448
3063.07158,1635.91753
3064.74748,1635.91753
3066.42339,1637.02059
3068.09929,1638.12364
3069.7752,1639.2267
3071.4511,1639.2267
3073.12701,1639.2267
3074.80291,1639.2267
3076.47882,1637.02059
3078.15472,1637.02059
3079.83063,1634.81448
3081.50653,1633.71142
3083.18244,1632.60837
3084.85834,1630.40226
3086.53425,1630.40226
3088.21015,1629.2992
3089.88606,1628.19615
3091.56196,1628.19615
3093.23787,1629.2992
3094.91377,1629.2992
3096.58967,1629.2992
3098.26558,1629.2992
3099.94148,1629.2992
3101.61739,1629.2992
3103.29329,1629.2992
3104.9692,1629.2992
3106.6451,1629.2992
3106.6451,1629.2992
3108.32101,1629.2992
3108.32101,1629.2992
3109.99691,1629.2992
3109.99691,1629.2992
3111.67282,1629.2992
3111.67282,1629.2992
3113.34872,1629.2992
3113.34872,1629.2992
3115.02463,1628.19615
3115.02463,1628.19615
3116.70053,1627.09309
3116.70053,1627.09309
3118.37644,1627.09309
3118.37644,1627.09309
3120.05234,1627.09309
3120.05234,1627.09309
3121.72825,1625.99004
3121.72825,1625.99004
3123.40415,1625.99004
3123.40415,1625.99004
3125.08006,1625.99004
3125.08006,1625.99004
3126.75596,1627.09309
3126.75596,1627.09309
3128.43187,1627.09309
3128.43187,1627.09309
3130.10777,1627.09309
3130.10777,1627.09309
3131.78368,1625.99004
3131.78368,1625.99004
3133.45958,1624.88698
3133.45958,1624.88698
3135.13549,1624.88698
3135.13549,1624.88698
3136.81139,1624.88698
3136.81139,1624.88698
3138.4873,1624.88698
3138.4873,1624.88698
3140.1632,1625.99004
3140.1632,1625.99004
3141.83911,1627.09309
3141.83911,1627.09309
3143.51501,1629.2992
3145.19092,1630.40226
3146.86682,1630.40226
3148.54273,1632.60837
3150.21863,1632.60837
3151.89454,1632.60837
3153.57044,1633.71142
3155.24635,1634.81448
3156.92225,1635.91753
3158.59816,1637.02059
3160.27406,1638.12364
3161.94997,1640.32975
3163.62587,1642.53586
3165.30178,1644.74197
3166.97768,1646.94808
3168.65359,1649.15419
3170.32949,1650.25725
3172.0054,1651.3603
3173.6813,1652.46336
3175.35721,1654.66947
3177.03311,1654.66947
3178.70902,1655.77253
3180.38492,1657.97864
3182.06082,1659.08169
3183.73673,1661.2878
3185.41263,1662.39086
3187.08854,1664.59697
3188.76444,1665.70002
3190.44035,1665.70002
3192.11625,1663.49391
3193.79216,1662.39086
3195.46806,1660.18475
3197.14397,1659.08169
3198.81987,1659.08169
3200.49578,1659.08169
3202.17168,1659.08169
3203.84759,1660.18475
3205.52349,1660.18475
3207.1994,1659.08169
3208.8753,1656.87558
3210.55121,1655.77253
3212.22711,1654.66947
3213.90302,1653.56642
3215.57892,1653.56642
3217.25483,1656.87558
3218.93073,1657.97864
3220.60664,1660.18475
3222.28254,1660.18475
3223.95845,1657.97864
3225.63435,1654.66947
3227.31026,1650.25725
3228.98616,1646.94808
3230.66207,1643.63892
3232.33797,1641.43281
3234.01388,1638.12364
3235.68978,1638.12364
3237.36569,1638.12364
3239.04159,1639.2267
3240.7175,1639.2267
3242.3934,1639.2267
3244.06931,1640.32975
3245.74521,1641.43281
3247.42112,1643.63892
3249.09702,1644.74197
3250.77293,1646.94808
3252.44883,1649.15419
3254.12474,1652.46336
3255.80064,1653.56642
3257.47655,1655.77253
3259.15245,1654.66947
3260.82836,1653.56642
3262.50426,1652.46336
3264.18016,1651.3603
3265.85607,1650.25725
3267.53197,1649.15419
3269.20788,1648.05114
3270.88378,1648.05114
3272.55969,1648.05114
3274.23559,1646.94808
3275.9115,1646.94808
3277.5874,1648.05114
3279.26331,1648.05114
3280.93921,1650.25725
3282.61512,1652.46336
3284.29102,1653.56642
3285.96693,1655.77253
3287.64283,1659.08169
3289.31874,1661.2878
3290.99464,1663.49391
3292.67055,1666.80308
3294.34645,1669.00919
3296.02236,1670.11224
3297.69826,1670.11224
3299.37417,1670.11224
3301.05007,1669.00919
3302.72598,1667.90613
3304.40188,1665.70002
3306.07779,1663.49391
3307.75369,1661.2878
3309.4296,1657.97864
3311.1055,1655.77253
3312.78141,1652.46336
3314.45731,1650.25725
3316.13322,1649.15419
3317.80912,1646.94808
3319.48503,1645.84503
3321.16093,1645.84503
3322.83684,1645.84503
3324.51274,1645.84503
3326.18865,1645.84503
3327.86455,1644.74197
3329.54046,1644.74197
3331.21636,1644.74197
3332.89227,1644.74197
3334.56817,1644.74197
3336.24408,1644.74197
3337.91998,1645.84503
3339.59589,1645.84503
3341.27179,1644.74197
3342.9477,1643.63892
3344.6236,1642.53586
3346.2995,1641.43281
3347.97541,1639.2267
3349.65131,1638.12364
3351.32722,1635.91753
3353.00312,1633.71142
3354.67903,1632.60837
3356.35493,1631.50531
3358.03084,1629.2992
3359.70674,1628.19615
3361.38265,1627.09309
3363.05855,1627.09309
3364.73446,1625.99004
3366.41036,1625.99004
3368.08627,1624.88698
3369.76217,1624.88698
3371.43808,1624.88698
3373.11398,1623.78393
3374.78989,1623.78393
3376.46579,1623.78393
3378.1417,1623.78393
3379.8176,1623.78393
3381.49351,1623.78393
3383.16941,1623.78393
3384.84532,1623.78393
3386.52122,1623.78393
3388.19713,1623.78393
3389.87303,1623.78393
3391.54894,1623.78393
3393.22484,1624.88698
3394.90075,1625.99004
3396.57665,1627.09309
3398.25256,1628.19615
3399.92846,1629.2992
3401.60437,1629.2992
3403.28027,1629.2992
3404.95618,1629.2992
3406.63208,1630.40226
3408.30799,1630.40226
3409.98389,1630.40226
3411.6598,1630.40226
3413.3357,1630.40226
3415.01161,1630.40226
3416.68751,1630.40226
3418.36342,1630.40226
3420.03932,1630.40226
3421.71523,1629.2992
3423.39113,1629.2992
3425.06704,1627.09309
3426.74294,1625.99004
3428.41885,1623.78393
3430.09475,1621.57782
3431.77065,1620.47476
3433.44656,1619.37171
3435.12246,1617.16559
3436.79837,1617.16559
3438.47427,1616.06254
3440.15018,1616.06254
3441.82608,1617.16559
3443.50199,1618.26865
3445.17789,1620.47476
3446.8538,1623.78393
3448.5297,1625.99004
3450.20561,1627.09309
3451.88151,1630.40226
3453.55742,1632.60837
3455.23332,1634.81448
3456.90923,1637.02059
3458.58513,1638.12364
3460.26104,1638.12364
3461.93694,1638.12364
3463.61285,1635.91753
3465.28875,1632.60837
3466.96466,1630.40226
3468.64056,1628.19615
3470.31647,1629.2992
3470.31647,1624.88698
3471.99237,1622.68087
3471.99237,1628.19615
3473.66828,1625.99004
3473.66828,1620.47476
3475.34418,1618.26865
3477.02009,1617.16559
3478.69599,1618.26865
3480.3719,1618.26865
3482.0478,1619.37171
3483.72371,1619.37171
3485.39961,1620.47476
3487.07552,1623.78393
3487.07552,1621.57782
3488.75142,1621.57782
3488.75142,1624.88698
3490.42733,1622.68087
3490.42733,1624.88698
3492.10323,1625.99004
3492.10323,1623.78393
3493.77914,1627.09309
3493.77914,1625.99004
3495.45504,1628.19615
3495.45504,1627.09309
3497.13095,1627.09309
3497.13095,1628.19615
3498.80685,1628.19615
3498.80685,1624.88698
3500.48276,1628.19615
3500.48276,1622.68087
3502.15866,1619.37171
3502.15866,1628.19615
3503.83457,1616.06254
3503.83457,1625.99004
3505.51047,1623.78393
3505.51047,1613.85643
3507.18638,1610.54726
3508.86228,1610.54726
3510.53819,1612.75337
3512.21409,1614.95948
3513.88999,1623.78393
3513.88999,1617.16559
3515.5659,1623.78393
3515.5659,1619.37171
3517.2418,1623.78393
3517.2418,1619.37171
3518.91771,1618.26865
3520.59361,1617.16559
3522.26952,1616.06254
3523.94542,1616.06254
3525.62133,1617.16559
3527.29723,1618.26865
3528.97314,1620.47476
3528.97314,1624.88698
3530.64904,1621.57782
3530.64904,1624.88698
3532.32495,1624.88698
3532.32495,1621.57782
3534.00085,1620.47476
3534.00085,1624.88698
3535.67676,1619.37171
3535.67676,1623.78393
3537.35266,1618.26865
3539.02857,1617.16559
3540.70447,1617.16559
3542.38038,1619.37171
3542.38038,1624.88698
3544.05628,1625.99004
3544.05628,1621.57782
3545.73219,1627.09309
3545.73219,1622.68087
3547.40809,1624.88698
3547.40809,1627.09309
3549.084,1628.19615
3549.084,1627.09309
3550.7599,1629.2992
3550.7599,1629.2992
3552.43581,1630.40226
3552.43581,1630.40226
3554.11171,1631.50531
3554.11171,1631.50531
3555.78762,1632.60837
3555.78762,1632.60837
3557.46352,1633.71142
3557.46352,1633.71142
3559.13943,1634.81448
3559.13943,1634.81448
3560.81533,1635.91753
3560.81533,1635.91753
3562.49124,1638.12364
3562.49124,1638.12364
3564.16714,1639.2267
3564.16714,1639.2267
3565.84305,1640.32975
3565.84305,1640.32975
3567.51895,1642.53586
3567.51895,1642.53586
3569.19486,1643.63892
3569.19486,1643.63892
3570.87076,1644.74197
3570.87076,1644.74197
3572.54667,1645.84503
3572.54667,1645.84503
3574.22257,1646.94808
3574.22257,1646.94808
3575.89848,1646.94808
3575.89848,1646.94808
3577.57438,1646.94808
3579.25029,1646.94808
3580.92619,1648.05114
3582.6021,1648.05114
3584.278,1649.15419
3585.95391,1650.25725
3587.62981,1650.25725
3589.30572,1651.3603
3590.98162,1652.46336
3592.65753,1652.46336
3594.33343,1653.56642
3596.00933,1653.56642
3597.68524,1653.56642
3599.36114,1653.56642
3601.03705,1652.46336
3602.71295,1651.3603
3604.38886,1649.15419
3606.06476,1648.05114
3607.74067,1645.84503
3609.41657,1642.53586
3611.09248,1641.43281
3612.76838,1639.2267
3614.44429,1637.02059
3616.12019,1634.81448
3617.7961,1634.81448
3619.472,1634.81448
3621.14791,1637.02059
3622.82381,1638.12364
3624.49972,1640.32975
3626.17562,1643.63892
3627.85153,1648.05114
3629.52743,1653.56642
3631.20334,1657.97864
3632.87924,1663.49391
3632.87924,1676.73057
3634.55515,1667.90613
3634.55515,1680.03974
3636.23105,1680.03974
3636.23105,1672.31835
3637.90696,1675.62752
3637.90696,1681.14279
3639.58286,1678.93668
3639.58286,1681.14279
3641.25877,1682.24585
3641.25877,1682.24585
3642.93467,1685.55501
3642.93467,1685.55501
3644.61058,1686.65807
3644.61058,1686.65807
3646.28648,1687.76113
3646.28648,1687.76113
3647.96239,1687.76113
3647.96239,1689.96724
3649.63829,1687.76113
3649.63829,1691.07029
3651.3142,1693.2764
3651.3142,1688.86418
3652.9901,1689.96724
3652.9901,1697.68862
3654.66601,1691.07029
3654.66601,1700.99779
3656.34191,1705.41001
3658.01782,1708.71917
3659.69372,1713.13139
3661.36963,1719.74972
3663.04553,1725.265
3664.72144,1731.88333
3666.39734,1738.50166
3668.07325,1742.91388
3669.74915,1748.42916
3671.42506,1752.84138
3673.10096,1757.2536
3674.77687,1762.76888
3676.45277,1766.07804
3678.12868,1767.1811
3679.80458,1769.38721
3681.48048,1771.59332
3683.15639,1773.79943
3684.83229,1774.90248
3686.5082,1776.00554
3688.1841,1777.10859
3689.86001,1777.10859
3691.53591,1776.00554
3693.21182,1772.69637
3694.88772,1770.49026
3696.56363,1767.1811
3698.23953,1762.76888
3699.91544,1758.35666
3701.59134,1752.84138
3703.26725,1745.11999
3704.94315,1738.50166
3706.61906,1730.78028
3708.29496,1705.41001
3708.29496,1724.16195
3709.97087,1715.3375
3709.97087,1700.99779
3711.64677,1707.61612
3711.64677,1696.58557
3713.32268,1698.79168
3713.32268,1691.07029
3714.99858,1693.2764
3714.99858,1687.76113
3716.67449,1683.3489
3716.67449,1689.96724
3718.35039,1685.55501
3718.35039,1676.73057
3720.0263,1670.11224
3720.0263,1681.14279
3721.7022,1675.62752
3721.7022,1662.39086
3723.37811,1655.77253
3725.05401,1651.3603
3726.72992,1648.05114
3728.40582,1643.63892
3730.08173,1640.32975
3731.75763,1637.02059
3733.43354,1634.81448
3735.10944,1632.60837
3736.78535,1631.50531
3738.46125,1630.40226
3740.13716,1631.50531
3741.81306,1631.50531
3743.48897,1632.60837
3745.16487,1632.60837
3746.84078,1632.60837
3748.51668,1632.60837
3750.19259,1631.50531
3751.86849,1631.50531
3753.5444,1631.50531
3755.2203,1630.40226
3756.89621,1630.40226
3758.57211,1630.40226
3760.24802,1630.40226
3761.92392,1630.40226
3763.59982,1630.40226
3765.27573,1631.50531
3766.95163,1631.50531
3768.62754,1630.40226
3770.30344,1629.2992
3771.97935,1628.19615
3773.65525,1627.09309
3775.33116,1625.99004
3777.00706,1624.88698
3778.68297,1623.78393
3780.35887,1623.78393
3782.03478,1623.78393
3783.71068,1623.78393
3785.38659,1623.78393
3787.06249,1623.78393
3788.7384,1623.78393
3790.4143,1624.88698
3792.09021,1624.88698
3793.76611,1625.99004
3795.44202,1627.09309
3797.11792,1628.19615
3798.79383,1629.2992
3800.46973,1629.2992
3802.14564,1629.2992
3803.82154,1627.09309
3805.49745,1625.99004
3807.17335,1623.78393
3808.84926,1622.68087
3810.52516,1620.47476
3812.20107,1619.37171
3813.87697,1618.26865
3815.55288,1617.16559
3817.22878,1617.16559
3818.90469,1617.16559
3820.58059,1617.16559
3822.2565,1617.16559
3823.9324,1618.26865
3825.60831,1619.37171
3827.28421,1619.37171
3828.96012,1620.47476
3830.63602,1620.47476
3832.31193,1621.57782
3833.98783,1621.57782
3835.66374,1620.47476
3837.33964,1619.37171
3839.01555,1618.26865
3840.69145,1617.16559
3842.36736,1616.06254
3844.04326,1614.95948
3845.71916,1613.85643
3847.39507,1612.75337
3849.07097,1612.75337
3850.74688,1612.75337
3852.42278,1612.75337
3854.09869,1613.85643
3855.77459,1614.95948
3857.4505,1617.16559
3859.1264,1618.26865
3860.80231,1620.47476
3862.47821,1621.57782
3864.15412,1623.78393
3865.83002,1624.88698
3867.50593,1625.99004
3869.18183,1625.99004
3870.85774,1625.99004
3872.53364,1625.99004
3874.20955,1625.99004
3875.88545,1625.99004
3877.56136,1624.88698
3879.23726,1623.78393
3880.91317,1622.68087
3882.58907,1622.68087
3884.26498,1621.57782
3885.94088,1620.47476
3887.61679,1619.37171
3889.29269,1618.26865
3890.9686,1618.26865
3892.6445,1619.37171
3894.32041,1621.57782
3895.99631,1622.68087
3897.67222,1623.78393
3899.34812,1624.88698
3901.02403,1625.99004
3902.69993,1627.09309
3904.37584,1629.2992
3906.05174,1629.2992
3907.72765,1630.40226
3909.40355,1631.50531
3911.07946,1631.50531
3912.75536,1630.40226
3914.43127,1629.2992
3916.10717,1628.19615
3917.78308,1627.09309
3919.45898,1624.88698
3921.13489,1623.78393
3922.81079,1622.68087
3924.4867,1621.57782
3926.1626,1621.57782
3927.8385,1621.57782
3929.51441,1621.57782
3931.19031,1622.68087
3932.86622,1624.88698
3934.54212,1625.99004
3936.21803,1627.09309
3937.89393,1628.19615
3939.56984,1628.19615
3941.24574,1627.09309
3942.92165,1625.99004
3944.59755,1624.88698
3946.27346,1623.78393
3947.94936,1621.57782
3949.62527,1621.57782
3951.30117,1620.47476
3952.97708,1620.47476
3954.65298,1620.47476
3956.32889,1621.57782
3958.00479,1622.68087
3959.6807,1623.78393
3961.3566,1624.88698
3963.03251,1625.99004
3964.70841,1627.09309
3966.38432,1628.19615
3968.06022,1628.19615
3969.73613,1628.19615
3971.41203,1625.99004
3973.08794,1624.88698
3974.76384,1622.68087
3976.43975,1621.57782
3978.11565,1619.37171
3979.79156,1617.16559
3981.46746,1614.95948
3983.14337,1613.85643
3984.81927,1613.85643
3986.49518,1614.95948
