Raman Shift,Intensity
91.981,1598.0
93.375,1638.0
94.768,1634.0
96.161,1662.737
97.554,1688.702
98.947,1709.0
100.34,1735.0
101.732,1753.0
103.124,1758.0
104.516,1765.0
105.908,1802.0
107.3,1851.0
108.691,1841.0
110.082,1849.0
111.473,1874.0
112.864,1874.0
114.254,1884.0
115.644,1915.0
117.034,1937.0
118.424,1962.0
119.813,1926.0
121.203,1989.0
122.592,1941.0
123.981,1962.0
125.369,1981.0
126.758,1979.0
128.146,1972.0
129.534,1965.0
130.922,2026.0
132.309,2051.0
133.696,2075.0
135.083,2079.0
136.47,2189.0
137.857,2208.0
139.243,2320.0
140.63,2329.0
142.016,2359.0
143.401,2316.0
144.787,2234.0
146.172,2218.0
147.557,2206.0
148.942,2201.0
150.327,2211.0
151.711,2148.0
153.096,2127.0
154.48,2197.0
155.863,2166.0
157.247,2195.0
158.63,2193.0
160.013,2242.0
161.396,2285.0
162.779,2312.0
164.161,2366.0
165.544,2457.0
166.926,2560.0
168.308,2711.0
169.689,2924.0
171.07,3350.0
172.452,3873.0
173.833,4597.0
175.213,5312.0
176.594,5499.0
177.974,4908.0
179.354,4209.0
180.734,3579.0
182.114,3075.0
183.493,2779.0
184.872,2593.0
186.251,2523.0
187.63,2433.0
189.008,2344.0
190.387,2355.0
191.765,2343.0
193.143,2358.0
194.52,2343.0
195.898,2362.0
197.275,2320.0
198.652,2316.0
200.029,2375.0
201.405,2316.0
202.782,2355.0
204.158,2348.0
205.534,2308.0
206.909,2389.0
208.285,2332.0
209.66,2317.0
211.035,2346.0
212.41,2321.0
213.784,2385.0
215.159,2316.0
216.533,2361.0
217.907,2405.0
219.281,2409.0
220.654,2405.0
222.027,2377.0
223.4,2415.0
224.773,2433.0
226.146,2397.0
227.518,2399.0
228.891,2380.0
230.263,2387.0
231.634,2394.0
233.006,2444.0
234.377,2415.0
235.748,2450.0
237.119,2402.0
238.49,2419.0
239.86,2496.0
241.231,2449.0
242.601,2497.0
243.97,2473.0
245.34,2515.0
246.709,2480.0
248.079,2429.0
249.448,2492.0
250.816,2509.0
252.185,2482.0
253.553,2534.0
254.921,2535.0
256.289,2536.0
257.657,2511.0
259.024,2525.0
260.391,2592.0
261.758,2553.0
263.125,2552.0
264.492,2599.0
265.858,2557.0
267.224,2592.0
268.59,2585.0
269.956,2585.0
271.321,2604.0
272.687,2644.0
274.052,2597.0
275.416,2615.0
276.781,2701.0
278.146,2691.0
279.51,2677.0
280.874,2739.0
282.237,2711.0
283.601,2695.0
284.964,2721.0
286.327,2697.0
287.69,2809.0
289.053,2792.0
290.416,2892.0
291.778,2987.0
293.14,3029.0
294.502,3123.0
295.863,3299.0
297.225,3466.0
298.586,3589.0
299.947,3695.0
301.308,3695.0
302.668,3547.0
304.029,3383.0
305.389,3234.0
306.749,3147.0
308.108,3017.0
309.468,3031.0
310.827,2913.0
312.186,2925.0
313.545,2881.0
314.903,2894.0
316.262,2881.0
317.62,2880.0
318.978,2895.0
320.336,2889.0
321.693,2888.0
323.051,2889.0
324.408,2898.0
325.765,2854.0
327.121,2958.0
328.478,2933.0
329.834,2923.0
331.19,3054.0
332.546,3090.0
333.902,3175.0
335.257,3362.0
336.612,3524.0
337.967,3679.0
339.322,3688.0
340.677,3548.0
342.031,3458.0
343.385,3239.0
344.739,3267.0
346.093,3114.0
347.446,3060.0
348.799,3035.0
350.153,3048.0
351.505,2986.0
352.858,3037.0
354.21,3005.0
355.563,3000.0
356.915,3056.0
358.267,2988.0
359.618,3068.0
360.969,2999.0
362.321,3067.0
363.672,3078.0
365.022,3026.0
366.373,3120.0
367.723,3006.0
369.073,3056.0
370.423,3066.0
371.773,3063.0
373.122,3044.0
374.471,3050.0
375.821,3118.0
377.169,3080.0
378.518,3097.0
379.866,3068.0
381.215,3091.0
382.563,3097.535
383.91,3118.0
385.258,3139.0
386.605,3112.0
387.952,3154.0
389.299,3132.0
390.646,3142.0
391.992,3144.0
393.339,3166.0
394.685,3170.0
396.031,3192.0
397.376,3225.0
398.722,3209.0
400.067,3215.0
401.412,3170.0
402.757,3189.0
404.101,3218.0
405.446,3238.0
406.79,3194.0
408.134,3235.0
409.478,3236.0
410.821,3304.0
412.165,3315.0
413.508,3255.0
414.851,3304.0
416.193,3310.0
417.536,3294.0
418.878,3309.0
420.22,3338.0
421.562,3292.0
422.904,3268.0
424.245,3352.0
425.586,3310.0
426.927,3350.0
428.268,3324.0
429.609,3318.0
430.949,3320.0
432.289,3349.0
433.629,3390.0
434.969,3341.0
436.309,3414.0
437.648,3343.0
438.987,3374.0
440.326,3405.0
441.665,3361.0
443.003,3341.0
444.342,3451.0
445.68,3418.0
447.018,3438.0
448.355,3427.0
449.693,3389.0
451.03,3428.0
452.367,3403.594
453.704,3479.0
455.041,3412.0
456.377,3434.0
457.713,3472.0
459.049,3445.0
460.385,3471.0
461.721,3498.0
463.056,3515.0
464.391,3491.0
465.726,3505.0
467.061,3546.0
468.395,3546.0
469.73,3500.0
471.064,3525.0
472.398,3515.0
473.731,3554.0
475.065,3540.0
476.398,3590.0
477.731,3520.0
479.064,3587.0
480.397,3602.0
481.729,3559.0
483.062,3597.0
484.394,3602.0
485.725,3580.0
487.057,3586.0
488.389,3589.375
489.72,3585.448
491.051,3604.0
492.382,3593.0
493.712,3596.0
495.043,3602.333
496.373,3632.0
497.703,3652.0
499.032,3658.0
500.362,3678.402
501.691,3687.468
503.02,3707.0
504.349,3708.0
505.678,3731.0
507.007,3743.0
508.335,3754.0
509.663,3798.0
510.991,3834.0
512.319,3774.0
513.646,3776.0
514.973,3806.0
516.3,3782.0
517.627,3812.0
518.954,3819.0
520.28,3786.0
521.607,3816.0
522.933,3826.0
524.259,3833.0
525.584,3864.0
526.91,3807.0
528.235,3832.0
529.56,3863.0
530.885,3905.0
532.209,3879.0
533.534,3914.0
534.858,3913.0
536.182,3916.0
537.506,3856.0
538.829,3898.0
540.152,3924.0
541.476,3939.0
542.799,3998.0
544.121,3907.0
545.444,3972.0
546.766,3979.0
548.088,3922.0
549.41,3997.0
550.732,3964.0
552.053,4036.0
553.375,4008.0
554.696,3979.0
556.017,4040.0
557.337,3990.0
558.658,4031.0
559.978,4061.0
561.298,4003.0
562.618,4073.0
563.938,4050.0
565.257,4086.0
566.576,4052.0
567.895,4063.0
569.214,4073.0
570.533,4137.0
571.851,4071.0
573.17,4144.0
574.488,4130.0
575.805,4151.0
577.123,4165.0
578.44,4120.0
579.758,4153.0
581.075,4177.0
582.391,4113.0
583.708,4199.0
585.024,4133.0
586.341,4168.0
587.657,4220.0
588.972,4225.0
590.288,4259.0
591.603,4208.0
592.918,4207.0
594.233,4208.0
595.548,4303.0
596.863,4263.0
598.177,4226.0
599.491,4220.0
600.805,4367.0
602.119,4309.0
603.432,4339.0
604.746,4345.0
606.059,4313.0
607.372,4334.0
608.685,4291.0
609.997,4404.0
611.309,4383.0
612.621,4386.0
613.933,4330.0
615.245,4372.0
616.557,4342.0
617.868,4383.0
619.179,4363.0
620.49,4454.0
621.801,4394.0
623.111,4446.0
624.421,4442.0
625.731,4440.0
627.041,4439.0
628.351,4550.0
629.66,4436.0
630.97,4431.0
632.279,4565.0
633.588,4498.0
634.896,4533.0
636.205,4482.0
637.513,4607.0
638.821,4543.0
640.129,4621.0
641.437,4564.0
642.744,4588.0
644.051,4537.0
645.358,4588.0
646.665,4603.0
647.972,4616.0
649.278,4630.642
650.584,4666.0
651.89,4617.0
653.196,4666.0
654.502,4626.0
655.807,4718.0
657.113,4619.0
658.418,4675.0
659.722,4764.0
661.027,4725.0
662.331,4720.0
663.636,4697.0
664.94,4709.0
666.244,4662.0
667.547,4676.0
668.851,4681.935
670.154,4776.0
671.457,4725.0
672.76,4750.0
674.062,4798.0
675.365,4705.0
676.667,4763.0
677.969,4755.0
679.271,4774.0
680.572,4855.0
681.874,4862.0
683.175,4909.0
684.476,4900.0
685.777,4879.0
687.077,4874.0
688.378,4888.0
689.678,4966.0
690.978,4933.0
692.278,4908.0
693.577,4904.0
694.877,5010.0
696.176,4927.0
697.475,5022.0
698.774,5021.0
700.072,5164.0
701.371,5032.0
702.669,5046.0
703.967,5045.0
705.265,5182.0
706.562,5250.0
707.86,5207.0
709.157,5167.0
710.454,5238.0
711.751,5298.0
713.047,5413.0
714.344,5404.0
715.64,5504.0
716.936,5541.0
718.232,5744.0
719.527,6019.0
720.823,6239.0
722.118,6597.0
723.413,6864.0
724.708,7100.0
726.002,6949.0
727.297,6757.0
728.591,6386.0
729.885,6125.0
731.179,5976.0
732.472,5692.0
733.766,5617.0
735.059,5430.0
736.352,5402.0
737.645,5444.0
738.937,5374.0
740.23,5376.0
741.522,5304.0
742.814,5284.0
744.106,5315.0
745.397,5381.0
746.689,5318.0
747.98,5294.0
749.271,5327.0
750.562,5318.0
751.853,5402.0
753.143,5320.0
754.433,5346.0
755.723,5368.0
757.013,5314.0
758.303,5402.0
759.592,5390.0
760.881,5355.0
762.17,5368.0
763.459,5444.0
764.748,5346.0
766.036,5322.0
767.325,5449.0
768.613,5362.0
769.901,5463.0
771.188,5431.0
772.476,5453.0
773.763,5477.0
775.05,5401.0
776.337,5464.0
777.624,5463.0
778.91,5509.0
780.196,5534.0
781.482,5530.0
782.768,5536.0
784.054,5520.0
785.339,5521.0
786.625,5573.0
787.91,5558.0
789.195,5566.739
790.479,5542.0
791.764,5577.0
793.048,5602.0
794.332,5651.0
795.616,5684.0
796.9,5658.0
798.183,5694.0
799.467,5641.0
800.75,5594.0
802.033,5703.0
803.316,5640.0
804.598,5778.0
805.88,5659.0
807.163,5756.0
808.445,5632.0
809.726,5751.0
811.008,5678.0
812.289,5730.0
813.57,5698.0
814.851,5780.0
816.132,5853.0
817.413,5819.0
818.693,5820.0
819.973,5886.0
821.253,5856.0
822.533,5844.0
823.813,5932.0
825.092,5841.0
826.371,5871.0
827.65,5901.0
828.929,5894.0
830.208,5908.0
831.486,5886.0
832.764,5889.0
834.042,5911.376
835.32,5974.0
836.598,5968.0
837.875,5976.0
839.152,6016.0
840.429,5932.0
841.706,6082.0
842.983,5982.0
844.259,6035.0
845.536,6110.0
846.812,5978.0
848.088,6059.0
849.363,6036.0
850.639,6108.0
851.914,6099.0
853.189,6078.0
854.464,6101.0
855.739,6094.0
857.013,6169.0
858.288,6195.0
859.562,6138.0
860.836,6211.0
862.11,6193.0
863.383,6195.499
864.656,6220.0
865.93,6208.0
867.203,6221.0
868.475,6241.0
869.748,6233.0
871.02,6195.0
872.292,6283.0
873.564,6238.0
874.836,6345.0
876.108,6329.0
877.379,6303.0
878.65,6505.0
879.922,6553.0
881.192,6691.0
882.463,6641.0
883.733,6488.0
885.004,6446.0
886.274,6418.0
887.544,6397.0
888.813,6462.0
890.083,6416.0
891.352,6487.0
892.621,6394.0
893.89,6425.0
895.159,6447.0
896.427,6475.0
897.695,6501.417
898.964,6503.598
900.232,6540.0
901.499,6522.0
902.767,6508.0
904.034,6554.0
905.301,6498.0
906.568,6597.0
907.835,6605.0
909.102,6590.0
910.368,6603.0
911.634,6532.0
912.9,6680.0
914.166,6621.0
915.432,6687.0
916.697,6651.0
917.962,6603.0
919.227,6678.0
920.492,6679.0
921.757,6687.0
923.021,6782.0
924.285,6791.0
925.55,6742.0
926.813,6791.0
928.077,6807.0
929.341,6839.0
930.604,6782.0
931.867,6837.0
933.13,6751.0
934.393,6720.0
935.655,6927.0
936.918,6830.0
938.18,6933.0
939.442,6839.0
940.703,6866.0
941.965,6895.0
943.226,6903.0
944.488,6820.0
945.749,6944.0
947.009,7050.0
948.27,6967.0
949.53,6951.0
950.791,6934.0
952.051,7030.0
953.311,6976.0
954.57,6874.0
955.83,7070.0
957.089,7015.0
958.348,7127.0
959.607,7034.0
960.866,7038.0
962.124,7036.0
963.383,7003.0
964.641,7102.0
965.899,7062.0
967.156,7104.0
968.414,7068.0
969.671,7119.0
970.928,7174.0
972.185,7124.0
973.442,7165.0
974.699,7136.0
975.955,7223.0
977.211,7188.0
978.468,7177.0
979.723,7240.0
980.979,7215.0
982.234,7283.0
983.49,7362.0
984.745,7227.0
986.0,7365.0
987.254,7335.0
988.509,7284.0
989.763,7370.0
991.017,7364.0
992.271,7403.0
993.525,7383.0
994.779,7437.0
996.032,7361.0
997.285,7426.0
998.538,7419.0
999.791,7347.0
1001.044,7433.0
1002.296,7422.0
1003.548,7493.0
1004.8,7468.0
1006.052,7507.0
1007.304,7487.0
1008.555,7554.0
1009.807,7569.0
1011.058,7516.0
1012.309,7572.0
1013.559,7612.0
1014.81,7631.0
1016.06,7563.0
1017.31,7675.0
1018.56,7708.0
1019.81,7591.0
1021.06,7721.0
1022.309,7686.0
1023.558,7744.0
1024.807,7816.0
1026.056,7744.0
1027.305,7743.0
1028.553,7747.0
1029.801,7763.869
1031.049,7852.0
1032.297,7856.0
1033.545,7887.0
1034.793,7938.0
1036.04,7938.0
1037.287,7917.0
1038.534,7905.0
1039.781,7972.0
1041.027,7960.018
1042.274,7907.0
1043.52,8000.0
1044.766,8081.0
1046.012,8105.0
1047.257,8023.0
1048.503,8143.0
1049.748,8148.0
1050.993,8152.0
1052.238,8257.0
1053.483,8292.0
1054.727,8256.0
1055.971,8278.0
1057.216,8396.0
1058.459,8378.0
1059.703,8467.0
1060.947,8411.0
1062.19,8605.0
1063.433,8631.0
1064.676,8743.0
1065.919,8838.0
1067.162,8827.0
1068.404,9106.0
1069.646,9132.0
1070.888,9368.0
1072.13,9461.0
1073.372,9738.0
1074.613,9923.0
1075.855,10159.0
1077.096,10268.0
1078.337,10473.0
1079.578,10818.0
1080.818,10809.0
1082.059,11050.0
1083.299,11073.0
1084.539,11478.0
1085.779,11852.0
1087.018,12171.0
1088.258,12780.0
1089.497,13505.0
1090.736,14781.0
1091.975,16345.0
1093.213,19096.0
1094.452,23608.0
1095.69,32216.0
1096.928,44154.0
1098.166,56932.0
1099.404,59184.0
1100.642,48745.0
1101.879,34753.0
1103.116,24994.0
1104.353,18819.0
1105.59,15434.0
1106.827,13134.0
1108.063,12032.0
1109.299,11050.0
1110.536,10501.0
1111.771,10162.0
1113.007,9667.0
1114.243,9618.0
1115.478,9393.0
1116.713,9294.0
1117.948,9227.0
1119.183,9065.0
1120.418,9007.0
1121.652,9006.0
1122.886,8957.0
1124.12,8975.0
1125.354,8894.0
1126.588,8851.0
1127.821,8834.0
1129.055,8809.0
1130.288,8844.0
1131.521,8896.0
1132.753,8784.0
1133.986,8862.0
1135.218,8793.0
1136.45,8847.0
1137.682,8718.0
1138.914,8836.0
1140.146,8824.0
1141.377,8768.0
1142.609,8777.0
1143.84,8840.0
1145.071,8901.0
1146.301,8888.0
1147.532,8888.0
1148.762,8918.0
1149.992,8912.0
1151.222,8908.597
1152.452,8874.0
1153.682,8926.0
1154.911,8869.0
1156.14,8958.0
1157.369,8986.0
1158.598,8889.0
1159.827,8963.0
1161.055,8952.0
1162.284,8954.0
1163.512,8935.0
1164.74,8978.0
1165.967,9028.0
1167.195,8941.0
1168.422,9050.0
1169.65,8961.0
1170.877,9011.0
1172.103,8915.0
1173.33,9080.0
1174.557,9048.0
1175.783,9199.0
1177.009,9165.0
1178.235,9057.0
1179.461,9219.0
1180.686,9181.0
1181.912,9217.0
1183.137,9223.0
1184.362,9199.0
1185.587,9232.229
1186.811,9198.0
1188.036,9240.0
1189.26,9222.0
1190.484,9173.0
1191.708,9334.0
1192.932,9325.0
1194.155,9339.0
1195.378,9283.0
1196.602,9316.0
1197.825,9407.0
1199.047,9275.0
1200.27,9371.0
1201.492,9359.0
1202.715,9448.0
1203.937,9377.0
1205.159,9464.0
1206.38,9398.0
1207.602,9404.0
1208.823,9425.0
1210.044,9456.0
1211.265,9466.0
1212.486,9543.0
1213.707,9466.0
1214.927,9490.0
1216.147,9563.0
1217.367,9473.0
1218.587,9625.0
1219.807,9605.0
1221.027,9581.0
1222.246,9537.0
1223.465,9557.0
1224.684,9538.439
1225.903,9554.126
1227.121,9576.0
1228.34,9589.0
1229.558,9682.0
1230.776,9685.0
1231.994,9846.0
1233.212,9629.0
1234.429,9806.0
1235.646,9811.0
1236.864,9701.0
1238.081,9869.0
1239.297,9628.0
1240.514,9860.0
1241.73,9834.0
1242.947,9762.0
1244.163,9887.0
1245.378,9910.0
1246.594,9853.0
1247.81,9909.0
1249.025,9841.0
1250.24,9968.0
1251.455,9957.0
1252.67,9902.0
1253.885,10028.0
1255.099,9964.0
1256.313,10035.0
1257.527,9899.0
1258.741,10033.0
1259.955,10134.0
1261.168,9953.0
1262.382,10062.0
1263.595,10064.0
1264.808,9969.0
1266.021,10021.0
1267.233,10055.0
1268.446,10079.0
1269.658,10166.0
1270.87,10161.648
1272.082,10180.628
1273.294,10186.0
1274.505,10177.0
1275.716,10188.0
1276.928,10190.0
1278.139,10147.0
1279.349,10263.0
1280.56,10245.0
1281.77,10307.0
1282.981,10234.0
1284.191,10298.0
1285.401,10368.0
1286.61,10362.0
1287.82,10403.0
1289.029,10372.0
1290.239,10275.0
1291.448,10531.0
1292.656,10371.0
1293.865,10462.0
1295.073,10471.0
1296.282,10480.0
1297.49,10510.859
1298.698,10578.0
1299.906,10513.0
1301.113,10570.0
1302.32,10553.0
1303.528,10542.0
1304.735,10556.0
1305.942,10609.0
1307.148,10566.0
1308.355,10701.0
1309.561,10628.0
1310.767,10724.0
1311.973,10651.0
1313.179,10666.0
1314.384,10672.0
1315.59,10759.0
1316.795,10676.0
1318.0,10707.0
1319.205,10649.0
1320.41,10851.0
1321.614,10781.0
1322.819,10802.0
1324.023,10900.0
1325.227,10913.0
1326.431,11019.0
1327.634,10897.0
1328.838,10802.0
1330.041,10929.0
1331.244,10988.0
1332.447,11012.0
1333.65,10960.0
1334.852,10987.0
1336.055,11046.0
1337.257,10942.0
1338.459,11075.0
1339.661,11049.0
1340.862,11188.0
1342.064,11048.0
1343.265,11131.0
1344.466,11068.0
1345.667,11264.0
1346.868,11136.0
1348.068,11232.0
1349.269,11208.0
1350.469,11112.0
1351.669,11290.0
1352.869,11210.0
1354.069,11308.0
1355.268,11441.0
1356.468,11270.0
1357.667,11411.0
1358.866,11516.0
1360.065,11396.0
1361.263,11568.0
1362.462,11476.0
1363.66,11407.0
1364.858,11570.0
1366.056,11463.0
1367.254,11459.0
1368.451,11596.0
1369.649,11615.0
1370.846,11660.0
1372.043,11684.0
1373.24,11679.0
1374.436,11676.0
1375.633,11750.0
1376.829,11717.0
1378.025,11795.0
1379.221,11795.0
1380.417,11747.0
1381.613,11708.0
1382.808,11708.0
1384.003,11877.0
1385.199,11904.0
1386.393,11979.0
1387.588,11973.833
1388.783,11984.363
1389.977,11877.0
1391.171,11975.0
1392.365,11897.0
1393.559,11915.0
1394.753,12005.0
1395.946,11968.0
1397.14,11981.0
1398.333,12026.0
1399.526,12057.0
1400.719,12071.0
1401.911,12092.228
1403.104,12114.0
1404.296,12119.0
1405.488,12163.0
1406.68,12198.0
1407.872,12113.0
1409.063,12278.0
1410.255,12353.0
1411.446,12251.0
1412.637,12272.0
1413.828,12292.0
1415.018,12432.0
1416.209,12323.0
1417.399,12421.0
1418.589,12424.0
1419.779,12493.0
1420.969,12426.0
1422.159,12489.0
1423.348,12524.0
1424.537,12562.0
1425.726,12608.0
1426.915,12512.0
1428.104,12619.0
1429.293,12731.0
1430.481,12620.0
1431.669,12647.0
1432.857,12715.0
1434.045,12815.0
1435.233,12808.0
1436.42,12876.0
1437.608,13013.0
1438.795,12979.0
1439.982,13168.0
1441.169,13336.0
1442.355,13499.0
1443.542,13625.0
1444.728,13612.021
1445.914,13744.0
1447.1,13477.0
1448.286,13330.0
1449.472,13182.0
1450.657,13156.0
1451.842,13395.0
1453.027,13248.0
1454.212,13122.0
1455.397,13287.0
1456.581,13091.0
1457.766,13199.0
1458.95,13266.0
1460.134,13154.0
1461.318,13316.0
1462.501,13150.0
1463.685,13290.0
1464.868,13350.0
1466.051,13298.0
1467.234,13401.0
1468.417,13392.453
1469.6,13299.0
1470.782,13378.0
1471.965,13346.0
1473.147,13231.0
1474.329,13395.0
1475.51,13378.0
1476.692,13316.0
1477.873,13456.0
1479.055,13367.0
1480.236,13467.0
1481.416,13622.0
1482.597,13385.0
1483.778,13579.0
1484.958,13494.0
1486.138,13461.0
1487.318,13477.0
1488.498,13430.769
1489.678,13591.0
1490.857,13501.0
1492.037,13479.0
1493.216,13717.0
1494.395,13724.0
1495.574,13621.0
1496.752,13746.0
1497.931,13662.0
1499.109,13755.0
1500.287,13650.0
1501.465,13684.0
1502.643,13668.0
1503.82,13639.0
1504.998,13746.0
1506.175,13760.0
1507.352,13716.0
1508.529,13819.0
1509.706,13776.0
1510.882,13832.0
1512.059,13795.0
1513.235,13922.0
1514.411,14046.0
1515.587,13757.0
1516.762,13940.0
1517.938,13880.0
1519.113,14001.0
1520.288,14113.0
1521.463,14026.0
1522.638,13950.0
1523.813,13997.0
