Raman Shift,Intensity 
400,15.65811086
401,15.53556795
402,15.58415193
403,15.62054865
404,15.58181316
405,15.66206638
406,15.57089603
407,15.55269376
408,15.54272084
409,15.62382687
410,15.53998275
411,15.61493516
412,15.69949068
413,15.5686553
414,15.57978331
415,15.60354995
416,15.68938827
417,15.50778847
418,15.52610743
419,15.64535058
420,15.61625641
421,15.70909225
422,15.55571311
423,15.57705199
424,15.56552083
425,15.60504104
426,15.61873151
427,15.51437669
428,15.60166859
429,15.62894164
430,15.59351052
431,15.58729165
432,15.54827409
433,15.65799682
434,15.63252225
435,15.58710363
436,15.5130825
437,15.62113891
438,15.57046794
439,15.62697881
440,15.53847321
441,15.67189717
442,15.62129673
443,15.60563138
444,15.64029202
445,15.57343629
446,15.56241033
447,15.61025261
448,15.57207492
449,15.6487284
450,15.70290711
451,15.60555859
452,15.63741624
453,15.6417464
454,15.57096912
455,15.5671162
456,15.69303406
457,15.63412778
458,15.58104386
459,15.6154486
460,15.626487
461,15.58166183
462,15.60109754
463,15.60138156
464,15.63637208
465,15.60944947
466,15.60613593
467,15.5599102
468,15.62636884
469,15.56151032
470,15.58209211
471,15.63821387
472,15.58933854
473,15.62930584
474,15.59597952
475,15.59960101
476,15.53934679
477,15.70963124
478,15.62356583
479,15.61081359
480,15.56880078
481,15.64289263
482,15.63027017
483,15.61153852
484,15.6412548
485,15.57833432
486,15.60336001
487,15.62949379
488,15.66413523
489,15.64137234
490,15.60684154
491,15.6450651
492,15.4806938
493,15.59962757
494,15.58191063
495,15.54688651
496,15.59023486
497,15.57431988
498,15.64269755
499,15.6137341
500,15.60292222
501,15.59276073
502,15.55473277
503,15.52727902
504,15.56542907
505,15.64423478
506,15.46798867
507,15.62128191
508,15.56605674
509,15.57462572
510,15.64759364
511,15.59482148
512,15.75520508
513,15.61432155
514,15.67248592
515,15.58910617
516,15.57677539
517,15.52747279
518,15.59577651
519,15.68597883
520,15.55862159
521,15.62130806
522,15.6348339
523,15.52211648
524,15.58146805
525,15.6349228
526,15.55983479
527,15.57276032
528,15.63889631
529,15.60840227
530,15.51980406
531,15.58508069
532,15.5203215
533,15.52973778
534,15.62002416
535,15.60093205
536,15.61325892
537,15.56479321
538,15.60617318
539,15.59473454
540,15.55629714
541,15.51210549
542,15.60354249
543,15.66192867
544,15.73452813
545,15.55398401
546,15.53368993
547,15.55927359
548,15.63812671
549,15.65381922
550,15.59589959
551,15.70448933
552,15.57265999
553,15.59874946
554,15.59395218
555,15.58064765
556,15.71893906
557,15.59820508
558,15.66046461
559,15.53088697
560,15.65768286
561,15.61749993
562,15.57284061
563,15.64024425
564,15.65350984
565,15.72229042
566,15.5354164
567,15.48819792
568,15.52880496
569,15.54573758
570,15.59019703
571,15.62871008
572,15.67911618
573,15.62020221
574,15.57784794
575,15.55588512
576,15.66324982
577,15.59323005
578,15.6382913
579,15.63428817
580,15.58237947
581,15.57174297
582,15.52800429
583,15.6042095
584,15.62080866
585,15.54657309
586,15.61111478
587,15.65038355
588,15.65593736
589,15.62638255
590,15.73439288
591,15.58437533
592,15.60907378
593,15.57054414
594,15.54678439
595,15.47894825
596,15.6757563
597,15.55898259
598,15.6668698
599,15.53672277
600,15.52088309
601,15.63272873
602,15.6046706
603,15.58865053
604,15.58851265
605,15.60975358
606,15.66919898
607,15.61582787
608,15.60622873
609,15.5299072
610,15.57184166
611,15.53840572
612,15.5207892
613,15.67800167
614,15.56582421
615,15.50736375
616,15.6290658
617,15.60435568
618,15.69172281
619,15.56719405
620,15.56871009
621,15.53618064
622,15.55112639
623,15.54947458
624,15.59827619
625,15.59572922
626,15.55577116
627,15.63698746
628,15.58164044
629,15.63553023
630,15.70507128
631,15.68614556
632,15.62474872
633,15.56274968
634,15.66981602
635,15.58579186
636,15.62291312
637,15.60054181
638,15.67572941
639,15.52562155
640,15.60370444
641,15.62486984
642,15.57470282
643,15.59188079
644,15.60137391
645,15.5320102
646,15.62847948
647,15.53985383
648,15.75762272
649,15.52983043
650,15.58988003
651,15.56265504
652,15.54498901
653,15.61625409
654,15.56867379
655,15.53400878
656,15.57028683
657,15.67508238
658,15.56761282
659,15.53542964
660,15.58785512
661,15.56729121
662,15.5700309
663,15.613931
664,15.51478689
665,15.50767062
666,15.63047122
667,15.62013638
668,15.60162357
669,15.58576806
670,15.64295488
671,15.60724708
672,15.61183807
673,15.56895961
674,15.54778964
675,15.63613427
676,15.58624238
677,15.65248271
678,15.6231968
679,15.69101901
680,15.63114953
681,15.63298447
682,15.60622675
683,15.60293298
684,15.58190019
685,15.57054781
686,15.62342813
687,15.57121769
688,15.52558516
689,15.62637296
690,15.67838015
691,15.69306782
692,15.65938979
693,15.59770315
694,15.57227911
695,15.60439808
696,15.63884094
697,15.63771702
698,15.64203917
699,15.67422776
700,15.61219799
701,15.62035661
702,15.57485048
703,15.53723975
704,15.58296624
705,15.50291968
706,15.59710484
707,15.63268158
708,15.66961058
709,15.577902
710,15.54438944
711,15.58108812
712,15.54342699
713,15.56301082
714,15.60900734
715,15.66910846
716,15.61131163
717,15.6044542
718,15.58246152
719,15.51534657
720,15.54235873
721,15.68699754
722,15.58918386
723,15.51806629
724,15.55909659
725,15.52385873
726,15.66706696
727,15.57563626
728,15.67690986
729,15.56299929
730,15.58336857
731,15.57594648
732,15.53983968
733,15.63621025
734,15.53975691
735,15.61779327
736,15.61026173
737,15.60794234
738,15.61203221
739,15.65236231
740,15.65300039
741,15.58248333
742,15.67101181
743,15.62494339
744,15.66294134
745,15.65339797
746,15.6420316
747,15.51679226
748,15.58999565
749,15.62459375
750,15.68058298
751,15.57739886
752,15.44656299
753,15.62009025
754,15.59250119
755,15.62806771
756,15.58933201
757,15.56318778
758,15.5811896
759,15.59571157
760,15.58686071
761,15.59580135
762,15.56732121
763,15.57725471
764,15.60399441
765,15.64026786
766,15.60118968
767,15.55343105
768,15.52275287
769,15.6303622
770,15.64868412
771,15.56875532
772,15.6008572
773,15.64375562
774,15.64037134
775,15.58616083
776,15.56935755
777,15.60079616
778,15.61246587
779,15.60990548
780,15.54072747
781,15.60644535
782,15.63141254
783,15.66609874
784,15.4565146
785,15.59183967
786,15.50662838
787,15.59427271
788,15.57599006
789,15.57156217
790,15.5812057
791,15.50256955
792,15.50800729
793,15.58030244
794,15.6067241
795,15.54211722
796,15.53316737
797,15.56942371
798,15.65989017
799,15.54110324
800,15.61485652
801,15.52817149
802,15.61374744
803,15.58518346
804,15.6495279
805,15.55482318
806,15.61860989
807,15.61544892
808,15.65802643
809,15.61473666
810,15.64118408
811,15.55522493
812,15.59663354
813,15.63495682
814,15.63417337
815,15.65644252
816,15.66266513
817,15.57059639
818,15.50385701
819,15.59148575
820,15.6379849
821,15.59937652
822,15.57615919
823,15.68698018
824,15.55539722
825,15.60286299
826,15.51553094
827,15.57082954
828,15.54257157
829,15.56491574
830,15.67487812
831,15.5646756
832,15.69605014
833,15.62550071
834,15.59343552
835,15.63495477
836,15.59095932
837,15.6202773
838,15.60331639
839,15.59987889
840,15.52082415
841,15.64233741
842,15.62920127
843,15.66069703
844,15.59477954
845,15.56436456
846,15.60792209
847,15.624082
848,15.56530933
849,15.65479294
850,15.59128956
851,15.66407122
852,15.60977176
853,15.64195046
854,15.62362204
855,15.61472427
856,15.61704213
857,15.54823262
858,15.60642192
859,15.56573888
860,15.55730608
861,15.55969282
862,15.62083358
863,15.52444411
864,15.64006421
865,15.61420194
866,15.58683278
867,15.64631418
868,15.56775907
869,15.67327246
870,15.70324285
871,15.63061864
872,15.54428277
873,15.61985568
874,15.56870363
875,15.64811015
876,15.65480563
877,15.63030476
878,15.67693366
879,15.55104355
880,15.60529804
881,15.61657511
882,15.66265373
883,15.7712188
884,15.70722243
885,15.61248102
886,15.65134282
887,15.66542433
888,15.6916106
889,15.67280005
890,15.75796363
891,15.78673029
892,15.65777091
893,15.70959017
894,15.67021462
895,15.71036485
896,15.63470236
897,15.65776328
898,15.64100822
899,15.75980042
900,15.74652383
901,15.6502211
902,15.79319112
903,15.8261824
904,15.72020912
905,15.71127787
906,15.76059577
907,15.6860672
908,15.75221968
909,15.78464151
910,15.68513607
911,15.79300543
912,15.7780812
913,15.74199739
914,15.7524581
915,15.75656458
916,15.80884368
917,15.76391947
918,15.79912828
919,15.78272616
920,15.74586363
921,15.71285773
922,15.87450468
923,15.73267951
924,15.81128685
925,15.8177077
926,15.8150093
927,15.80894569
928,15.82057466
929,15.8122061
930,15.83037748
931,15.96385387
932,15.95713167
933,15.7790337
934,15.87086616
935,15.85665538
936,15.80660324
937,15.87620235
938,15.88712462
939,15.83409445
940,15.81984497
941,15.80087556
942,15.81581496
943,15.83738836
944,15.93309781
945,15.81296523
946,15.86493648
947,15.89757122
948,15.89615274
949,15.94499825
950,15.88554011
951,15.87236983
952,15.91519874
953,15.92637742
954,16.01678045
955,15.96912267
956,15.99641497
957,16.06538752
958,15.96094287
959,15.90672968
960,15.90545343
961,15.97160368
962,15.99265902
963,16.05694053
964,15.98634905
965,16.0584938
966,16.00986572
967,15.93759274
968,16.01316467
969,16.16267845
970,16.04266847
971,15.97047915
972,16.0797751
973,16.15168352
974,15.96899105
975,16.05044679
976,16.1132064
977,16.11068981
978,16.06024996
979,16.08532382
980,16.16416051
981,16.12133847
982,16.0027573
983,16.20015603
984,16.04667589
985,16.09741049
986,16.10371767
987,16.03832864
988,16.1977841
989,16.17948611
990,16.05539221
991,16.05470086
992,16.15007474
993,16.23820543
994,16.20907744
995,16.17222174
996,16.14801346
997,16.25681506
998,16.17805078
999,16.21673912
1000,16.23260357
1001,16.17794814
1002,16.24965568
1003,16.14256354
1004,16.16461938
1005,16.21223988
1006,16.17171507
1007,16.20739291
1008,16.21013703
1009,16.23775188
1010,16.19654187
1011,16.14553913
1012,16.2370326
1013,16.21356567
1014,16.20480583
1015,16.1717776
1016,16.23676167
1017,16.15500028
1018,16.21429058
1019,16.22339136
1020,16.27524592
1021,16.16987974
1022,16.21480937
1023,16.21750748
1024,16.32703342
1025,16.20294091
1026,16.20765192
1027,16.25910753
1028,16.20513202
1029,16.2110666
1030,16.1911831
1031,16.13514204
1032,16.22995028
1033,16.24362113
1034,16.20512075
1035,16.11714668
1036,16.19243152
1037,16.12861925
1038,16.20880642
1039,16.10632983
1040,16.07402613
1041,16.17764145
1042,16.19028877
1043,16.11940883
1044,16.12034799
1045,16.1205825
1046,16.21370845
1047,16.12691329
1048,16.18716758
1049,16.09839179
1050,16.08773882
1051,16.15232139
1052,16.09069973
1053,16.10065387
1054,16.14239486
1055,16.09767952
1056,16.10294272
1057,16.08885316
1058,16.07297437
1059,16.1127705
1060,16.06251314
1061,16.11216189
1062,15.95265592
1063,16.06941967
1064,15.98078264
1065,16.01862449
1066,15.98422393
1067,16.02298455
1068,16.045261
1069,15.97197337
1070,16.02623497
1071,16.02335421
1072,15.98260708
1073,15.84622009
1074,15.90128014
1075,16.0311307
1076,15.96204411
1077,15.96349252
1078,15.94591715
1079,16.02078922
1080,15.96413331
1081,16.01247173
1082,15.96918137
1083,15.88848033
1084,15.86865696
1085,15.78788489
1086,15.9272121
1087,15.96072591
1088,15.86552069
1089,15.80004608
1090,15.85976955
1091,15.84667977
1092,15.81897522
1093,15.939862
1094,15.84252405
1095,15.89706958
1096,15.84475252
1097,15.87399423
1098,15.85528344
1099,15.80557709
1100,15.75206682
1101,15.77451718
1102,15.80407952
1103,15.79001424
1104,15.93930411
1105,15.7903453
1106,15.86710809
1107,15.84275376
1108,15.79745766
1109,15.7239588
1110,15.73578513
1111,15.81710856
1112,15.70744627
1113,15.69645918
1114,15.71460116
1115,15.73110814
1116,15.74396059
1117,15.66716669
1118,15.75528887
1119,15.75728164
1120,15.7615807
1121,15.70044502
1122,15.71380314
1123,15.73377596
1124,15.71353861
1125,15.74303764
1126,15.65594116
1127,15.67870137
1128,15.69486285
1129,15.62679411
1130,15.7590617
1131,15.71331808
1132,15.55560486
1133,15.64001947
1134,15.69395607
1135,15.72995401
1136,15.7019331
1137,15.6176206
1138,15.67878589
1139,15.76357482
1140,15.61486135
1141,15.7011688
1142,15.64152619
1143,15.68275079
1144,15.67279487
1145,15.66642097
1146,15.6841142
1147,15.58387806
1148,15.6169105
1149,15.57917437
1150,15.66684892
1151,15.66377645
1152,15.7253179
1153,15.55423428
1154,15.66521469
1155,15.59705666
1156,15.62002448
1157,15.69560896
1158,15.702644
1159,15.61992355
1160,15.66814612
1161,15.5969946
1162,15.67577812
1163,15.62631357
1164,15.63773069
1165,15.53266977
1166,15.64809267
1167,15.57287901
1168,15.64896537
1169,15.61955529
1170,15.59111372
1171,15.55155403
1172,15.53297731
1173,15.57053117
1174,15.59014863
1175,15.64149943
1176,15.62668421
1177,15.53020237
1178,15.56734809
1179,15.53689855
1180,15.62177458
1181,15.67176556
1182,15.55963581
1183,15.58570302
1184,15.57307997
1185,15.59987799
1186,15.5760145
1187,15.69396235
1188,15.56061
1189,15.54505432
1190,15.6471753
1191,15.60134388
1192,15.67216557
1193,15.58590004
1194,15.60124831
1195,15.63436208
1196,15.53835762
1197,15.64645433
1198,15.61634424
1199,15.5687822
1200,15.59161075
1201,15.65509773
1202,15.62121882
1203,15.51004748
1204,15.6410109
1205,15.57195941
1206,15.63844091
1207,15.63971964
1208,15.54319304
1209,15.61193779
1210,15.56474724
1211,15.63423779
1212,15.70095849
1213,15.63112664
1214,15.61174387
1215,15.543446
1216,15.58600762
1217,15.59240366
1218,15.5831956
1219,15.56368876
1220,15.60132124
1221,15.60100617
1222,15.60845419
1223,15.63680133
1224,15.69086525
1225,15.60808206
1226,15.60164755
1227,15.55722244
1228,15.54505272
1229,15.6090221
1230,15.65190055
1231,15.61799496
1232,15.60214939
1233,15.57956507
1234,15.67141266
1235,15.62417534
1236,15.50132126
1237,15.58885993
1238,15.55125533
1239,15.59291526
1240,15.68859215
1241,15.72444901
1242,15.58526885
1243,15.59453033
1244,15.55682485
1245,15.50500099
1246,15.59112246
1247,15.62682372
1248,15.52665445
1249,15.61920412
1250,15.61352106
1251,15.59399735
1252,15.49853486
1253,15.59560794
1254,15.54525171
1255,15.62279411
1256,15.53303411
1257,15.54841981
1258,15.58217676
1259,15.5677245
1260,15.58283522
1261,15.63766089
1262,15.70471823
1263,15.57365682
1264,15.50869906
1265,15.63211209
1266,15.55130234
1267,15.580986
1268,15.51536867
1269,15.59937365
1270,15.66595089
1271,15.50796487
1272,15.54394163
1273,15.51903482
1274,15.6111054
1275,15.59115013
1276,15.52839247
1277,15.66617192
1278,15.58373081
1279,15.62924545
1280,15.60648611
1281,15.60941201
1282,15.58146667
1283,15.61005388
1284,15.5680732
1285,15.5649991
1286,15.57161102
1287,15.63216638
1288,15.54203079
1289,15.67867147
1290,15.61292284
1291,15.57310548
1292,15.57763638
1293,15.57546963
1294,15.5268882
1295,15.58280316
1296,15.5863114
1297,15.57967881
1298,15.55824214
1299,15.61399075
1300,15.66829515
1301,15.57989208
1302,15.68365128
1303,15.63262796
1304,15.66126563
1305,15.61388352
1306,15.64167625
1307,15.58373992
1308,15.76893636
1309,15.55931196
1310,15.64240919
1311,15.60850826
1312,15.73362651
1313,15.59023883
1314,15.62072031
1315,15.65304932
1316,15.63513179
1317,15.58112561
1318,15.60598843
1319,15.63937946
1320,15.59751464
1321,15.61835758
1322,15.57137186
1323,15.59633524
1324,15.58519691
1325,15.6486026
1326,15.55358903
1327,15.53828472
1328,15.63258516
1329,15.59700329
1330,15.62944906
1331,15.70163965
1332,15.56910462
1333,15.57172612
1334,15.63864304
1335,15.56933134
1336,15.56978182
1337,15.61331373
1338,15.64651475
1339,15.56457055
1340,15.50462416
1341,15.55354446
1342,15.54477872
1343,15.60759446
1344,15.64964079
1345,15.59074886
1346,15.62674405
1347,15.55161554
1348,15.69511905
1349,15.54539747
1350,15.60428461
1351,15.57955851
1352,15.57251914
1353,15.67007499
1354,15.64606251
1355,15.53368471
1356,15.58906342
1357,15.61281836
1358,15.5708388
1359,15.63845486
1360,15.54381927
1361,15.64738336
1362,15.54657151
1363,15.66905344
1364,15.54847204
1365,15.50923544
1366,15.55621908
1367,15.59464152
1368,15.56703314
1369,15.60931965
1370,15.6179074
1371,15.62071398
1372,15.61264974
1373,15.64428882
1374,15.54569672
1375,15.58429961
1376,15.70151208
1377,15.61289726
1378,15.64523323
1379,15.58149664
1380,15.59179537
1381,15.57392892
1382,15.5493353
1383,15.60946397
1384,15.47105587
1385,15.59173721
1386,15.70027048
1387,15.58517551
1388,15.58406724
1389,15.59770447
1390,15.64903166
1391,15.63459369
1392,15.56680788
1393,15.66136164
1394,15.47742752
1395,15.59748184
1396,15.60366544
1397,15.54875674
1398,15.56651663
1399,15.62818356
1400,15.54225837
1401,15.64998649
1402,15.55261424
1403,15.5917531
1404,15.59117207
1405,15.60068611
1406,15.60502943
1407,15.65123663
1408,15.62703989
1409,15.61316413
1410,15.59302292
1411,15.61300442
1412,15.63544984
1413,15.55768175
1414,15.68375417
1415,15.6824336
1416,15.59829799
1417,15.5647989
1418,15.51457548
1419,15.58140112
1420,15.60334191
1421,15.63927951
1422,15.6552551
1423,15.56154979
1424,15.66498678
1425,15.70290905
1426,15.60826951
1427,15.51480588
1428,15.6036581
1429,15.61988393
1430,15.57888243
1431,15.60637586
1432,15.53918904
1433,15.58019473
1434,15.66082708
1435,15.64782061
1436,15.62090275
1437,15.68677453
1438,15.60619561
1439,15.61179065
1440,15.58671243
1441,15.62886093
1442,15.55883894
1443,15.5347692
1444,15.61610606
1445,15.6777764
1446,15.49334512
1447,15.61875274
1448,15.54379327
1449,15.63972199
1450,15.6132724
1451,15.57717255
1452,15.54854846
1453,15.6374297
1454,15.60822659
1455,15.51198038
1456,15.57613246
1457,15.58297854
1458,15.64847072
1459,15.64368164
1460,15.59009995
1461,15.56527612
1462,15.57162955
1463,15.51102883
1464,15.59113391
1465,15.59121879
1466,15.58604001
1467,15.60989192
1468,15.59363864
1469,15.64549435
1470,15.60038087
1471,15.64612358
1472,15.55057847
1473,15.61263073
1474,15.7547127
1475,15.60469634
1476,15.6993161
1477,15.59697373
1478,15.62005388
1479,15.61054536
1480,15.56274872
1481,15.56457778
1482,15.57184003
1483,15.56074388
1484,15.59844454
1485,15.62569728
1486,15.55534984
1487,15.59733999
1488,15.5982852
1489,15.55427427
1490,15.66186469
1491,15.61754108
1492,15.63259258
1493,15.6564116
1494,15.58211356
1495,15.61988247
1496,15.60256526
1497,15.49879245
1498,15.64169574
1499,15.56374547
1500,15.59502074
1501,15.64393658
1502,15.50035301
1503,15.62348656
1504,15.59923395
1505,15.60848476
1506,15.55568335
1507,15.58698754
1508,15.58323422
1509,15.63674055
1510,15.50015451
1511,15.641486
1512,15.59430185
1513,15.66981231
1514,15.66194655
1515,15.6018554
1516,15.62463904
1517,15.69043965
1518,15.62505641
1519,15.61547168
1520,15.64130467
1521,15.61732758
1522,15.61786871
1523,15.52276055
1524,15.57054388
1525,15.53890791
1526,15.54870183
1527,15.58606602
1528,15.59351387
1529,15.60436277
1530,15.63293917
1531,15.66594833
1532,15.64263129
1533,15.64084588
1534,15.58104834
1535,15.61929355
1536,15.57205358
1537,15.60275151
1538,15.58093111
1539,15.64396157
1540,15.62474871
1541,15.52459476
1542,15.58939581
1543,15.64784715
1544,15.49732036
1545,15.5938668
1546,15.64819063
1547,15.59202378
1548,15.50221681
1549,15.4584792
1550,15.53983065
1551,15.62119936
1552,15.63875193
1553,15.65107728
1554,15.61591995
1555,15.61157487
1556,15.67301606
1557,15.61100498
1558,15.60121009
1559,15.67521929
1560,15.67148615
1561,15.54924484
1562,15.5475937
1563,15.58792678
1564,15.58709847
1565,15.59466337
1566,15.55879435
1567,15.5609105
1568,15.63230626
1569,15.52523899
1570,15.56765618
1571,15.60108295
1572,15.5309673
1573,15.54272266
1574,15.54815918
1575,15.66161727
1576,15.54025625
1577,15.59022805
1578,15.67379984
1579,15.63278351
1580,15.6196241
1581,15.59449976
1582,15.6849228
1583,15.61163971
1584,15.63459943
1585,15.63131111
1586,15.61721326
1587,15.6053794
1588,15.60992581
1589,15.55388199
1590,15.64188617
1591,15.61653338
1592,15.50085593
1593,15.58022554
1594,15.63288689
1595,15.57269991
1596,15.58021334
1597,15.64151813
1598,15.64296791
1599,15.54566376
1600,15.62096361
1601,15.63146799
1602,15.53594136
1603,15.62232986
1604,15.68086582
1605,15.58713981
1606,15.53480685
1607,15.70425795
1608,15.44409063
1609,15.59887544
1610,15.63068455
1611,15.57297364
1612,15.60889489
1613,15.53900998
1614,15.62142696
1615,15.65113603
1616,15.69813646
1617,15.67875895
1618,15.56295876
1619,15.59018705
1620,15.64893787
1621,15.56153364
1622,15.56176293
1623,15.68203998
1624,15.61046059
1625,15.54437883
1626,15.59615028
1627,15.582397
1628,15.59743039
1629,15.63736886
1630,15.55285391
1631,15.64005442
1632,15.59935212
1633,15.52954105
1634,15.54040395
1635,15.60037946
1636,15.57874254
1637,15.57946493
1638,15.70700274
1639,15.58055018
1640,15.57689436
1641,15.48794013
1642,15.65239971
1643,15.58352035
1644,15.57048716
1645,15.58765409
1646,15.70098878
1647,15.6651955
1648,15.64507375
1649,15.55393141
1650,15.54230418
1651,15.60922976
1652,15.6225962
1653,15.61634559
1654,15.54957122
1655,15.59182302
1656,15.48432913
1657,15.60319457
1658,15.6291552
1659,15.60458951
1660,15.54643055
1661,15.62602612
1662,15.58422508
1663,15.5957933
1664,15.59555968
1665,15.56932138
1666,15.6598987
1667,15.66985974
1668,15.57566629
1669,15.55646412
1670,15.59888052
1671,15.56248744
1672,15.54653257
1673,15.61247349
1674,15.65893404
1675,15.64169597
1676,15.61264421
1677,15.62307635
1678,15.56118257
1679,15.61777562
1680,15.687304
1681,15.67866028
1682,15.62569385
1683,15.60336855
1684,15.62503131
1685,15.64620573
1686,15.6373399
1687,15.56054853
1688,15.66978562
1689,15.65574518
1690,15.64074704
1691,15.57402432
1692,15.63662634
1693,15.6261176
1694,15.64353486
1695,15.58714923
1696,15.66700378
1697,15.56893162
1698,15.50028402
1699,15.52629143
1700,15.54826533
1701,15.5558471
1702,15.57315968
1703,15.60144587
1704,15.62033311
1705,15.61460664
1706,15.46265058
1707,15.49864446
1708,15.52728918
1709,15.54422793
1710,15.71186521
1711,15.58415996
1712,15.53617897
1713,15.5967216
1714,15.66087903
1715,15.60967156
1716,15.62707791
1717,15.59727146
1718,15.63242558
1719,15.63031192
1720,15.58274939
1721,15.64211711
1722,15.60171633
1723,15.5523175
1724,15.66260535
1725,15.57008947
1726,15.55778189
1727,15.63227181
1728,15.60151929
1729,15.66014985
1730,15.53219327
1731,15.52202463
1732,15.6003707
1733,15.56338026
1734,15.55188372
1735,15.58213718
1736,15.64100271
1737,15.63288503
1738,15.65547327
1739,15.52859053
1740,15.64655904
1741,15.6417315
1742,15.59554479
1743,15.58758919
1744,15.6019966
1745,15.55342952
1746,15.5959966
1747,15.60441189
1748,15.64398158
1749,15.64939504
1750,15.63424816
1751,15.59167983
1752,15.64216869
1753,15.67381321
1754,15.50946269
1755,15.62994869
1756,15.5840597
1757,15.53850538
1758,15.61475628
1759,15.60704461
1760,15.61018725
1761,15.58832443
1762,15.58978899
1763,15.59595053
1764,15.55817703
1765,15.68839199
1766,15.62313356
1767,15.44731419
1768,15.61350418
1769,15.61666864
1770,15.5457979
1771,15.54991472
1772,15.57861133
1773,15.6866775
1774,15.60024891
1775,15.65974956
1776,15.55422627
1777,15.59355982
1778,15.58290216
1779,15.53636084
1780,15.56299013
1781,15.57165584
1782,15.57567351
1783,15.53767571
1784,15.54328463
1785,15.70185075
1786,15.61489183
1787,15.53323129
1788,15.57512336
1789,15.64293866
1790,15.5993825
1791,15.5796279
1792,15.60424577
1793,15.55438056
1794,15.58671956
1795,15.56294176
1796,15.56428817
1797,15.55305003
1798,15.58929877
1799,15.55421944
1800,15.59824922
1801,15.66159162
1802,15.5793639
1803,15.63840999
1804,15.70820623
1805,15.63211236
1806,15.56514562
1807,15.61305327
1808,15.6367432
1809,15.55584063
1810,15.57999868
1811,15.55345827
1812,15.64225992
1813,15.57684553
1814,15.59068442
1815,15.68318155
1816,15.6897254
1817,15.52010038
1818,15.62963459
1819,15.689058
1820,15.52121489
1821,15.60174689
1822,15.66745281
1823,15.6595894
1824,15.73103078
1825,15.62097784
1826,15.64799944
1827,15.44262582
1828,15.61015263
1829,15.59134373
1830,15.61983174
1831,15.62615466
1832,15.60965757
1833,15.60818151
1834,15.61144808
1835,15.60165201
1836,15.62171891
1837,15.65154082
1838,15.61673813
1839,15.60542124
1840,15.59596333
1841,15.61754801
1842,15.64963514
1843,15.67943161
1844,15.53058109
1845,15.60933875
1846,15.60083391
1847,15.62575992
1848,15.47165825
1849,15.5629268
1850,15.53973838
1851,15.51387422
1852,15.62030161
1853,15.53372295
1854,15.67853042
1855,15.54065232
1856,15.65661638
1857,15.61106376
1858,15.61482292
1859,15.59914008
1860,15.51056137
1861,15.60602314
1862,15.57025649
1863,15.6871578
1864,15.54983512
1865,15.56717993
1866,15.63881474
1867,15.53656955
1868,15.62342839
1869,15.50236198
1870,15.57690591
1871,15.57608889
1872,15.65147295
1873,15.5967005
1874,15.6545341
1875,15.61185694
1876,15.56045313
1877,15.61079409
1878,15.64597175
1879,15.61626936
1880,15.67605655
1881,15.62655609
1882,15.53472367
1883,15.63599484
1884,15.57666273
1885,15.74592364
1886,15.60739795
1887,15.66379839
1888,15.6817787
1889,15.51381434
1890,15.58459547
1891,15.68761076
1892,15.58089029
1893,15.61443828
1894,15.64267476
1895,15.49302098
1896,15.59474872
1897,15.69258321
1898,15.55470235
1899,15.673438
1900,15.59066123
1901,15.62622807
1902,15.65369903
1903,15.61177292
1904,15.61386488
1905,15.58298194
1906,15.55976487
1907,15.62269237
1908,15.6432861
1909,15.60968355
1910,15.51559357
1911,15.64679247
1912,15.59722516
1913,15.58297432
1914,15.65381237
1915,15.60852099
1916,15.66114501
1917,15.62620568
1918,15.62648984
1919,15.60318692
1920,15.64086653
1921,15.59922532
1922,15.62800807
1923,15.6049894
1924,15.55567574
1925,15.56153418
1926,15.67603431
1927,15.62830483
1928,15.64275803
1929,15.62211785
1930,15.63900187
1931,15.57406801
1932,15.53135484
1933,15.5957141
1934,15.65998787
1935,15.60096503
1936,15.61629978
1937,15.64935777
1938,15.65100935
1939,15.61255007
1940,15.63399475
1941,15.51446794
1942,15.52036477
1943,15.48880065
1944,15.55886071
1945,15.61036972
1946,15.71824816
1947,15.54331109
1948,15.59259211
1949,15.59855512
1950,15.67338236
1951,15.6419618
1952,15.50819733
1953,15.5281053
1954,15.5480045
1955,15.56604895
1956,15.58605594
1957,15.52814885
1958,15.57530182
1959,15.55405525
1960,15.60880159
1961,15.60946364
1962,15.50372408
1963,15.5410776
1964,15.61332559
1965,15.53247662
1966,15.68852834
1967,15.62036211
1968,15.65739944
1969,15.67927407
1970,15.66640124
1971,15.61273157
1972,15.59338056
1973,15.64782887
1974,15.66609096
1975,15.57061313
1976,15.52844901
1977,15.50080744
1978,15.60737849
1979,15.58999492
1980,15.56976969
1981,15.59235126
1982,15.5466353
1983,15.58020703
1984,15.58961705
1985,15.66504937
1986,15.64327656
1987,15.63926827
1988,15.55210072
1989,15.64739894
1990,15.60606233
1991,15.62188924
1992,15.63569795
1993,15.59712896
1994,15.67975606
1995,15.64107725
1996,15.55211445
1997,15.62553941
1998,15.52321368
1999,15.53701778
2000,15.52869596
2001,15.62985423
2002,15.64618837
2003,15.67767941
2004,15.57659195
2005,15.63659058
2006,15.52986854
2007,15.58991253
2008,15.65462321
2009,15.56783822
2010,15.59961317
2011,15.56227768
2012,15.57621574
2013,15.59990778
2014,15.66244283
2015,15.66438026
2016,15.58130372
2017,15.48833266
2018,15.52057501
2019,15.61245817
2020,15.62729706
2021,15.56342337
2022,15.56218286
2023,15.5205114
2024,15.65726847
2025,15.70133126
2026,15.64385187
2027,15.56088892
2028,15.61740544
2029,15.56478091
2030,15.53045462
2031,15.58255334
2032,15.60849599
2033,15.58638027
2034,15.62220712
2035,15.72566388
2036,15.62283011
2037,15.62940203
2038,15.58250601
2039,15.58715263
2040,15.65164449
2041,15.54654683
2042,15.61973232
2043,15.65043606
2044,15.44047945
2045,15.69314486
2046,15.53426066
2047,15.63250924
2048,15.65719115
2049,15.55152247
2050,15.61763628
2051,15.58740579
2052,15.58439032
2053,15.6215362
2054,15.6645867
2055,15.65908264
2056,15.59773519
2057,15.60126412
2058,15.62985423
2059,15.62783918
2060,15.5819117
2061,15.62499482
2062,15.67966525
2063,15.59022957
2064,15.60193549
2065,15.57879477
2066,15.60405687
2067,15.57663553
2068,15.58398442
2069,15.57348515
2070,15.58078702
2071,15.51522737
2072,15.63291269
2073,15.62955521
2074,15.70606395
2075,15.64020678
2076,15.59176287
2077,15.60960618
2078,15.6071233
2079,15.5891964
2080,15.58468371
2081,15.63286045
2082,15.61596422
2083,15.60099249
2084,15.69519971
2085,15.56232721
2086,15.50433965
2087,15.53503444
2088,15.59370251
2089,15.64795289
2090,15.5727825
2091,15.62540252
2092,15.54674565
2093,15.64069604
2094,15.60820676
2095,15.54216532
2096,15.57034816
2097,15.63650154
2098,15.58309448
2099,15.56835174
2100,15.45715296
2101,15.47924614
2102,15.56826122
2103,15.57787655
2104,15.53873259
2105,15.60303345
2106,15.67093864
2107,15.61321655
2108,15.567727
2109,15.53184711
2110,15.61992266
2111,15.55530858
2112,15.5867577
2113,15.53873929
2114,15.62344471
2115,15.47515357
2116,15.66478003
2117,15.58226809
2118,15.55142367
2119,15.63025342
2120,15.55336183
2121,15.62853849
2122,15.59666291
2123,15.5754908
2124,15.61176608
2125,15.59599091
2126,15.63448673
2127,15.54854238
2128,15.6647763
2129,15.58465982
2130,15.57101645
2131,15.62968155
2132,15.57524126
2133,15.58606944
2134,15.60998604
2135,15.5776106
2136,15.61595526
2137,15.61762289
2138,15.62002209
2139,15.66154369
2140,15.55121629
2141,15.66257541
2142,15.5911389
2143,15.64320408
2144,15.59950459
2145,15.60581916
2146,15.5785361
2147,15.61440395
2148,15.60324963
2149,15.55375005
2150,15.68248675
2151,15.58367549
2152,15.6209378
2153,15.58301285
2154,15.56933306
2155,15.66490078
2156,15.52804637
2157,15.58734889
2158,15.55868169
2159,15.60759028
2160,15.67084628
2161,15.58450042
2162,15.59269236
2163,15.68353248
2164,15.61723574
2165,15.63962193
2166,15.62233167
2167,15.5130824
2168,15.51665487
2169,15.67938699
2170,15.57662444
2171,15.5750891
2172,15.66922465
2173,15.64655827
2174,15.52919002
2175,15.56190297
2176,15.59886561
2177,15.58635314
2178,15.58929301
2179,15.54358761
2180,15.65311711
2181,15.61328697
2182,15.63093442
2183,15.57955861
2184,15.60840108
2185,15.60373711
2186,15.68848914
2187,15.63741151
2188,15.58509084
2189,15.73736225
2190,15.68046308
2191,15.64032146
2192,15.54637911
2193,15.64359564
2194,15.57516157
2195,15.63537295
2196,15.64045638
2197,15.60566639
2198,15.65787644
2199,15.55657179
2200,15.60171655
2201,15.57479567
2202,15.66614362
2203,15.56819603
2204,15.65093737
2205,15.59587994
2206,15.57239346
2207,15.61013096
2208,15.57865362
2209,15.5059699
2210,15.57818111
2211,15.56740198
2212,15.64864165
2213,15.62631317
2214,15.56668917
2215,15.6085903
2216,15.54064623
2217,15.59977218
2218,15.58663873
2219,15.5873864
2220,15.61610562
2221,15.6544794
2222,15.73121802
2223,15.5962753
2224,15.55855959
2225,15.54394892
2226,15.54667857
2227,15.694455
2228,15.54218577
2229,15.56290275
2230,15.52097795
2231,15.5314089
2232,15.62761141
2233,15.55971329
2234,15.67235552
2235,15.58508891
2236,15.61414443
2237,15.55655329
2238,15.57829192
2239,15.55715181
2240,15.60723928
2241,15.57774676
2242,15.56680736
2243,15.6508272
2244,15.52820178
2245,15.65884067
2246,15.72006087
2247,15.6437407
2248,15.53392049
2249,15.52875195
2250,15.52748613
2251,15.59381563
2252,15.6551877
2253,15.66036359
2254,15.50926202
2255,15.63927196
2256,15.49565158
2257,15.63759544
2258,15.68434106
2259,15.60402288
2260,15.51962889
2261,15.6263837
2262,15.57077542
2263,15.64014869
2264,15.55800077
2265,15.67460044
2266,15.6496342
2267,15.64043853
2268,15.65848316
2269,15.56234877
2270,15.56737642
2271,15.53783655
2272,15.61417924
2273,15.68728094
2274,15.67133051
2275,15.68261429
2276,15.54389937
2277,15.70040231
2278,15.65108882
2279,15.57318187
2280,15.55426018
2281,15.64787946
2282,15.67101736
2283,15.5792542
2284,15.68044741
2285,15.65963093
2286,15.61214296
2287,15.64899506
2288,15.5958748
2289,15.58452903
2290,15.55989806
2291,15.59171795
2292,15.66066497
2293,15.62854156
2294,15.63667373
2295,15.50175784
2296,15.61884083
2297,15.69631442
2298,15.71847301
2299,15.65862328
2300,15.62820797
2301,15.65107245
2302,15.69528915
2303,15.59602625
2304,15.56312674
2305,15.59889085
2306,15.5398571
2307,15.52940794
2308,15.70350241
2309,15.63062441
2310,15.57405528
2311,15.67225724
2312,15.51248445
2313,15.71754531
2314,15.64086731
2315,15.6140762
2316,15.52291353
2317,15.58295083
2318,15.54978979
2319,15.58877976
2320,15.67478503
2321,15.54647385
2322,15.6170701
2323,15.56121513
2324,15.58610584
2325,15.65113214
2326,15.66444349
2327,15.56427776
2328,15.67597553
2329,15.69714807
2330,15.61267343
2331,15.57945093
2332,15.5929647
2333,15.58462586
2334,15.58585432
2335,15.60834645
2336,15.46433436
2337,15.64271175
2338,15.53268938
2339,15.61418619
2340,15.72226033
2341,15.67553406
2342,15.52781647
2343,15.52168492
2344,15.6744735
2345,15.71141377
2346,15.64161994
2347,15.56369419
2348,15.61486619
2349,15.66377451
2350,15.57233107
2351,15.58670731
2352,15.62706987
2353,15.54876595
2354,15.58676029
2355,15.58418518
2356,15.57628995
2357,15.65649004
2358,15.58720435
2359,15.55489888
2360,15.64876631
2361,15.58960345
2362,15.54721052
2363,15.68105125
2364,15.58071992
2365,15.53119518
2366,15.63255229
2367,15.56463011
2368,15.54421179
2369,15.57436934
2370,15.49363385
2371,15.64226419
2372,15.56173075
2373,15.55878141
2374,15.63634807
2375,15.60391128
2376,15.67808601
2377,15.55001128
2378,15.56591108
2379,15.49917274
2380,15.68235578
2381,15.62944583
2382,15.55242161
2383,15.54621458
2384,15.57015919
2385,15.53653145
2386,15.71008282
2387,15.67064725
2388,15.58238177
2389,15.59907185
2390,15.56920174
2391,15.63678251
2392,15.51323971
2393,15.66567542
2394,15.55764352
2395,15.70047456
2396,15.62164606
2397,15.65520366
2398,15.56258637
2399,15.59334107
2400,15.57436922
2401,15.60628324
2402,15.57096416
2403,15.47289677
2404,15.63070194
2405,15.55983476
2406,15.49390809
2407,15.58325312
2408,15.46969106
2409,15.53928676
2410,15.61472041
2411,15.59022216
2412,15.6409959
2413,15.58427329
2414,15.58646861
2415,15.63643204
2416,15.62199644
2417,15.63686559
2418,15.61689724
2419,15.60388086
2420,15.68285428
2421,15.51110529
2422,15.58265731
2423,15.55426405
2424,15.67183075
2425,15.63377114
2426,15.50961776
2427,15.65213551
2428,15.60704821
2429,15.51504566
2430,15.71303872
2431,15.55921629
2432,15.61015304
2433,15.60134042
2434,15.64097238
2435,15.58274747
2436,15.5687446
2437,15.50133003
2438,15.52576026
2439,15.51010141
2440,15.54146564
2441,15.50088098
2442,15.5893632
2443,15.62955152
2444,15.56893703
2445,15.64092257
2446,15.51474523
2447,15.65650431
2448,15.61549685
2449,15.56046992
2450,15.59239505
2451,15.61434858
2452,15.60512927
2453,15.61673483
2454,15.60925357
2455,15.59147048
2456,15.56275528
2457,15.5380651
2458,15.60087696
2459,15.7002876
2460,15.60968169
2461,15.603088
2462,15.58015641
2463,15.59182951
2464,15.55052595
2465,15.58291714
2466,15.61973005
2467,15.65098296
2468,15.65679844
2469,15.58701033
2470,15.54274831
2471,15.62211643
2472,15.56983541
2473,15.6011011
2474,15.53348348
2475,15.67371195
2476,15.64876309
2477,15.70933548
2478,15.61406018
2479,15.51194277
2480,15.62252235
2481,15.53514586
2482,15.66176257
2483,15.5762146
2484,15.60178338
2485,15.58221372
2486,15.61176538
2487,15.65212513
2488,15.67447456
2489,15.56561349
2490,15.59110674
2491,15.57038728
2492,15.64395208
2493,15.62924
2494,15.50535367
2495,15.63336016
2496,15.57527844
2497,15.58786819
2498,15.62009978
2499,15.61370276
2500,15.75495183
2501,15.49666252
2502,15.60680385
2503,15.67669219
2504,15.67475003
2505,15.66935069
2506,15.76488758
2507,15.6187321
2508,15.62782788
2509,15.5256146
2510,15.55506192
2511,15.64901622
2512,15.55553686
2513,15.6171139
2514,15.66306003
2515,15.577246
2516,15.66115082
2517,15.54438766
2518,15.49340394
2519,15.67953537
2520,15.60396239
2521,15.63483874
2522,15.68714556
2523,15.66352964
2524,15.61915788
2525,15.57773986
2526,15.59958082
2527,15.59784745
2528,15.631013
2529,15.5785719
2530,15.56494347
2531,15.58292706
2532,15.6855486
2533,15.60186006
2534,15.56067238
2535,15.68498682
2536,15.65012349
2537,15.5826745
2538,15.61982001
2539,15.61133796
2540,15.66281391
2541,15.588368
2542,15.52575838
2543,15.60563499
2544,15.64143023
2545,15.5630856
2546,15.55958249
2547,15.58628689
2548,15.63398583
2549,15.58788368
2550,15.66398528
2551,15.60420873
2552,15.61438523
2553,15.61839334
2554,15.61820958
2555,15.60914651
2556,15.6079929
2557,15.55610455
2558,15.59085466
2559,15.57211276
2560,15.61400215
2561,15.51829166
2562,15.54310471
2563,15.6989995
2564,15.58682443
2565,15.65777498
2566,15.6159334
2567,15.55574591
2568,15.59192038
2569,15.60316972
2570,15.58395511
2571,15.63365269
2572,15.61003565
2573,15.59115962
2574,15.67531647
2575,15.51926205
2576,15.54372447
2577,15.54711655
2578,15.65185665
2579,15.52272259
2580,15.60384518
2581,15.69155216
2582,15.55544244
2583,15.54122152
2584,15.60567733
2585,15.57213472
2586,15.55385893
2587,15.57290985
2588,15.6181162
2589,15.61381618
2590,15.56368081
2591,15.6097215
2592,15.63111969
2593,15.56029279
2594,15.64929031
2595,15.58359133
2596,15.57665267
2597,15.57346194
2598,15.59368821
2599,15.6408923
2600,15.64754512
2601,15.6168695
2602,15.55426362
2603,15.55967575
2604,15.62672228
2605,15.58828701
2606,15.5364583
2607,15.63074057
2608,15.64517531
2609,15.62267585
2610,15.69242618
2611,15.58184435
2612,15.62369644
2613,15.56082541
2614,15.57615073
2615,15.49659875
2616,15.66777741
2617,15.58606746
2618,15.57747334
2619,15.59879414
2620,15.66948708
2621,15.67700097
2622,15.60560139
2623,15.70702222
2624,15.55831597
2625,15.60317126
2626,15.63228421
2627,15.58570536
2628,15.65173202
2629,15.57124319
2630,15.47806772
2631,15.63384764
2632,15.54489871
2633,15.5520733
2634,15.61576352
2635,15.623243
2636,15.59482755
2637,15.5717001
2638,15.544008
2639,15.6641529
2640,15.54972456
2641,15.66666487
2642,15.61759902
2643,15.56992434
2644,15.58411755
2645,15.58012251
2646,15.62651014
2647,15.57929897
2648,15.61361126
2649,15.57257209
2650,15.59361187
2651,15.60321318
2652,15.48684732
2653,15.58465833
2654,15.63840417
2655,15.65891645
2656,15.61294792
2657,15.61730464
2658,15.59955495
2659,15.61144687
2660,15.59882392
2661,15.56269346
2662,15.74369118
2663,15.57175369
2664,15.59641177
2665,15.48877931
2666,15.66527969
2667,15.55513353
2668,15.59970282
2669,15.5789155
2670,15.54472952
2671,15.6731526
2672,15.5601013
2673,15.62524081
2674,15.64273463
2675,15.68909109
2676,15.51866698
2677,15.57232483
2678,15.60031915
2679,15.61165187
2680,15.61101802
2681,15.5737625
2682,15.57259968
2683,15.53655657
2684,15.60186903
2685,15.60745994
2686,15.58317273
2687,15.54981068
2688,15.56952979
2689,15.58100169
2690,15.67893054
2691,15.57383501
2692,15.61286163
2693,15.65302767
2694,15.56281131
2695,15.62644873
2696,15.56724581
2697,15.57063251
2698,15.60380659
2699,15.55775401
2700,15.56214906
2701,15.62439648
2702,15.59900787
2703,15.58312869
2704,15.59586693
2705,15.64643993
2706,15.6612671
2707,15.64661016
2708,15.61456809
2709,15.59406928
2710,15.55697182
2711,15.57998466
2712,15.63189474
2713,15.66378661
2714,15.62039362
2715,15.52822906
2716,15.59391058
2717,15.60057702
2718,15.60606019
2719,15.61648418
2720,15.53614874
2721,15.5447183
2722,15.57737053
2723,15.5160896
2724,15.57622808
2725,15.58215872
2726,15.52056432
2727,15.60378338
2728,15.69337188
2729,15.56690065
2730,15.59411726
2731,15.62215641
2732,15.6079106
2733,15.56701897
2734,15.62723007
2735,15.67792981
2736,15.64833194
2737,15.61491672
2738,15.54195289
2739,15.55387428
2740,15.58706748
2741,15.59235243
2742,15.56346142
2743,15.63308671
2744,15.59686514
2745,15.53682327
2746,15.47214974
2747,15.61593458
2748,15.55669838
2749,15.62956517
2750,15.54632029
2751,15.61958859
2752,15.5805126
2753,15.52194371
2754,15.571815
2755,15.64421905
2756,15.62321328
2757,15.57267904
2758,15.63723015
2759,15.55105469
2760,15.62986643
2761,15.52794433
2762,15.60125791
2763,15.55915185
2764,15.61830686
2765,15.64978
2766,15.7035154
2767,15.65765577
2768,15.65755894
2769,15.67582426
2770,15.71233144
2771,15.65897922
2772,15.48035058
2773,15.61912874
2774,15.64300505
2775,15.55736209
2776,15.48472051
2777,15.59911881
2778,15.60706664
2779,15.5877161
2780,15.61154257
2781,15.55822375
2782,15.56841629
2783,15.69961584
2784,15.56549529
2785,15.51239103
2786,15.51701999
2787,15.6069682
2788,15.52541148
2789,15.60540846
2790,15.5834989
2791,15.57462165
2792,15.5792637
2793,15.60055246
2794,15.61013446
2795,15.53969122
2796,15.51626603
2797,15.57701199
2798,15.53842011
2799,15.54032037
2800,15.67094737
2801,15.60872341
2802,15.60509447
2803,15.5696618
2804,15.55017355
2805,15.6133787
2806,15.62654169
2807,15.62989384
2808,15.53617875
2809,15.63872699
2810,15.6300278
2811,15.71210584
2812,15.58690751
2813,15.57592426
2814,15.59020921
2815,15.67243171
2816,15.49795755
2817,15.59641718
2818,15.6487663
2819,15.47804727
2820,15.69773617
2821,15.61388366
2822,15.58334999
2823,15.64226272
2824,15.56043764
2825,15.61121938
2826,15.59951553
2827,15.51284484
2828,15.5850482
2829,15.53105261
2830,15.56559009
2831,15.63358721
2832,15.58753976
2833,15.59483768
2834,15.65761862
2835,15.61242476
2836,15.64433569
2837,15.56979513
2838,15.57212661
2839,15.55507665
2840,15.60537879
2841,15.66799689
2842,15.63997756
2843,15.65613872
2844,15.59662626
2845,15.59694005
2846,15.59376502
2847,15.67817236
2848,15.66912995
2849,15.66696924
2850,15.60006907
2851,15.60820957
2852,15.61589527
2853,15.60702485
2854,15.54663973
2855,15.59353551
2856,15.58371841
2857,15.65546084
2858,15.60549167
2859,15.62579477
2860,15.53793761
2861,15.55559471
2862,15.51765028
2863,15.66939369
2864,15.65942854
2865,15.63721204
2866,15.56038797
2867,15.54018086
2868,15.63800206
2869,15.61493833
2870,15.58579478
2871,15.703868
2872,15.55030513
2873,15.60381115
2874,15.51644252
2875,15.58615252
2876,15.54747528
2877,15.61516202
2878,15.5873296
2879,15.60511146
2880,15.57671233
2881,15.595975
2882,15.56580603
2883,15.61351661
2884,15.61546019
2885,15.61367513
2886,15.58522194
2887,15.57297564
2888,15.55504444
2889,15.64120752
2890,15.67989912
2891,15.62590392
2892,15.56793185
2893,15.54851251
2894,15.5741933
2895,15.63581032
2896,15.65291913
2897,15.59146458
2898,15.54906486
2899,15.53314835
2900,15.5258262
2901,15.59080828
2902,15.5519205
2903,15.5985143
2904,15.63025748
2905,15.53213461
2906,15.68660104
2907,15.61673897
2908,15.63186593
2909,15.62031749
2910,15.55881438
2911,15.6249181
2912,15.57496679
2913,15.59160211
2914,15.54529638
2915,15.56934754
2916,15.53523179
2917,15.54121426
2918,15.5678346
2919,15.55432786
2920,15.57672494
2921,15.59749651
2922,15.61806676
2923,15.54580168
2924,15.53343754
2925,15.57353611
2926,15.55196077
2927,15.62573924
2928,15.56763816
2929,15.65909084
2930,15.61695258
2931,15.61805659
2932,15.57945032
2933,15.65721394
2934,15.66924195
2935,15.61122384
2936,15.6740658
2937,15.54672294
2938,15.65054478
2939,15.57058629
2940,15.53986742
2941,15.61132115
2942,15.58883951
2943,15.60134543
2944,15.58225686
2945,15.58705976
2946,15.66782093
2947,15.61949436
2948,15.61346161
2949,15.65045168
2950,15.63329928
2951,15.5430752
2952,15.56574111
2953,15.62930781
2954,15.51065854
2955,15.61192542
2956,15.6546982
2957,15.56859003
2958,15.6726573
2959,15.72221017
2960,15.6676307
2961,15.63491955
2962,15.67492108
2963,15.59007509
2964,15.6149645
2965,15.64879296
2966,15.60248131
2967,15.47193569
2968,15.60588598
2969,15.57584216
2970,15.60526608
2971,15.59660088
2972,15.560752
2973,15.62902116
2974,15.63009877
2975,15.5594438
2976,15.65588397
2977,15.57017068
2978,15.65909276
2979,15.64197164
2980,15.66571348
2981,15.6338239
2982,15.58652697
2983,15.59768599
2984,15.53274934
2985,15.56582212
2986,15.60939574
2987,15.66656697
2988,15.55366633
2989,15.5623114
2990,15.69773883
2991,15.58158699
2992,15.5788804
2993,15.57114394
2994,15.55195389
2995,15.57140295
2996,15.60148882
2997,15.52042876
2998,15.59161437
2999,15.55820451
3000,15.66334945
3001,15.63980686
3002,15.64136659
3003,15.56008235
3004,15.56349844
3005,15.68363941
3006,15.53022414
3007,15.6568074
3008,15.6887707
3009,15.52441603
3010,15.64125296
3011,15.63798025
3012,15.63806202
3013,15.58638573
3014,15.54680686
3015,15.61948789
3016,15.67863166
3017,15.64395122
3018,15.68135693
3019,15.5950326
3020,15.63200667
3021,15.63435199
3022,15.59466813
3023,15.53006847
3024,15.55367888
3025,15.57518518
3026,15.57401887
3027,15.58964506
3028,15.60858696
3029,15.60422789
3030,15.59373353
3031,15.64038505
3032,15.59734647
3033,15.50687085
3034,15.62267072
3035,15.55106249
3036,15.53715566
3037,15.6257705
3038,15.51594844
3039,15.67208937
3040,15.62907666
3041,15.52553164
3042,15.51774653
3043,15.62748251
3044,15.693227
3045,15.54194783
3046,15.60163669
3047,15.5859461
3048,15.65453572
3049,15.66120922
3050,15.65450099
3051,15.61535584
3052,15.5862098
3053,15.59785562
3054,15.53969233
3055,15.56980029
3056,15.56593683
3057,15.63015691
3058,15.60793744
3059,15.58627226
3060,15.71031079
3061,15.59867074
3062,15.56656072
3063,15.54072073
3064,15.51532673
3065,15.61182274
3066,15.58474832
3067,15.54775486
3068,15.60968321
3069,15.6085121
3070,15.57949625
3071,15.5600503
3072,15.70412026
3073,15.51415123
3074,15.56901421
3075,15.60836799
3076,15.57638072
3077,15.64832745
3078,15.54571742
3079,15.65095376
3080,15.51527352
3081,15.49314339
3082,15.5594002
3083,15.57579243
3084,15.53552291
3085,15.54375974
3086,15.570764
3087,15.56964533
3088,15.621319
3089,15.66483141
3090,15.51150582
3091,15.67175084
3092,15.54705972
3093,15.65556647
3094,15.62676879
3095,15.52493488
3096,15.59377675
3097,15.63619266
3098,15.63144321
3099,15.5773662
3100,15.60359184
3101,15.50549263
3102,15.61110658
3103,15.69062362
3104,15.60669025
3105,15.57617666
3106,15.67181254
3107,15.66097672
3108,15.60181297
3109,15.72919165
3110,15.58719492
3111,15.57231979
3112,15.59925238
3113,15.57450561
3114,15.57985105
3115,15.6495413
3116,15.63872986
3117,15.57631649
3118,15.56307923
3119,15.58600158
3120,15.64948337
3121,15.70125378
3122,15.65728923
3123,15.52962372
3124,15.59640867
3125,15.610627
3126,15.63219355
3127,15.54194697
3128,15.60471975
3129,15.57345126
3130,15.53629365
3131,15.57892544
3132,15.61256131
3133,15.59307368
3134,15.61406269
3135,15.59004965
3136,15.61979696
3137,15.49140039
3138,15.5639864
3139,15.54363365
3140,15.59143176
3141,15.66700696
3142,15.64684014
3143,15.63253836
3144,15.60442745
3145,15.64675787
3146,15.70109651
3147,15.62521526
3148,15.66408275
3149,15.60750018
3150,15.62588686
3151,15.51144502
3152,15.59133412
3153,15.59081572
3154,15.59167458
3155,15.61440607
3156,15.61612742
3157,15.70087734
3158,15.64177479
3159,15.64618197
3160,15.63039039
3161,15.64287773
3162,15.52334952
3163,15.59154706
3164,15.58402349
3165,15.60317153
3166,15.5918962
3167,15.53550305
3168,15.54689232
3169,15.53397125
3170,15.6832514
3171,15.55887594
3172,15.60441652
3173,15.60246306
3174,15.58934836
3175,15.56495777
3176,15.65971253
3177,15.60329177
3178,15.57777705
3179,15.64212317
3180,15.54331712
3181,15.60325682
3182,15.71154429
3183,15.53247179
3184,15.6226343
3185,15.59600178
3186,15.54452041
3187,15.69122444
3188,15.55453175
3189,15.58050217
3190,15.49051051
3191,15.56511031
3192,15.63648782
3193,15.61420697
3194,15.56796025
3195,15.61315866
3196,15.56562644
3197,15.57806989
3198,15.59957198
3199,15.60587171
3200,15.63963773
3201,15.64502942
3202,15.58793626
3203,15.64971192
3204,15.59891011
3205,15.67491537
3206,15.66875269
3207,15.5770448
3208,15.56204927
3209,15.54236815
3210,15.54780513
3211,15.62818911
3212,15.54919921
3213,15.5256357
3214,15.5796747
3215,15.71510591
3216,15.55383265
3217,15.60681326
3218,15.5620262
3219,15.62302682
3220,15.60500433
3221,15.5506242
3222,15.5927009
3223,15.58731865
3224,15.68014732
3225,15.53149263
3226,15.67903516
3227,15.55867196
3228,15.72879664
3229,15.59112376
3230,15.61683211
3231,15.55928679
3232,15.60365324
3233,15.65663956
3234,15.60246603
3235,15.6306191
3236,15.59711263
3237,15.55044133
3238,15.61754176
3239,15.6179751
3240,15.60367458
3241,15.67165389
3242,15.57746637
3243,15.66442496
3244,15.56514742
3245,15.58759531
3246,15.57307429
3247,15.51943554
3248,15.5829841
3249,15.63831773
3250,15.60584112
3251,15.59060733
3252,15.50357779
3253,15.61432894
3254,15.52334361
3255,15.64652831
3256,15.70877568
3257,15.58289096
3258,15.59765233
3259,15.5195864
3260,15.59730271
3261,15.56920424
3262,15.55365363
3263,15.54921746
3264,15.59514408
3265,15.62837294
3266,15.63023972
3267,15.69333633
3268,15.56928986
3269,15.59236532
3270,15.6365012
3271,15.55400106
3272,15.60009192
3273,15.56268176
3274,15.57328552
3275,15.52976398
3276,15.55512064
3277,15.58157283
3278,15.59594541
3279,15.617917
3280,15.57275827
3281,15.5471846
3282,15.58291301
3283,15.59988152
3284,15.55716095
3285,15.70545892
3286,15.5582832
3287,15.57942445
3288,15.58687868
3289,15.56613076
3290,15.56615901
3291,15.60575259
3292,15.62233514
3293,15.76339836
3294,15.56805189
3295,15.58104671
3296,15.62434578
3297,15.54046013
3298,15.55098603
3299,15.62208841
3300,15.61754049
3301,15.60931283
3302,15.51924183
3303,15.63657085
3304,15.62662982
3305,15.64715857
3306,15.6538019
3307,15.66015213
3308,15.59023872
3309,15.5640327
3310,15.60361908
3311,15.58246465
3312,15.61582066
3313,15.63261004
3314,15.56224436
3315,15.64027019
3316,15.6101451
3317,15.60319199
3318,15.50346864
3319,15.55526356
3320,15.64325994
3321,15.55304018
3322,15.56913271
3323,15.54779387
3324,15.63423239
3325,15.52059776
3326,15.66043222
3327,15.59911808
3328,15.52866002
3329,15.61819384
3330,15.62825642
3331,15.60447267
3332,15.60850953
3333,15.5982882
3334,15.57804178
3335,15.58383949
3336,15.55873319
3337,15.50389898
3338,15.53824196
3339,15.57203462
3340,15.61709012
3341,15.57923816
3342,15.62720097
3343,15.62941553
3344,15.62311988
3345,15.54846178
3346,15.5803418
3347,15.59708559
3348,15.62276832
3349,15.6929672
3350,15.5445364
3351,15.57585442
3352,15.5545578
3353,15.64192772
3354,15.64737707
3355,15.62866759
3356,15.54254089
3357,15.61419734
3358,15.52919984
3359,15.56086268
3360,15.62751846
3361,15.54330532
3362,15.55140015
3363,15.61176653
3364,15.54402308
3365,15.65721665
3366,15.58760211
3367,15.51162115
3368,15.5572619
3369,15.68185117
3370,15.61953262
3371,15.69093946
3372,15.53225272
3373,15.65235831
3374,15.61008998
3375,15.54885684
3376,15.64121426
3377,15.70357499
3378,15.48414301
3379,15.64497379
3380,15.59441502
3381,15.56764275
3382,15.60630773
3383,15.63027226
3384,15.60593295
3385,15.70265414
3386,15.58369453
3387,15.64821695
3388,15.62880156
3389,15.53334421
3390,15.6120404
3391,15.62813532
3392,15.56844896
3393,15.59110919
3394,15.60364189
3395,15.58285532
3396,15.52924044
3397,15.59816507
3398,15.66271992
3399,15.56487153
3400,15.47039331
3401,15.58057471
3402,15.57314993
3403,15.59644446
3404,15.56247981
3405,15.6268695
3406,15.50861333
3407,15.63274597
3408,15.60100711
3409,15.60431022
3410,15.70636246
3411,15.5385355
3412,15.5491711
3413,15.58869735
3414,15.57715572
3415,15.54272533
3416,15.51171403
3417,15.56358111
3418,15.63453034
3419,15.69200507
3420,15.62625133
3421,15.67772244
3422,15.56312678
3423,15.50787573
3424,15.65480187
3425,15.57288204
3426,15.59009192
3427,15.674677
3428,15.59018371
3429,15.52241917
3430,15.59977205
3431,15.49477774
3432,15.53528775
3433,15.56668847
3434,15.54409038
3435,15.61880216
3436,15.66289777
3437,15.71401292
3438,15.61636162
3439,15.62894647
3440,15.63281041
3441,15.54689429
3442,15.47179984
3443,15.65190523
3444,15.61542581
3445,15.5230184
3446,15.60648619
3447,15.59643488
3448,15.57627999
3449,15.56563412
3450,15.6483888
3451,15.59228816
3452,15.57400099
3453,15.52137294
3454,15.65467454
3455,15.59830041
3456,15.54365511
3457,15.57341987
3458,15.63858178
3459,15.59282123
3460,15.56546471
3461,15.52242285
3462,15.63204175
3463,15.48600833
3464,15.56385728
3465,15.6451388
3466,15.60097625
3467,15.54809811
3468,15.60911518
3469,15.5529538
3470,15.66768631
3471,15.62085316
3472,15.63746793
3473,15.73691437
3474,15.55487092
3475,15.50968752
3476,15.4895132
3477,15.65483095
3478,15.5944256
3479,15.57053522
3480,15.60966459
3481,15.6716434
3482,15.56599348
3483,15.66785483
3484,15.52337434
3485,15.53969901
3486,15.60191115
3487,15.60533911
3488,15.51678185
3489,15.51939326
3490,15.60381189
3491,15.60457723
3492,15.6045718
3493,15.57540145
3494,15.62227336
3495,15.57490401
3496,15.58519189
3497,15.6498821
3498,15.57149914
3499,15.61555356
3500,15.57774124
3501,15.66655187
3502,15.58275925
3503,15.64195599
3504,15.56305919
3505,15.6478091
3506,15.68533061
3507,15.5049465
3508,15.63091332
3509,15.60301818
3510,15.70685574
3511,15.63929679
3512,15.63171159
3513,15.64776803
3514,15.63832787
3515,15.55761792
3516,15.56288197
3517,15.59087972
3518,15.49352842
3519,15.62105942
3520,15.53663721
3521,15.6155016
3522,15.60510007
3523,15.66540132
3524,15.51263133
3525,15.65171022
3526,15.56270949
3527,15.58080036
3528,15.63471832
3529,15.70894438
3530,15.60650401
3531,15.6493102
3532,15.56148887
3533,15.62018394
3534,15.5974858
3535,15.59515914
3536,15.63557867
3537,15.61590006
3538,15.53101921
3539,15.6205462
3540,15.63591149
3541,15.59687878
3542,15.58146809
3543,15.52574818
3544,15.62235559
3545,15.53794954
3546,15.58077386
3547,15.59431916
3548,15.54373057
3549,15.49249837
3550,15.59693172
3551,15.63062244
3552,15.59325381
3553,15.6357635
3554,15.50382097
3555,15.53757759
3556,15.58704357
3557,15.5576906
3558,15.58101304
3559,15.5679781
3560,15.71837631
3561,15.6520701
3562,15.63047577
3563,15.63669995
3564,15.67163485
3565,15.63870967
3566,15.63265085
3567,15.68554436
3568,15.55393873
3569,15.72700344
3570,15.58453714
3571,15.62617927
3572,15.58699048
3573,15.59368847
3574,15.53259719
3575,15.57719966
3576,15.64935012
3577,15.64757093
3578,15.56864604
3579,15.60535459
3580,15.62445457
3581,15.61509681
3582,15.57615065
3583,15.66730484
3584,15.60882273
3585,15.59236643
3586,15.61929867
3587,15.60415358
3588,15.58082946
3589,15.62297008
3590,15.55140525
3591,15.57437886
3592,15.58468069
3593,15.59333077
3594,15.65787708
3595,15.52638092
3596,15.61827794
3597,15.57789939
3598,15.49446829
3599,15.62949151
3600,15.56688099
3601,15.62495433
3602,15.50646483
3603,15.65623511
3604,15.5821911
3605,15.52130514
3606,15.61697134
3607,15.66379686
3608,15.60304229
3609,15.64595167
3610,15.63427326
3611,15.55014532
3612,15.5512831
3613,15.52929895
3614,15.63320915
3615,15.59016438
3616,15.61884132
3617,15.4920382
3618,15.59110391
3619,15.6866041
3620,15.60673054
3621,15.59865771
3622,15.49135605
3623,15.65020207
3624,15.58264431
3625,15.64974413
3626,15.58109275
3627,15.54114705
3628,15.70587113
3629,15.67141047
3630,15.61345027
3631,15.60324683
3632,15.59306909
3633,15.55786316
3634,15.61831919
3635,15.59559062
3636,15.51887643
3637,15.59967691
3638,15.56132129
3639,15.50773359
3640,15.65005556
3641,15.70259126
3642,15.57102039
3643,15.66496604
3644,15.59698073
3645,15.70920967
3646,15.53767014
3647,15.64414787
3648,15.63413481
3649,15.63282753
3650,15.69770497
3651,15.56344717
3652,15.62618644
3653,15.58843359
3654,15.59875319
3655,15.63063726
3656,15.62406746
3657,15.60973004
3658,15.64976394
3659,15.56876006
3660,15.56681927
3661,15.54924431
3662,15.52322151
3663,15.62321755
3664,15.63102723
3665,15.61780208
3666,15.57270569
3667,15.59065852
3668,15.66765631
3669,15.52158584
3670,15.67465827
3671,15.62103799
3672,15.61493502
3673,15.58410616
3674,15.619557
3675,15.60332038
3676,15.58889297
3677,15.65566249
3678,15.59773544
3679,15.66403536
3680,15.57814482
3681,15.64291525
3682,15.57615595
3683,15.55379761
3684,15.60700054
3685,15.5331185
3686,15.54877724
3687,15.62278716
3688,15.58321025
3689,15.63911804
3690,15.64006887
3691,15.74197402
3692,15.55507586
3693,15.73900111
3694,15.6082308
3695,15.60278452
3696,15.69459867
3697,15.58449797
3698,15.6126029
3699,15.63043002
3700,15.65618245
3701,15.58171
3702,15.61096173
3703,15.54256709
3704,15.58878591
3705,15.63490692
3706,15.68120415
3707,15.65568357
3708,15.50087169
3709,15.57366473
3710,15.60987389
3711,15.61089288
3712,15.59584724
3713,15.59008955
3714,15.60509235
3715,15.59706448
3716,15.55980118
3717,15.63716387
3718,15.66755807
3719,15.59462372
3720,15.54740916
3721,15.60500264
3722,15.6324907
3723,15.59206502
3724,15.52886983
3725,15.58844439
3726,15.53463469
3727,15.65470381
3728,15.50681049
3729,15.58599103
3730,15.64734087
3731,15.57743951
3732,15.55683263
3733,15.63928931
3734,15.54928828
3735,15.58243384
3736,15.6125623
3737,15.66019186
3738,15.6670164
3739,15.65603493
3740,15.63834083
3741,15.55250277
3742,15.66073301
3743,15.58997977
3744,15.5406394
3745,15.56807695
3746,15.63984868
3747,15.65698639
3748,15.6711063
3749,15.6497613
3750,15.65849857
3751,15.57802355
3752,15.56096355
3753,15.57413648
3754,15.62389262
3755,15.60348432
3756,15.56255636
3757,15.63390861
3758,15.55996718
3759,15.59352999
3760,15.65489039
3761,15.64265341
3762,15.58893609
3763,15.65867815
3764,15.64617202
3765,15.61366734
3766,15.57528305
3767,15.6427527
3768,15.60376682
3769,15.62503633
3770,15.60706136
3771,15.61878015
3772,15.55981428
3773,15.63329488
3774,15.5163816
3775,15.6052022
3776,15.62044865
3777,15.57868085
3778,15.57920404
3779,15.55848195
3780,15.64277708
3781,15.58959886
3782,15.4925334
3783,15.62209966
3784,15.60352377
3785,15.59211216
3786,15.63294909
3787,15.64103945
3788,15.57543534
3789,15.52217593
3790,15.56359253
3791,15.6106288
3792,15.64620393
3793,15.62728761
3794,15.53726025
3795,15.65806972
3796,15.58598532
3797,15.57430583
3798,15.61111859
3799,15.54876473
3800,15.69923499
3801,15.75900132
3802,15.57175063
3803,15.61361304
3804,15.77136077
3805,15.57404727
3806,15.59650203
3807,15.59865972
3808,15.55728251
3809,15.5437889
3810,15.6748243
3811,15.49650538
3812,15.59949784
3813,15.54845027
3814,15.63411574
3815,15.62740373
3816,15.63875387
3817,15.56436161
3818,15.64186747
3819,15.63247681
3820,15.60952943
3821,15.63520452
3822,15.55562125
3823,15.59162814
3824,15.59588867
3825,15.63874004
3826,15.59328992
3827,15.6561642
3828,15.5074313
3829,15.54542663
3830,15.55865708
3831,15.59250067
3832,15.62881467
3833,15.66553845
3834,15.49629751
3835,15.49552796
3836,15.57172802
3837,15.59642843
3838,15.66749781
3839,15.68460166
3840,15.59160022
3841,15.59164194
3842,15.53055269
3843,15.63124115
3844,15.5178395
3845,15.70702868
3846,15.56994821
3847,15.5471048
3848,15.64852328
3849,15.52576279
3850,15.52544971
3851,15.62903808
3852,15.6432972
3853,15.62776404
3854,15.58835395
3855,15.48238582
3856,15.5641823
3857,15.68739294
3858,15.46129992
3859,15.64173707
3860,15.54533965
3861,15.57441823
3862,15.59710394
3863,15.58972633
3864,15.59277555
3865,15.57033572
3866,15.61666243
3867,15.66687186
3868,15.61207339
3869,15.6989081
3870,15.65118314
3871,15.57821248
3872,15.59881185
3873,15.59278128
3874,15.53924754
3875,15.60533951
3876,15.63208177
3877,15.64648266
3878,15.59187092
3879,15.57401345
3880,15.47113731
3881,15.57353282
3882,15.62136548
3883,15.66435274
3884,15.52504086
3885,15.5959818
3886,15.5935385
3887,15.61070964
3888,15.63727345
3889,15.55311227
3890,15.5590221
3891,15.65465128
3892,15.5640992
3893,15.55516733
3894,15.61505465
3895,15.6283078
3896,15.64456905
3897,15.64326327
3898,15.55625823
3899,15.61317557
3900,15.56861897
3901,15.55435344
3902,15.60341879
3903,15.71025859
3904,15.70021049
3905,15.5761751
3906,15.4810164
3907,15.55391383
3908,15.58841949
3909,15.58918933
3910,15.61014775
3911,15.69006025
3912,15.6552249
3913,15.62866619
3914,15.70376088
3915,15.61572247
3916,15.63484058
3917,15.6445129
3918,15.59679791
3919,15.60644194
3920,15.61668648
3921,15.65420153
3922,15.48131899
3923,15.62449771
3924,15.5621378
3925,15.62956749
3926,15.65620444
3927,15.69958227
3928,15.66629875
3929,15.56391716
3930,15.68553741
3931,15.57845287
3932,15.70758179
3933,15.70817236
3934,15.58862855
3935,15.56540231
3936,15.6023464
3937,15.54710515
3938,15.52691998
3939,15.61694165
3940,15.58435824
3941,15.58944587
3942,15.63115528
3943,15.6188268
3944,15.58177359
3945,15.56762729
3946,15.57341398
3947,15.62054598
3948,15.55936507
3949,15.52391817
3950,15.58770862
3951,15.61495533
3952,15.51517847
3953,15.57908065
3954,15.53806924
3955,15.60727244
3956,15.55974196
3957,15.67104364
3958,15.60461723
3959,15.56953623
3960,15.5647739
3961,15.60081873
3962,15.59646737
3963,15.67153416
3964,15.53510279
3965,15.61750782
3966,15.62561036
3967,15.65215323
3968,15.59619382
3969,15.56556366
3970,15.67064329
3971,15.65420958
3972,15.5977891
3973,15.59259449
3974,15.62682634
3975,15.65422593
3976,15.56924663
3977,15.58300336
3978,15.50131486
3979,15.69705492
3980,15.55254392
3981,15.59068408
3982,15.56993412
3983,15.67261318
3984,15.61119128
3985,15.56297211
3986,15.71684325
3987,15.68931635
3988,15.57724187
3989,15.5487474
3990,15.65022864
3991,15.58648518
3992,15.65414865
3993,15.62278935
3994,15.57734122
3995,15.52699302
3996,15.7044878
3997,15.64746758
3998,15.56295477
3999,15.67222986
4000,15.71456326
