Raman Shift,Intensity
66.856,1612.0
68.253,1682.0
69.651,1744.0
71.048,1935.0
72.445,2076.0
73.842,2215.0
75.239,2467.0
76.635,2610.0
78.031,2847.0
79.427,2911.0
80.823,2881.0
82.218,3092.0
83.614,3281.0
85.009,3355.0
86.404,3222.0
87.798,3227.0
89.193,3286.0
90.587,3520.0
91.981,3474.0
93.375,3482.0
94.768,3414.171
96.161,3342.542
97.554,3286.743
98.947,3170.0
100.34,3146.0
101.732,3089.0
103.124,3066.0
104.516,3115.0
105.908,3083.705
107.3,3058.715
108.691,3069.0
110.082,3003.0
111.473,2934.0
112.864,2956.0
114.254,3018.0
115.644,3172.0
117.034,3315.0
118.424,3266.0
119.813,3264.0
121.203,3280.0
122.592,3216.0
123.981,3049.0
125.369,3068.0
126.758,3100.0
128.146,3270.0
129.534,3539.0
130.922,3924.0
132.309,4524.0
133.696,5476.0
135.083,6661.0
136.47,7875.0
137.857,7969.0
139.243,7269.0
140.63,5913.0
142.016,4664.0
143.401,3817.0
144.787,3400.0
146.172,3091.0
147.557,2870.0
148.942,2764.0
150.327,2645.0
151.711,2595.0
153.096,2558.0
154.48,2526.0
155.863,2492.0
157.247,2351.0
158.63,2375.0
160.013,2343.0
161.396,2377.0
162.779,2340.0
164.161,2292.0
165.544,2307.0
166.926,2301.0
168.308,2274.0
169.689,2311.0
171.07,2219.0
172.452,2216.0
173.833,2193.0
175.213,2196.0
176.594,2210.0
177.974,2215.0
179.354,2245.0
180.734,2282.0
182.114,2355.0
183.493,2404.387
184.872,2503.0
186.251,2556.0
187.63,2644.0
189.008,2761.0
190.387,2852.0
191.765,3020.0
193.143,3148.0
194.52,3347.0
195.898,3494.0
197.275,3652.0
198.652,3821.0
200.029,4072.0
201.405,4188.749
202.782,4369.0
204.158,4507.0
205.534,4790.0
206.909,5025.0
208.285,5515.0
209.66,5734.21
211.035,6027.0
212.41,6556.0
213.784,7411.0
215.159,8363.0
216.533,9708.0
217.907,11400.0
219.281,12851.0
220.654,14041.0
222.027,14459.0
223.4,14279.0
224.773,13137.0
226.146,11569.0
227.518,10428.0
228.891,8500.0
230.263,6904.0
231.634,5881.0
233.006,5139.0
234.377,4562.0
235.748,4156.0
237.119,3885.0
238.49,3583.805
239.86,3461.0
241.231,3271.0
242.601,3175.0
243.97,3131.0
245.34,3041.0
246.709,2965.0
248.079,2957.0
249.448,2879.0
250.816,2866.0
252.185,2825.0
253.553,2805.0
254.921,2747.0
256.289,2717.0
257.657,2752.0
259.024,2694.0
260.391,2702.0
261.758,2695.0
263.125,2704.0
264.492,2710.0
265.858,2674.0
267.224,2658.0
268.59,2658.0
269.956,2662.0
271.321,2638.0
272.687,2707.0
274.052,2698.0
275.416,2747.0
276.781,2793.0
278.146,2860.0
279.51,2900.0
280.874,2984.0
282.237,3099.0
283.601,3241.0
284.964,3379.0
286.327,3535.0
287.69,3799.0
289.053,4072.0
290.416,4243.0
291.778,4709.0
293.14,4963.0
294.502,5274.0
295.863,5616.0
297.225,5835.0
298.586,5785.0
299.947,5566.0
301.308,5248.0
302.668,4813.0
304.029,4342.0
305.389,3944.0
306.749,3652.0
308.108,3445.0
309.468,3330.0
310.827,3106.0
312.186,2942.0
313.545,2835.0
314.903,2758.0
316.262,2678.0
317.62,2611.889
318.978,2559.0
320.336,2515.0
321.693,2480.0
323.051,2465.0
324.408,2416.0
325.765,2357.0
327.121,2446.0
328.478,2350.0
329.834,2356.0
331.19,2372.0
332.546,2349.0
333.902,2276.0
335.257,2257.0
336.612,2222.0
337.967,2231.0
339.322,2230.0
340.677,2210.0
342.031,2282.0
343.385,2323.0
344.739,2327.0
346.093,2406.0
347.446,2538.0
348.799,2612.0
350.153,2789.0
351.505,2861.0
352.858,2933.0
354.21,2993.0
355.563,3037.449
356.915,3112.0
358.267,3119.0
359.618,3120.0
360.969,3176.0
362.321,3196.0
363.672,3155.0
365.022,3084.0
366.373,2975.0
367.723,2825.0
369.073,2717.0
370.423,2591.0
371.773,2529.0
373.122,2424.0
374.471,2423.0
375.821,2350.0
377.169,2288.0
378.518,2317.0
379.866,2292.0
381.215,2247.0
382.563,2271.0
383.91,2255.0
385.258,2255.0
386.605,2242.004
387.952,2242.474
389.299,2246.303
390.646,2245.0
391.992,2256.0
393.339,2259.0
394.685,2256.0
396.031,2289.0
397.376,2330.0
398.722,2324.0
400.067,2399.0
401.412,2374.0
402.757,2432.0
404.101,2491.0
405.446,2496.0
406.79,2548.0
408.134,2622.0
409.478,2716.0
410.821,2794.957
412.165,2845.561
413.508,2982.0
414.851,2992.0
416.193,3075.0
417.536,3267.0
418.878,3414.0
420.22,3667.0
421.562,3957.0
422.904,4245.0
424.245,4736.0
425.586,5326.0
426.927,6011.0
428.268,7075.0
429.609,8126.0
430.949,9231.0
432.289,10485.0
433.629,11473.0
434.969,11897.0
436.309,12378.0
437.648,12620.0
438.987,12806.0
440.326,13027.0
441.665,12942.0
443.003,12672.0
444.342,12177.0
445.68,11414.0
447.018,10753.0
448.355,10310.0
449.693,9930.0
451.03,9600.0
452.367,9100.0
453.704,8346.0
455.041,7195.0
456.377,6359.0
457.713,5526.0
459.049,4893.0
460.385,4480.0
461.721,4426.0
463.056,4345.0
464.391,3832.0
465.726,3746.0
467.061,3767.0
468.395,3793.0
469.73,3747.0
471.064,4468.0
472.398,4804.0
473.731,4532.0
475.065,4686.0
476.398,3761.0
477.731,3609.0
479.064,3433.0
480.397,3246.0
481.729,3122.0
483.062,2944.0
484.394,2760.0
485.725,2659.0
487.057,2552.0
488.389,2496.0
489.72,2455.0
491.051,2358.0
492.382,2335.0
493.712,2242.0
495.043,2234.0
496.373,2182.0
497.703,2157.0
499.032,2119.0
500.362,2135.0
501.691,2056.0
503.02,2099.0
504.349,2054.0
505.678,2038.0
507.007,2017.0
508.335,2038.0
509.663,1974.0
510.991,2009.0
512.319,2004.0
513.646,2003.0
514.973,2028.0
516.3,2062.0
517.627,2024.0
518.954,2062.0
520.28,2030.0
521.607,2072.0
522.933,2090.0
524.259,2108.782
525.584,2136.0
526.91,2153.0
528.235,2189.709
529.56,2213.0
530.885,2266.163
532.209,2302.33
533.534,2346.0
534.858,2384.0
536.182,2439.0
537.506,2494.0
538.829,2544.0
540.152,2693.0
541.476,2663.0
542.799,2775.0
544.121,2800.0
545.444,2950.0
546.766,3006.0
548.088,3083.0
549.41,3147.0
550.732,3267.0
552.053,3382.0
553.375,3440.0
554.696,3598.0
556.017,3699.0
557.337,3822.0
558.658,3952.0
559.978,4054.0
561.298,4275.0
562.618,4325.085
563.938,4295.0
565.257,4436.0
566.576,4384.0
567.895,4331.0
569.214,4258.0
570.533,4167.88
571.851,4118.0
573.17,3917.0
574.488,3808.0
575.805,3584.0
577.123,3410.0
578.44,3233.0
579.758,3142.0
581.075,3022.0
582.391,2841.0
583.708,2815.704
585.024,3078.0
586.341,2624.0
587.657,2724.0
588.972,2425.0
590.288,2338.0
591.603,2274.0
592.918,2220.0
594.233,2209.0
595.548,2186.0
596.863,2150.0
598.177,2099.0
599.491,2129.0
600.805,2073.0
602.119,2097.0
603.432,2056.0
604.746,2092.0
606.059,2120.0
607.372,2089.0
608.685,2178.0
609.997,2242.0
611.309,2295.0
612.621,2441.0
613.933,2604.0
615.245,3037.0
616.557,3521.0
617.868,4371.0
619.179,5819.0
620.49,7887.0
621.801,9817.0
623.111,10575.0
624.421,8892.0
625.731,6863.0
627.041,4924.0
628.351,3897.0
629.66,3147.0
630.97,2716.0
632.279,2537.0
633.588,2351.0
634.896,2338.0
636.205,2247.0
637.513,2289.0
638.821,2308.0
640.129,2347.0
641.437,2362.0
642.744,2346.0
644.051,2341.0
645.358,2376.0
646.665,2501.0
647.972,2644.0
649.278,2569.0
650.584,2469.0
651.89,2630.0
653.196,2331.0
654.502,2086.0
655.807,2025.0
657.113,1951.0
658.418,2004.0
659.722,2252.0
661.027,2271.0
662.331,2166.0
663.636,2045.0
664.94,1997.041
666.244,1901.229
667.547,1846.0
668.851,1771.0
670.154,1750.0
671.457,1714.0
672.76,1719.0
674.062,1731.0
675.365,1740.0
676.667,1700.0
677.969,1701.0
679.271,1743.0
680.572,1703.0
681.874,1666.0
683.175,1708.0
684.476,1712.0
685.777,1664.0
687.077,1658.0
688.378,1682.0
689.678,1633.0
690.978,1646.0
692.278,1668.0
693.577,1595.0
694.877,1675.0
696.176,1683.0
697.475,1634.0
698.774,1632.0
700.072,1642.0
701.371,1644.0
702.669,1660.0
703.967,1622.0
705.265,1679.0
706.562,1637.0
707.86,1651.0
709.157,1639.0
710.454,1645.0
711.751,1646.0
713.047,1632.0
714.344,1657.0
715.64,1648.0
716.936,1623.0
718.232,1664.0
719.527,1622.0
720.823,1643.0
722.118,1636.0
723.413,1639.0
724.708,1615.0
726.002,1643.0
727.297,1610.0
728.591,1624.0
729.885,1588.0
731.179,1594.0
732.472,1600.0
733.766,1620.0
735.059,1575.0
736.352,1597.0
737.645,1615.0
738.937,1568.0
740.23,1618.0
741.522,1561.0
742.814,1574.0
744.106,1562.0
745.397,1594.0
746.689,1581.0
747.98,1580.0
749.271,1561.0
750.562,1579.0
751.853,1568.0
753.143,1572.0
754.433,1554.0
755.723,1581.0
757.013,1574.0
758.303,1609.0
759.592,1547.0
760.881,1572.0
762.17,1569.0
763.459,1582.0
764.748,1597.0
766.036,1594.604
767.325,1599.946
768.613,1592.0
769.901,1597.0
771.188,1583.0
772.476,1581.253
773.763,1587.243
775.05,1584.0
776.337,1580.0
777.624,1594.014
778.91,1602.0
780.196,1625.0
781.482,1604.0
782.768,1628.0
784.054,1631.0
785.339,1631.0
786.625,1674.0
787.91,1632.0
789.195,1674.0
790.479,1676.0
791.764,1666.0
793.048,1697.0
794.332,1719.0
795.616,1734.669
796.9,1781.0
798.183,1778.0
799.467,1833.0
800.75,1847.0
802.033,1898.0
803.316,1938.0
804.598,1904.0
805.88,2039.0
807.163,1991.086
808.445,1996.0
809.726,1966.0
811.008,2010.0
812.289,1999.0
813.57,2022.0
814.851,2140.0
816.132,2230.0
817.413,2100.0
818.693,2061.0
819.973,2059.0
821.253,2142.0
822.533,2162.0
823.813,2187.0
825.092,2134.0
826.371,2150.0
827.65,2176.0
828.929,2210.0
830.208,2238.0
831.486,2219.0
832.764,2219.0
834.042,2211.0
835.32,2254.0
836.598,2273.327
837.875,2326.0
839.152,2340.0
840.429,2342.0
841.706,2348.0
842.983,2349.521
844.259,2356.732
845.536,2340.0
846.812,2358.0
848.088,2339.0
849.363,2310.0
850.639,2304.0
851.914,2298.457
853.189,2287.339
854.464,2297.0
855.739,2264.0
857.013,2246.0
858.288,2200.0
859.562,2184.0
860.836,2143.0
862.11,2109.0
863.383,2058.0
864.656,2103.0
865.93,2032.0
867.203,2029.0
868.475,1962.0
869.748,2012.0
871.02,1974.0
872.292,1946.0
873.564,1967.0
874.836,1892.0
876.108,1906.0
877.379,1951.0
878.65,1899.0
879.922,1869.0
881.192,1863.0
882.463,1823.0
883.733,1844.0
885.004,1852.0
886.274,1787.0
887.544,1796.0
888.813,1787.0
890.083,1810.0
891.352,1787.0
892.621,1793.0
893.89,1761.0
895.159,1784.0
896.427,1795.0
897.695,1759.0
898.964,1797.0
900.232,1761.0
901.499,1769.0
902.767,1756.0
904.034,1773.0
905.301,1768.0
906.568,1783.0
907.835,1778.0
909.102,1798.0
910.368,1754.0
911.634,1759.0
912.9,1808.0
914.166,1786.0
915.432,1825.0
916.697,1800.0
917.962,1776.0
919.227,1808.0
920.492,1806.0
921.757,1810.0
923.021,1793.0
924.285,1807.0
925.55,1822.0
926.813,1822.0
928.077,1806.0
929.341,1832.0
930.604,1811.0
931.867,1816.0
933.13,1820.742
934.393,1840.0
935.655,1829.0
936.918,1802.0
938.18,1813.0
939.442,1795.0
940.703,1792.0
941.965,1802.0
943.226,1785.0
944.488,1815.0
945.749,1778.0
947.009,1793.0
948.27,1802.0
949.53,1792.0
950.791,1820.0
952.051,1819.0
953.311,1796.0
954.57,1808.0
955.83,1794.318
957.089,1793.0
958.348,1787.0
959.607,1802.0
960.866,1814.0
962.124,1811.0
963.383,1824.298
964.641,1830.146
965.899,1838.0
967.156,1843.0
968.414,1849.434
969.671,1849.0
970.928,1841.0
972.185,1842.0
973.442,1811.0
974.699,1825.0
975.955,1857.0
977.211,1847.0
978.468,1887.0
979.723,1907.0
980.979,1891.0
982.234,1968.0
983.49,2126.0
984.745,2186.0
986.0,2239.09
987.254,2109.0
988.509,2302.0
989.763,2281.0
991.017,2312.0
992.271,2428.0
993.525,2570.0
994.779,2736.0
996.032,2944.0
997.285,3235.0
998.538,3462.0
999.791,3674.0
1001.044,4217.0
1002.296,4718.0
1003.548,5694.0
1004.8,7168.0
1006.052,8780.0
1007.304,9823.0
1008.555,10571.0
1009.807,11193.0
1011.058,11433.0
1012.309,9884.0
1013.559,7631.0
1014.81,5888.0
1016.06,4827.0
1017.31,4337.0
1018.56,3981.0
1019.81,3796.0
1021.06,3723.0
1022.309,3683.0
1023.558,3633.0
1024.807,3532.445
1026.056,3497.0
1027.305,3311.0
1028.553,3171.0
1029.801,3015.0
1031.049,2884.0
1032.297,2733.0
1033.545,2599.0
1034.793,2587.0
1036.04,2485.0
1037.287,2446.0
1038.534,2425.0
1039.781,2383.921
1041.027,2411.008
1042.274,2421.542
1043.52,2416.428
1044.766,2348.768
1046.012,2361.875
1047.257,2342.622
1048.503,2322.032
1049.748,2346.515
1050.993,2318.0
1052.238,2336.0
1053.483,2342.49
1054.727,2374.0
1055.971,2378.0
1057.216,2393.0
1058.459,2432.0
1059.703,2474.0
1060.947,2426.0
1062.19,2476.0
1063.433,2515.0
1064.676,2568.0
1065.919,2593.0
1067.162,2634.399
1068.404,2683.0
1069.646,2715.0
1070.888,2746.0
1072.13,2812.0
1073.372,2826.0
1074.613,2907.0
1075.855,2990.0
1077.096,3041.0
1078.337,3146.0
1079.578,3198.0
1080.818,3291.0
1082.059,3378.0
1083.299,3458.0
1084.539,3684.0
1085.779,3889.0
1087.018,4044.219
1088.258,4260.0
1089.497,4526.0
1090.736,4784.0
1091.975,5261.0
1093.213,5784.0
1094.452,6421.611
1095.69,7592.0
1096.928,8169.0
1098.166,9377.0
1099.404,10828.0
1100.642,11363.0
1101.879,12002.0
1103.116,12853.0
1104.353,13307.0
1105.59,14016.0
1106.827,14348.0
1108.063,14950.0
1109.299,14634.0
1110.536,14104.0
1111.771,12873.0
1113.007,11231.0
1114.243,9847.0
1115.478,8374.0
1116.713,7268.0
1117.948,6416.0
1119.183,5791.0
1120.418,5246.0
1121.652,5041.0
1122.886,4899.0
1124.12,4653.0
1125.354,4468.0
1126.588,4262.0
1127.821,4175.0
1129.055,4044.0
1130.288,4072.0
1131.521,4004.0
1132.753,4038.0
1133.986,4018.0
1135.218,4160.0
1136.45,4353.0
1137.682,4237.0
1138.914,4428.0
1140.146,4480.0
1141.377,4685.0
1142.609,4933.0
1143.84,5213.0
1145.071,5478.0
1146.301,5916.0
1147.532,6264.0
1148.762,6644.909
1149.992,7044.612
1151.222,7342.0
1152.452,7686.0
1153.682,7818.0
1154.911,7827.0
1156.14,7665.0
1157.369,7566.0
1158.598,7181.0
1159.827,6597.0
1161.055,6166.0
1162.284,5734.0
1163.512,5486.0
1164.74,5116.0
1165.967,4836.0
1167.195,4515.0
1168.422,4372.0
1169.65,4156.0
1170.877,3996.0
1172.103,3766.0
1173.33,3683.0
1174.557,3525.0
1175.783,3440.0
1177.009,3346.0
1178.235,3215.0
1179.461,3150.0
1180.686,3034.0
1181.912,2987.0
1183.137,2918.0
1184.362,2847.0
1185.587,2849.0
1186.811,2755.0
1188.036,2753.0
1189.26,2674.0
1190.484,2628.0
1191.708,2612.0
1192.932,2550.0
1194.155,2482.0
1195.378,2524.0
1196.602,2449.0
1197.825,2425.0
1199.047,2383.0
1200.27,2352.0
1201.492,2346.0
1202.715,2319.759
1203.937,2286.0
1205.159,2290.0
1206.38,2255.0
1207.602,2229.0
1208.823,2182.0
1210.044,2215.0
1211.265,2214.0
1212.486,2208.0
1213.707,2177.0
1214.927,2171.0
1216.147,2140.0
1217.367,2179.0
1218.587,2164.834
1219.807,2145.295
1221.027,2164.0
1222.246,2121.0
1223.465,2091.0
1224.684,2126.0
1225.903,2074.0
1227.121,2098.0
1228.34,2048.0
1229.558,2052.0
1230.776,2082.0
1231.994,2196.0
1233.212,2120.143
1234.429,2114.0
1235.646,2029.0
1236.864,2071.0
1238.081,2050.0
1239.297,2029.07
1240.514,2118.0
1241.73,2037.0
1242.947,1965.0
1244.163,2023.0
1245.378,2009.0
1246.594,2038.0
1247.81,2069.0
1249.025,2029.132
1250.24,1985.0
1251.455,1995.0
1252.67,1969.0
1253.885,1963.797
1255.099,1966.682
1256.313,1966.0
1257.527,1974.0
1258.741,1991.0
1259.955,2002.0
1261.168,1981.0
1262.382,1935.0
1263.595,1972.0
1264.808,1943.0
1266.021,1910.0
1267.233,1975.0
1268.446,1958.0
1269.658,1924.0
1270.87,1910.0
1272.082,1950.0
1273.294,1916.0
1274.505,1923.0
1275.716,1891.0
1276.928,1925.0
1278.139,1889.0
1279.349,1889.687
1280.56,1916.0
1281.77,1882.0
1282.981,1892.0
1284.191,1905.0
1285.401,1892.0
1286.61,1872.0
1287.82,1873.0
1289.029,1868.339
1290.239,1880.748
1291.448,1889.011
1292.656,1893.351
1293.865,1882.032
1295.073,1890.935
1296.282,1891.735
1297.49,1892.2
1298.698,1903.949
1299.906,1894.906
1301.113,1906.474
1302.32,1909.813
1303.528,1916.92
1304.735,1915.87
1305.942,1917.339
1307.148,1926.964
1308.355,1923.0
1309.561,1907.0
1310.767,1913.628
1311.973,1960.0
1313.179,1875.0
1314.384,1907.0
1315.59,1935.0
1316.795,1903.0
1318.0,1961.0
1319.205,1929.0
1320.41,1915.0
1321.614,1917.0
1322.819,1884.0
1324.023,1922.0
1325.227,1882.0
1326.431,1898.0
1327.634,1881.0
1328.838,1905.0
1330.041,1904.0
1331.244,1922.0
1332.447,1869.0
1333.65,1898.0
1334.852,1849.0
1336.055,1884.0
1337.257,1862.0
1338.459,1866.0
1339.661,1871.0
1340.862,1908.0
1342.064,1901.0
1343.265,1834.0
1344.466,1850.0
1345.667,1882.0
1346.868,1842.0
1348.068,1878.0
1349.269,1856.0
1350.469,1866.0
1351.669,1840.0
1352.869,1841.0
1354.069,1816.0
1355.268,1799.0
1356.468,1824.372
1357.667,1813.183
1358.866,1821.027
1360.065,1825.0
1361.263,1828.0
1362.462,1825.0
1363.66,1816.0
1364.858,1813.0
1366.056,1807.021
1367.254,1814.101
1368.451,1818.011
1369.649,1818.921
1370.846,1807.847
1372.043,1812.249
1373.24,1810.448
1374.436,1808.394
1375.633,1814.973
1376.829,1805.642
1378.025,1812.085
1379.221,1812.231
1380.417,1815.259
1381.613,1812.047
1382.808,1810.762
1384.003,1815.72
1385.199,1817.221
1386.393,1813.291
1387.588,1816.502
1388.783,1806.954
1389.977,1808.602
1391.171,1815.081
1392.365,1811.465
1393.559,1814.791
1394.753,1809.0
1395.946,1832.0
1397.14,1827.0
1398.333,1833.845
1399.526,1839.138
1400.719,1832.0
1401.911,1837.0
1403.104,1835.0
1404.296,1822.0
1405.488,1807.0
1406.68,1872.0
1407.872,1841.222
1409.063,1840.106
1410.255,1831.0
1411.446,1822.0
1412.637,1811.0
1413.828,1842.0
1415.018,1847.0
1416.209,1827.0
1417.399,1794.0
1418.589,1820.0
1419.779,1822.0
1420.969,1805.586
1422.159,1808.155
1423.348,1794.0
1424.537,1789.0
1425.726,1806.0
1426.915,1810.0
1428.104,1847.0
1429.293,1835.0
1430.481,1864.0
1431.669,1830.0
1432.857,1812.0
1434.045,1874.0
1435.233,1865.0
1436.42,1854.0
1437.608,1870.0
1438.795,1826.0
1439.982,1857.0
1441.169,1839.0
1442.355,1846.0
1443.542,1846.0
1444.728,1853.0
1445.914,1856.0
1447.1,1876.0
1448.286,1887.0
1449.472,1877.635
1450.657,1884.0
1451.842,1857.0
1453.027,1852.0
1454.212,1844.0
1455.397,1884.0
1456.581,1843.0
1457.766,1874.0
1458.95,1854.0
1460.134,1838.0
1461.318,1853.0
1462.501,1853.0
1463.685,1876.0
1464.868,1875.0
1466.051,1886.0
1467.234,1861.0
1468.417,1863.0
1469.6,1859.0
1470.782,1873.0
1471.965,1863.0
1473.147,1842.0
1474.329,1879.0
1475.51,1857.0
1476.692,1864.0
1477.873,1852.0
1479.055,1882.0
1480.236,1853.0
1481.416,1903.0
1482.597,1844.0
1483.778,1898.0
1484.958,1884.0
1486.138,1846.0
1487.318,1870.0
1488.498,1845.995
1489.678,1851.821
1490.857,1847.0
1492.037,1853.0
1493.216,1888.0
1494.395,1866.0
1495.574,1873.0
1496.752,1897.0
1497.931,1889.0
1499.109,1895.677
1500.287,1895.23
1501.465,1891.0
1502.643,1877.314
1503.82,1871.194
1504.998,1844.0
1506.175,1888.0
1507.352,1850.0
1508.529,1863.0
1509.706,1891.0
1510.882,1879.0
1512.059,1917.0
1513.235,1894.0
1514.411,1881.0
1515.587,1856.0
1516.762,1892.0
1517.938,1884.0
1519.113,1889.0
1520.288,1938.0
1521.463,1872.0
