Raman Shift,Intensity 
400,11.98656919
401,11.98361317
402,12.0012845
403,11.98072771
404,12.00285031
405,11.9751121
406,12.03065399
407,11.97630284
408,12.02181228
409,11.97537888
410,12.00606578
411,12.03302212
412,11.97490814
413,11.96260596
414,12.01533529
415,11.98052065
416,11.99873585
417,12.00633587
418,12.0139484
419,11.97637901
420,11.98430538
421,12.02092986
422,12.01152174
423,12.01124196
424,12.01002806
425,11.98639082
426,12.03275145
427,11.99773913
428,11.99624151
429,11.98687438
430,11.99917251
431,12.02455256
432,12.02251564
433,12.00440521
434,12.03428915
435,12.02036023
436,11.98559483
437,11.99043148
438,11.97556265
439,12.03528249
440,12.02081249
441,11.9790935
442,11.96664467
443,12.03361305
444,11.9887783
445,11.98184933
446,12.03724702
447,12.01883574
448,11.99909649
449,11.99253083
450,12.00084571
451,12.00949933
452,12.0247965
453,12.00007355
454,12.00042764
455,12.0071195
456,11.99683011
457,12.02926065
458,11.97764662
459,12.00421625
460,11.99604062
461,12.01081912
462,12.0042998
463,12.01637807
464,12.01256162
465,11.99528207
466,11.97529715
467,11.98005578
468,11.9650653
469,11.98830958
470,12.00844942
471,12.03104585
472,12.03867589
473,12.03572237
474,12.01633794
475,12.00721458
476,12.0590742
477,12.04704475
478,12.07670718
479,12.09281023
480,12.06923012
481,12.10309364
482,12.10179173
483,12.11510803
484,12.13561855
485,12.13201629
486,12.17101077
487,12.17391664
488,12.14566123
489,12.18579845
490,12.19377425
491,12.19712162
492,12.18727841
493,12.16398598
494,12.19303922
495,12.18602771
496,12.1974048
497,12.20299069
498,12.18676206
499,12.15717126
500,12.17582312
501,12.13326994
502,12.14063002
503,12.15151243
504,12.12679633
505,12.10448754
506,12.1118692
507,12.07443581
508,12.09590754
509,12.06822822
510,12.04091134
511,12.06994416
512,11.99228945
513,12.04937592
514,11.99401049
515,12.01367029
516,12.02102866
517,12.05351258
518,11.99702549
519,12.02929394
520,11.98301861
521,12.00429958
522,11.96748222
523,12.0064787
524,12.02965558
525,11.99762687
526,12.02116617
527,12.02364724
528,11.99849617
529,12.00849902
530,12.02086331
531,11.98329778
532,12.00925339
533,11.99977259
534,12.01241997
535,12.01286347
536,12.01411531
537,12.02039561
538,12.00470454
539,11.98841823
540,12.01272382
541,12.04162044
542,12.00124102
543,12.03296247
544,11.95463219
545,12.01961172
546,12.03479472
547,12.01352131
548,11.98789555
549,11.97262906
550,12.04200698
551,12.00955544
552,12.01312474
553,12.02809864
554,12.01214437
555,12.00799624
556,12.04271941
557,12.03245213
558,12.01463896
559,12.01668259
560,12.00046172
561,11.98795738
562,12.00295078
563,12.01358215
564,11.9987665
565,12.02006426
566,11.95748591
567,12.01720873
568,11.99318709
569,12.0178635
570,11.96819801
571,11.93448369
572,11.96813611
573,11.95898939
574,11.97537114
575,11.99029002
576,11.96858995
577,11.96262046
578,11.99872164
579,12.00540568
580,11.99814502
581,12.03207222
582,11.98593992
583,12.01388081
584,12.01236375
585,12.00468252
586,11.97785661
587,12.00742292
588,11.97719732
589,12.00146216
590,11.99903087
591,12.00256411
592,12.04914395
593,12.01054072
594,12.03015126
595,11.99801788
596,12.00508171
597,12.0230153
598,11.9890321
599,12.02544554
600,12.00834648
601,12.02674737
602,11.99334294
603,11.99515339
604,11.9816038
605,12.01924366
606,11.97464092
607,11.99906026
608,11.95745288
609,12.0102105
610,11.97137717
611,11.99358791
612,11.99025477
613,11.98094865
614,11.97578858
615,11.9908851
616,11.98452306
617,12.00721134
618,12.02192572
619,12.01942098
620,11.97820404
621,12.03237429
622,11.98284595
623,12.0101778
624,11.99140609
625,11.99916762
626,11.99040736
627,12.01207116
628,12.03333607
629,12.014087
630,11.97990841
631,12.00283575
632,12.01291727
633,12.00246911
634,12.00116274
635,12.00489222
636,12.0215812
637,12.005551
638,12.00870905
639,11.9724027
640,12.00630708
641,12.00930651
642,11.99113345
643,11.96646491
644,11.98446919
645,12.02116611
646,11.99637574
647,11.97946344
648,11.98696358
649,12.01483266
650,11.99170364
651,11.99747345
652,12.00336877
653,11.9989053
654,11.99811449
655,11.98002947
656,12.01474018
657,12.01204033
658,11.99264303
659,11.99439165
660,11.99385446
661,12.00573589
662,12.00491592
663,12.05155674
664,11.99528833
665,12.00965155
666,11.99472513
667,12.01176931
668,11.99243914
669,11.99033605
670,12.0332283
671,11.98149144
672,12.0094305
673,12.02366615
674,11.97542084
675,11.99251026
676,12.01029531
677,12.00100592
678,11.95879704
679,11.99550595
680,11.97445262
681,12.03799064
682,11.988515
683,11.99086938
684,11.97078157
685,11.9785643
686,12.03086208
687,12.00656405
688,11.99496977
689,11.98297799
690,11.99523681
691,12.00930303
692,11.98350371
693,12.01836547
694,11.98934003
695,12.00469924
696,11.99853612
697,12.00354694
698,11.98080625
699,11.96692313
700,11.98968514
701,12.00629829
702,12.0189018
703,11.97824292
704,11.97045452
705,11.9909689
706,11.9738567
707,12.00882412
708,11.99889485
709,12.00716496
710,12.02160056
711,11.99080201
712,11.97097916
713,12.00305245
714,11.97604282
715,11.98452944
716,11.96575431
717,12.01655919
718,12.02500308
719,11.99373095
720,11.9998196
721,11.95330545
722,11.97884003
723,11.99518967
724,11.9618807
725,11.98242196
726,12.04890035
727,11.97528196
728,11.99811042
729,11.98587168
730,12.01831227
731,12.0188852
732,11.99085234
733,11.97599375
734,11.98328843
735,12.01512788
736,11.98350706
737,11.96565196
738,11.95404633
739,12.02602287
740,12.01488509
741,11.97434336
742,11.98439872
743,11.99759175
744,12.0103523
745,11.9942378
746,12.01736507
747,11.99507771
748,11.98761031
749,12.00111893
750,11.99022087
751,12.00619977
752,12.02805636
753,12.01163756
754,11.98913754
755,12.01845359
756,12.01608335
757,12.02975038
758,11.98390161
759,12.02376283
760,12.00178491
761,12.01155708
762,12.02953037
763,12.00439445
764,12.0381949
765,12.00822154
766,12.02381261
767,12.02477309
768,12.00154294
769,12.00534189
770,12.00943066
771,12.00500845
772,11.98220533
773,12.01040064
774,12.024095
775,11.95720201
776,12.02837005
777,12.02605084
778,11.98092206
779,11.99779944
780,11.99578715
781,12.01821585
782,12.01998986
783,12.0161501
784,11.97472213
785,11.99102044
786,11.99896425
787,12.01806618
788,12.03368861
789,11.99585367
790,12.01104374
791,11.99904877
792,12.00155902
793,11.97240727
794,12.01377681
795,12.02407666
796,12.02451378
797,12.02419042
798,11.98467395
799,12.05087617
800,12.01366985
801,11.99731305
802,12.00112547
803,12.02371551
804,11.97106551
805,11.96070686
806,11.96944815
807,12.00054682
808,12.00054801
809,11.98500363
810,11.9593366
811,12.00712378
812,12.00714048
813,12.0235155
814,12.00410397
815,11.99796502
816,11.9803586
817,11.98158492
818,12.02256909
819,12.0217503
820,12.00945449
821,12.0051555
822,12.00069484
823,11.985154
824,12.00815221
825,12.0190823
826,11.98814209
827,11.98147584
828,11.99290869
829,11.99538759
830,11.98789701
831,11.99538618
832,11.99769256
833,11.99422878
834,12.00368584
835,11.98636395
836,11.99094464
837,11.98430063
838,12.02564065
839,12.00277733
840,12.03582256
841,11.99936082
842,12.01627865
843,11.98034969
844,12.00136406
845,11.95051508
846,12.01124743
847,12.03743949
848,11.98697542
849,12.00118495
850,11.94610657
851,12.00839936
852,11.98511873
853,12.01509503
854,12.01877981
855,12.01188309
856,12.02949241
857,12.02963594
858,12.01550299
859,12.0152188
860,11.98666256
861,12.01030927
862,11.97107183
863,11.99914419
864,12.00709251
865,12.02627116
866,11.99536578
867,11.99862981
868,12.00066839
869,12.00292896
870,11.99156094
871,12.00453134
872,11.99335869
873,12.03399283
874,11.97910129
875,12.03114495
876,12.01832314
877,11.98939017
878,12.01741169
879,11.95785616
880,12.00127831
881,11.99473029
882,12.04502025
883,12.00902949
884,11.98613632
885,12.03761574
886,11.98665861
887,11.98997305
888,12.00885117
889,12.00926178
890,12.00031709
891,12.0340371
892,11.98743406
893,12.02608295
894,11.99316306
895,12.01880145
896,12.03206821
897,12.0448614
898,12.0010982
899,11.99127595
900,12.00103133
901,12.00240862
902,12.01297231
903,12.04330757
904,11.96370093
905,11.99532108
906,12.02232185
907,11.991291
908,12.0134426
909,12.00911159
910,11.9714239
911,11.97704678
912,11.98881858
913,11.99989857
914,11.99985937
915,11.98951737
916,11.98191876
917,11.99352556
918,12.00183948
919,12.01630412
920,11.97428206
921,11.98040489
922,11.99399816
923,12.01830448
924,11.99208109
925,12.00845418
926,12.0036179
927,12.02060522
928,12.02221144
929,12.02329415
930,11.98342911
931,11.98592294
932,12.01250101
933,11.97496283
934,12.00411645
935,11.98397874
936,12.01004532
937,11.95178079
938,12.00529733
939,12.00016413
940,11.97648757
941,12.00199713
942,11.98960798
943,11.97668197
944,12.02737498
945,12.02932576
946,12.03205503
947,11.98298028
948,11.9996475
949,12.00238282
950,12.0042945
951,12.02102517
952,12.00173338
953,11.98566831
954,11.98575243
955,11.98750032
956,12.01584708
957,12.00198861
958,11.99614266
959,11.98686104
960,11.94768822
961,11.96867141
962,12.0241776
963,11.99515196
964,12.03548972
965,12.03028271
966,11.99923528
967,11.98699162
968,12.0182318
969,12.07022676
970,11.98288645
971,12.02072723
972,11.99140079
973,11.9963619
974,12.0183628
975,11.98304042
976,12.04124695
977,12.04066626
978,12.03284669
979,11.98989164
980,12.02458336
981,12.01569131
982,12.06018106
983,12.03908282
984,12.09324969
985,12.0407776
986,12.04354113
987,12.10241284
988,12.10578833
989,12.07502291
990,12.09277681
991,12.14867097
992,12.16561507
993,12.16917566
994,12.18863154
995,12.22752835
996,12.26471272
997,12.25666216
998,12.35757343
999,12.33425271
1000,12.35878429
1001,12.433768
1002,12.44478345
1003,12.49302772
1004,12.51481718
1005,12.57455612
1006,12.62062155
1007,12.68508537
1008,12.68376292
1009,12.72446095
1010,12.74978335
1011,12.80941342
1012,12.82474614
1013,12.84942085
1014,12.90083876
1015,12.9214383
1016,12.91736208
1017,12.94505244
1018,12.98370244
1019,12.99164823
1020,12.97144052
1021,13.02587645
1022,13.00513141
1023,13.00090429
1024,12.97998636
1025,12.9520416
1026,12.9435071
1027,12.93369896
1028,12.88754218
1029,12.85412929
1030,12.83183218
1031,12.77132976
1032,12.77432062
1033,12.72825984
1034,12.6647727
1035,12.62295146
1036,12.57558285
1037,12.56404047
1038,12.55613073
1039,12.50630306
1040,12.4611097
1041,12.42418514
1042,12.3824603
1043,12.34740054
1044,12.28890689
1045,12.29350403
1046,12.22179619
1047,12.22427025
1048,12.2163029
1049,12.18539727
1050,12.12426341
1051,12.17038671
1052,12.1385159
1053,12.09718334
1054,12.09504857
1055,12.08695018
1056,12.06407717
1057,12.07155826
1058,12.02964294
1059,12.04502224
1060,12.03207519
1061,12.01057363
1062,12.03950027
1063,11.97863499
1064,12.04503916
1065,11.99898627
1066,11.98206554
1067,12.05237103
1068,11.96586832
1069,12.01088739
1070,11.97928084
1071,12.06782026
1072,12.01340751
1073,11.97734154
1074,11.99385452
1075,11.98198434
1076,11.99934063
1077,11.98998119
1078,11.9769202
1079,12.00157789
1080,12.00355633
1081,12.00191479
1082,11.99448971
1083,11.97203372
1084,11.9878035
1085,11.98985761
1086,12.02482379
1087,12.00917293
1088,12.00494718
1089,12.02207072
1090,12.04844503
1091,11.97356753
1092,12.00131501
1093,11.97595722
1094,12.02268826
1095,11.98323576
1096,12.02444372
1097,12.00263009
1098,11.99400004
1099,12.00735983
1100,12.00618784
1101,12.04789331
1102,11.98478557
1103,12.0069066
1104,12.00098843
1105,11.98542849
1106,11.99422392
1107,12.02522113
1108,12.04581528
1109,12.01121775
1110,12.03296905
1111,12.02168225
1112,11.99767555
1113,12.02307803
1114,12.01547724
1115,12.00436184
1116,12.03140406
1117,12.03435119
1118,12.03953516
1119,12.02398479
1120,12.02217089
1121,12.05954737
1122,12.05933293
1123,12.10903739
1124,12.11559517
1125,12.09186395
1126,12.08113005
1127,12.08797541
1128,12.14583994
1129,12.10415378
1130,12.14352678
1131,12.16288972
1132,12.15463612
1133,12.20692507
1134,12.19925543
1135,12.18838256
1136,12.20194227
1137,12.1966123
1138,12.21810707
1139,12.24674704
1140,12.24120274
1141,12.27988944
1142,12.3015972
1143,12.27777217
1144,12.27717491
1145,12.30271352
1146,12.29269483
1147,12.36058807
1148,12.34933849
1149,12.39458526
1150,12.39625931
1151,12.42472513
1152,12.41535155
1153,12.46866529
1154,12.48314966
1155,12.43405255
1156,12.44999757
1157,12.47852652
1158,12.48916273
1159,12.52463156
1160,12.48111978
1161,12.49144111
1162,12.48611984
1163,12.5108789
1164,12.52031486
1165,12.50383341
1166,12.4629132
1167,12.48569996
1168,12.47945868
1169,12.48614207
1170,12.45620381
1171,12.47143217
1172,12.44663264
1173,12.42802487
1174,12.41603716
1175,12.44378766
1176,12.44258026
1177,12.39011971
1178,12.35634675
1179,12.37706492
1180,12.35469656
1181,12.30689789
1182,12.29408998
1183,12.28327736
1184,12.28447587
1185,12.26184114
1186,12.27474943
1187,12.24843936
1188,12.17918488
1189,12.21355596
1190,12.22107338
1191,12.1977545
1192,12.1713981
1193,12.20190334
1194,12.15455441
1195,12.13446868
1196,12.12134265
1197,12.15303382
1198,12.10425081
1199,12.07483332
1200,12.1010204
1201,12.08573913
1202,12.09867045
1203,12.04880536
1204,12.06167728
1205,12.06187428
1206,12.05511964
1207,12.03833739
1208,12.04344122
1209,12.01857252
1210,12.05435336
1211,12.0141246
1212,12.02095936
1213,12.04816872
1214,12.02297592
1215,12.03515513
1216,12.05139998
1217,12.01806527
1218,12.00678037
1219,11.97238174
1220,12.00631091
1221,12.0058114
1222,12.02960158
1223,12.01182221
1224,11.99287837
1225,11.96837601
1226,12.00520002
1227,12.01804994
1228,12.01832867
1229,12.03055196
1230,11.99762962
1231,11.9805871
1232,12.04181013
1233,11.99272264
1234,12.06258083
1235,11.99448307
1236,11.99820547
1237,11.97356021
1238,11.9640281
1239,11.96089603
1240,11.99361418
1241,12.02866265
1242,12.00419958
1243,12.01321773
1244,11.99280656
1245,11.96175098
1246,11.997657
1247,12.01841145
1248,12.0335541
1249,11.99915942
1250,12.01120682
1251,12.01983912
1252,12.01178028
1253,11.98109931
1254,12.01251253
1255,11.97633328
1256,11.94380682
1257,11.98950125
1258,12.00857075
1259,11.96686147
1260,12.00406721
1261,11.97750477
1262,11.99833415
1263,11.96655475
1264,12.03606059
1265,12.02935269
1266,12.0032738
1267,11.99772838
1268,12.02424568
1269,11.99759059
1270,12.00821809
1271,12.03195866
1272,12.00691215
1273,11.98878743
1274,11.98448492
1275,11.99251608
1276,11.95465032
1277,11.99725462
1278,11.96328157
1279,12.02280017
1280,12.01608855
1281,12.00595899
1282,12.02527711
1283,11.95847116
1284,12.02501382
1285,11.98996168
1286,11.99042555
1287,12.04353404
1288,11.99683866
1289,12.00870879
1290,11.99549718
1291,11.99566693
1292,12.01722467
1293,12.0317832
1294,11.98572989
1295,12.03558011
1296,11.95084169
1297,12.01543342
1298,12.03189348
1299,11.9976983
1300,12.03861079
1301,12.03042914
1302,11.9833228
1303,11.98979885
1304,11.99193236
1305,11.99809605
1306,12.0215057
1307,11.98864021
1308,11.98466224
1309,11.97756106
1310,11.98364933
1311,12.00136713
1312,11.99878712
1313,12.01199555
1314,11.99122777
1315,11.95568886
1316,11.96782815
1317,11.99258522
1318,12.03537485
1319,11.95017737
1320,11.99606219
1321,12.03730359
1322,11.97173758
1323,12.01355164
1324,12.03960209
1325,12.03707847
1326,12.03405076
1327,11.96734593
1328,11.97375798
1329,12.01122563
1330,11.99395091
1331,12.00008182
1332,12.00608341
1333,12.00229085
1334,12.02090676
1335,11.98159898
1336,12.01501766
1337,11.98422351
1338,12.02167184
1339,12.00203789
1340,12.01435179
1341,11.9813851
1342,12.00287764
1343,11.99735646
1344,11.96819727
1345,11.9788122
1346,11.99135496
1347,12.01389181
1348,12.0117425
1349,11.96736787
1350,12.03911596
1351,11.98766613
1352,12.00866615
1353,12.04032659
1354,11.99501308
1355,12.01950048
1356,11.9835776
1357,12.00494712
1358,12.01014877
1359,12.00478899
1360,11.99712698
1361,11.98920438
1362,11.97144175
1363,11.98639658
1364,12.01750327
1365,12.00385481
1366,12.0518289
1367,12.0020968
1368,11.98551383
1369,11.95140898
1370,12.03103135
1371,12.01340918
1372,11.97617209
1373,11.99233334
1374,12.02495058
1375,12.00315033
1376,12.00153843
1377,11.94431655
1378,11.98445025
1379,12.01214777
1380,12.00170308
1381,11.99861347
1382,12.00538459
1383,11.97027076
1384,11.99936477
1385,11.97241986
1386,11.97940891
1387,11.99640777
1388,12.01253881
1389,12.01427506
1390,11.98334713
1391,11.96967695
1392,12.03341662
1393,12.01511993
1394,11.97005279
1395,11.99400258
1396,11.98558523
1397,11.99830939
1398,12.01579318
1399,11.96196182
1400,12.00891035
1401,11.97062862
1402,11.99756661
1403,11.96544226
1404,12.00738768
1405,12.0110755
1406,11.98573508
1407,11.98999363
1408,11.99427735
1409,12.0242617
1410,12.02622114
1411,11.97132905
1412,11.98310684
1413,11.9989265
1414,12.01683703
1415,12.0118286
1416,12.00718459
1417,11.97368417
1418,12.0040073
1419,11.98446688
1420,11.99907501
1421,11.97721487
1422,12.01620189
1423,11.97317312
1424,12.01965097
1425,11.97126215
1426,11.97696669
1427,12.02086903
1428,12.01198874
1429,12.0053425
1430,12.00138215
1431,11.99485674
1432,12.01714896
1433,11.98769535
1434,11.9897804
1435,11.99621616
1436,12.00568598
1437,12.03477707
1438,11.99488452
1439,12.00823524
1440,11.9879259
1441,11.9739173
1442,11.9907527
1443,12.03967841
1444,12.03302731
1445,11.99608581
1446,11.99842254
1447,12.01571739
1448,12.01418718
1449,12.02967268
1450,12.00454994
1451,11.98752371
1452,11.98329739
1453,11.9936261
1454,11.98388803
1455,12.00526826
1456,11.97239337
1457,12.02372236
1458,11.99768101
1459,11.99822239
1460,11.99974208
1461,12.00423844
1462,11.99296778
1463,11.99204491
1464,11.99212322
1465,12.00299976
1466,12.01673187
1467,11.9719905
1468,11.98043867
1469,12.01609877
1470,11.96889289
1471,12.00696771
1472,12.03910214
1473,11.99143297
1474,12.00387495
1475,12.01093893
1476,12.00744323
1477,11.98099109
1478,11.98192549
1479,12.00809724
1480,12.01048728
1481,12.00664994
1482,12.03319222
1483,12.00062641
1484,12.0209109
1485,12.05609117
1486,12.02127678
1487,12.01399722
1488,11.98512969
1489,11.97759349
1490,12.0140771
1491,12.00848995
1492,12.00472278
1493,12.02382927
1494,12.01254928
1495,11.99805476
1496,11.99919812
1497,12.00529886
1498,12.00808944
1499,12.01699579
1500,12.01489535
1501,12.0277188
1502,12.0001452
1503,11.97659411
1504,12.02120693
1505,11.96329429
1506,11.99693849
1507,11.98743671
1508,11.99809708
1509,11.99591943
1510,12.01332499
1511,11.97808266
1512,11.99169274
1513,11.99253916
1514,11.99876678
1515,12.02708393
1516,11.98073156
1517,12.00202777
1518,11.99648488
1519,11.93670186
1520,12.00368801
1521,11.98426347
1522,11.99644422
1523,11.99424546
1524,12.00605524
1525,11.97894797
1526,12.01532725
1527,11.98739105
1528,11.99709184
1529,11.99972895
1530,12.02184458
1531,11.99370335
1532,12.01900418
1533,12.00601327
1534,12.00172806
1535,11.97183083
1536,11.99651402
1537,12.00613085
1538,11.96438237
1539,12.00614062
1540,11.97106527
1541,11.97713004
1542,12.01909317
1543,11.97438847
1544,12.02701119
1545,12.00795673
1546,11.99363725
1547,12.01315032
1548,11.97040558
1549,12.0148012
1550,12.01187312
1551,12.01931791
1552,11.97980698
1553,11.99875417
1554,11.99061414
1555,12.00834816
1556,12.02769933
1557,11.99808548
1558,12.02460162
1559,12.00001831
1560,12.01340412
1561,12.06656272
1562,12.00757155
1563,11.99976468
1564,12.00569354
1565,12.01565043
1566,12.01977075
1567,12.01004491
1568,11.99280664
1569,12.02572669
1570,11.99966499
1571,11.99929344
1572,11.98731947
1573,11.99786042
1574,12.04364566
1575,12.01850637
1576,11.99428647
1577,11.98565047
1578,11.96867014
1579,12.0476703
1580,11.97174612
1581,12.01421734
1582,12.00006725
1583,12.0145078
1584,12.01645816
1585,11.99908524
1586,12.002585
1587,11.97725879
1588,12.03994356
1589,11.98907346
1590,12.01579285
1591,11.97871716
1592,11.98634481
1593,11.94302607
1594,12.04201189
1595,11.96795577
1596,12.02240658
1597,12.02102402
1598,11.97472899
1599,12.03936845
1600,12.01026115
1601,12.00736185
1602,11.9994538
1603,12.02815221
1604,12.03500386
1605,11.97572822
1606,12.0150711
1607,12.04534525
1608,11.98795504
1609,12.00664315
1610,11.97157674
1611,12.02205004
1612,11.98877086
1613,12.00334321
1614,12.02179077
1615,12.00660396
1616,12.02249985
1617,12.01213367
1618,12.01401907
1619,12.00254178
1620,12.0204094
1621,11.96978745
1622,12.00640247
1623,11.9686611
1624,12.0044521
1625,12.00866615
1626,12.01997728
1627,12.03593075
1628,12.02604725
1629,12.02926448
1630,12.02286806
1631,12.0064626
1632,12.00900747
1633,11.99145838
1634,12.03651368
1635,11.97907906
1636,11.97940487
1637,12.00489194
1638,11.99211258
1639,11.99789931
1640,11.98918143
1641,12.01700947
1642,11.99079734
1643,12.00935825
1644,12.04189387
1645,12.00945809
1646,12.0023906
1647,11.97083541
1648,11.98860047
1649,11.98725827
1650,11.98596613
1651,11.97425635
1652,11.99383162
1653,11.96948325
1654,12.0259093
1655,12.00451364
1656,12.01076368
1657,12.00180575
1658,11.9889345
1659,11.97635772
1660,12.0340121
1661,11.96801261
1662,11.94666055
1663,11.99115227
1664,12.03318448
1665,11.98717769
1666,12.01462153
1667,11.99908934
1668,12.00389299
1669,12.0200108
1670,11.99764997
1671,12.03679265
1672,12.01992704
1673,11.97073952
1674,12.00364816
1675,11.99559422
1676,12.0244757
1677,11.99012312
1678,11.98698432
1679,11.99849348
1680,11.99558158
1681,11.98960093
1682,12.04095691
1683,11.95495126
1684,12.0148479
1685,11.99849823
1686,12.00117776
1687,11.98488962
1688,11.97638191
1689,12.01039846
1690,11.97746664
1691,11.9787243
1692,12.01967363
1693,11.99267978
1694,11.9775325
1695,11.97915569
1696,11.97603557
1697,12.02421124
1698,11.98282291
1699,11.97155446
1700,12.02847207
1701,12.02754675
1702,12.00452192
1703,12.00409637
1704,11.98946549
1705,11.98086905
1706,12.00411437
1707,12.00656537
1708,12.01061096
1709,12.0043638
1710,12.02923634
1711,11.98824976
1712,11.99046473
1713,12.00382708
1714,11.99482339
1715,11.98194025
1716,11.98221735
1717,12.00497262
1718,11.98041867
1719,11.99579705
1720,11.96851114
1721,12.02437536
1722,12.0055472
1723,12.03717256
1724,12.0352172
1725,12.00724667
1726,11.99369061
1727,11.99798611
1728,12.00780051
1729,11.97746708
1730,12.01018244
1731,11.96587935
1732,12.03292157
1733,11.98516002
1734,12.01859514
1735,12.01336006
1736,12.03329283
1737,12.01009595
1738,11.98349713
1739,12.02484413
1740,11.9982596
1741,12.01497315
1742,12.00187679
1743,12.0043234
1744,12.01478655
1745,11.99036314
1746,11.99430995
1747,11.99273686
1748,11.99347538
1749,11.99015471
1750,11.98609194
1751,11.99533763
1752,11.98512978
1753,11.98654987
1754,11.99732702
1755,12.01934017
1756,12.00162422
1757,11.98387646
1758,11.98162813
1759,12.01774581
1760,11.97565514
1761,11.99976911
1762,11.95753602
1763,12.01739666
1764,11.96663029
1765,11.99571268
1766,11.98722762
1767,11.97527539
1768,12.02350163
1769,11.9893437
1770,11.99072344
1771,12.03047118
1772,12.02404923
1773,12.01651668
1774,11.99703071
1775,11.99538536
1776,11.9817083
1777,12.00201784
1778,11.99241001
1779,12.01655971
1780,12.01813082
1781,11.9801353
1782,12.00861861
1783,12.01466811
1784,12.0067389
1785,11.98092615
1786,11.98657061
1787,12.00544767
1788,11.97393975
1789,11.99314284
1790,11.97557982
1791,12.04221989
1792,12.0150256
1793,11.99897743
1794,12.03201904
1795,12.00454475
1796,11.97715075
1797,11.99445371
1798,11.96502606
1799,11.99922454
1800,12.05154332
1801,11.97825528
1802,11.98975241
1803,11.96858756
1804,12.0007901
1805,11.99863676
1806,12.05140912
1807,11.99204272
1808,12.04781219
1809,11.97035901
1810,11.96837447
1811,11.99992656
1812,11.98309217
1813,11.9936328
1814,12.03495753
1815,11.99292847
1816,11.98007795
1817,11.99020416
1818,11.97706791
1819,12.03021137
1820,12.02575543
1821,12.0080941
1822,11.99622256
1823,12.01006567
1824,11.99368611
1825,12.01944176
1826,12.03722216
1827,11.98303168
1828,11.97079993
1829,12.01762685
1830,12.01137016
1831,12.00074519
1832,11.97300018
1833,11.97159367
1834,11.99763147
1835,11.97496707
1836,12.00548097
1837,12.03320744
1838,12.0291805
1839,12.02601864
1840,12.01998614
1841,11.99789116
1842,11.98373532
1843,12.01935026
1844,11.98520222
1845,11.99176557
1846,12.00175434
1847,11.99289796
1848,11.99527229
1849,12.01694928
1850,11.99933308
1851,11.97737456
1852,11.99052429
1853,12.0141892
1854,11.9803046
1855,11.97209066
1856,12.00303121
1857,11.9984974
1858,11.99698797
1859,12.02145801
1860,11.98653405
1861,12.02903812
1862,12.00507147
1863,12.03625992
1864,12.01001386
1865,11.9719069
1866,12.01738421
1867,11.96260136
1868,12.01773627
1869,12.00031242
1870,11.99598629
1871,11.96751871
1872,12.00536611
1873,11.98364496
1874,12.00598072
1875,11.99158925
1876,12.00559894
1877,12.00357678
1878,11.99726333
1879,11.98695598
1880,11.95048977
1881,11.97398396
1882,12.04836165
1883,12.01957277
1884,12.00034298
1885,12.01177965
1886,12.03469229
1887,11.98458989
1888,12.00140298
1889,12.0019284
1890,11.95224935
1891,12.0000467
1892,11.96901929
1893,11.98743518
1894,11.98168439
1895,12.00531768
1896,11.99873767
1897,12.00529575
1898,11.99655363
1899,12.0044628
1900,11.98401508
1901,12.0063066
1902,12.01364679
1903,11.98431479
1904,12.00588677
1905,12.02722103
1906,12.01489432
1907,11.98824068
1908,12.01625945
1909,12.03854334
1910,11.96702308
1911,12.00431069
1912,12.00320295
1913,12.01028119
1914,11.99723306
1915,11.999155
1916,12.00356875
1917,12.0019326
1918,12.00922175
1919,11.9776224
1920,11.99575497
1921,11.991568
1922,11.97882413
1923,12.02279076
1924,12.01513671
1925,12.0101948
1926,11.98909591
1927,11.98504589
1928,12.00163971
1929,12.01881337
1930,11.97524033
1931,11.99061362
1932,11.96500116
1933,11.98559971
1934,11.97478533
1935,11.98896712
1936,11.99120156
1937,12.00947914
1938,11.96878908
1939,11.99002602
1940,11.98693054
1941,11.99750503
1942,11.95577689
1943,11.98082695
1944,11.99046322
1945,12.05661463
1946,11.99115033
1947,11.9807601
1948,12.01841238
1949,12.01515491
1950,11.98325755
1951,11.98127741
1952,11.98555486
1953,12.0261499
1954,11.99574559
1955,12.01496473
1956,11.99616759
1957,11.97747413
1958,11.96630294
1959,12.01609074
1960,11.99616732
1961,12.02594027
1962,12.02508561
1963,12.01237827
1964,12.01244166
1965,11.97914811
1966,12.00641707
1967,12.01286654
1968,11.98457357
1969,11.99037125
1970,11.99032595
1971,11.95614917
1972,12.03118082
1973,12.04309347
1974,11.99062848
1975,11.99413117
1976,11.98266576
1977,12.00251936
1978,12.0063402
1979,12.01263167
1980,12.02984635
1981,11.97729317
1982,12.00746645
1983,12.00213319
1984,12.00161377
1985,12.01892404
1986,12.0062143
1987,11.96585224
1988,11.98608715
1989,11.98399966
1990,11.97865488
1991,11.98078521
1992,11.97280874
1993,12.00486212
1994,11.99813858
1995,12.02857379
1996,11.97695569
1997,12.00090338
1998,11.96891225
1999,11.99715608
2000,11.98743686
2001,11.97436182
2002,11.98157848
2003,11.97286539
2004,11.99151625
2005,11.99748781
2006,11.99567149
2007,12.00746658
2008,12.00675707
2009,11.98590741
2010,11.97613278
2011,11.99490352
2012,12.00489137
2013,11.98609335
2014,11.96479732
2015,11.99404916
2016,12.01790264
2017,12.01541184
2018,11.99761694
2019,11.99623025
2020,11.99979403
2021,12.01169767
2022,12.00059285
2023,12.02431509
2024,11.98386828
2025,11.99176067
2026,11.9817216
2027,12.01359463
2028,12.0352669
2029,12.04246906
2030,11.99536579
2031,12.03375106
2032,12.010523
2033,12.01364561
2034,11.97291821
2035,12.01802154
2036,11.97584067
2037,12.00719456
2038,12.01210062
2039,12.00397222
2040,11.97577709
2041,11.99871813
2042,11.97908122
2043,11.98828245
2044,11.99612415
2045,12.0027786
2046,12.02019041
2047,12.02918989
2048,11.99936455
2049,11.97975483
2050,12.02049624
2051,12.01072403
2052,11.99959618
2053,11.9818131
2054,11.98894211
2055,11.98771323
2056,11.99197602
2057,12.0221115
2058,11.99389093
2059,12.00517657
2060,11.96417063
2061,12.00569681
2062,12.01299888
2063,12.00722373
2064,12.01585643
2065,12.0257575
2066,11.99531638
2067,12.01749569
2068,11.9820419
2069,12.01590116
2070,11.99787621
2071,11.98334144
2072,12.02604457
2073,12.01345328
2074,12.01246411
2075,11.98223353
2076,11.99063716
2077,12.02109573
2078,11.9964963
2079,11.99873403
2080,11.99673798
2081,12.0234233
2082,11.98151511
2083,11.99552875
2084,11.99353447
2085,12.05295378
2086,11.96604023
2087,11.97921943
2088,12.01193037
2089,11.9977139
2090,11.98603732
2091,12.00940383
2092,12.00153974
2093,11.97586318
2094,12.01245019
2095,11.98817809
2096,11.98681547
2097,12.01939452
2098,12.02635621
2099,12.01628645
2100,12.01138429
2101,11.97989095
2102,11.99735371
2103,12.01790315
2104,12.01604449
2105,11.99533801
2106,12.01438961
2107,11.99026626
2108,12.02294806
2109,11.99792238
2110,12.022201
2111,12.00509561
2112,11.99230481
2113,12.00124699
2114,11.97882524
2115,11.97959256
2116,11.99495521
2117,11.99531659
2118,12.01208651
2119,11.98860857
2120,12.0176189
2121,12.01969484
2122,12.00848755
2123,12.01499279
2124,12.01765548
2125,12.01997886
2126,12.00421613
2127,11.9833145
2128,11.99094481
2129,12.00393712
2130,11.94465546
2131,12.02510215
2132,12.00970077
2133,12.01514966
2134,12.0005901
2135,11.97500774
2136,11.98762682
2137,12.02736467
2138,11.9922608
2139,11.98067196
2140,12.03230868
2141,11.9901817
2142,11.9621748
2143,12.00572226
2144,11.99431091
2145,11.96471774
2146,12.02240491
2147,12.02587431
2148,11.99943871
2149,11.982481
2150,12.00561429
2151,12.01870614
2152,12.02755086
2153,12.00588664
2154,12.01356545
2155,12.02888549
2156,12.01037802
2157,11.98994249
2158,12.01521456
2159,12.00576304
2160,11.99938419
2161,11.99458426
2162,12.00322637
2163,11.9939695
2164,12.00161414
2165,12.03116976
2166,11.98315936
2167,11.98382482
2168,11.99905018
2169,11.96961933
2170,12.0143012
2171,12.00095927
2172,12.02608771
2173,12.01337297
2174,11.9864005
2175,12.00656195
2176,12.01264643
2177,11.99429949
2178,12.00137909
2179,11.99556514
2180,11.97656869
2181,11.99167111
2182,11.98570868
2183,11.99013169
2184,11.97261226
2185,11.99993269
2186,12.02253934
2187,12.00865598
2188,12.01180237
2189,12.04207451
2190,12.03923504
2191,11.97860994
2192,12.02629054
2193,11.98392035
2194,12.04564233
2195,12.02594005
2196,11.99060691
2197,11.98557482
2198,11.98212187
2199,12.00064703
2200,11.98609096
2201,11.98343615
2202,11.96242062
2203,12.00833038
2204,12.02108299
2205,12.0120224
2206,11.98839404
2207,12.01536042
2208,12.02666339
2209,12.00318115
2210,11.99294075
2211,11.98973724
2212,11.99030346
2213,12.03541815
2214,12.02851291
2215,12.00632602
2216,12.02163426
2217,11.98750362
2218,11.9887359
2219,12.01880477
2220,11.98777019
2221,12.01224529
2222,11.9900196
2223,12.00962451
2224,11.98598879
2225,12.00505276
2226,11.98920611
2227,12.02654568
2228,11.9872774
2229,12.00686881
2230,12.01740469
2231,12.00575869
2232,11.99420459
2233,12.03727498
2234,11.99362991
2235,12.00247522
2236,11.99455884
2237,12.03954151
2238,12.01481263
2239,12.01243136
2240,11.97567461
2241,12.03486802
2242,12.05429061
2243,12.01172781
2244,11.98304257
2245,11.9683923
2246,11.97380872
2247,12.0173657
2248,12.01424174
2249,12.05267794
2250,11.98345191
2251,12.00526504
2252,11.96125687
2253,11.99629465
2254,12.01722558
2255,12.01069312
2256,12.00829737
2257,12.01579458
2258,12.02334314
2259,12.00385837
2260,11.98507303
2261,12.00577441
2262,12.0004866
2263,11.95586617
2264,12.00750086
2265,12.02598004
2266,12.00902094
2267,11.9820249
2268,12.02064535
2269,11.983368
2270,11.98251964
2271,11.95813015
2272,11.99604565
2273,11.99656797
2274,11.97276325
2275,11.96285489
2276,11.99068026
2277,11.98358909
2278,11.99005093
2279,12.00876671
2280,12.0003222
2281,12.00365497
2282,11.97646875
2283,11.99374101
2284,12.00964464
2285,12.02617662
2286,12.01554495
2287,12.01019516
2288,11.98774548
2289,12.02219136
2290,11.99477747
2291,12.00701891
2292,12.0110429
2293,12.00270577
2294,11.98695384
2295,11.99440874
2296,11.98419483
2297,11.98840753
2298,12.02343805
2299,11.99478824
2300,12.03499918
2301,11.98385609
2302,11.99917052
2303,11.98942742
2304,11.97133655
2305,12.03402079
2306,11.96314942
2307,11.99586082
2308,11.99065681
2309,11.98284103
2310,12.00800798
2311,12.01765419
2312,12.00096827
2313,11.99257101
2314,12.01730777
2315,11.99980988
2316,12.02361153
2317,12.02127466
2318,12.03841136
2319,11.97970119
2320,12.0017857
2321,11.99400369
2322,11.95611719
2323,12.01373875
2324,11.99680165
2325,12.00800975
2326,12.02990507
2327,12.01659077
2328,11.9988614
2329,12.01480847
2330,11.99779476
2331,11.96607142
2332,12.04939079
2333,11.99683455
2334,12.02305473
2335,11.96975404
2336,11.99066462
2337,11.99313111
2338,12.02218184
2339,11.98510125
2340,11.97939625
2341,12.00327412
2342,11.97652088
2343,11.99580663
2344,11.97760351
2345,12.00403429
2346,12.0140883
2347,12.02052598
2348,12.03483178
2349,11.9736569
2350,12.00555204
2351,11.96872706
2352,11.98744782
2353,12.00136779
2354,12.00228046
2355,12.00772621
2356,12.03333332
2357,11.97992072
2358,11.99785494
2359,11.99863505
2360,11.99239891
2361,12.02110675
2362,11.99846544
2363,12.00719954
2364,11.9879145
2365,12.00773891
2366,12.01430028
2367,11.9729473
2368,12.00830328
2369,11.99221718
2370,11.98372388
2371,11.99376064
2372,11.97461019
2373,11.96918448
2374,12.01126809
2375,12.02511503
2376,11.98073329
2377,12.00775356
2378,11.99297824
2379,12.04058762
2380,11.94758897
2381,12.01621897
2382,11.98301374
2383,11.98916691
2384,11.97151134
2385,12.01399129
2386,11.99549274
2387,12.02336033
2388,12.01251733
2389,11.99437818
2390,12.00836299
2391,11.99239765
2392,12.00664421
2393,12.00460376
2394,11.97710831
2395,11.97136151
2396,11.94697515
2397,12.01145696
2398,12.01866286
2399,11.99092669
2400,11.99237845
2401,11.94386986
2402,11.99710537
2403,11.98529771
2404,12.00004423
2405,12.02117141
2406,11.99344664
2407,12.00958384
2408,11.98353905
2409,11.99376773
2410,12.02051694
2411,11.9990431
2412,11.99484235
2413,12.00177505
2414,11.99365979
2415,12.02345264
2416,12.0274169
2417,11.97625834
2418,12.00743278
2419,11.98237236
2420,12.01139701
2421,12.00866703
2422,12.02276948
2423,11.99853461
2424,12.00745651
2425,11.99847168
2426,12.00273075
2427,12.00497181
2428,12.01602089
2429,11.97596992
2430,11.98869573
2431,12.02566484
2432,11.98755938
2433,11.9817952
2434,11.99591508
2435,11.98853031
2436,12.00392838
2437,12.02365133
2438,11.99010242
2439,12.00973213
2440,11.97955634
2441,12.00322506
2442,12.00036882
2443,12.00608866
2444,12.00563823
2445,11.9692998
2446,11.99278661
2447,12.01769659
2448,11.99592383
2449,12.02727582
2450,12.01897316
2451,12.02555635
2452,12.0397702
2453,11.9933565
2454,12.00544725
2455,12.01506365
2456,11.98984101
2457,12.01445114
2458,11.98453204
2459,11.99191168
2460,12.00268451
2461,12.01649512
2462,11.99818366
2463,12.0246465
2464,12.01269732
2465,12.00281713
2466,11.99552005
2467,11.96911957
2468,11.99036723
2469,11.98923687
2470,12.04117164
2471,12.01916846
2472,11.98309228
2473,11.99128465
2474,11.99535652
2475,12.05336942
2476,11.99662717
2477,12.00531437
2478,11.97294092
2479,12.01372938
2480,12.02932244
2481,12.00013477
2482,11.984628
2483,12.01137471
2484,11.96680149
2485,11.97812458
2486,12.0150858
2487,11.98984191
2488,12.02467219
2489,12.01461779
2490,11.98785246
2491,11.99873187
2492,11.9852143
2493,12.00000304
2494,12.03644675
2495,12.00929176
2496,11.99677513
2497,11.98082219
2498,12.01592712
2499,11.98508014
2500,12.02048624
2501,11.97718575
2502,11.97523708
2503,11.9776196
2504,12.00218116
2505,11.9717558
2506,12.00464045
2507,11.97523113
2508,12.01125797
2509,11.95102587
2510,12.00549786
2511,12.02771228
2512,12.00195062
2513,11.98323805
2514,11.98656284
2515,11.9906149
2516,11.98180131
2517,11.97610886
2518,11.99076685
2519,12.01665039
2520,12.02439448
2521,11.99799314
2522,12.01099415
2523,12.02535007
2524,12.00951694
2525,12.03149183
2526,12.00786157
2527,12.00634682
2528,12.01072882
2529,11.96765515
2530,11.99448347
2531,11.99686382
2532,11.97520409
2533,12.01377444
2534,12.01693589
2535,12.00298393
2536,11.99130305
2537,11.96792848
2538,12.01048868
2539,12.01661514
2540,12.02686781
2541,12.01586522
2542,12.00318909
2543,12.00791916
2544,11.99959054
2545,12.0053697
2546,11.99988329
2547,12.00090578
2548,12.0214749
2549,11.99203327
2550,12.02927232
2551,12.00630557
2552,12.01049139
2553,12.02098604
2554,12.0032681
2555,11.9731638
2556,12.00515997
2557,12.00589429
2558,12.02002738
2559,11.99798511
2560,12.02829702
2561,11.98249667
2562,12.01076049
2563,12.00202971
2564,11.97364768
2565,12.00673838
2566,11.98265913
2567,12.00997417
2568,11.98825418
2569,12.02132352
2570,11.99617942
2571,12.00565512
2572,11.98102537
2573,11.9519848
2574,12.00288886
2575,11.98804145
2576,11.99147128
2577,12.00578692
2578,11.96788456
2579,11.98133045
2580,11.98334496
2581,11.98106821
2582,12.01935478
2583,11.9795539
2584,12.00510201
2585,12.00077629
2586,11.99586924
2587,12.02326307
2588,12.02293686
2589,11.98162686
2590,12.0152683
2591,11.98130728
2592,11.98738876
2593,11.97366303
2594,11.96534763
2595,12.01068079
2596,12.00117308
2597,12.0165102
2598,11.98418325
2599,12.00543239
2600,12.00501135
2601,12.01554888
2602,12.0122286
2603,12.02690616
2604,12.01131523
2605,11.9925553
2606,12.00620252
2607,11.99907444
2608,11.98520957
2609,12.01343997
2610,12.00111036
2611,11.98320785
2612,12.0114786
2613,11.96017031
2614,11.98312839
2615,12.01030458
2616,11.9923313
2617,12.03074056
2618,11.98702457
2619,12.00326295
2620,11.9841208
2621,12.02296315
2622,12.0088789
2623,12.0177124
2624,11.9708662
2625,11.97552306
2626,11.99923876
2627,12.00236256
2628,12.00511782
2629,11.94023025
2630,11.99802577
2631,12.0186069
2632,11.94991911
2633,11.97109963
2634,12.05311904
2635,12.02406386
2636,11.9992832
2637,12.01272789
2638,12.00421299
2639,11.99315063
2640,11.99868645
2641,12.03107898
2642,12.02092436
2643,12.01471511
2644,12.03022856
2645,12.00528183
2646,12.02839689
2647,11.99577796
2648,11.96058059
2649,12.00576903
2650,12.04522019
2651,11.97630078
2652,12.00465028
2653,12.01875462
2654,12.00659586
2655,11.99938018
2656,11.98751896
2657,11.99904395
2658,12.01379587
2659,12.05757944
2660,12.02146619
2661,12.01263464
2662,11.97529605
2663,11.99873909
2664,12.01970395
2665,12.00555793
2666,12.01201398
2667,12.02439091
2668,12.00984043
2669,12.04757668
2670,11.98991453
2671,11.99664887
2672,12.02583594
2673,12.03469823
2674,11.9776574
2675,11.98507366
2676,11.98628441
2677,11.97431961
2678,11.99315
2679,11.98768607
2680,11.97350683
2681,12.03271931
2682,11.99978584
2683,12.00068991
2684,12.0202524
2685,11.98080045
2686,11.99871982
2687,12.02121766
2688,11.98702916
2689,12.00371967
2690,11.98606669
2691,11.98810185
2692,11.98980632
2693,11.99938372
2694,11.98389889
2695,11.98202517
2696,12.04189081
2697,12.01470551
2698,11.99282746
2699,12.00455123
2700,12.03364519
2701,12.02462269
2702,11.98344112
2703,11.98896138
2704,12.00276904
2705,11.96299949
2706,11.99244285
2707,11.99032731
2708,11.99174431
2709,11.96693875
2710,11.99287407
2711,12.00975099
2712,11.97782798
2713,11.97475981
2714,12.01458723
2715,12.01211093
2716,11.99204324
2717,11.99716364
2718,11.99481468
2719,11.99831276
2720,12.02442373
2721,11.98016328
2722,12.03356676
2723,11.9816155
2724,11.95916234
2725,11.96654491
2726,12.01784438
2727,12.03468844
2728,11.98589467
2729,12.00621666
2730,11.98233102
2731,12.01207389
2732,11.99843033
2733,11.9870175
2734,11.99943076
2735,12.00728225
2736,11.97313687
2737,12.03591798
2738,11.97905907
2739,11.97501137
2740,11.97686536
2741,11.96612106
2742,11.99733314
2743,12.00866898
2744,12.00908103
2745,12.00821339
2746,12.00958628
2747,12.03793608
2748,11.96905975
2749,11.97822388
2750,11.99837496
2751,11.9934384
2752,12.02442588
2753,12.02666177
2754,11.98307283
2755,11.95702413
2756,12.0172085
2757,11.98723455
2758,12.0349885
2759,12.01546394
2760,11.9790108
2761,11.98952869
2762,11.99432761
2763,12.0047807
2764,12.00971967
2765,12.02827568
2766,12.00697289
2767,11.99879481
2768,11.99137792
2769,11.99315245
2770,12.02036226
2771,11.98144688
2772,12.01303546
2773,12.04838387
2774,12.03439186
2775,11.97828008
2776,11.99124229
2777,11.98927298
2778,11.97938376
2779,12.01141376
2780,12.00461175
2781,11.99325557
2782,11.98494072
2783,11.96515606
2784,12.00236578
2785,12.01570015
2786,12.02040286
2787,12.00980744
2788,12.00478151
2789,12.03024148
2790,12.02486223
2791,11.99609901
2792,11.9704028
2793,11.97197418
2794,11.98909589
2795,12.0181597
2796,12.02926097
2797,12.00069063
2798,12.07882016
2799,12.02078471
2800,12.02442337
2801,12.01340328
2802,12.00971615
2803,12.05135607
2804,11.97207138
2805,11.9782695
2806,11.97811046
2807,12.00335916
2808,11.98924833
2809,11.98430279
2810,12.02908443
2811,11.98438629
2812,11.98024562
2813,12.02322841
2814,11.99014867
2815,12.03711737
2816,11.99498815
2817,11.97885472
2818,11.99506786
2819,11.99888911
2820,11.99378174
2821,12.00764504
2822,11.98964725
2823,11.97777891
2824,11.99835655
2825,11.98155289
2826,12.01240454
2827,11.98814806
2828,12.00271179
2829,12.01773379
2830,11.99899935
2831,12.003889
2832,11.97942512
2833,12.01536186
2834,12.00805533
2835,11.98985168
2836,11.99564449
2837,11.98785173
2838,11.9902003
2839,11.95017485
2840,12.02095374
2841,12.01944274
2842,12.03400626
2843,11.99886326
2844,12.01510518
2845,12.01823565
2846,11.99319021
2847,12.01395664
2848,12.00595017
2849,12.03044521
2850,11.98351094
2851,12.01304606
2852,11.9936637
2853,11.98012653
2854,12.01123409
2855,11.99613103
2856,12.0154538
2857,11.99649166
2858,11.97455215
2859,11.95227924
2860,12.01353086
2861,11.98053616
2862,12.03880759
2863,11.98422598
2864,11.989648
2865,11.97335269
2866,11.96945741
2867,11.99183325
2868,12.00666519
2869,11.97615654
2870,12.01406915
2871,12.00162008
2872,11.96367881
2873,11.99281865
2874,11.97382141
2875,12.03268586
2876,12.01824652
2877,11.96060073
2878,11.98129535
2879,12.00002123
2880,12.01829361
2881,11.98680386
2882,11.98702635
2883,11.98302869
2884,12.00243356
2885,11.99160491
2886,12.03387331
2887,12.04715015
2888,11.98692695
2889,11.98241381
2890,12.02221015
2891,11.98849921
2892,11.95530038
2893,12.02391607
2894,11.99773781
2895,12.04745837
2896,12.00061258
2897,12.02144829
2898,11.98693569
2899,11.98745355
2900,11.99865902
2901,11.98688514
2902,12.02104794
2903,12.01069632
2904,12.00788932
2905,11.99181218
2906,12.01378288
2907,12.00119277
2908,11.98837461
2909,12.01751741
2910,12.01998352
2911,11.98537959
2912,11.99922315
2913,11.97415229
2914,11.98376332
2915,12.01887835
2916,12.0021944
2917,12.00475225
2918,11.97575597
2919,11.95818442
2920,12.02039754
2921,11.99061277
2922,12.01141496
2923,12.01644648
2924,11.9802209
2925,11.95536428
2926,12.0044093
2927,12.00142573
2928,11.99502407
2929,12.01978438
2930,11.99988293
2931,11.97259905
2932,12.05505628
2933,12.01086433
2934,12.00743477
2935,11.97666637
2936,11.98633227
2937,12.02742998
2938,11.98900627
2939,11.96332765
2940,12.00678647
2941,11.99935069
2942,12.03919481
2943,11.99281816
2944,11.9951885
2945,12.01008503
2946,11.98708764
2947,12.00018518
2948,11.98821811
2949,11.98455526
2950,11.98774802
2951,11.98517771
2952,12.00278671
2953,12.01255471
2954,11.98227434
2955,12.02274631
2956,12.00161629
2957,11.97557475
2958,11.99930025
2959,12.00391888
2960,11.99907765
2961,12.01468669
2962,12.02157172
2963,12.00920872
2964,12.03001966
2965,12.00856705
2966,11.98535805
2967,12.01664197
2968,12.04073794
2969,12.0412479
2970,11.98502203
2971,11.99834706
2972,11.98886583
2973,12.00931387
2974,12.00869517
2975,12.00362478
2976,11.9847583
2977,12.01172073
2978,12.00378889
2979,12.0160341
2980,11.98199017
2981,12.02501894
2982,12.01305794
2983,12.00558643
2984,11.98620375
2985,12.01206731
2986,12.01423404
2987,11.97765973
2988,12.00414648
2989,11.99903202
2990,12.01264185
2991,12.0054224
2992,11.98195975
2993,12.01140462
2994,12.0233553
2995,12.00330624
2996,11.99462951
2997,12.00996783
2998,11.9980722
2999,12.00518014
3000,12.02351662
3001,11.99530416
3002,11.94045596
3003,11.96985272
3004,11.9980157
3005,12.00810455
3006,11.97334441
3007,12.01722126
3008,12.00348556
3009,12.0109501
3010,11.97161646
3011,11.99558574
3012,12.04254415
3013,11.98436949
3014,12.0168014
3015,12.02846806
3016,11.97344876
3017,12.02993071
3018,11.99842894
3019,11.98486281
3020,11.98841157
3021,12.0032045
3022,11.964994
3023,12.01891156
3024,12.00839026
3025,12.01731393
3026,12.00718365
3027,12.00529313
3028,12.00176763
3029,12.02782616
3030,11.98198556
3031,11.96601399
3032,12.01286425
3033,12.02011212
3034,11.97807541
3035,11.99710268
3036,11.9540797
3037,11.96614149
3038,12.00797039
3039,11.99721136
3040,11.98370849
3041,11.99860102
3042,11.9977656
3043,12.04211738
3044,11.99936214
3045,11.96877435
3046,12.0034201
3047,12.0065214
3048,11.98222011
3049,12.00761279
3050,12.00161635
3051,12.01524405
3052,12.01251247
3053,11.98418013
3054,11.9654778
3055,11.98133635
3056,11.99188577
3057,12.04179371
3058,12.00202731
3059,11.98382104
3060,12.04352689
3061,12.03073066
3062,12.01682069
3063,12.02020101
3064,11.99868787
3065,11.9844974
3066,12.01226332
3067,12.00143538
3068,11.98883363
3069,11.99836762
3070,11.99609251
3071,12.00326835
3072,12.01902481
3073,12.00269586
3074,11.97596403
3075,11.98593164
3076,12.01865086
3077,11.9911216
3078,11.99700599
3079,11.99588075
3080,12.00884319
3081,12.04893111
3082,12.01013894
3083,11.98071602
3084,12.01024358
3085,11.96850935
3086,11.97079176
3087,12.04961244
3088,12.02891457
3089,11.99992448
3090,11.99578931
3091,12.00734276
3092,11.9728985
3093,11.97829086
3094,11.99488788
3095,11.97973729
3096,12.00155527
3097,12.01413123
3098,12.04673722
3099,11.99255568
3100,12.01783088
3101,11.98285289
3102,11.97869717
3103,12.00750325
3104,12.02377414
3105,11.97765339
3106,12.01308698
3107,12.02151248
3108,11.9932757
3109,12.00403106
3110,12.01000743
3111,12.01206434
3112,11.99245712
3113,11.98452592
3114,11.97562686
3115,11.99119787
3116,12.00835486
3117,11.95747671
3118,12.01686302
3119,12.00719459
3120,12.00622615
3121,11.97525047
3122,11.98808172
3123,12.01199522
3124,11.99546177
3125,11.94631755
3126,11.98531446
3127,11.97867559
3128,11.99057048
3129,12.04417525
3130,11.97850008
3131,12.00905084
3132,11.95905118
3133,12.00960915
3134,11.98562211
3135,12.0042804
3136,11.99703912
3137,12.0032613
3138,11.98094759
3139,11.98329098
3140,11.98164436
3141,12.0127947
3142,12.02943739
3143,12.0287627
3144,11.9706949
3145,11.99976795
3146,11.97600629
3147,12.00853947
3148,11.97998257
3149,11.97893828
3150,11.97212715
3151,12.01435259
3152,11.97684248
3153,11.97515992
3154,12.00759094
3155,11.97508074
3156,12.05171429
3157,12.01747861
3158,11.99445531
3159,12.01604177
3160,11.99822795
3161,11.99799649
3162,12.01863296
3163,12.0352179
3164,12.01159597
3165,12.02394607
3166,11.94486388
3167,11.96073383
3168,12.00915063
3169,11.98137841
3170,11.99224448
3171,12.00736475
3172,11.99294908
3173,12.00723754
3174,11.99726195
3175,12.00852564
3176,12.04378162
3177,12.03729685
3178,11.98952886
3179,12.00887526
3180,12.02888749
3181,12.02977833
3182,12.01214099
3183,11.98161116
3184,12.01073145
3185,11.99505833
3186,11.98105503
3187,11.99555044
3188,11.99174593
3189,11.96924346
3190,11.99746776
3191,11.95069211
3192,11.99122508
3193,12.00884172
3194,12.02738343
3195,12.01152234
3196,11.99237846
3197,11.96473796
3198,12.01331599
3199,12.01313617
3200,12.02715582
3201,12.00452661
3202,12.01560979
3203,11.99730851
3204,12.01949004
3205,12.00308088
3206,12.02380029
3207,11.97926164
3208,12.01761836
3209,12.00045056
3210,12.00195034
3211,11.99495858
3212,12.0066694
3213,11.96057457
3214,12.02636487
3215,12.0401257
3216,12.02446703
3217,11.99312116
3218,12.04115698
3219,11.99275973
3220,12.01153142
3221,12.01062523
3222,12.01552984
3223,11.9887561
3224,11.99332578
3225,11.98409459
3226,12.00344996
3227,12.02361508
3228,11.99167696
3229,11.99761916
3230,11.99873713
3231,11.97781175
3232,12.00366414
3233,11.96397037
3234,12.00704442
3235,11.98242817
3236,11.99351056
3237,12.02701874
3238,12.01291399
3239,12.02457222
3240,12.04253361
3241,11.99342694
3242,12.03035427
3243,11.92009432
3244,11.9845366
3245,12.0299877
3246,11.98086231
3247,11.99710122
3248,12.01311727
3249,11.98813053
3250,11.97976862
3251,12.00533877
3252,12.0012747
3253,12.01567746
3254,11.99268877
3255,12.00190016
3256,11.9877358
3257,11.98883293
3258,11.97261606
3259,11.96746557
3260,11.98049108
3261,12.00602355
3262,12.00392341
3263,12.00309755
3264,11.97534817
3265,11.98549974
3266,12.01582253
3267,12.00103334
3268,12.01122082
3269,11.96897106
3270,12.00123836
3271,12.00041631
3272,12.04230487
3273,12.00926602
3274,12.01774302
3275,12.02146506
3276,12.02591891
3277,11.97328898
3278,11.9678038
3279,12.00035919
3280,11.97408267
3281,11.98345797
3282,11.98675994
3283,11.9916364
3284,11.99088749
3285,12.00361778
3286,12.00279502
3287,11.9922012
3288,11.97590025
3289,12.00341285
3290,12.00240887
3291,11.99187235
3292,11.98718214
3293,12.02019839
3294,12.00188707
3295,12.02879963
3296,12.01633084
3297,12.01112426
3298,12.01403972
3299,12.04164253
3300,12.00798026
3301,12.01178048
3302,11.96368283
3303,11.98009816
3304,12.0131592
3305,11.99163078
3306,12.00636607
3307,11.97711059
3308,11.99482067
3309,11.98665606
3310,11.96855748
3311,11.99853875
3312,11.99189229
3313,11.99539315
3314,12.02334664
3315,12.02809042
3316,11.99127812
3317,12.02587331
3318,11.96032129
3319,12.02192323
3320,12.02581143
3321,11.98187985
3322,11.97244955
3323,11.97656357
3324,12.00390631
3325,11.97398567
3326,11.97614725
3327,12.01052419
3328,11.96721707
3329,12.02817879
3330,12.01289398
3331,12.02191035
3332,11.97663257
3333,12.00234053
3334,12.01668628
3335,12.02699976
3336,12.01632899
3337,11.99950218
3338,11.99485127
3339,12.00172374
3340,11.96412904
3341,12.02325134
3342,12.00059446
3343,11.99482899
3344,12.00002515
3345,12.00722869
3346,12.02679981
3347,12.01864009
3348,11.96449585
3349,11.97388054
3350,12.01439144
3351,11.9820374
3352,11.99850785
3353,12.01166775
3354,12.02657034
3355,11.97920758
3356,12.01025964
3357,11.99746903
3358,11.97682773
3359,12.0148825
3360,12.03757475
3361,12.01961237
3362,12.02881574
3363,11.9895392
3364,11.98378474
3365,11.99083152
3366,12.03998927
3367,12.01910427
3368,12.01220822
3369,11.9957408
3370,12.01166593
3371,12.02442589
3372,12.00310108
3373,12.01047282
3374,12.02210608
3375,12.01120089
3376,11.99657537
3377,12.00459921
3378,12.01364367
3379,12.03201518
3380,12.01491122
3381,11.9768911
3382,12.02092161
3383,12.01366653
3384,12.00534997
3385,11.99789259
3386,12.0426275
3387,12.03289927
3388,11.99053311
3389,12.00204435
3390,12.03023455
3391,12.0551312
3392,12.00877397
3393,12.02310296
3394,12.00333155
3395,12.01884418
3396,12.04527045
3397,12.02813935
3398,12.04460102
3399,12.02746529
3400,12.05111452
3401,12.04182454
3402,12.06892694
3403,12.06816685
3404,12.0749471
3405,12.05125898
3406,12.07845254
3407,12.10035102
3408,12.11130215
3409,12.09257206
3410,12.11306454
3411,12.13235038
3412,12.14553033
3413,12.11133163
3414,12.16281955
3415,12.13116946
3416,12.17861152
3417,12.22407519
3418,12.18126862
3419,12.182873
3420,12.21108922
3421,12.17942232
3422,12.21080844
3423,12.23501153
3424,12.22239033
3425,12.22819128
3426,12.30402562
3427,12.3089594
3428,12.29565258
3429,12.32130288
3430,12.29973235
3431,12.33380626
3432,12.32001246
3433,12.36418035
3434,12.38519701
3435,12.38564167
3436,12.39320529
3437,12.42051808
3438,12.45156092
3439,12.4208479
3440,12.4452252
3441,12.45597055
3442,12.45699314
3443,12.51661324
3444,12.5142021
3445,12.51396186
3446,12.57927381
3447,12.54647258
3448,12.58871025
3449,12.55967004
3450,12.58864739
3451,12.64533855
3452,12.57640701
3453,12.61899608
3454,12.62594281
3455,12.63176423
3456,12.63603668
3457,12.65593274
3458,12.66341522
3459,12.65612905
3460,12.70574575
3461,12.7097033
3462,12.6751072
3463,12.69862289
3464,12.70597532
3465,12.73290742
3466,12.70104629
3467,12.6841335
3468,12.70561708
3469,12.70529798
3470,12.72534772
3471,12.67053228
3472,12.72818139
3473,12.68669046
3474,12.67241926
3475,12.67523743
3476,12.69925104
3477,12.66567093
3478,12.65909174
3479,12.65628315
3480,12.69241366
3481,12.65926314
3482,12.66174468
3483,12.62659647
3484,12.61076286
3485,12.55953567
3486,12.56043797
3487,12.55158082
3488,12.5740701
3489,12.56601132
3490,12.52379489
3491,12.54559745
3492,12.51472246
3493,12.49690524
3494,12.47404539
3495,12.47911557
3496,12.47443404
3497,12.4297332
3498,12.41640975
3499,12.42664441
3500,12.39405731
3501,12.40228095
3502,12.36377311
3503,12.38692641
3504,12.34051649
3505,12.33444631
3506,12.28860951
3507,12.30322143
3508,12.30513205
3509,12.25662266
3510,12.30025869
3511,12.25516067
3512,12.25174736
3513,12.19925931
3514,12.25225196
3515,12.20670037
3516,12.1952581
3517,12.17681668
3518,12.19226555
3519,12.13759512
3520,12.17371063
3521,12.12162804
3522,12.1362677
3523,12.11252473
3524,12.13565545
3525,12.14409762
3526,12.12738392
3527,12.10039471
3528,12.10727729
3529,12.09969863
3530,12.03446769
3531,12.08411258
3532,12.07485798
3533,12.10277733
3534,12.06873181
3535,12.03869776
3536,12.09563992
3537,12.02501506
3538,12.01922133
3539,12.06266881
3540,12.01797688
3541,12.03213446
3542,12.07516897
3543,12.00962728
3544,12.01769899
3545,12.02742153
3546,12.05317105
3547,12.02243684
3548,12.01567843
3549,12.03605507
3550,12.05199072
3551,11.99540053
3552,12.01536404
3553,12.00978668
3554,12.01171911
3555,12.03221581
3556,12.03091992
3557,12.03033597
3558,12.02050912
3559,12.02950799
3560,11.98355324
3561,11.97439129
3562,12.04178238
3563,12.00361057
3564,11.99998295
3565,11.99966841
3566,12.02879006
3567,12.0049339
3568,12.03587736
3569,11.99183042
3570,11.99067806
3571,12.01786784
3572,11.98428125
3573,12.02092819
3574,12.03550304
3575,11.99067637
3576,12.03055654
3577,12.02934377
3578,11.99963521
3579,12.03481973
3580,11.94935749
3581,12.01170303
3582,12.0013653
3583,12.00120176
3584,12.00088382
3585,12.0204872
3586,12.02314337
3587,11.97546726
3588,11.95795182
3589,12.00085589
3590,11.99020981
3591,12.00583769
3592,12.02202334
3593,12.01789305
3594,11.99858181
3595,11.98640581
3596,11.97185792
3597,12.01026256
3598,12.01897276
3599,12.02470486
3600,11.99395684
3601,12.01013925
3602,11.98117627
3603,12.01674465
3604,12.01374322
3605,11.98821118
3606,11.9832135
3607,11.98798849
3608,12.01796407
3609,11.99806461
3610,11.98729137
3611,12.03215697
3612,12.00692471
3613,11.97163595
3614,11.97353283
3615,11.98429417
3616,12.0278152
3617,11.99008653
3618,12.01521942
3619,12.00508009
3620,11.99116881
3621,12.02598031
3622,12.02673962
3623,12.0245289
3624,12.00546678
3625,11.97217572
3626,12.01365736
3627,12.0187433
3628,12.00692962
3629,12.02088897
3630,11.98668545
3631,11.96206571
3632,12.01720826
3633,11.99420243
3634,11.99736965
3635,11.97886894
3636,12.01118523
3637,12.00636606
3638,11.98513907
3639,11.97918895
3640,12.03802608
3641,11.98741759
3642,12.019071
3643,11.98631432
3644,12.00084473
3645,11.99862519
3646,11.98445703
3647,11.98384163
3648,11.98534972
3649,12.02184657
3650,12.00142592
3651,11.98683076
3652,11.97472487
3653,12.00011721
3654,11.99665271
3655,12.0203927
3656,11.99562774
3657,11.99279961
3658,12.00109066
3659,11.97206698
3660,11.98312911
3661,11.99820102
3662,12.03797636
3663,12.04168757
3664,11.99192036
3665,12.04003653
3666,12.0117492
3667,12.00336146
3668,11.99506578
3669,12.01482105
3670,11.98428051
3671,11.97697188
3672,11.98780509
3673,11.98901335
3674,12.00847205
3675,12.01716604
3676,11.99571704
3677,11.97925603
3678,11.97088018
3679,11.98831019
3680,12.00755252
3681,12.01756485
3682,11.99520338
3683,11.9817576
3684,12.00910032
3685,12.00539479
3686,11.99334265
3687,12.01838062
3688,11.96835604
3689,12.00137496
3690,12.00156926
3691,12.02714014
3692,12.00977824
3693,12.00788175
3694,11.99013344
3695,12.01306803
3696,11.94294455
3697,12.01249809
3698,12.00741571
3699,12.02342381
3700,11.9919066
3701,12.00056709
3702,12.01198315
3703,12.01803968
3704,11.97038472
3705,11.96575593
3706,11.98439132
3707,12.02490226
3708,11.99630215
3709,11.99538482
3710,12.00607932
3711,12.00939078
3712,12.01038806
3713,12.00464265
3714,12.019248
3715,11.99099136
3716,11.99392652
3717,11.9932691
3718,12.00637933
3719,12.01156805
3720,12.00933038
3721,11.94985589
3722,12.01130236
3723,11.95999368
3724,12.01367606
3725,11.99910596
3726,11.96230621
3727,11.99378951
3728,12.01611949
3729,11.96807442
3730,12.01089796
3731,12.00992899
3732,11.98934817
3733,11.9619288
3734,11.99616913
3735,11.99672042
3736,12.01947818
3737,12.00072244
3738,11.99695955
3739,11.98651469
3740,12.00063951
3741,11.99687934
3742,12.01076448
3743,11.98753369
3744,12.02097219
3745,12.02562183
3746,11.9713233
3747,12.02220386
3748,11.97822149
3749,12.01343749
3750,12.0149566
3751,12.03402363
3752,11.99516454
3753,12.01097743
3754,11.9626381
3755,12.03835784
3756,12.01378929
3757,12.01066445
3758,11.97420989
3759,12.00154608
3760,12.00437635
3761,12.01558138
3762,11.99989301
3763,11.97182082
3764,12.00885966
3765,12.00493498
3766,12.02510481
3767,11.98244552
3768,11.9923191
3769,11.98400558
3770,12.00635797
3771,11.99735307
3772,11.99475696
3773,12.01104648
3774,11.96182873
3775,12.03867667
3776,12.03454658
3777,12.00125398
3778,12.01267671
3779,12.01719578
3780,11.99855317
3781,11.98851686
3782,11.99226205
3783,11.9861022
3784,11.9756506
3785,11.99978468
3786,12.02367806
3787,12.02193639
3788,12.01273498
3789,11.99186601
3790,11.97737234
3791,11.98287856
3792,11.97081274
3793,12.01420934
3794,12.01500516
3795,12.01493148
3796,12.01091987
3797,11.99877847
3798,12.01667347
3799,11.99274273
3800,11.97316475
3801,12.00088164
3802,12.04128346
3803,12.0193865
3804,12.01334444
3805,11.96857712
3806,11.9873582
3807,12.00862933
3808,11.99406399
3809,11.97702423
3810,12.0041427
3811,12.01241995
3812,12.00467467
3813,12.03081768
3814,11.97050532
3815,11.97726712
3816,12.02018755
3817,12.02657927
3818,12.0030168
3819,12.00240433
3820,12.01739449
3821,12.03522268
3822,11.98297832
3823,11.98915551
3824,12.00057262
3825,11.99844701
3826,11.96048141
3827,11.98050491
3828,11.9765366
3829,11.99204657
3830,11.94860638
3831,12.00581421
3832,11.99604479
3833,12.00268336
3834,11.99398367
3835,12.00446183
3836,11.97941189
3837,11.986977
3838,12.02910993
3839,11.97915098
3840,12.00271145
3841,12.02805619
3842,11.99211713
3843,11.99051691
3844,12.01936596
3845,12.00048258
3846,12.00700637
3847,11.97929594
3848,11.97557973
3849,11.96021299
3850,11.99912144
3851,12.01444482
3852,11.98355359
3853,11.9837196
3854,12.01797419
3855,11.99645202
3856,11.97343371
3857,11.9814589
3858,11.98666153
3859,11.99065189
3860,11.97730248
3861,11.99517142
3862,12.03001142
3863,12.0121464
3864,12.00495944
3865,11.96739506
3866,12.00616533
3867,11.95892172
3868,12.01460521
3869,12.00002919
3870,12.01579174
3871,11.98697209
3872,11.99233812
3873,11.98081409
3874,12.0189391
3875,12.04524137
3876,11.98155044
3877,12.00829566
3878,12.02078154
3879,12.01893033
3880,12.04243924
3881,12.00109874
3882,12.00849294
3883,11.98539653
3884,12.01133101
3885,12.0090934
3886,11.99276465
3887,12.00463998
3888,11.97560204
3889,12.02036661
3890,11.9561212
3891,11.99739709
3892,11.9822316
3893,12.02688778
3894,11.98737132
3895,11.98867687
3896,11.99928941
3897,11.97398272
3898,12.02010378
3899,11.99360914
3900,12.00087299
3901,11.97411007
3902,11.95471036
3903,11.98398453
3904,12.01914932
3905,11.96830451
3906,11.97306925
3907,11.98230682
3908,11.95740823
3909,12.01534887
3910,11.98509829
3911,12.00313645
3912,11.98997237
3913,12.03495014
3914,12.00632343
3915,12.01538392
3916,12.01528558
3917,12.00683838
3918,11.98518795
3919,11.99457193
3920,11.99827526
3921,12.00791567
3922,12.03246133
3923,11.99239071
3924,12.00886896
3925,11.99334889
3926,12.02972651
3927,11.99992047
3928,11.99465399
3929,12.01056033
3930,12.01414753
3931,11.99908768
3932,12.00153389
3933,12.00279849
3934,12.00836684
3935,12.01492632
3936,12.00485049
3937,12.011658
3938,12.01488789
3939,12.03457283
3940,11.98916091
3941,11.98557593
3942,12.00732864
3943,11.96742461
3944,12.00479856
3945,12.00647828
3946,12.02197414
3947,11.99783281
3948,11.99701343
3949,12.00856692
3950,12.00466854
3951,11.9839049
3952,12.00694711
3953,12.0158699
3954,11.98164535
3955,11.98314039
3956,11.98881209
3957,12.00756003
3958,12.02392647
3959,12.02371329
3960,11.99005843
3961,12.0248912
3962,12.01439157
3963,11.98057527
3964,11.97210772
3965,12.01732833
3966,12.00683959
3967,11.98739873
3968,11.98479792
3969,12.0294368
3970,11.98231428
3971,11.98073585
3972,11.98227185
3973,12.0192486
3974,11.99694319
3975,12.00195083
3976,12.01305772
3977,12.00879423
3978,12.00202739
3979,12.01632239
3980,11.99001498
3981,11.98888365
3982,12.02548579
3983,12.00370144
3984,12.03227241
3985,11.9775091
3986,11.97236476
3987,11.9628143
3988,12.00898673
3989,11.97049771
3990,12.01673559
3991,12.02140205
3992,11.98462154
3993,11.99374344
3994,11.99293238
3995,11.9798611
3996,12.00575882
3997,12.0177124
3998,12.02023522
3999,12.01573482
4000,11.99892152
