Raman Shift,Intensity
214.3785040343428,62.741
224.78145843945092,520.231
235.01908334044856,-198.681
245.41130867789616,240.509
255.63837774522108,386.906
265.8602158678186,797.339
276.23642015571386,274.494
286.44772684514464,977.721
296.8132434111685,73.198
307.0140349346475,-112.412
317.209615658554,2.614
327.399989574551,151.625
337.7442627077253,750.283
347.9241537664129,7.843
358.09885002992814,190.839
368.2683554736213,-313.707
378.5914504125685,598.658
388.7505051753542,109.798
398.90438108190574,120.254
409.0530820913264,258.808
419.196612158652,250.966
429.3349752349313,-313.707
439.626465572117,-274.494
449.75442592354375,-358.149
459.8772311743669,332.007
469.994885259468,496.703
480.1073921097559,15.685
490.2147556521086,91.498
500.31697980943136,410.434
510.41406850063504,360.763
520.5060256406359,-300.636
530.5928551403995,-211.752
540.6745609068894,122.869
550.7511468431039,-833.938
560.8226168481124,28.756
570.888974816975,235.28
580.9502246408374,303.25
590.8492821665859,96.726
600.9004070215597,-94.112
610.9464353206786,117.64
620.9873709393651,2.614
631.0232177491416,91.498
641.0539796175653,-60.127
650.9230482019848,363.377
660.9437310766662,-164.696
670.9593405290361,-44.442
680.9698804110958,-397.362
690.8190579752118,-342.464
700.8195493193562,-138.554
710.8149825658329,368.606
720.805361551138,130.711
730.6347081696804,122.869
740.6150689503047,133.326
750.4345613154874,36.599
760.404918953056,162.082
770.3702413346182,130.711
780.174941402227,133.326
790.1302832356378,18.3
799.925166080895,188.224
809.8705423523497,-345.078
819.6556227125038,52.285
829.5910483782136,436.576
839.3663409610526,-452.261
849.2918309472952,661.399
859.0573504311833,156.854
868.972919634427,5.228
878.7286806683987,318.936
888.6343439553166,525.46
898.3803611591502,-182.996
908.12155022542,598.658
918.0124213310264,7.843
927.743888384779,70.584
937.4705381077074,-57.513
947.3466501411676,185.61
957.0635996041163,99.341
966.7757425107702,-216.981
976.6371284824854,62.741
986.3395928168538,290.179
996.0372613373548,-146.397
1005.7301375988682,31.371
1015.5719657306544,333.258
1025.255192198514,619.443
1034.9336371072422,837.701
1044.6073039976543,935.801
1054.2761964070742,861.527
1063.9403178693246,562.642
1073.5996719147442,-13.071
1083.4074711432768,-525.46
1093.057225399156,86.269
1102.70222286418,-120.254
1112.3424670547538,439.19
1121.9779614837898,-271.88
1131.6087096607444,-13.071
1141.2347150916105,-368.606
1150.855981278939,261.423
1160.4725117218331,352.921
1170.0843099159465,18.3
1179.6913793534914,420.89
1189.293723523253,143.782
1198.739039559725,211.752
1208.3320185130287,31.371
1217.9202825891407,290.179
1227.5038352631818,339.849
1237.0826800068826,637.871
1246.6568202885535,232.666
1256.226259573108,-57.513
1265.639216696829,138.554
1275.1993388504195,352.921
1284.7547703264208,175.153
1294.3055145761757,-245.737
1303.7000868433097,-596.044
1313.241541245312,169.925
1322.778318700337,156.854
1332.310422646282,222.209
1341.686663866676,73.198
1351.2095051416618,125.483
1360.727683146746,473.175
1370.0902294598782,115.026
1379.5991650801443,-180.382
1388.9526223370776,230.052
1398.4523290278594,141.168
1407.7967104575073,230.052
1417.287201648047,-107.183
1426.7730533080105,10.457
1436.1038095471376,112.412
1445.5804658554116,-284.951
1454.9021792800197,-266.651
1464.369653600741,363.377
1473.6823373500883,308.479
1482.9905472474493,355.535
1492.444310209452,-60.127
1501.7435100404182,-1139.803
1511.1881242589734,88.884
1520.4783270994303,101.955
1529.764072276041,44.442
1539.1950247490097,78.427
1548.4717924494323,-373.834
1557.7441121511074,-169.925
1567.1614324998736,271.88
1576.4247941832873,135.94
1585.6837175051332,-36.599
1594.9382056544855,96.726
1604.3374199708342,-329.393
1613.5829759239496,-287.565
1622.8241063047317,0.0
1632.0608142900164,-149.011
1641.2931030535765,-73.198
1650.6697762525291,49.67
1659.8931649322622,-543.759
1669.1121439444323,-13.071
1678.3267164506542,-47.056
1687.53688560953,39.213
1696.7426545766284,156.854
1705.9440265045123,169.925
1715.1410045427183,-303.25
1724.3335918377925,-284.951
1733.5217915332687,232.666
1742.705606769683,392.134
1751.8850406845886,373.834
1761.0600964125188,-575.13
1770.230777085024,-394.748
1779.397085830693,786.882
1788.55902577511,52.285
1797.7166000408906,235.28
1806.8698117476447,-33.985
1816.0186640120735,-65.356
1825.163159947857,-407.819
1834.1559155330324,-444.419
1843.29177827917,-57.513
1852.4232939699289,162.082
1861.550465707216,-101.955
1870.673296589972,-28.756
1879.644751645923,-379.063
1888.758979994156,-65.356
1897.8688767172423,292.793
1906.974444902422,143.782
1915.9289277003045,384.291
1925.025917750907,75.813
1934.118588458099,149.011
1943.060390766601,-101.955
1952.144501554074,-198.681
1961.2243021666216,674.47
1970.153450902042,33.985
1979.224709758193,-117.64
1988.1454604369865,-703.227
1997.208189584475,44.442
2006.120554048888,371.22
2015.1747655127983,-758.126
2024.0787555828572,-5.228
2033.12446136566,193.453
2042.0200888391555,-334.621
2051.057300920809,15.685
2059.9445775734057,266.651
2068.9733079113576,201.295
2077.852245496608,26.142
2086.8725060258803,-243.123
2095.743116275291,130.711
2104.6096010526526,-20.914
2113.6172135316083,104.569
2122.4753884816528,70.584
2131.329446630596,149.011
2140.324437642892,363.377
2149.170203423979,36.599
2158.011861050589,133.326
2166.994257105456,339.849
2175.8276397748195,117.64
2184.656922912145,62.741
2193.48210937062,57.513
2202.303202000803,420.89
2211.2647105948345,-125.483
2220.077557114586,-256.194
2228.886318388424,211.752
2237.6909972563008,-279.722
2246.4915965555265,-164.696
2255.2881191208,-206.524
2264.0805677841927,-190.839
2272.8689453751285,541.145
2281.6532547204406,214.367
2290.5774032157133,-49.67
2299.353517963282,-481.018
2308.125572976198,-332.007
2316.893571070781,-121.005
2325.6575150607823,-6.813
2334.273835606975,32.05
2343.029746164546,17.068
2351.781610997117,-30.273
2360.5294329081007,-88.492
2369.273214698267,-136.104
2378.0129591658333,-151.625
2386.7486691064114,-86.269
2395.48034731306,36.106
2404.2079965762314,186.007
2412.788641914361,337.274
2421.5083075861257,463.756
2430.2239526247795,539.294
2438.9355798105607,537.731
2447.64319192111,432.911
2456.204142101211,198.681
2464.9037980916983,-52.285
2473.5994472792227,143.782
2482.148638712344,572.516
2490.836348166158,-39.213
2499.5200590665554,-62.741
2508.0575159626023,-326.778
2516.7333034706826,-175.153
2525.405100652257,20.914
2533.930847154741,-41.828
2542.5947372405863,-413.048
2551.112711590584,399.977
2559.768705390503,264.037
2568.2789182109263,-243.123
2576.927026515033,-167.31
2585.5711635713087,334.621
2594.069721988235,512.388
2602.5644435408976,-392.134
2611.196813145194,-695.384
2619.683804921093,-402.591
2628.3083212822166,-305.865
2636.7875938271245,-305.378
2645.404267656864,-355.956
2653.875831497382,-426.084
2662.343576738021,-484.254
2670.948539131641,-498.951
2679.408591378582,-438.665
2687.8648328054915,-271.88
2696.4581076233444,28.756
2704.906671724595,271.88
2713.351432764532,-546.373
2721.792393310454,-332.007
2730.370143142005,-188.224
2738.8034471581705,216.981
2747.232958411034,269.265
2755.658679458633,-156.854
2764.220946338093,-232.666
2772.639031576786,-279.722
2781.053334313052,332.007
2789.463857095703,-813.024
2797.8706024712737,-182.996
2806.2735729839987,-360.763
2814.672771175843,167.31
2823.0681995864725,5.228
2831.459860753297,-164.696
2839.847757211428,96.726
2848.231891493713,-44.442
2856.612266130724,-83.655
2864.988883650767,582.973
2873.3617465798743,-20.914
2881.7308574418275,-648.299
2890.096218758139,-932.356
2898.457833048058,-955.871
2906.815702828586,-801.629
2915.169830614461,-552.41
2923.5202189181878,-291.0
2931.8668702499926,-100.182
2940.209787117892,-62.741
2948.41001618022,-172.539
2956.7455337723804,-167.31
2965.077324369493,-94.112
2973.405390470638,269.265
2981.7297345726547,-250.966
2989.9117125592966,-389.52
2998.2286820744484,-94.112
3006.5419370261297,-41.828
3014.8514799023105,792.111
3023.0189130185245,-321.55
3031.3211009634906,-5.228
3039.619584242202,-582.973
3047.776149306213,-135.94
3056.067292329164,-209.138
3064.2166442633534,875.766
3072.500456765243,206.524
3080.780576892153,-41.828
3088.919096831967,-193.453
3097.1919010483834,-15.685
3105.3232317767324,-389.52
3113.588729774354,83.655
3121.712880813,96.726
3129.9710822664056,507.16
3138.0880631202745,-141.168
3146.338977686973,368.606
3154.448797844241,81.041
3162.692435164703,-590.815
3170.7951040967964,44.442
3178.894230970407,138.554
3187.127000956163,196.067
3195.218990740796,167.31
3203.3074454664093,52.285
3211.5293695924192,-546.373
3219.610701328027,360.763
3227.688504985643,7.843
3235.899604670318,-271.88
3243.9702993997853,386.906
3252.03747301393,394.748
3260.1011278165533,525.46
3268.297848330192,216.981
3276.354412870096,279.722
3284.407465536773,405.205
3292.4570086259846,-230.052
3300.5030444314834,154.239
3308.545575245,-460.104
3316.720827896272,230.052
3324.756296283769,122.869
3332.788266581294,-261.423
3340.816741072602,28.756
3348.8417220394404,-81.041
3356.8632117615925,-31.371
3364.8812125168406,-664.014
3372.895726580995,-135.94
3380.906756227865,81.041
3388.91430372934,739.826
3396.918371355256,-52.285
3404.9189613735507,-431.347
3412.9160760501472,36.599
3420.909717649003,-339.849
3428.8998884321263,224.823
3436.886590659553,292.793
3444.734546370892,-1218.23
3452.714376952972,355.535
3460.690745709508,23.528
3468.663654892749,60.127
3476.633106752961,386.906
3484.5991035384795,-49.67
3492.4267178764712,-156.854
3500.385869715596,-7.843
3508.341573175334,365.992
3516.293830496281,177.767
3524.1079469444667,237.895
3532.0533770164475,295.408
3539.9953676218797,107.183
3547.7993978646555,-771.197
3555.734574435446,-172.539
3563.666318194715,70.584
3571.460281747888,-277.108
3579.385224652753,-700.613
3587.30674138396,193.453
3595.090657713052,86.269
3603.00538673612,122.869
3610.782634691175,-245.737
3618.6905847266535,-478.403
3626.461172873067,-2.614
3634.362352626544,318.936
3642.1262895150494,509.774
3650.020707677235,-52.285
3657.778001843908,-28.756
3665.665667090652,62.741
3673.416327056992,101.955
3681.163701429177,-167.31
3689.041282322214,282.336
3696.782035212709,342.464
3704.6528847781447,622.186
3712.3870246721344,-112.412
3720.117889469839,-454.875
3727.845481251112,-350.306
3735.702951367959,169.925
3743.4239470074463,559.444
3751.141675895298,54.899
3758.989119491133,-219.595
3766.700264858686,-167.31
3774.408149723422,-240.509
3782.1127761528696,-120.254
3789.814146212797,-23.528
3797.644959575024,339.849
3805.339767031168,-496.703
3813.03132434014,606.501
3820.7196335607214,5.228
3828.404696749953,-428.733
3836.086515963114,431.347
3843.76509325378,-149.011
3851.4404306737633,-347.692
3859.112530273167,-211.752
3866.7813941003615,-593.429
3874.4470242019815,-360.763
3882.109422622947,47.056
3889.7685914064414,-96.726
3897.4245325939337,1354.169
3905.0772482251705,188.224
3912.7267403381848,216.981
3920.373010969284,67.97
3928.016062153074,-433.962
3935.655895922435,146.397
3943.292514308545,-41.828
3950.925919340858,-159.468
3958.424585178429,52.285
3966.051624900327,-271.88
3973.675457311714,230.052
3981.296084435249,-26.142
3988.913508291902,-15.685
3996.396478310664,222.209
4004.007556831755,190.839
4011.615438103967,177.459
4019.220124141517,252.015
4026.690583777876,374.237
4034.288940385857,503.861
4041.8841077570687,600.616
4049.3452186808136,624.238
4056.934068499933,534.452
4064.519735065173,290.997
4071.971514814119,-146.397
4079.550875675057,-423.505
4086.996462302253,248.352
4094.5695253181984,-216.981
4102.008926541021,169.925
4109.575699558212,708.455
4117.008923081237,-190.839
4124.569413932906,-209.138
4131.996467447912,23.685
4139.550683954272,211.703
4146.971575140262,344.62
4154.519525108568,412.133
4161.93426163181,403.95
4169.475952856366,309.77
4228.011654085007,119.298
4235.396210255021,-177.767
4242.907210725418,-245.737
4250.415076793586,768.583
4257.7904449892885,1667.195
4265.292102093408,2147.296
4272.790630641473,2281.556
4280.156827999919,2142.636
4287.649159161061,1803.205
4295.138367597785,1335.924
4302.4954112134365,813.462
4309.978433811593,308.479
4317.329402006981,-39.213
4324.8062464273535,0.0
4332.151146724958,7.843
4339.621820615692,-18.3
4346.960660525576,44.442
4354.425171522191,101.955
4361.757958542046,-52.285
4369.216314267462,407.819
4376.543055882612,-436.576
4383.9952639471885,-232.666
4391.315967630617,-133.326
4398.762035632179,326.778
4406.07670884455,-7.843
4413.516644368407,264.037
4420.825294558097,-138.554
4428.130962180556,-104.569
4435.561739780205,-60.127
4442.861395497304,-206.524
4450.1580741507205,-358.149
4457.579710724684,167.31
4464.870388562711,747.428
4472.158094827057,1182.592
4479.570607232323,1472.926
4486.852323743988,1618.553
4494.131074158497,1619.597
4501.534479210626,1476.177
4508.807250907994,1188.419
4516.077061971264,756.447
4523.3439142079005,180.382
4530.735219799091,-415.662
4537.996107969229,-507.16
4545.254042757973,-122.869
4552.509025966887,-567.287
4559.888261734326,-146.397
4567.13729547953,180.045
4574.383383072374,159.907
4581.626526308552,-93.31
4588.866726982291,-466.114
4596.103986886381,-845.012
4603.338307812148,-1116.505
4610.69653172473,-1167.104
4617.92492857972,-883.307
4625.150391852971,-151.625
4632.372923329975,609.115
4639.592524794789,57.513
4646.809198030001,133.326
4654.022944816745,-70.584
4661.233766934747,-109.798
4668.441666162253,36.599
4675.646644276094,250.966
4682.8487030516335,-193.453
4690.047844262837,-313.707
4697.244069682201,149.011
4704.437381080781,206.524
4711.627780228235,-373.834
4718.815268892759,240.509
4725.999848841122,-47.056
4733.181521838655,101.955
4740.3602896492885,478.403
4747.536154035501,-219.595
4754.583300303697,169.925
4761.753413983191,-413.048
4768.9206294863325,342.464
4776.084948569973,1112.418
4783.246372989488,1491.388
4790.404904498872,1561.234
4797.435032206777,1403.824
4804.5878338284165,1101.023
4811.73774776268,734.695
4818.884775757928,386.705
4826.028919561082,138.917
4833.044920461813,73.198
4840.183351639585,298.022
4847.3189038270575,491.475
4854.451578765569,-575.13
4861.456318765864,188.224
4868.58329482688,-101.955
4875.707398824052,28.756
4882.703723295803,120.254
4889.822138682386,386.906
4896.937687177771,559.444
4903.925611277555,209.138
4911.035481404608,630.029
4918.142489800703,169.925
4925.122028648751,-188.224
4932.223368894192,718.912
4939.197342363797,13.071
4946.293021236786,-86.269
4953.385846941688,-141.168
4960.35146024984,23.528
4967.43863475923,-433.962
4974.398699333346,345.078
4981.480229398396,-70.584
4988.43475186592,31.371
4995.510644227063,198.681
5002.459631204903,75.813
5009.529892591847,-7.843
5016.473350686378,345.078
5023.537987818112,115.026
5030.475923625207,-60.127
5037.534943210041,65.356
5044.467363315067,31.371
5051.397052412052,67.97
5058.447683028528,177.767
5065.371866252855,-384.291
5072.416896017057,164.696
5079.335579928018,143.782
5086.251540943114,-138.554
5093.288206657562,91.498
5100.198678149784,75.813
5107.106431592307,658.785
5114.134748143202,-26.142
5121.037021830118,269.265
5127.93658230202,109.798
5134.833431158368,28.756
5141.85065500065,-392.134
5148.742037069234,36.599
5155.630712341699,585.587
5162.516682412504,426.119
5169.522839786696,138.554
5176.403355996677,-81.041
5183.281171809234,384.291
5190.156288813778,164.696
5197.028708598496,-57.513
5204.021081907653,112.412
5210.888063918697,-363.377
5217.752353495271,334.621
5224.613952220541,661.399
5231.472861676462,-324.164
5238.329083443728,-175.153
5245.182619101804,-13.071
5252.033470228904,760.74
5258.881638402017,185.61
5265.727125196914,-193.453
5272.569932188097,130.711
5279.532181775125,203.91
5286.369586094326,57.513
5293.204315354014,606.501
5300.036371123795,122.869
5306.865754971979,41.828
5313.692468465706,381.677
5320.516513170878,248.352
5327.216103720151,452.261
5334.034863128356,-141.168
5340.850958410447,1296.656
5347.664391127459,533.302
5354.475162839211,-73.198
5361.283275104273,-666.628
5368.088729480027,39.213
5374.891527522632,201.295
5381.6916707870405,381.677
5388.489160826968,112.412
5395.162686039381,23.528
5401.954921596684,-250.966
5408.744508555763,-122.869
5415.531448465517,420.89
5422.31574287366,112.412
5428.976315601984,-716.298
5435.7553708175255,324.164
5442.531785139763,-222.209
5449.305560111599,-88.884
5456.076697274744,-112.412
5462.724355191152,415.662
5469.490268392445,601.272
5476.253548375513,227.438
5482.893493883399,-441.804
5489.651558992991,-67.97
5496.406995464167,227.438
5503.039241977291,305.865
5509.789472642318,441.804
5516.5370792381145,13.071
5523.161640139158,-57.513
5529.904049975114,185.61
5536.643840300443,-185.61
5543.260728941095,-99.341
5549.995331531944,23.528
5556.607128017575,1260.057
5563.336548861262,253.58
5569.943259067753,-596.044
5576.667504142417,-447.033
5583.269133936614,-180.382
5589.988209211173,15.685
5596.58476445092,373.834
5603.298675885118,60.127
5609.890162419251,-23.528
5616.598915963696,-117.64
5623.185339632037,355.535
5629.888941228186,1056.148
5636.470307861637,81.041
5643.16876344182,-188.224
5649.745078862296,5.228
5656.438394349752,54.899
5663.009664370256,-329.393
5669.578436568787,-112.412
5676.264076103718,-347.692
5682.827811578958,169.925
5689.3890535265455,386.906
5696.067030305661,635.257
5702.623244186747,-326.778
5709.176968824671,880.994
5715.847296014435,-128.097
5722.39600122282,36.599
5728.942221462719,70.584
5735.4859581482815,243.123
5742.146121627004,49.67
5748.684850350968,-94.112
5755.221099782248,517.617
5761.754871330697,-413.048
5768.404894310675,-462.718
5774.933669330552,-104.569
5781.459970716278,78.427
5787.983799873429,546.373
5794.505158206499,167.31
5801.142549523138,-86.269
5807.658925557145,198.681
5814.172834999641,101.955
5820.684279250832,2.614
5827.193259709879,-73.198
5833.699777774898,588.201
5840.203834842934,342.464
5846.7054323099655,65.356
5853.204571570954,-347.692
5859.701254019747,10.457
5866.195481049195,109.798
5872.687254051074,-125.483
5879.176574416102,844.395
5885.663443533944,355.535
5892.14786279323,2.614
5898.629833581537,-18.3
5905.109357285379,282.336
5911.586435290243,473.175
5918.061068980562,284.951
5924.533259739736,431.347
5931.003008950094,449.647
5937.470317992949,182.996
5943.935188248557,277.108
5950.397621096134,26.142
5956.857617913869,-39.213
5963.315180078898,49.67
5969.7703089673305,277.108
5976.105705888956,151.625
5982.556016527509,454.875
5989.003897986593,324.164
5995.449351638199,240.509
6001.8923788532775,-149.011
6008.215900781644,-282.336
6014.654123287393,227.438
6021.089923438405,193.453
6027.523302601519,-190.839
6033.954262142564,284.951
6040.265942433929,209.138
6046.692110755517,-381.677
6053.115863521547,-2.614
6059.420472023492,376.449
6065.839441620141,91.498
6072.255999718647,232.666
6078.553548309683,622.186
6084.965331270854,-65.356
6091.374706782226,321.55
6097.665207314269,-499.317
6104.06981570238,190.839
6110.472020679961,-211.752
6116.755484978421,601.272
6123.152930828903,666.628
6129.431725134898,-130.711
6135.824417162912,10.457
6142.098546680769,-198.681
6148.486490183052,326.778
6154.872039648391,28.756
6161.139160374798,235.28
6167.519969269015,180.382
6173.782438208022,-188.224
6180.158511808193,-159.468
6186.416334137088,-169.925
6192.787677712448,172.539
6199.040858600842,175.153
6205.291741972564,428.733
6211.656022022646,-73.198
6217.902271670246,41.828
6224.261834810408,-342.464
6230.503455884398,703.227
6236.742785809074,452.261
6243.095304999864,-533.302
6249.330014038809,509.774
6255.677829386121,415.662
6261.907922670827,467.947
6268.1357311500615,-177.767
6274.476522051649,-65.356
6280.699722436162,454.875
6286.920641805642,-316.321
6293.139281413962,-146.397
6299.470738832184,444.419
6305.684780516531,-104.569
6311.896546218988,81.041
6318.106037189755,-483.632
6324.428181717434,240.509
6330.633084905065,135.94
6336.835717129172,650.942
6343.036079636258,-449.647
6349.234173671932,258.808
6355.544716640681,162.082
6361.738235515753,240.509
6367.929489673777,543.759
6374.118480356665,-52.285
6380.305208805476,282.336
6386.489676260331,104.569
6392.671883960451,392.134
6398.851833144166,-60.127
6405.143905470883,284.951
6411.319299566196,162.082
6417.492438877496,219.595
6423.663324639478,-295.408
6429.831958085924,149.011
6435.998340449718,397.362
6442.162472962846,13.071
6448.324356856407,345.078
6454.483993360576,135.94
6460.641383704664,65.356
6466.79652911704,269.265
6472.949430825232,363.377
6479.100090055821,245.737
6485.248508034543,-172.539
6491.280888225534,347.692
6497.424868822251,83.655
6503.5666118162335,15.685
6509.706118429633,-190.839
6515.843389883739,303.25
6521.978427398899,-515.003
6528.111232194642,303.25
6534.241805489546,324.164
6540.256680928833,447.033
6546.382836142315,-107.183
6552.506763482961,373.834
6558.628464165849,-146.397
6564.747939405184,65.356
6570.751928194237,198.681
6576.866997341494,-39.213
6582.979844660076,-169.925
6589.090471360658,624.8
6595.0857801617385,-190.839
6601.192010321647,373.834
6607.296023467985,433.962
6613.39782080795,-530.688
6619.384468430493,311.093
6625.481878753591,41.828
6631.577076864334,-303.25
6637.5572509579,347.692
6643.64806916556,190.839
6649.623946782151,410.434
6655.71038980603,337.235
6661.794626582923,274.494
6667.764048126817,747.669
6673.843916808139,454.875
6679.809053455574,1236.529
6685.884558743659,-279.722
6691.957863728712,107.183
6697.916561697035,-133.326
6703.985510351609,-49.67
6709.939934962422,117.64
6716.004531971987,-245.737
6721.954687820689,-489.516
6728.014937863976,-477.094
6733.960829539363,-293.154
6739.904610751524,-22.385
6745.95836937274,250.529
6751.897893261092,440.902
6757.947316561804,464.046
6763.8825876987685,235.28
6769.927680334353,-23.528
6775.858703285812,481.018
6781.787623684751,230.052
6787.826249230238,216.981
6793.750928258974,219.595
6799.673508107371,517.617
6805.705676935038,303.25
6811.624022213946,295.408
6817.540271677499,214.367
6823.5659941374615,-290.179
6829.478015817709,-52.285
6835.387945040406,371.22
6841.407231460638,198.681
6847.312939671727,619.572
6853.216558775894,133.326
6859.118089881435,664.014
6865.017534095896,603.886
6871.026143398485,533.302
6876.921377827312,266.651
6882.814528703813,648.328
6888.705597132364,350.306
6894.594584216582,209.138
6900.592544785228,5.228
6906.477333270021,-332.007
6912.360043737404,637.871
6918.240677287846,180.382
6924.119235021055,-91.498
6929.995718035963,196.067
6935.870127430717,329.393
6941.742464302697,162.082
6947.6127297485,203.91
6953.480924863958,384.291
6959.347050744116,-499.317
6965.21110848328,-737.212
6971.073099174937,337.235
6976.93302391185,-149.011
6982.79088378598,-125.483
6988.64667988853,460.104
6994.500413309928,-386.906
7000.35208513985,128.097
7006.201696467178,420.89
7012.049248380063,405.205
7017.894741965851,-522.845
7023.738178311156,86.269
7029.579558501813,39.213
7035.418883622879,-78.427
7041.2561547586665,402.591
7047.091372992727,384.291
7052.924539407839,214.367
7058.645653010426,128.097
7064.474757695687,577.744
7070.301813785409,149.011
7076.126822359336,656.171
7081.949784496486,214.367
7087.660891581778,298.022
7093.479802640664,138.554
7099.296670474898,321.55
7105.111496160462,167.31
7110.814624476749,-104.569
7116.625407570507,96.726
7122.434151718757,185.61
7128.2408579944895,671.856
7133.936024250346,104.569
7139.73869639702,287.565
7145.53933386541,266.651
7151.22854892195,373.834
7157.025158582874,216.981
7162.819736753059,590.815
7168.503009933542,-256.194
7174.293566604632,763.354
7180.082094965896,172.539
7185.759435574095,290.179
7191.54394873148,256.194
7197.2173519438,470.561
7202.997854073568,86.269
7208.667323984642,198.681
7214.443819257263,-5.228
7220.109359956041,426.119
7225.881852536215,36.599
7231.54346810597,-62.022
7237.311962152613,205.931
7242.969656670975,657.12
7248.734156337254,1108.205
7254.387933876205,1375.843
7260.148443309525,1276.694
7265.798307935409,627.414
7271.554831277448,-256.194
7277.20078705097,122.869
7282.953328437674,499.317
7288.59537941395,-83.655
7294.235498085545,588.201
7299.982093204053,585.587
7305.618313131272,329.393
7311.252603748333,355.535
7316.993261813666,266.651
7322.623659726734,96.726
7328.252131317968,154.239
7333.9868615261075,193.453
7339.611446441268,891.451
7345.234108016753,-128.097
7350.962919544712,507.16
7356.581700459581,-65.356
7362.198561010817,-425.5
7367.813502182726,-398.541
7373.426524958988,-121.114
7379.145517410223,270.154
7384.7546694986595,638.64
7390.361906157261,847.71
7395.967228366993,760.74
7401.570637108154,554.216
7407.279835705631,956.807
7412.879383697611,209.138
7418.477021176703,206.524
7424.072749120482,441.804
7429.666568505905,138.554
7435.258480309247,-33.985
7440.848485506111,397.362
7446.436585071431,-818.253
7452.022779979503,499.317
7457.607071203925,-300.636
7463.296794702215,355.535
7468.877244915177,465.332
7474.455794380043,682.313
7480.032444067743,371.22
7485.607194948596,567.287
7491.18004799222,94.112
7496.751004167574,-104.569
7502.2129850032,-109.798
7507.7801867781745,606.501
7513.345494569261,423.505
7518.908909342786,107.183
7524.470432064445,535.916
7530.03006369928,57.513
7535.587805211653,588.201
7541.1436575652915,609.115
7546.697621723266,454.875
7552.249698647978,379.063
7557.693172648,457.49
7563.241514237732,224.823
7568.787971459049,198.681
7574.332545271769,185.61
7579.87523663506,237.895
7585.416046507413,428.733
7590.848475703144,18.3
7596.385561603231,705.841
7601.920768865631,298.022
7607.454098446255,598.658
7612.879194899509,182.996
7618.4088080453,78.427
7623.936546354853,203.91
7629.462410781522,216.981
7634.880189328982,190.839
7640.402344837916,339.849
7645.9226293018255,527.002
7651.334937948188,691.026
7656.851519109852,814.274
7662.260197498763,879.104
7667.773079083498,867.866
7673.284094334183,762.917
7678.687316594296,546.609
7684.194637864675,201.295
7689.7000956236625,-47.056
7695.097870006797,483.632
7700.599639370841,645.714
7705.993798107356,143.782
7711.491882781789,321.55
7716.882429503323,250.966
7722.376833188511,734.598
7727.763771521855,300.636
7733.254497913214,439.19
7738.637831480286,54.899
7744.124884268305,300.636
7749.504616686187,447.033
7754.987999556393,-65.356
7760.364134437317,271.88
7765.738489349154,83.655
7771.216392021717,-107.183
7776.587154788423,206.524
7782.061396717661,104.569
7787.428570939446,62.741
7792.793969640064,711.07
7798.262745065967,164.696
7803.624560595526,520.231
7808.984603262106,745.055
7814.447920368751,1037.848
7819.804385227417,703.227
7825.159079875983,439.19
7830.616946831127,13.071
7835.968069024231,402.591
7841.317423654822,431.347
7846.665011598543,318.936
7852.115636126822,18.3
7857.459658723532,222.209
7862.801917273948,318.936
7868.142412651388,-41.828
7873.481145728587,-70.584
7878.922746278997,648.328
7884.257922859626,-2.614
7889.59133977185,841.781
7894.922997886111,522.845
7900.252898072242,96.726
7905.581041199541,569.901
7910.907428136696,201.295
7916.336446752692,627.414
7921.65928952102,520.231
7926.980378718883,258.808
7932.29971521271,65.356
7937.617299868325,125.483
7942.933133550996,196.067
7948.247217125423,156.854
7953.559551455743,690.156
7958.870137405502,365.992
7964.178975837705,556.83
7969.486067614758,504.546
7974.791413598527,423.505
7980.0950146503055,339.849
7985.396871630804,399.977
7990.696985400187,640.486
7995.995356818043,494.089
8001.291986743403,-433.962
8006.586876034729,760.74
8011.880025549901,478.403
8017.067699705829,431.347
8022.357406311574,734.598
8027.645375694708,407.819
8032.931608710882,922.822
8038.216106215201,543.759
8043.498869062179,26.142
8048.779898105804,243.123
8053.955695240969,413.048
8059.233293192043,159.468
8064.509159881611,1150.26
8069.783296161415,78.427
8074.952338977277,716.298
8080.223050878609,619.572
8085.492034905405,193.453
8090.759291907168,598.658
8095.921593616502,261.423
8101.185432936367,457.49
8106.447547759821,431.347
8111.604810570996,360.763
8116.863512715307,564.673
8122.120492886879,287.565
8127.272724173963,473.175
8132.526296659391,368.606
8137.778149690843,112.412
8142.925356813517,112.412
8148.173807142077,-83.655
8153.4205405305,261.423
8158.562730834117,112.412
8163.806066493191,295.408
8168.944927307508,664.014
8174.184868536668,1158.102
8179.32040309432,96.726
8184.55695318873,54.899
8189.689164718173,125.483
8194.922326968728,371.22
8200.051218694258,1199.93
8205.280996387602,512.388
8210.406571529322,700.613
8215.632967947844,62.741
8220.7552297217,399.977
8225.978248143558,-258.808
8231.097199761349,253.58
8236.316843460441,-334.621
8241.43248812982,486.246
8246.546496881761,-2.614
8251.76110130029,399.977
8256.871807891675,394.748
8261.98088093357,541.145
8267.190453365733,203.91
8272.296229025691,141.168
8277.400373499535,70.584
8282.604921225458,39.213
8287.705773086778,363.377
8292.804996120794,332.007
8298.004526406577,156.854
8303.100461588281,156.854
8308.194770296956,164.696
8313.28745331115,-256.194
8318.48031600209,0.0
8323.569717486189,661.399
8328.657495624051,637.871
8333.743651192239,462.718
8338.828184966831,392.134
8344.012739449463,201.295
8349.093999566121,640.486
8354.17364022991,643.1
8359.251662214898,313.707
8364.328066294685,426.119
8369.402853242376,175.153
8374.476023830553,494.089
8379.547578831349,138.554
8384.718901354245,635.257
8389.787195221597,258.808
8394.853875830348,481.018
8399.91894395064,-324.164
8404.98240035212,52.285
8410.044245803958,292.793
8415.104481074803,352.921
8420.163106932847,716.298
8425.220124145773,206.524
8430.275533480788,690.156
8435.32933570461,376.449
8440.381531583458,277.108
8445.432121883085,410.434
8450.48110736873,533.302
8455.528488805172,-507.16
8460.473367100913,47.056
8465.51757477424,88.884
8470.560180674485,216.981
8475.601185564497,13.071
8480.64059020661,180.382
8485.67839536271,365.992
8490.714601794163,261.423
8495.749210261878,433.962
8500.681576948675,797.339
8505.713023691114,-115.026
8510.742874734438,415.662
8515.771130837642,630.029
8520.797792759218,332.007
8525.722375497866,415.662
8530.745883175656,551.602
8535.7677989293,-81.041
8540.788123515384,-628.5
8545.706498587671,-875.802
8550.723674892208,-889.963
8555.739262280982,-737.998
8560.652997083213,-486.921
8565.665440644778,-203.745
8570.676297538128,44.513
8575.585398634048,190.839
8580.593116146138,211.752
8585.599249233324,258.808
8590.503723174297,530.688
8595.506721317797,423.505
8600.508137275468,300.636
8605.40799060051,619.572
8610.406276043708,813.024
8615.303062904772,820.867
8620.298220771765,789.496
8625.191944046568,-188.224
8630.18397727198,436.576
8635.074639834631,75.813
8640.063551349394,256.194
8644.951156070434,240.509
8649.936948801806,-78.427
8654.821498548154,277.108
8659.804175419777,556.83
8664.685673054784,308.479
8669.665236986599,1040.462
8674.543685370048,-130.711
8679.520139278378,83.655
8684.395541266465,420.89
8689.2694364983,261.423
8694.241246509358,522.845
8699.112099609058,1082.29
8703.981448060618,261.423
8708.948620671701,982.949
8713.81493124642,515.003
8718.779005433622,386.906
8723.642280973501,473.175
8728.504055374753,125.483
8733.364329332315,708.455
8738.32224658698,564.673
8743.179491154478,507.16
8748.035237374625,695.384
8752.889485940628,279.722
8757.8412577103,381.677
8762.692482517024,653.557
8767.542211760752,-33.985
8772.39044613298,287.565
8777.336083836857,91.498
8782.18130006664,196.067
8787.02502351089,180.382
8791.867254859393,640.486
8796.707994801498,305.865
8801.547244026118,2078.31
8806.385003221756,-543.759
8811.319956958603,-2195.95
8816.154707786565,-167.31
8820.987970662514,-120.254
8825.819746273257,899.294
8830.650035305174,360.763
8835.478838444196,28.756
8840.306156375878,426.119
8845.131989785303,-392.134
8849.956339357173,99.341
8854.779205775758,1011.706
8859.60058972489,326.778
8864.420491888006,334.621
8869.238912948098,483.632
8874.055853587757,1016.934
8878.871314489159,575.13
8883.685296334032,632.643
8888.497799803714,-78.427
8893.308825579123,831.324
8898.118374340735,274.494
8902.926446768637,311.093
8907.634964476681,697.998
8912.440116370435,342.464
8917.243793954342,538.531
8922.045997906822,292.793
8926.846728905857,436.576
8931.645987629043,311.093
8936.443774753548,664.014
8941.142221650607,-167.31
8945.937097605834,-94.112
8950.73050397759,44.442
8955.522441441404,363.377
8960.215160665939,546.373
8965.004192282166,548.988
8969.791757000756,601.272
8974.577855495572,117.64
8979.26485751475,342.464
8984.048055470721,33.985
8988.829789208343,318.936
8993.51251749025,708.455
8998.291354655303,815.639
9003.068729603765,794.725
9007.747189991118,-298.022
9012.521672326067,454.875
9017.294694442531,70.584
9021.968892767374,841.781
9026.739026222178,214.367
9031.41039612206,4488.627
9036.17764353675,261.423
9040.943434050514,781.654
9045.610551571128,426.119
9050.373459984672,601.272
9055.037755503963,381.677
9059.797784430888,224.823
9064.45926050758,624.8
9069.216412558366,99.341
9073.87507174812,209.138
9078.629349530078,23.528
9083.285194385431,606.501
9088.036600502714,332.007
9092.689633573158,350.306
9097.438170626783,156.854
9102.088394458704,588.201
9106.73722909284,935.893
9111.481482183284,556.83
9116.12751137963,695.384
9120.868901881862,358.149
9125.512128179163,389.52
9130.153968412898,619.572
9134.891084617178,347.692
9139.53012574118,172.539
9144.167782675046,295.408
9148.9006303586,614.343
9153.535491965213,138.554
9158.168971251744,313.707
9162.801068836525,196.067
9167.528243916331,792.111
9172.157551197888,692.77
9176.785478643267,368.606
9181.412026869286,128.097
9186.13353953768,564.673
9190.757302472506,478.403
9195.37968804908,308.479
9200.000696882766,836.552
9204.620329588544,569.901
9209.334785850184,569.901
9213.951639506451,645.714
9218.567118890363,54.899
9223.181224615444,428.733
9227.79395729483,44.442
9232.40531754132,684.927
9237.015305967328,457.49
9241.623923184923,250.966
9246.23116980579,548.988
9250.932987640888,-763.354
9255.537466379788,-2011.391
9260.140576367572,-2705.233
9264.742318214474,-2923.568
9269.342692530376,-2745.077
9273.941699924766,-2248.452
9278.539341006806,-1512.377
9283.135616385269,-615.537
9287.730526668583,363.377
9292.324072464791,993.406
9296.91625438162,269.265
9301.411444872112,172.539
9306.00092923447,721.527
9310.589051525738,248.352
9315.175812352172,933.279
9319.761212319692,151.625
9324.345252033823,347.692
9328.927932099774,379.063
9333.509253122353,99.341
9338.08921570604,167.31
9342.572446701386,151.625
9347.149722488744,-575.13
9351.7256416359,486.246
9356.300204745894,227.438
9360.873412421412,436.576
9365.350032145325,342.464
9369.920558965528,980.335
9374.489732144635,515.003
9379.05755228394,316.321
9383.528899030936,426.119
9388.09404305015,580.358
9392.657835818722,287.565
9397.125240831178,198.681
9401.6863610176,379.063
9406.246131739394,214.367
9410.80455359534,358.149
9415.266701898625,-122.869
9419.822455888205,711.07
9424.281993052333,-60.127
9428.835081516963,598.658
9433.38682407955,407.819
9437.84243511156,475.789
9442.391515668474,509.774
9446.84452129656,630.029
9451.390942182352,47.056
9455.93602012123,-10.457
9460.385108237591,413.048
9464.927530014324,104.569
9469.374018445214,734.598
9473.913786387537,799.953
9478.35767741084,295.408
9482.894793843763,692.77
9487.33608973474,67.97
9491.87055698055,907.137
9496.30926001177,567.287
9500.74668109923,522.845
9505.277192831463,88.884
9509.71202445114,332.007
9514.23989277796,405.205
9518.672137195834,1163.331
9523.103102466685,104.569
9527.62702390948,138.554
9532.05540536064,750.283
9536.57668916292,274.494
9541.002489053764,588.201
9545.42701258622,-407.819
9549.850260312329,91.498
9554.36630345335,130.711
9558.78697410632,107.183
9563.206370618926,269.265
9567.718482324255,253.58
9572.13530512818,616.957
9576.550855454823,329.393
9580.965133854,30.255
9585.47202083257,-94.705
9589.883729992052,-91.987
9594.294168883298,-8.096
9598.703338054846,110.465
9603.111238054931,217.193
9607.611613766734,265.585
9612.016950092931,209.138
9616.421018902103,133.326
9620.823820741218,379.063
9625.225356156909,329.393
9629.625625695517,575.13
9634.02462990307,637.871
9638.422369325252,292.793
9642.81884450748,-159.468
9647.21405599481,185.61
9651.701478874824,606.501
9656.094137748323,426.119
9660.485534571855,517.617
9664.875669889248,410.434
9669.264544244,224.823
9673.65215817932,656.171
9678.03851223808,73.198
9682.423606962846,355.535
9686.807442895892,177.767
9691.19002057915,870.537
9695.478134071804,332.007
9699.858223622705,512.388
9704.23705653629,420.89
9708.614633353289,622.186
9712.990954614088,470.561
9717.36602085878,483.632
9721.739832627154,26.142
9726.112390458671,36.599
9730.483694892511,439.19
9734.760779687776,528.074
9739.129605581998,580.358
9743.497179682729,533.302
9747.863502527893,298.022
9752.228574655115,198.681
9756.499562339395,-101.955
9760.862161224974,925.436
9765.223510992222,384.291
9769.583612177565,2.614
9773.849736751828,169.925
9778.207368918504,39.213
9782.563754099236,224.823
9786.918892829211,454.875
9791.18016259473,-227.438
9795.532836519418,169.925
9799.884265585692,-7.843
9804.14190615754,935.893
9808.490873566669,-499.317
9812.83859770701,219.595
9817.09261371952,399.977
9821.437879345483,810.41
9825.689490172908,180.382
9830.032299369228,360.763
9834.373867936378,261.423
9838.621861899856,1275.743
9842.960977171238,216.981
9847.206571054325,371.22
9851.543235108787,533.302
9855.786430944943,-232.666
9860.12064585897,616.957
9864.361445679362,418.276
9868.693213527116,852.238
9872.931619360628,49.67
9877.26094221391,107.183
9881.49695608711,1037.848
9885.823836015392,321.55
9890.057459952584,282.336
9894.289902518456,402.591
9898.613135046206,946.35
9902.843190697367,810.41
9907.163985452502,143.782
9911.391656207565,156.854
9915.61814808206,567.287
9919.935303126713,355.535
9924.15941311792,196.067
9928.38234571751,522.845
9932.695865648708,441.804
9936.91641937277,799.953
9941.135797191648,232.666
9945.445686598703,-75.813
9949.662688544726,-130.711
9953.878516069532,172.539
9958.09316966365,627.414
9962.398234183594,13.071
9966.61051589339,279.722
9970.821625153134,318.936
9975.031562452265,460.104
9979.240328279942,230.052
9983.53937957713,274.494
9987.745778488254,535.916
9991.95100740443,729.369
9996.155066813732,-33.985
10000.357957203963,78.427
10004.55967906266,619.572
10008.760232877092,94.112
10013.050897176752,543.759
10017.249090997648,538.531
10021.446118245014,75.813
10025.641979405023,575.13
10029.83667496358,227.438
10034.03020540632,266.651
10038.222571218605,486.246
10042.413772885537,677.085
10046.603810891938,494.089
10050.79268572236,227.438
10054.980397861098,164.696
10059.16694779218,303.25
10063.352335999334,109.798
10067.536562966066,462.718
10071.719629175575,337.235
10075.90153511081,-49.67
10080.082281254454,352.921
10084.26186808891,321.55
10088.440296096323,180.382
10092.52676786215,13.071
10096.702904826674,36.599
10100.877884398516,201.295
10105.051707058765,1145.031
10109.224373288234,1134.574
10113.395883567471,350.306
10117.475590772649,598.658
10121.64481569536,603.886
10125.812886097472,462.718
10129.979802458443,548.988
10134.145565257517,96.726
10138.219652237512,797.339
10142.383134400929,990.792
10146.545464428116,582.973
10150.706642797257,661.399
10154.776246850048,193.453
10158.935148346747,206.524
10163.092899607942,151.625
10167.159152430871,277.108
10171.314629631466,402.591
10175.468958016776,156.854
10179.531863747628,509.774
10183.683920879565,216.981
10187.834830614069,185.61
10191.894393383842,836.552
10196.043034667582,-107.183
10200.190529969435,-31.371
10204.246753902304,627.414
10208.391983551395,188.224
10212.44599199288,444.419
10216.588957845182,669.242
10220.640752609928,224.823
10224.781456519388,44.442
10228.831039420063,277.108
10232.969483238625,643.1
10237.016856085897,457.49
10241.15304166346,504.546
10245.19820626604,350.306
10249.332135450502,528.074
10253.375093615126,784.268
10257.506768252357,117.64
10261.547521783785,376.449
10265.58718577827,794.725
10269.715494418666,316.321
10273.752956473523,515.003
10277.87901516247,711.051
10281.91427707755,796.555
10285.948451675904,806.546
10290.0711512271,776.061
10294.10312837192,740.138
10298.13401952729,733.808
10302.253364041218,792.111
10306.282060424935,883.609
10310.309672144327,716.298
10314.425665714796,-47.056
10318.451085340042,546.373
10322.475421623927,371.22
10326.498675003731,240.509
10330.610215200984,172.539
10334.631280043344,350.306
10338.651263301725,-78.427
10342.670165412448,648.328
10346.687986811625,622.186
10350.704727935088,284.951
10354.80961387438,-83.655
10358.824171771252,188.224
10362.837650708272,389.52
10366.850051120337,298.022
10370.86137344214,203.91
10374.871618108127,575.13
10378.880785552512,752.897
10382.888876209276,256.194
10386.984923052532,339.849
10390.990837530662,-190.839
10394.995676531347,305.865
10398.999440487634,81.041
10403.00212983234,596.044
10407.003744998048,650.942
10411.004286417105,67.97
10415.003754521616,-146.397
10419.002149743475,75.813
10422.999472514348,528.074
10426.995723265634,358.149
10430.990902428544,394.748
10434.985010434026,332.007
10438.889325180557,235.28
10442.881315942828,554.216
10446.872236829608,530.688
10450.86208827093,135.94
10454.85087069661,222.209
10458.838584536235,826.096
10462.82523021915,313.707
10466.810808174472,674.47
10470.706785742112,13.071
10474.690253232264,292.793
10478.672654271297,402.591
10482.653989287404,449.647
10486.634258708573,653.557
10490.525047770485,39.213
10494.50321094102,504.546
10498.480309789697,60.127
10502.45634474356,298.022
10506.342995080442,530.688
10510.316927143493,135.94
10514.2897965821,-2.614
10518.261603822417,1058.762
10522.144122034457,499.317
10526.113829736623,31.371
10530.082476508169,410.434
10533.961905709137,810.41
10537.92845544769,347.692
10541.89394552126,376.449
10545.770289396216,342.464
10549.733684937964,786.882
10553.607981637546,264.037
10557.569284306495,339.849
10561.52952941227,392.134
10565.400746905443,525.46
10569.35890163298,65.356
10573.22807600992,739.826
10577.184142013864,551.602
10581.05127489159,44.442
10585.005253824836,23.528
10588.87034681866,784.268
10592.822240332363,203.91
10596.685295055897,491.475
10600.635104799476,462.718
10604.496122864624,-436.576
10608.443850485746,619.572
10612.302833502728,245.737
10616.160811022752,96.726
10620.10543022464,-182.996
10623.9613750996,305.865
10627.903916281392,122.869
10631.757830117263,172.539
10635.61074043666,405.205
10639.550179321655,143.782
10643.401060998756,-360.763
10647.250940343372,117.64
10651.187280591832,695.384
10655.035133687184,198.681
10658.881985632182,1027.391
10662.815230898605,250.966
10666.660058983602,588.201
10670.50388709854,360.763
10674.346715633475,266.651
10678.275847672114,-7.843
10682.116655520924,156.854
10685.956464967534,-224.823
10689.795276401208,530.688
10693.633090210977,18.3
10697.557095575656,318.936
10701.39289265285,269.265
10705.227693280882,240.509
10709.061497847986,345.078
10712.894306742182,376.449
10716.726120351308,94.112
10720.55693906298,2.614
10724.386763264632,324.164
10728.302600658342,141.168
10732.130414421008,18.3
10735.957234843503,26.142
10739.783062312445,473.175
10743.60789721425,198.681
10747.431739935131,269.265
10751.254590861114,224.823
10755.076450378,196.067
10758.897318871408,2.614
10762.717196726757,-138.554
10766.536084329256,67.97
10770.353982063916,-94.112
10774.170890315563,-376.449
10777.98680946881,376.449
10781.801739908076,67.97
10785.615682017564,141.168
10789.341989100834,33.985
10793.153978142976,-109.798
10796.964979998098,196.067
10800.774995049622,-742.44
10804.58402368077,504.546
10808.392066274577,154.239
10812.199123213884,324.164
10816.005194881312,31.371
10819.723813349112,143.782
10823.52793799081,-538.531
10827.331078498672,643.1
10831.133235254529,813.024
10834.848029253728,-141.168
10838.64824198676,496.703
10842.447472103491,190.839
10846.24571998498,-277.108
10849.956695412544,28.756
10853.753002267928,-115.026
10857.548328021428,334.621
10861.342673053316,271.88
10865.049835794096,737.212
10868.842242790466,-209.138
10872.63367019626,261.423
10876.337982712816,316.321
10880.12747431772,243.123
10883.82989575329,91.498
10887.617453039476,535.916
10891.404032613404,-303.25
10895.103609289945,405.205
10898.88825677408,831.324
10902.585945994537,368.606
10906.368662867266,44.442
10910.150403901262,326.778
10913.845253813895,211.752
10917.62506645972,-28.756
10921.318032531915,-413.048
10925.095918264182,439.19
10928.787001936307,413.048
10932.562962228116,355.535
10936.252164939066,28.756
10939.940438510435,501.931
10943.713524449233,-298.022
10947.399919206764,277.108
10951.171083372872,44.442
10954.855600751816,-410.434
10958.62484461311,666.628
10962.307486047235,-624.8
10965.989200819247,-250.966
10969.755577991731,350.306
10973.435418958636,15.685
10977.114334320191,-130.711
10980.877848072992,177.767
10984.554891765896,203.91
10988.231010908596,172.539
10991.991664505884,-138.554
10995.665914113146,201.295
10999.33924022374,-216.981
11003.011643185791,-190.839
11006.768495629847,264.037
11010.439031890255,203.91
11014.108646053544,-216.981
11017.777338467138,83.655
11021.530395518184,569.901
11025.197224058184,7.843
11028.863131897786,399.977
11032.528119383707,-54.899
11036.192186862492,219.595
11039.855334680517,426.119
11043.602720353196,159.468
11047.264008520897,379.063
11050.924378073953,-245.737
11054.58382935806,373.834
11058.242362718707,162.082
11061.899978501227,209.138
11065.556677050785,135.94
11069.21245871235,57.513
11072.867323830738,-33.985
11076.521272750586,201.295
11080.174305816368,-120.254
11083.826423372368,470.561
11087.477625762698,1435.21
11091.127913331318,-39.213
11094.777286422,368.606
11098.425745378345,227.438
11102.073290543767,-94.112
11105.719922261547,88.884
11109.36564087477,-188.224
11113.010446726335,-203.91
11116.654340159006,-31.371
11120.29732151534,232.666
11123.93939113774,20.914
11127.580549368427,420.89
11131.22079654947,65.356
11134.77550763161,83.655
11138.413954906267,107.183
11142.051492148485,185.61
11145.688119699626,252.433
11149.323837900913,290.033
11152.958647093375,293.021
11156.508048620988,256.004
11160.141061938251,173.588
11163.773167260852,40.379
11167.40436492916,-149.011
11170.950240228543,-180.382
11174.579644697213,418.276
11178.208142523734,-143.782
11181.751381744987,321.55
11185.378088371155,133.326
11189.003889365817,-175.153
11192.628785068173,-10.457
11196.16850723805,115.026
11199.79161440632,-65.356
11203.413817290922,245.737
11206.950910239968,193.453
11210.571326582844,-10.457
11214.10667518314,159.468
11217.725306305692,287.565
11221.343034819707,-407.819
11224.875759069631,365.992
11228.49170435076,-426.119
11232.022687482247,352.921
11235.636850848638,10.457
11239.166094148528,-436.576
11242.778476917028,216.981
11246.305981670925,695.384
11249.91658515709,635.257
11253.442352649325,-49.67
11257.05117816741,20.914
11260.575209681025,473.175
11264.182258544,-26.142
11267.704555360804,41.828
11271.309828880325,554.216
11274.83039228086,765.968
11278.350099642112,164.696
11281.952723030843,26.142
11285.470698886753,-496.703
11288.987819646914,379.063
11292.587795825824,-39.213
11296.103186988752,264.037
11299.70139304264,10.457
11303.215055883851,224.823
11306.727865201254,277.108
11310.23982130582,258.808
11313.834511810855,284.951
11317.34474212601,-169.925
11320.8541201677,653.557
11324.446172200132,209.138
11327.953826352135,60.127
11331.460629168672,-214.367
11334.96658095964,-454.875
11338.471682034791,73.198
11342.059356881087,36.599
11345.562737216636,-190.839
11349.06526777208,517.617
11352.566948856567,219.595
11356.067780779093,224.823
11359.56776384851,149.011
11363.1502007606,284.951
11366.648466857394,287.565
11370.145885034064,399.977
11373.642455598843,-415.662
11377.138178859836,101.955
11380.633055125,13.071
11384.1270847021,-23.528
11387.620267898808,104.569
11391.112605022612,-10.457
11394.60409638087,1756.76
11398.094742280777,-120.254
11401.584543029392,230.052
11405.073498933603,-258.808
11408.561610300185,449.647
11412.048877435727,237.895
11415.5353006467,373.834
11419.020880239405,347.692
11422.505616520008,-112.412
11425.989509794525,418.276
11429.472560368817,-10.457
11432.954768548592,-237.895
11436.43613463944,-384.291
11439.916658946764,-329.393
11443.313501961433,180.382
11446.79236364179,169.925
11450.270384446749,180.382
11453.74756468115,-107.183
11457.22390464968,206.524
11460.699404656869,81.041
11464.091344754375,-20.914
11467.565185732994,26.142
11471.038187655771,-295.408
11474.51035082668,47.056
11477.981675549512,-332.007
11481.369541233144,-39.213
11484.839209915755,-376.449
11488.30804105362,543.759
11491.693473394258,-154.239
11495.16065027576,117.64
11498.626990514544,-99.341
11502.092494413417,198.681
11505.474679896604,-426.119
11508.938531918346,196.067
11512.401548500471,169.925
11515.78130675673,54.899
11519.242673239612,-20.914
11522.620821260369,156.854
11526.080538823127,101.955
11529.5394224415,159.468
11532.915147579475,-386.906
11536.372384051368,-444.419
11539.74650183491,-156.854
11543.202092336618,96.726
11546.574603913472,-31.371
11550.028549620163,264.037
11553.399456136987,151.625
11556.85175822272,120.254
11560.221060825072,355.535
11563.67172046279,-449.647
11567.039420295116,206.524
11570.488438656655,60.127
11573.854536862347,188.224
11577.301915118398,44.442
11580.666412839755,-177.767
11584.030120381583,504.546
11587.475050538147,517.617
11590.837159300165,-188.224
11594.280452266124,-41.828
11597.64096338792,78.427
11601.000685734118,182.996
11604.441534950183,232.666
11607.79966135666,224.823
11611.156999826935,230.052
11614.59540789372,78.427
11617.951152122365,-585.587
11621.306109253032,128.097
11624.66027956261,-449.647
11628.09544335218,264.037
11631.44802167594,-245.737
11634.799814015252,-130.711
11638.15082064648,-13.071
11641.58274474832,-52.285
11644.932161645294,-266.651
11648.280793669244,70.584
11651.62864109602,611.729
11654.975704201344,-423.505
11658.403590030808,-507.16
11661.749066206958,-243.123
11665.093758894744,-230.052
11668.43766836938,1351.555
11671.780794905935,389.52
11675.12313877933,-413.048
11678.4647002644,-292.793
11681.805479635816,237.895
11685.145477168146,-33.985
11688.484693135812,101.955
11691.904543291126,533.302
11695.24217790648,243.123
11698.579031786354,-15.685
11701.915105204676,182.996
11705.25039843522,-201.295
11708.584911751648,-679.699
11711.918645427471,54.899
11715.251599736104,-91.498
11718.502511651865,125.483
11721.83392703817,81.041
11725.164563870054,112.412
11728.4944224204,49.67
11731.823502961994,-57.513
11735.15180576744,-318.936
11738.479331109273,-376.449
11741.806079259855,277.108
11745.132050491462,465.332
11748.457245076206,190.839
11751.70058915004,342.464
11755.024250183047,-70.584
11758.34713537819,-47.056
11761.669245007088,162.082
11764.990579341233,718.912
11768.230158619372,-538.531
11771.549962071174,146.397
11774.86899103535,598.658
11778.187245782876,-182.996
11781.423821624776,407.819
11784.740547618409,-313.707
11788.05650020102,371.22
11791.371679643096,-287.565
11794.605256223578,-52.285
11797.91890903626,91.498
11801.231789512534,-109.798
11804.46312397414,10.457
11807.774479408556,473.175
11811.085063309589,-31.371
11814.314157983485,258.808
11817.623218427994,739.826
11820.850827315822,345.078
11824.158365355152,538.531
11827.4651331948,-151.625
11830.690506166697,-203.91
11833.995753182851,-70.584
11837.219642936305,0.0
11840.52337017791,135.94
11843.745777735792,330.707
11847.047986250807,553.918
11850.26891263506,777.808
11853.569603470474,974.608
11856.789049702087,1116.547
11860.088223903953,1175.861
11863.30619100298,1124.779
11866.603849616356,935.535
11869.820338601929,580.358
11873.11648267094,23.528
11876.331494561222,-460.104
11879.545777396996,49.67
11882.839660941268,-49.67
11886.052468201013,39.213
11889.26454715598,-363.377
11892.55617250015,-203.91
11895.766777396242,36.599
11899.056892350098,-198.681
11902.26602420178,13.071
11905.474428998024,-384.291
11908.682106985869,18.3
11911.969222890988,-86.269
11915.17542984806,44.442
11918.380910743392,-167.31
11921.66577540321,-125.483
11924.869786778698,-5.228
11928.07307283808,107.183
11931.27563382762,67.97
11934.477469993468,-428.733
11937.758600089848,143.782
11940.95896924119,-454.875
11944.158614312782,-308.479
11947.35753555032,-643.1
11950.55573319941,167.31
11953.753207505528,-460.104
11957.029868231695,128.097
11960.225878519712,253.58
11963.42116620667,188.224
11966.615731537608,151.625
11969.809574757444,405.205
11973.002696111003,-1607.749
11976.195095842992,522.845
11979.386774197992,-41.828
11982.577731420495,-52.285
11985.767967754866,-271.88
11988.957483445382,-269.265
11992.146278736183,-350.306
11995.334353871312,-154.239
11998.521709094712,313.707
12001.708344650193,-360.763
12004.894260781464,67.97
12008.079457732136,-332.007
12011.2639357457,-182.996
12014.44769506553,219.595
12017.630735934905,418.276
12020.81305859698,-138.554
12023.994663294816,-167.31
12027.175550271351,-402.591
12030.27622427429,112.412
12033.455694464548,240.509
12036.634447655608,-232.666
12039.812484089987,26.142
12042.989804010074,-384.291
12046.166407658158,381.677
12049.26290681064,182.996
12052.4380965329,-169.925
12055.612570703324,538.531
12058.786329563762,371.22
12061.880055974125,146.397
12065.052402807443,49.67
12068.224035049663,292.793
12071.394952942192,-20.914
12074.485910333004,360.763
12077.655418093736,559.444
12080.824212222367,-10.457
12083.913099633974,-60.127
12087.080485047096,-271.88
12090.247157544738,-363.377
12093.333977055809,78.427
