Raman Shift,Intensity
93.04236,36.97272
93.52448,37.78623
94.00659,38.12907
94.48871,36.82312
94.97083,34.6328
95.45294,33.76027
95.93506,34.79969
96.41718,36.56245
96.89929,36.75531
97.38141,35.35275
97.86353,34.07319
98.34564,34.45968
98.82776,36.41295
99.30988,37.81923
99.79199,38.25917
100.2741,37.93891
100.7562,37.6209
101.2383,37.30133
101.7205,36.9923
102.2026,36.72845
102.6847,36.55239
103.1668,36.23954
103.6489,35.60344
104.131,34.62902
104.6132,34.30017
105.0953,34.91565
105.5774,35.89881
106.0595,36.56066
106.5416,36.91948
107.0237,36.92768
107.5059,36.43913
107.988,35.10271
108.4701,34.37386
108.9522,34.42944
109.4343,35.05428
109.9164,35.8655
110.3986,37.56622
110.8807,38.84778
111.3628,39.26102
111.8449,37.97514
112.327,37.15105
112.8091,36.71128
113.2913,36.79723
113.7734,37.77891
114.2555,40.90892
114.7376,44.18641
115.2197,46.49802
115.7018,46.39164
116.184,46.75705
116.6661,48.3236
117.1482,50.99363
117.6303,54.24438
118.1124,58.23096
118.5945,62.60987
119.0767,67.04765
119.5588,70.79321
120.0409,75.14489
120.523,80.85905
121.0051,87.87557
121.4872,95.55778
121.9694,103.2202
122.4515,111.3114
122.9336,120.4939
123.4157,131.4102
123.8978,143.2309
124.3799,155.1658
124.8621,167.1639
125.3442,179.5489
125.8263,193.3978
126.3084,207.9527
126.7905,221.4155
127.2726,232.2801
127.7548,241.5225
128.2369,250.4905
128.719,259.2197
129.2011,267.9357
129.6832,277.1358
130.1653,286.6358
130.6474,295.8451
131.1296,303.522
131.6117,310.3919
132.0938,319.4018
132.5759,331.1235
133.058,344.7483
133.5401,358.2395
134.0223,371.6037
134.5044,386.5345
134.9865,404.8058
135.4686,426.4989
135.9507,447.9109
136.4328,468.6797
136.915,489.164
137.3971,510.1772
137.8792,531.9633
138.3613,553.7765
138.8434,575.2902
139.3255,596.5163
139.8077,616.6813
140.2898,636.0682
140.7719,654.389
141.254,670.5056
141.7361,683.925
142.2182,695.6678
142.7004,706.5676
143.1825,716.351
143.6646,725.7685
144.1467,734.7925
144.6288,743.5489
145.1109,751.6436
145.5931,758.121
146.0752,764.7524
146.5573,773.7972
147.0394,785.8463
147.5215,799.41
148.0036,813.7614
148.4858,828.8185
148.9679,845.8302
149.45,864.535
149.9321,885.3311
150.4142,908.3909
150.8963,935.7949
151.3785,963.9484
151.8606,991.4342
152.3427,1018.034
152.8248,1045.58
153.3069,1073.842
153.789,1103.207
154.2712,1130.798
154.7533,1153.225
155.2354,1174.987
155.7175,1195.929
156.1996,1215.334
156.6817,1234.522
157.1639,1253.718
157.646,1272.905
158.1281,1291.598
158.6102,1309.453
159.0923,1327.01
159.5744,1344.567
160.0566,1361.657
160.5387,1379.231
161.0208,1397.604
161.5029,1416.6
161.985,1435.665
162.4671,1454.814
162.9493,1473.909
163.4314,1492.785
163.9135,1510.634
164.3956,1529.31
164.8777,1549.441
165.3598,1571.067
165.842,1594.416
166.3241,1621.141
166.8062,1648.883
167.2883,1675.483
167.7704,1699.111
168.2525,1722.63
168.7346,1748.209
169.2168,1775.561
169.6989,1803.008
170.181,1829.737
170.6631,1855.926
171.1452,1881.943
171.6273,1908.988
172.1095,1934.727
172.5916,1957.182
173.0737,1976.529
173.5558,1994.487
174.0379,2013.211
174.5201,2031.208
175.0022,2046.412
175.4843,2058.174
175.9664,2066.784
176.4485,2072.045
176.9306,2074.067
177.4128,2073.752
177.8949,2072.883
178.377,2070.308
178.8591,2063.441
179.3412,2049.776
179.8233,2031.657
180.3055,2013.025
180.7876,1993.832
181.2697,1972.502
181.7518,1945.89
182.2339,1915.475
182.716,1885.03
183.1982,1857.578
183.6803,1831.305
184.1624,1801.807
184.6445,1768.867
185.1266,1735.191
185.6087,1704.269
186.0909,1675.359
186.573,1646.177
187.0551,1615.117
187.5372,1582.886
188.0193,1550.402
188.5014,1517.481
188.9836,1485.465
189.4657,1455.128
189.9478,1426.643
190.4299,1399.086
190.912,1372.376
191.3941,1346.572
191.8763,1321.164
192.3584,1296.041
192.8405,1271.938
193.3226,1249.474
193.8047,1228.758
194.2868,1208.341
194.769,1187.114
195.2511,1165.286
195.7332,1144.299
196.2153,1124.169
196.6974,1104.956
197.1795,1087.567
197.6617,1071.988
198.1438,1057.337
198.6259,1043.468
199.108,1030.438
199.5901,1017.034
200.0722,1002.97
200.5544,989.0276
201.0365,976.9905
201.5186,966.9844
202.0007,957.5602
202.4828,948.1205
202.9649,938.6505
203.4471,929.2465
203.9292,919.7753
204.4113,910.3679
204.8934,900.9819
205.3755,891.4895
205.8576,882.8331
206.3398,875.7048
206.8219,870.3585
207.304,864.7409
207.7861,858.7404
208.2682,852.6124
208.7503,846.9656
209.2325,841.9868
209.7146,837.0979
210.1967,832.0387
210.6788,826.7615
211.1609,821.5732
211.643,816.4485
212.1252,811.4267
212.6073,806.6276
213.0894,802.0243
213.5715,797.7678
214.0536,793.9161
214.5357,790.4337
215.0179,787.5164
215.5,785.3785
215.9821,783.6376
216.4642,781.3928
216.9463,778.4439
217.4284,775.4449
217.9105,772.6166
218.3927,769.9742
218.8748,767.5558
219.3569,765.4774
219.839,763.5565
220.3211,761.2802
220.8032,758.3391
221.2854,755.6018
221.7675,753.4348
222.2496,752.1005
222.7317,750.5638
223.2138,748.7117
223.6959,746.7116
224.1781,744.8444
224.6602,743.0237
225.1423,741.5046
225.6244,740.4572
226.1065,740.008
226.5886,739.594
227.0708,739.187
227.5529,738.8232
228.035,738.6546
228.5171,739.0461
228.9992,739.0218
229.4813,738.1959
229.9635,736.4261
230.4456,734.2073
230.9277,730.8795
231.4098,727.4677
231.8919,726.028
232.374,727.5714
232.8562,729.5005
233.3383,731.1171
233.8204,732.7811
234.3025,732.8775
234.7846,730.7001
235.2667,727.3491
235.7489,724.7706
236.231,722.8886
236.7131,721.9291
237.1952,722.3314
237.6773,724.92
238.1594,725.7216
238.6416,723.7322
239.1237,720.5781
239.6058,718.9179
240.0879,719.4562
240.57,720.33
241.0521,720.984
241.5343,721.3343
242.0164,721.8195
242.4985,722.5989
242.9806,723.3905
243.4627,723.7213
243.9448,723.1656
244.427,722.8486
244.9091,723.1747
245.3912,724.3271
245.8733,725.0322
246.3554,724.9778
246.8375,724.7058
247.3197,725.0114
247.8018,726.4317
248.2839,727.4338
248.766,727.4064
249.2481,726.113
249.7302,725.8054
250.2124,727.0969
250.6945,728.826
251.1766,729.5887
251.6587,728.7406
252.1408,728.2335
252.6229,728.6714
253.1051,730.1625
253.5872,730.9769
254.0693,730.4041
254.5514,729.96
255.0335,731.5891
255.5156,737.006
255.9978,740.615
256.4799,740.6733
256.962,737.2116
257.4441,735.5485
257.9262,736.471
258.4083,738.1446
258.8904,738.7923
259.3726,737.7011
259.8547,737.3929
260.3368,738.5729
260.8189,741.0707
261.301,742.8259
261.7831,743.6224
262.2653,744.0178
262.7474,744.2726
263.2295,744.0477
263.7116,744.778
264.1937,747.1451
264.6758,750.6897
265.158,752.741
265.6401,752.6793
266.1222,752.2781
266.6043,752.8767
267.0864,754.928
267.5685,756.3466
268.0507,756.7311
268.5328,756.3976
269.0149,756.5864
269.497,757.5088
269.9791,758.4692
270.4612,758.9774
270.9434,758.8491
271.4255,759.1964
271.9076,760.2952
272.3897,761.768
272.8718,762.6759
273.3539,762.9696
273.8361,762.8215
274.3182,762.2336
274.8003,761.1501
275.2824,759.8651
275.7645,758.0438
276.2466,756.4255
276.7288,757.2991
277.2109,761.5306
277.693,763.9681
278.1751,761.3435
278.6572,753.3308
279.1393,747.142
279.6215,743.1407
280.1036,740.2869
280.5857,737.1678
281.0678,733.8156
281.5499,730.1104
282.032,725.9263
282.5142,721.3071
282.9963,717.0468
283.4784,713.2086
283.9605,709.5438
284.4426,705.5668
284.9247,701.2582
285.4069,697.5655
285.889,695.072
286.3711,693.4836
286.8532,691.173
287.3353,688.0429
287.8174,684.6956
288.2996,681.8676
288.7817,679.4918
289.2638,676.9213
289.7459,673.8876
290.228,670.6006
290.7101,667.6379
291.1923,665.0127
291.6744,662.3068
292.1565,658.8001
292.6386,654.7419
293.1207,651.4383
293.6028,649.2717
294.085,647.8596
294.5671,646.6448
295.0492,645.5908
295.5313,644.1918
296.0134,641.8284
296.4955,638.8109
296.9777,636.0191
297.4598,633.5611
297.9419,631.4872
298.424,630.0881
298.9061,629.2697
299.3882,628.4984
299.8704,627.6432
300.3525,626.6013
300.8346,625.0144
301.3167,622.7443
301.7988,620.4604
302.2809,618.9627
302.7631,618.0634
303.2452,617.1387
303.7273,615.6696
304.2094,614.0844
304.6915,613.1303
305.1736,612.894
305.6558,612.5886
306.1379,611.1737
306.62,609.2103
307.1021,607.7615
307.5842,607.6769
308.0663,608.0266
308.5485,607.9258
309.0306,607.3694
309.5127,606.7411
309.9948,606.2587
310.4769,605.8636
310.959,605.4955
311.4412,605.3085
311.9233,604.9579
312.4054,604.1428
312.8875,602.9181
313.3696,601.6025
313.8517,600.1448
314.3339,598.8156
314.816,597.9012
315.2981,597.858
315.7802,597.67
316.2623,596.6052
316.7444,594.9936
317.2266,593.6815
317.7087,593.3093
318.1908,593.1814
318.6729,592.8636
319.155,592.2393
319.6371,591.5596
320.1193,590.7355
320.6014,589.931
321.0835,589.4058
321.5656,589.5604
322.0477,589.7226
322.5298,589.7131
323.012,589.575
323.4941,588.8868
323.9762,587.0934
324.4583,584.873
324.9404,582.9615
325.4225,581.5184
325.9047,580.3438
326.3868,579.4944
326.8689,578.9744
327.351,578.4786
327.8331,577.9711
328.3152,577.5091
328.7974,577.1318
329.2795,576.6654
329.7616,576.5089
330.2437,577.0056
330.7258,577.9534
331.2079,578.2235
331.6901,577.3873
332.1722,576.2885
332.6543,575.277
333.1364,574.0792
333.6185,573.5047
334.1006,573.9227
334.5828,574.8494
335.0649,575.1043
335.547,574.3037
336.0291,573.4988
336.5112,573.1817
336.9933,573.554
337.4755,573.2838
337.9576,572.0138
338.4397,570.5303
338.9218,569.9286
339.4039,570.4026
339.886,571.1243
340.3681,572.0512
340.8503,573.1282
341.3324,573.4136
341.8145,572.8024
342.2966,571.7126
342.7787,570.2789
343.2608,568.4716
343.743,567.2518
344.2251,566.9551
344.7072,567.2738
345.1893,567.2496
345.6714,566.838
346.1535,566.632
346.6357,567.1223
347.1178,568.2188
347.5999,569.5539
348.082,571.327
348.5641,572.7645
349.0462,572.3256
349.5284,570.2301
350.0105,568.1487
350.4926,566.994
350.9747,566.4753
351.4568,565.9191
351.9389,565.2742
352.4211,564.8255
352.9032,565.1938
353.3853,566.0139
353.8674,566.3957
354.3495,565.7285
354.8316,564.6148
355.3138,563.6732
355.7959,562.9039
356.278,562.2781
356.7601,561.9719
357.2422,561.7331
357.7243,561.2173
358.2065,560.2278
358.6886,559.1145
359.1707,558.0014
359.6528,556.9375
360.1349,556.0714
360.617,555.8582
361.0992,555.6152
361.5813,554.7154
362.0634,552.7868
362.5455,551.1569
363.0276,550.5882
363.5097,550.598
363.9919,550.47
364.474,549.9133
364.9561,549.2438
365.4382,548.612
365.9203,548.0388
366.4024,547.2695
366.8846,546.0208
367.3667,544.6759
367.8488,543.5465
368.3309,543.1752
368.813,542.4587
369.2951,540.9446
369.7773,538.8107
370.2594,537.3023
370.7415,536.9083
371.2236,536.6898
371.7057,536.2488
372.1878,535.6424
372.67,534.6781
373.1521,533.0936
373.6342,531.2744
374.1163,530.0239
374.5984,529.6801
375.0805,529.2629
375.5627,528.4743
376.0448,527.2929
376.5269,525.7711
377.009,523.599
377.4911,521.5892
377.9732,520.805
378.4554,521.4922
378.9375,521.8021
379.4196,521.2386
379.9017,520.0634
380.3838,519.1867
380.8659,518.6359
381.3481,518.2502
381.8302,517.95
382.3123,517.7345
382.7944,517.6223
383.2765,517.6796
383.7586,517.6902
384.2408,517.1425
384.7229,516.1571
385.205,515.4266
385.6871,515.6902
386.1692,516.3624
386.6513,516.1598
387.1335,515.0157
387.6156,513.8629
388.0977,513.4055
388.5798,513.5583
389.0619,514.2307
389.544,516.0646
390.0262,517.7067
390.5083,517.606
390.9904,516.0927
391.4725,514.7346
391.9546,514.6876
392.4367,515.0557
392.9189,515.0738
393.401,514.538
393.8831,513.7795
394.3652,512.682
394.8473,511.5187
395.3294,510.7364
395.8116,511.0456
396.2937,511.2892
396.7758,510.7887
397.2579,509.3839
397.74,508.5336
398.2221,509.0379
398.7043,509.9527
399.1864,510.5102
399.6685,510.3788
400.1506,510.1847
400.6327,509.9951
401.1148,509.7918
401.597,509.4867
402.0791,509.0215
402.5612,508.5252
403.0433,508.0444
403.5254,507.5551
404.0075,507.1825
404.4897,507.0165
404.9718,506.9076
405.4539,506.6286
405.936,506.164
406.4181,505.5947
406.9002,504.8864
407.3824,504.0759
407.8645,503.3865
408.3466,502.7705
408.8287,502.4448
409.3108,502.9711
409.7929,504.2628
410.2751,504.48
410.7572,503.087
411.2393,500.899
411.7214,499.3494
412.2035,498.3928
412.6856,497.7343
413.1678,497.3377
413.6499,497.0977
414.132,496.9043
414.6141,496.7879
415.0962,496.3433
415.5783,494.6737
416.0605,492.4667
416.5426,490.996
417.0247,491.1846
417.5068,491.8845
417.9889,492.3976
418.471,492.6559
418.9532,492.3359
419.4353,490.7124
419.9174,488.7506
420.3995,487.2722
420.8816,486.5832
421.3637,485.8901
421.8459,483.9548
422.328,482.0016
422.8101,481.8827
423.2922,487.3976
423.7743,491.6224
424.2564,491.6392
424.7386,487.0402
425.2207,483.391
425.7028,481.945
426.1849,481.1195
426.667,479.8734
427.1491,477.5493
427.6313,475.8949
428.1134,475.294
428.5955,475.3822
429.0776,475.2035
429.5597,474.7961
430.0418,474.0469
430.524,472.7924
431.0061,470.9787
431.4882,469.5068
431.9703,468.4648
432.4524,467.5855
432.9345,466.4599
433.4167,465.07
433.8988,464.1249
434.3809,463.9419
434.863,464.1865
435.3451,464.0648
435.8272,463.5838
436.3094,462.9879
436.7915,462.2647
437.2736,461.5605
437.7557,461.4175
438.2378,462.0013
438.7199,462.4124
439.202,461.5498
439.6841,459.8514
440.1663,458.2139
440.6484,456.6639
441.1305,455.578
441.6126,455.7023
442.0947,456.7991
442.5768,457.4138
443.059,456.0771
443.5411,454.3671
444.0232,453.6484
444.5053,454.8445
444.9874,455.5488
445.4695,454.248
445.9517,452.0956
446.4338,450.9436
446.9159,452.7914
447.398,454.0351
447.8801,453.1382
448.3622,449.874
448.8444,448.1113
449.3265,449.0366
449.8086,450.43
450.2907,450.819
450.7728,449.6449
451.2549,448.6905
451.7371,447.8946
452.2192,447.4776
452.7013,448.2541
453.1834,450.7305
453.6655,452.4983
454.1476,452.3739
454.6298,450.5419
455.1119,449.0003
455.594,447.7865
456.0761,446.7154
456.5582,445.5397
457.0403,444.3233
457.5225,443.4665
458.0046,443.1087
458.4867,443.0565
458.9688,442.9387
459.4509,442.8476
459.933,443.1784
460.4152,444.6429
460.8973,446.4108
461.3794,447.4887
461.8615,447.8335
462.3436,447.7968
462.8257,447.1808
463.3079,446.4848
463.79,446.2831
464.2721,447.169
464.7542,448.057
465.2363,448.6694
465.7184,448.9704
466.2006,448.8548
466.6827,447.2236
467.1648,446.1129
467.6469,446.6666
468.129,449.6557
468.6111,451.4834
469.0933,451.3078
469.5754,450.4783
470.0575,450.1887
470.5396,450.7494
471.0217,451.2292
471.5038,451.5215
471.986,451.6635
472.4681,451.7739
472.9502,451.8412
473.4323,451.9111
473.9144,451.8625
474.3965,451.7144
474.8787,452.3296
475.3608,453.8335
475.8429,455.4757
476.325,456.3968
476.8071,456.6963
477.2892,456.8307
477.7714,456.7478
478.2535,456.7984
478.7356,457.7195
479.2177,459.3141
479.6998,460.708
480.1819,461.4532
480.6641,461.7306
481.1462,461.5268
481.6283,460.8031
482.1104,460.3706
482.5925,460.9077
483.0746,461.8977
483.5568,462.8098
484.0389,462.9678
484.521,464.3235
485.0031,465.2445
485.4852,465.754
485.9673,464.6199
486.4495,465.6083
486.9316,465.7461
487.4137,465.849
487.8958,467.136
488.3779,466.241
488.86,467.5092
489.3422,467.914
489.8243,468.714
490.3064,468.6581
490.7885,468.8845
491.2706,469.2875
491.7527,469.0358
492.2349,468.5593
492.717,467.8007
493.1991,467.5366
493.6812,468.2717
494.1633,467.7498
494.6454,469.0139
495.1276,469.8432
495.6097,470.2612
496.0918,469.0354
496.5739,469.9321
497.056,469.9782
497.5381,469.9894
498.0203,471.1849
498.5024,470.1982
498.9845,471.3748
499.4666,471.6879
499.9487,472.3961
500.4308,472.2486
500.913,472.3655
501.3951,473.1567
501.8772,472.7333
502.3593,472.1563
502.8414,471.8514
503.3235,472.1308
503.8057,474.0603
504.2878,475.0493
504.7699,474.4095
505.252,473.0222
505.7341,472.3423
506.2162,472.5338
506.6984,473.127
507.1805,474.2249
507.6626,475.7007
508.1447,476.2881
508.6268,475.8138
509.1089,475.0776
509.5911,474.4535
510.0732,473.9778
510.5553,474.2728
511.0374,475.5822
511.5195,476.9025
512.0016,476.6299
512.4838,475.2365
512.9659,474.3244
513.448,474.8284
513.9301,475.7199
514.4122,475.6006
514.8943,474.7555
515.3765,474.3829
515.8586,474.8599
516.3407,475.7987
516.8228,476.3026
517.3049,476.3952
517.787,474.8441
518.2692,475.4154
518.7513,475.1362
519.2334,474.8221
519.7155,475.6921
520.1976,474.3801
520.6797,475.2314
521.1619,475.2191
521.644,475.602
522.1261,475.0614
522.6082,474.8467
523.0903,475.2218
523.5724,476.2086
524.0546,476.7456
524.5367,476.784
525.0188,476.5273
525.5009,476.0331
525.983,474.4747
526.4651,475.4218
526.9473,475.9343
527.4294,476.0352
527.9115,474.4926
528.3936,475.0724
528.8757,474.8016
529.3578,474.4959
529.84,475.3744
530.3221,474.0708
530.8042,474.9305
531.2863,474.9267
531.7684,475.3181
532.2505,474.8536
532.7327,474.6535
533.2148,475.3095
533.6969,475.4915
534.179,474.9286
534.6611,475.3451
535.1432,474.0116
535.6254,474.2137
536.1075,475.0785
536.5896,474.5586
537.0717,474.9907
537.5538,475.0603
538.0359,473.4819
538.5181,474.7694
539.0002,474.8176
539.4823,473.5931
539.9644,474.7824
540.4465,473.7334
540.9286,473.4834
541.4108,473.8345
541.8929,473.559
542.375,474.2716
542.8571,474.0322
543.3392,473.7077
543.8214,473.7544
544.3035,472.7493
544.7856,473.6956
545.2677,473.3089
545.7498,472.6153
546.2319,472.3942
546.7141,472.7114
547.1962,472.7637
547.6783,472.0255
548.1604,471.0817
548.6425,470.1881
549.1246,469.2847
549.6068,468.7256
550.0889,468.8402
550.571,469.1269
551.0531,469.1324
551.5352,468.7649
552.0173,468.3203
552.4995,467.8798
552.9816,467.3586
553.4637,466.4909
553.9458,465.2272
554.4279,463.9729
554.91,462.8895
555.3922,461.9552
555.8743,461.2008
556.3564,460.6354
556.8385,459.8103
557.3206,457.7499
557.8027,455.3571
558.2849,454.4327
558.767,455.577
559.2491,456.5795
559.7312,455.3755
560.2133,453.0919
560.6954,451.2614
561.1776,450.6276
561.6597,450.3178
562.1418,450.2636
562.6239,450.3424
563.106,450.1304
563.5881,449.3667
564.0703,448.499
564.5524,447.6625
565.0345,446.8783
565.5166,445.9153
565.9987,444.6205
566.4808,443.409
566.963,442.5049
567.4451,441.896
567.9272,442.0694
568.4093,443.3602
568.8914,444.6413
569.3735,444.1593
569.8557,442.1979
570.3378,440.0284
570.8199,437.8246
571.302,435.9517
571.7841,435.1377
572.2662,435.1527
572.7484,435.15
573.2305,434.6835
573.7126,434.0233
574.1947,433.251
574.6768,432.3644
575.1589,431.7189
575.6411,431.6164
576.1232,431.6823
576.6053,431.6687
577.0874,431.6613
577.5695,431.3863
578.0516,430.7306
578.5338,429.8806
579.0159,429.0579
579.498,428.2335
579.9801,427.5851
580.4622,427.1549
580.9443,426.9297
581.4265,426.9731
581.9086,427.2861
582.3907,427.4984
582.8728,427.2142
583.3549,426.7283
583.837,426.7935
584.3192,427.4091
584.8013,427.888
585.2834,427.4695
585.7655,426.7565
586.2476,426.4618
586.7297,426.8738
587.2118,427.2882
587.6939,427.5274
588.176,427.556
588.6581,427.3288
589.1403,425.4176
589.6224,424.9915
590.1045,427.5406
590.5866,431.8765
591.0687,433.866
591.5508,432.4485
592.033,431.0472
592.5151,431.051
592.9972,432.3101
593.4793,432.9593
593.9614,432.9057
594.4435,432.9611
594.9257,434.0611
595.4078,435.7996
595.8899,436.9075
596.372,437.1813
596.8541,437.2415
597.3362,437.43
597.8184,437.8456
598.3005,438.6261
598.7826,439.614
599.2647,441.2271
599.7468,444.6191
600.2289,448.7388
600.7111,451.2706
601.1932,449.5992
601.6753,448.4211
602.1574,449.1349
602.6395,451.6108
603.1216,454.1929
603.6038,457.1733
604.0859,459.7396
604.568,461.1832
605.0501,461.3708
605.5322,462.8468
606.0143,465.8863
606.4965,469.024
606.9786,470.4374
607.4607,470.6626
607.9428,471.4804
608.4249,473.2831
608.907,475.646
609.3892,478.6396
609.8713,481.8354
610.3534,484.5045
610.8355,485.7438
611.3176,486.9106
611.7997,488.74
612.2819,491.0381
612.764,493.1226
613.2461,494.4978
613.7282,495.9599
614.2103,497.7514
614.6924,499.8395
615.1746,502.3516
615.6567,505.6467
616.1388,508.6375
616.6209,510.3699
617.103,510.7818
617.5851,511.7871
618.0673,513.4907
618.5494,515.722
619.0315,518.7397
619.5136,522.1211
619.9957,524.4855
620.4778,525.1383
620.96,525.4542
621.4421,526.7421
621.9242,528.6625
622.4063,530.4973
622.8884,532.6365
623.3705,533.9742
623.8527,533.3492
624.3348,531.1646
624.8169,530.3142
625.299,532.5361
625.7811,534.5627
626.2632,534.9799
626.7454,533.5988
627.2275,533.6144
627.7096,535.4648
628.1917,537.5748
628.6738,538.8127
629.1559,539.2142
629.6381,538.9216
630.1202,537.8061
630.6023,536.758
631.0844,536.7827
631.5665,537.6176
632.0486,538.7322
632.5308,540.0284
633.0129,541.4467
633.495,542.8987
633.9771,544.439
634.4592,546.1994
634.9413,548.4849
635.4235,550.707
635.9056,552.4469
636.3877,553.8606
636.8698,556.0583
637.3519,559.4763
637.834,562.9137
638.3162,565.7565
638.7983,568.043
639.2804,570.8363
639.7625,574.1935
640.2446,577.7897
640.7267,581.5204
641.2089,585.2782
641.691,588.408
642.1731,590.7441
642.6552,593.3009
643.1373,597.2049
643.6194,601.7985
644.1016,606.1746
644.5837,609.8192
645.0658,613.6425
645.5479,618.0237
646.03,622.7951
646.5121,627.5598
646.9943,631.481
647.4764,636.4547
647.9585,643.1771
648.4406,651.1151
648.9227,658.6053
649.4048,665.5475
649.887,672.2533
650.3691,678.8064
650.8512,685.2793
651.3333,692.1544
651.8154,699.4073
652.2975,707.3694
652.7797,716.7448
653.2618,726.8422
653.7439,736.9728
654.226,747.0382
654.7081,756.9388
655.1902,766.1425
655.6724,775.282
656.1545,784.9799
656.6366,795.2278
657.1187,806.212
657.6008,818.2036
658.0829,830.6716
658.5651,843.2122
659.0472,855.7698
659.5293,868.2842
660.0114,880.5046
660.4935,892.9589
660.9756,906.9642
661.4578,922.3416
661.9399,937.915
662.422,953.2939
662.9041,968.4955
663.3862,983.661
663.8683,998.7894
664.3505,1014.185
664.8326,1030.133
665.3147,1046.109
665.7968,1061.684
666.2789,1076.919
666.761,1092.103
667.2432,1107.672
667.7253,1123.034
668.2074,1137.942
668.6895,1152.405
669.1716,1166.61
669.6537,1180.829
670.1359,1194.436
670.618,1207.15
671.1001,1218.845
671.5822,1228.844
672.0643,1237.01
672.5464,1243.819
673.0286,1249.693
673.5107,1254.561
673.9928,1258.446
674.4749,1261.723
674.957,1263.252
675.4391,1262.421
675.9213,1259.281
676.4034,1253.843
676.8855,1245.594
677.3676,1235.781
677.8497,1224.555
678.3318,1212.04
678.814,1197.954
679.2961,1181.668
679.7782,1165.228
680.2603,1149.165
680.7424,1133.506
681.2245,1117.098
681.7067,1099.873
682.1888,1082.076
682.6709,1062.999
683.153,1043.648
683.6351,1025.363
684.1172,1008.443
684.5994,991.6131
685.0815,973.8064
685.5636,956.2999
686.0457,939.9753
686.5278,925.376
687.0099,910.8525
687.4921,895.6805
687.9742,880.949
688.4563,867.4968
688.9384,855.6205
689.4205,844.1672
689.9026,833.0473
690.3848,822.1718
690.8669,811.2677
691.349,800.3156
691.8311,789.9871
692.3132,780.5963
692.7953,771.7281
693.2775,762.8063
693.7596,754.0062
694.2417,745.6111
694.7238,737.876
695.2059,730.4553
695.688,723.1811
696.1702,716.1014
696.6523,709.0624
697.1344,701.2341
697.6165,694.5037
698.0986,689.7341
698.5807,686.4714
699.0629,682.0646
699.545,676.1917
700.0271,670.4323
700.5092,665.7014
700.9913,661.6181
701.4734,656.7741
701.9556,651.2234
702.4377,645.711
702.9198,640.4288
703.4019,635.6473
703.884,632.0075
704.3661,629.5974
704.8483,626.4923
705.3304,620.9352
705.8125,615.1631
706.2946,610.7756
706.7767,608.3899
707.2589,605.6745
707.741,602.4222
708.2231,599.18
708.7052,596.4459
709.1873,594.2283
709.6694,592.2271
710.1516,590.5261
710.6337,588.5416
711.1158,585.1924
711.5979,581.0352
712.08,577.3986
712.5621,574.7448
713.0443,572.377
713.5264,570.0834
714.0085,567.7213
714.4906,565.0297
714.9727,561.5271
715.4548,558.2389
715.937,555.2061
716.4191,552.5023
716.9012,550.3249
717.3833,548.9139
717.8654,547.1187
718.3475,544.1722
718.8297,541.0174
719.3118,541.094
719.7939,543.7776
720.276,544.8109
720.7581,540.6044
721.2402,534.5219
721.7224,529.8083
722.2045,526.3597
722.6866,523.5889
723.1687,521.653
723.6508,519.9565
724.1329,518.4263
724.6151,517.0527
725.0972,515.0723
725.5793,512.2582
726.0614,509.2393
726.5435,506.1827
727.0256,503.1417
727.5078,500.9417
727.9899,499.6241
728.472,498.4077
728.9541,496.5801
729.4362,494.4426
729.9183,492.6884
730.4005,491.4215
730.8826,489.8216
731.3647,486.7254
731.8468,483.5016
732.3289,481.4095
732.811,481.2672
733.2932,480.5521
733.7753,478.6535
734.2574,476.5404
734.7395,475.1629
735.2216,474.7405
735.7037,473.6555
736.1859,471.6816
736.668,469.3789
737.1501,467.148
737.6322,465.1397
738.1143,463.9535
738.5964,463.8965
739.0786,464.1045
739.5607,464.0099
740.0428,463.6857
740.5249,463.2352
741.007,462.6469
741.4891,461.9732
741.9713,461.0488
742.4534,460.1123
742.9355,459.5906
743.4176,459.707
743.8997,459.498
744.3818,458.7136
744.864,457.6099
745.3461,456.585
745.8282,455.6685
746.3103,455.0682
746.7924,454.7883
747.2745,454.9465
747.7567,456.253
748.2388,458.1123
748.7209,459.0227
749.203,457.8361
749.6851,456.229
750.1672,454.3517
750.6494,452.4733
751.1315,451.6465
751.6136,452.2998
752.0957,453.0704
752.5778,453.5732
753.0599,453.8525
753.5421,454.1435
754.0242,454.4292
754.5063,454.4567
754.9884,453.6909
755.4705,452.8209
755.9526,452.8449
756.4348,453.6191
756.9169,454.3549
757.399,454.7176
757.8811,454.9112
758.3632,454.981
758.8453,454.9264
759.3275,454.9609
759.8096,455.2087
760.2917,455.3061
760.7738,455.013
761.2559,454.3823
761.738,453.8467
762.2202,453.4051
762.7023,453.2258
763.1844,453.7155
763.6665,454.4124
764.1486,454.6271
764.6307,454.3305
765.1129,453.9034
765.595,453.7412
766.0771,453.3589
766.5592,452.3312
767.0413,450.4082
767.5234,448.8897
768.0056,447.7621
768.4877,447.0585
768.9698,447.0876
769.4519,447.8282
769.934,447.4976
770.4161,445.9825
770.8983,444.3598
771.3804,443.7654
771.8625,443.6222
772.3446,443.0349
772.8267,441.8716
773.3088,440.5532
773.791,438.9901
774.2731,437.5555
774.7552,436.6055
775.2373,436.475
775.7194,435.9666
776.2015,435.0807
776.6837,433.8028
777.1658,431.9017
777.6479,429.4036
778.13,427.4396
778.6121,426.1173
779.0942,425.0897
779.5764,424.052
780.0585,423.0508
780.5406,422.1486
781.0227,421.3758
781.5048,420.6318
781.9869,420.2773
782.4691,419.7067
782.9512,418.2819
783.4332,415.2778
783.9153,412.9464
784.3975,411.5754
784.8796,410.4821
785.3617,408.8332
785.8438,406.7114
786.3259,405.1266
786.808,404.3092
787.2902,403.4257
787.7723,401.3156
788.2544,398.6747
788.7365,396.537
789.2186,395.2051
789.7007,394.1662
790.1829,393.1245
790.665,392.3471
791.1471,392.2336
791.6292,393.7194
792.1113,393.5869
792.5934,391.3643
793.0756,388.1815
793.5577,384.9516
794.0398,381.8439
794.5219,379.988
795.004,379.7687
795.4861,379.9016
795.9683,379.3589
796.4504,378.3217
796.9325,376.9709
797.4146,375.0969
797.8967,373.43
798.3788,372.1584
798.861,371.1534
799.3431,370.33
799.8252,369.7515
800.3073,369.113
800.7894,368.4424
801.2715,367.5685
801.7537,366.016
802.2358,364.0339
802.7179,362.512
803.2,361.7298
803.6821,361.1436
804.1642,360.297
804.6464,359.4159
805.1285,358.8058
805.6106,359.1816
806.0927,358.6959
806.5748,356.4993
807.0569,354.0316
807.5391,352.9027
808.0212,353.3458
808.5033,353.3275
808.9854,352.5414
809.4675,351.6112
809.9496,351.4858
810.4318,351.7733
810.9139,351.6305
811.396,350.8409
811.8781,349.703
812.3602,347.7764
812.8423,345.8852
813.3245,344.9524
813.8066,345.71
814.2887,346.4069
814.7708,347.2852
815.2529,347.7505
815.735,346.7183
816.2172,344.3102
816.6993,343.1301
817.1814,343.6497
817.6635,344.562
818.1456,344.5707
818.6277,344.0956
819.1099,343.6915
819.592,343.4804
820.0741,343.3604
820.5562,343.4645
821.0383,343.5406
821.5204,343.3031
822.0026,342.3846
822.4847,342.3901
822.9668,343.689
823.4489,344.9394
823.931,344.2685
824.4131,342.3306
824.8953,341.5766
825.3774,342.417
825.8595,343.2928
826.3416,342.9939
826.8237,342.1473
827.3058,341.2402
827.788,340.1703
828.2701,339.6966
828.7522,340.3999
829.2343,341.136
829.7164,340.9136
830.1985,339.6159
830.6807,339.2925
831.1628,340.1094
831.6449,340.9234
832.127,340.3673
832.6091,339.2378
833.0912,338.9574
833.5734,339.7186
834.0555,340.3149
834.5376,339.7546
835.0197,339.133
835.5018,337.003
835.9839,338.055
836.4661,338.6722
836.9482,338.878
837.4303,337.4401
837.9124,338.1246
838.3945,337.4492
838.8766,338.5058
839.3588,339.1277
839.8409,339.338
840.323,337.9048
840.8051,338.594
841.2872,338.4326
841.7693,338.2363
842.2515,339.2242
842.7336,338.0301
843.2157,338.9992
843.6978,339.1048
844.1799,339.6056
844.662,339.2505
845.1442,339.1599
845.6263,339.9253
846.1084,340.2167
846.5905,339.7632
847.0726,340.2891
847.5547,339.065
848.0369,339.3766
848.519,340.3507
849.0011,339.9402
849.4832,340.4818
849.9653,340.6608
850.4474,339.1919
850.9296,340.5888
851.4117,340.7464
851.8938,339.6313
852.3759,341.0371
852.858,341.4999
853.3401,341.2581
853.8223,340.9325
854.3044,340.5082
854.7865,340.4055
855.2686,338.17
855.7507,339.446
856.2328,340.2872
856.715,340.7171
857.1971,339.5032
857.6792,340.4118
858.1613,340.4698
858.6434,340.493
859.1255,341.7003
859.6077,340.7256
860.0898,341.9141
860.5719,342.2391
861.054,342.9593
861.5361,342.8237
862.0182,342.9524
862.5004,345.2768
862.9825,345.227
863.4646,345.3163
863.9467,345.5546
864.4288,346.0827
864.9109,347.0908
865.3931,347.2347
865.8752,346.1266
866.3573,345.0816
866.8394,346.1002
867.3215,347.9794
867.8036,349.1738
868.2858,349.9334
868.7679,350.2816
869.25,348.9861
869.7321,349.8131
870.2142,349.7895
870.6964,349.731
871.1785,350.8567
871.6606,349.8003
872.1427,350.9072
872.6248,351.1506
873.1069,351.7891
873.5891,351.5719
874.0712,351.619
874.5533,352.5222
875.0354,352.9514
875.5175,352.6357
875.9996,353.2993
876.4818,354.5102
876.9639,356.1148
877.446,356.1823
877.9281,355.8027
878.4102,355.3241
878.8923,354.7744
879.3745,354.294
879.8566,353.8904
880.3387,353.7457
880.8208,354.0187
881.3029,354.5655
881.785,355.4361
882.2672,356.4902
882.7493,357.2393
883.2314,357.0838
883.7135,357.1944
884.1956,358.0559
884.6777,359.2834
885.1599,359.7912
885.642,359.5414
886.1241,359.1883
886.6062,358.8271
887.0883,358.6337
887.5704,358.8342
888.0526,359.3728
888.5347,360.1709
889.0168,361.5086
889.4989,362.6325
889.981,363.3911
890.4631,363.7427
890.9453,363.5146
891.4274,362.4519
891.9095,361.9118
892.3916,362.0126
892.8737,362.6012
893.3558,363.8797
893.838,365.4335
894.3201,366.3599
894.8022,366.4755
895.2843,366.4565
895.7664,366.6841
896.2485,366.8956
896.7307,366.7952
897.2128,366.2455
897.6949,366.2792
898.177,366.9549
898.6591,368.0182
899.1412,369.6938
899.6234,371.5688
900.1055,372.3526
900.5876,372.1225
901.0697,371.6856
901.5518,371.2695
902.0339,371.0324
902.5161,371.1263
902.9982,371.5253
903.4803,371.9049
903.9624,372.1317
904.4445,372.6893
904.9266,373.9203
905.4088,375.3816
905.8909,375.8228
906.373,375.4696
906.8551,375.2758
907.3372,375.7535
907.8193,376.3241
908.3015,376.6297
908.7836,376.7569
909.2657,376.828
909.7478,376.5202
910.2299,376.8413
910.712,378.1085
911.1942,379.6064
911.6763,380.4315
912.1584,380.6678
912.6405,380.6591
913.1226,380.3978
913.6047,380.4003
914.0869,381.6664
914.569,383.0232
915.0511,383.112
915.5332,381.0887
916.0153,380.7435
916.4974,383.1248
916.9796,385.5823
917.4617,386.2923
917.9438,385.5845
918.4259,386.0241
918.908,387.5121
919.3901,388.8045
919.8723,388.907
920.3544,388.6323
920.8365,388.3521
921.3186,388.1915
921.8007,388.7458
922.2828,390.8148
922.765,392.3999
923.2471,392.9311
923.7292,392.7573
924.2113,392.5703
924.6934,392.4106
925.1755,392.5864
925.6577,393.3485
926.1398,394.1632
926.6219,394.5106
927.104,394.64
927.5861,394.8976
928.0682,395.437
928.5504,395.9925
929.0325,396.5525
929.5146,397.1233
929.9967,397.769
930.4788,398.4511
930.9609,398.8605
931.4431,398.963
931.9252,399.0685
932.4073,399.22
932.8894,399.637
933.3715,400.7011
933.8536,402.503
934.3358,403.7719
934.8179,404.1382
935.3,404.4933
935.7821,405.3395
936.2642,406.4429
936.7463,406.6602
937.2285,406.1214
937.7106,405.7288
938.1927,406.2167
938.6748,406.7659
939.1569,406.5214
939.639,405.9071
940.1212,405.907
940.6033,407.0315
941.0854,408.0967
941.5675,409.0347
942.0496,409.7695
942.5317,410.0842
943.0139,410.0602
943.496,409.9386
943.9781,409.6494
944.4602,409.9756
944.9423,412.0367
945.4244,414.644
945.9066,416.7943
946.3887,418.2905
946.8708,419.5854
947.3529,420.8975
947.835,421.537
948.3171,420.7981
948.7993,419.0572
949.2814,417.4073
949.7635,415.9615
950.2456,415.4305
950.7277,417.0566
951.2098,418.9245
951.692,420.0165
952.1741,420.4219
952.6562,420.6251
953.1383,420.4628
953.6204,420.6249
954.1025,421.3979
954.5847,422.2758
955.0668,422.1865
955.5489,421.5346
956.031,421.4405
956.5131,422.3549
956.9952,423.3444
957.4774,423.9422
957.9595,424.3824
958.4416,424.8578
958.9237,425.3318
959.4058,426.1383
959.8879,427.3928
960.3701,428.4434
960.8522,428.4015
961.3343,427.9495
961.8164,428.8058
962.2985,430.7197
962.7806,431.8917
963.2628,430.6456
963.7449,429.3817
964.227,429.0004
964.7091,429.3258
965.1912,429.8606
965.6733,430.5898
966.1555,431.7371
966.6376,433.5316
967.1197,435.373
967.6018,436.4141
968.0839,436.9567
968.566,437.4404
969.0482,437.8907
969.5303,438.528
970.0124,439.5085
970.4945,440.5946
970.9766,441.6635
971.4587,442.71
971.9409,443.5832
972.423,444.2697
972.9051,444.9844
973.3872,445.7085
973.8693,446.6639
974.3514,448.1154
974.8336,450.0113
975.3157,452.06
975.7978,454.8258
976.2799,456.6637
976.762,456.747
977.2441,456.0884
977.7263,457.3387
978.2084,460.1299
978.6905,462.3852
979.1726,463.3466
979.6547,464.0559
980.1368,465.4229
980.619,466.9009
981.101,467.7787
981.5831,467.4923
982.0652,468.1084
982.5474,469.7774
983.0295,471.9269
983.5116,474.1962
983.9937,476.5697
984.4758,479.0349
984.9579,481.5633
985.4401,483.9139
985.9222,485.515
986.4043,487.3467
986.8864,490.5778
987.3685,494.3515
987.8506,495.811
988.3328,494.4305
988.8149,494.0576
989.297,495.6661
989.7791,498.5057
990.2612,502.1318
990.7433,506.1012
991.2255,509.8663
991.7076,513.6755
992.1897,515.9665
992.6718,514.8241
993.1539,513.6416
993.636,514.4802
994.1182,517.3124
994.6003,520.9872
995.0824,525.5104
995.5645,529.4425
996.0466,530.6819
996.5287,532.0164
997.0109,537.0403
997.493,544.3649
997.9751,548.7931
998.4572,547.2676
998.9393,547.4245
999.4214,550.7059
999.9036,555.7719
1000.386,560.8116
1000.868,565.7546
1001.35,570.2145
1001.832,573.9902
1002.314,577.8627
1002.796,581.9133
1003.278,586.4739
1003.76,591.8946
1004.243,598.2657
1004.725,604.1376
1005.207,609.3992
1005.689,615.0502
1006.171,622.0471
1006.653,629.5177
1007.135,636.3207
1007.617,642.5787
1008.1,648.8255
1008.582,654.9841
1009.064,661.4141
1009.546,668.1979
1010.028,675.188
1010.51,681.8807
1010.992,688.3586
1011.474,696.8118
1011.956,707.7235
1012.439,718.3772
1012.921,727.5638
1013.403,734.6763
1013.885,738.2678
1014.367,738.1384
1014.849,739.9909
1015.331,744.5121
1015.813,749.8438
1016.296,755.607
1016.778,761.3572
1017.26,766.0413
1017.742,769.798
1018.224,773.1597
1018.706,776.2737
1019.188,779.0495
1019.67,781.2463
1020.152,783.1352
1020.635,785.0722
1021.117,787.1769
1021.599,788.3428
1022.081,788.4818
1022.563,788.4254
1023.045,789.6273
1023.527,790.4689
1024.009,788.6784
1024.492,784.586
1024.974,780.6899
1025.456,778.1779
1025.938,775.0152
1026.42,770.6742
1026.902,765.6954
1027.384,760.8529
1027.866,756.2712
1028.349,752.7339
1028.831,750.8525
1029.313,748.1947
1029.795,742.7695
1030.277,736.2256
1030.759,729.7109
1031.241,723.203
1031.723,717.6008
1032.205,713.0576
1032.688,708.1289
1033.17,701.2247
1033.652,694.0839
1034.134,690.0438
1034.616,687.899
1035.098,684.5524
1035.58,677.8084
1036.062,671.256
1036.544,665.0797
1037.027,659.6257
1037.509,656.0105
1037.991,653.7859
1038.473,649.7447
1038.955,643.5605
1039.437,637.3218
1039.919,632.2434
1040.401,627.8907
1040.884,624.4541
1041.366,621.6673
1041.848,617.1214
1042.33,610.1627
1042.812,604.5988
1043.294,601.845
1043.776,600.313
1044.258,597.7053
1044.74,594.5338
1045.223,591.757
1045.705,589.9634
1046.187,587.4587
1046.669,583.3768
1047.151,579.215
1047.633,575.9892
1048.115,573.5851
1048.597,571.267
1049.079,569.0205
1049.562,566.9338
1050.044,565.2586
1050.526,563.5165
1051.008,561.5029
1051.49,559.173
1051.972,556.4473
1052.454,553.0492
1052.936,550.4012
1053.419,548.7609
1053.901,547.3737
1054.383,545.3013
1054.865,543.0511
1055.347,541.4755
1055.829,540.6454
1056.311,539.2397
1056.793,536.4889
1057.276,533.6799
1057.758,531.1512
1058.24,528.8492
1058.722,526.3372
1059.204,523.8821
1059.686,522.8948
1060.168,524.6883
1060.65,525.5773
1061.132,522.1926
1061.615,517.653
1062.097,514.9381
1062.579,514.3874
1063.061,513.1362
1063.543,511.1466
1064.025,508.9152
1064.507,506.652
1064.989,504.3903
1065.471,502.1227
1065.954,499.9207
1066.436,497.9342
1066.918,496.2435
1067.4,494.7606
1067.882,493.5915
1068.364,492.4009
1068.846,490.8065
1069.328,488.8675
1069.811,486.7133
1070.293,484.3778
1070.775,482.1871
1071.257,480.4227
1071.739,478.7313
1072.221,476.9549
1072.703,475.1076
1073.185,473.1545
1073.667,471.1273
1074.15,469.0763
1074.632,467.0233
1075.114,465.0103
1075.596,463.0659
1076.078,461.2219
1076.56,459.7355
1077.042,458.9051
1077.524,456.5768
1078.006,452.2809
1078.489,448.1894
1078.971,445.6122
1079.453,443.8783
1079.935,441.8298
1080.417,439.6042
1080.899,437.5386
1081.381,435.9318
1081.863,434.2437
1082.345,432.3828
1082.828,430.4487
1083.31,428.9004
1083.792,427.5006
1084.274,423.9653
1084.756,418.4305
1085.238,413.8324
1085.72,412.7781
1086.202,412.4019
1086.685,411.5495
1087.167,410.0919
1087.649,407.5344
1088.131,403.6652
1088.613,400.8986
1089.095,399.8476
1089.577,398.7967
1090.059,395.3643
1090.542,391.3729
1091.024,388.9495
1091.506,388.4238
1091.988,387.4192
1092.47,385.9014
1092.952,383.5975
1093.434,380.072
1093.916,376.1901
1094.398,373.7273
1094.88,372.1813
1095.363,370.5251
1095.845,368.4491
1096.327,366.2491
1096.809,364.0316
1097.291,361.6486
1097.773,358.7347
1098.255,355.4923
1098.737,353.918
1099.22,353.7234
1099.702,353.0458
1100.184,350.0948
1100.666,347.299
1101.148,346.2251
1101.63,345.8543
1102.112,344.7036
1102.594,342.6429
1103.077,340.7383
1103.559,339.0253
1104.041,337.5801
1104.523,336.5991
1105.005,335.7851
1105.487,334.8118
1105.969,333.7246
1106.451,332.8831
1106.933,332.4833
1107.416,331.7873
1107.898,330.6122
1108.38,329.2119
1108.862,327.5524
1109.344,326.0294
1109.826,325.3656
1110.308,325.7144
1110.79,326.1541
1111.272,326.9678
1111.755,327.0303
1112.237,325.6512
1112.719,323.5643
1113.201,322.8763
1113.683,323.1211
1114.165,322.5836
1114.647,320.3301
1115.129,318.5675
1115.612,318.5622
1116.094,319.2059
1116.576,319.9189
1117.058,320.6664
1117.54,320.7499
1118.022,320.2147
1118.504,319.6596
1118.986,319.4245
1119.469,319.2207
1119.951,318.7716
1120.433,318.2703
1120.915,318.0269
1121.397,318.1475
1121.879,318.0974
1122.361,317.8698
1122.843,317.4552
1123.325,316.8173
1123.807,316.0183
1124.29,314.7596
1124.772,313.369
1125.254,313.1461
1125.736,315.1955
1126.218,315.6681
1126.7,313.682
1127.182,311.445
1127.664,311.9208
1128.147,313.6851
1128.629,314.2124
1129.111,313.3912
1129.593,312.8974
1130.075,313.5916
1130.557,314.0996
1131.039,314.0924
1131.521,313.7399
1132.004,313.1827
1132.486,312.5655
1132.968,312.3904
1133.45,312.8427
1133.932,313.0587
1134.414,312.4071
1134.896,311.6884
1135.378,311.2292
1135.86,311.0234
1136.343,311.0668
1136.825,311.3366
1137.307,311.7113
1137.789,312.2231
1138.271,312.6421
1138.753,312.9325
1139.235,312.9466
1139.717,312.4373
1140.199,311.383
1140.682,311.157
1141.164,311.7475
1141.646,312.3585
1142.128,312.6107
1142.61,312.654
1143.092,312.5753
1143.574,312.3777
1144.056,312.0555
1144.539,311.981
1145.021,312.8044
1145.503,313.1931
1145.985,313.1704
1146.467,311.5041
1146.949,311.9601
1147.431,311.5656
1147.913,311.1363
1148.396,311.8907
1148.878,310.4633
1149.36,311.1994
1149.842,311.0718
1150.324,311.3395
1150.806,310.7514
1151.288,310.4276
1151.77,310.9599
1152.252,311.0182
1152.734,308.1935
1153.217,308.8446
1153.699,309.4081
1154.181,309.6057
1154.663,309.6831
1155.145,310.1361
1155.627,310.6989
1156.109,310.7729
1156.591,310.2784
1157.074,309.6981
1157.556,308.515
1158.038,308.1978
1158.52,308.5432
1159.002,309.5046
1159.484,310.0312
1159.966,310.1464
1160.448,308.6179
1160.931,309.2118
1161.413,308.9551
1161.895,308.6636
1162.377,309.5563
1162.859,308.2556
1163.341,307.1583
1163.823,307.4412
1164.305,308.7719
1164.787,309.496
1165.27,308.7758
1165.752,308.1202
1166.234,308.3425
1166.716,308.9334
1167.198,309.7381
1167.68,310.6687
1168.162,310.1493
1168.644,308.3638
1169.126,307.0747
1169.609,307.5978
1170.091,306.4189
1170.573,307.5627
1171.055,308.2719
1171.537,308.5695
1172.019,307.2236
1172.501,308.0
1172.983,307.9259
1173.466,307.8172
1173.948,308.8923
1174.43,307.7854
1174.912,308.8418
1175.394,309.0346
1175.876,308.9381
1176.358,307.4999
1176.84,307.149
1177.323,308.0043
1177.805,308.7576
1178.287,308.1136
1178.769,307.2312
1179.251,307.2485
1179.733,307.765
1180.215,307.6113
1180.697,306.5528
1181.179,305.9256
1181.661,305.8795
1182.144,306.0621
1182.626,306.1523
1183.108,306.3242
1183.59,306.9801
1184.072,307.8984
1184.554,308.0131
1185.036,306.9798
1185.518,306.4918
1186.001,306.8745
1186.483,307.448
1186.965,307.4998
1187.447,307.3322
1187.929,307.3039
1188.411,307.4066
1188.893,307.2456
1189.375,304.7757
1189.858,305.7814
1190.34,306.3524
1190.822,306.5119
1191.304,305.0277
1191.786,305.666
1192.268,305.4538
1192.75,305.2066
1193.232,306.1437
1193.714,304.8986
1194.197,305.8169
1194.679,305.8716
1195.161,306.3215
1195.643,305.9156
1196.125,305.774
1196.607,306.4886
1197.089,305.4333
1197.571,306.0943
1198.053,305.9048
1198.536,305.6805
1199.018,306.6402
1199.5,305.4179
1199.982,306.3589
1200.464,306.4363
1200.946,306.9089
1201.428,306.5258
1201.91,306.407
1202.393,307.1443
1202.875,307.4075
1203.357,306.9258
1203.839,307.4236
1204.321,306.1714
1204.803,306.4548
1205.285,307.5055
1205.767,308.1772
1206.25,308.1328
1206.732,307.1068
1207.214,306.1478
1207.696,305.8135
1208.178,305.9338
1208.66,306.5884
1209.142,307.3846
1209.624,307.5371
1210.106,306.2268
1210.589,305.6408
1211.071,305.9679
1211.553,306.5123
1212.035,306.9619
1212.517,307.2465
1212.999,307.1261
1213.481,306.7871
1213.963,306.6239
1214.445,306.8373
1214.928,307.0943
1215.41,307.4277
1215.892,307.7181
1216.374,307.7374
1216.856,307.7466
1217.338,308.5464
1217.82,309.6329
1218.302,309.7218
1218.785,307.327
1219.267,306.4597
1219.749,307.6556
1220.231,308.8518
1220.713,307.8871
1221.195,306.23
1221.677,306.1239
1222.159,307.1372
1222.641,307.9175
1223.124,308.1917
1223.606,308.3099
1224.088,308.2653
1224.57,308.1905
1225.052,308.2389
1225.534,308.3031
1226.016,308.2382
1226.498,308.067
1226.98,307.8745
1227.463,307.6772
1227.945,307.3623
1228.427,306.8269
1228.909,306.6411
1229.391,307.9723
1229.873,309.465
1230.355,309.3383
1230.837,307.9555
1231.32,306.7964
1231.802,305.7354
1232.284,305.9514
1232.766,307.8065
1233.248,309.4292
1233.73,308.3466
1234.212,306.7018
1234.694,306.9391
1235.177,308.5753
1235.659,309.2407
1236.141,308.6934
1236.623,308.0532
1237.105,307.4357
1237.587,306.9064
1238.069,306.2583
1238.551,305.9476
1239.033,306.6798
1239.516,308.1207
1239.998,308.9757
1240.48,309.2197
1240.962,308.7803
1241.444,307.5472
1241.926,306.4774
1242.408,306.3588
1242.89,306.7166
1243.372,307.4421
1243.855,308.3036
1244.337,308.6269
1244.819,308.3842
1245.301,308.5874
1245.783,309.4407
1246.265,309.8987
1246.747,308.5452
1247.229,307.1179
1247.712,306.8713
1248.194,307.3872
1248.676,307.8398
1249.158,308.2134
1249.64,308.0301
1250.122,307.1927
1250.604,306.5609
1251.086,306.8865
1251.568,307.4107
1252.051,307.93
1252.533,308.2457
1253.015,307.4863
1253.497,306.0132
1253.979,305.6962
1254.461,307.1064
1254.943,308.0817
1255.425,308.6458
1255.907,307.566
1256.39,308.6097
1256.872,308.8018
1257.354,308.9592
1257.836,307.8716
1258.318,308.0286
1258.8,309.5323
1259.282,310.1645
1259.764,307.5858
1260.247,305.932
1260.729,306.6017
1261.211,308.3118
1261.693,308.8439
1262.175,308.6898
1262.657,309.067
1263.139,310.1467
1263.621,310.5127
1264.104,309.287
1264.586,308.3917
1265.068,308.3163
1265.55,308.6777
1266.032,309.1232
1266.514,309.5178
1266.996,309.5458
1267.478,309.1892
1267.96,309.1577
1268.443,309.626
1268.925,310.0107
1269.407,310.1527
1269.889,310.2533
1270.371,310.7294
1270.853,311.1909
1271.335,311.0014
1271.817,310.206
1272.299,310.2099
1272.782,311.2524
1273.264,311.5552
1273.746,310.5875
1274.228,309.5173
1274.71,309.5031
1275.192,309.8488
1275.674,309.9786
1276.156,309.9242
1276.639,309.9749
1277.121,310.1314
1277.603,310.1471
1278.085,309.9582
1278.567,309.7785
1279.049,309.8513
1279.531,309.8964
1280.013,309.6144
1280.495,309.2433
1280.978,309.4814
1281.46,310.2325
1281.942,310.9922
1282.424,311.6957
1282.906,311.9409
1283.388,309.8049
1283.87,308.7566
1284.352,309.9038
1284.834,310.6163
1285.317,310.9177
1285.799,309.5751
1286.281,310.355
1286.763,310.2843
1287.245,310.1787
1287.727,311.2573
1288.209,310.1537
1288.691,311.2136
1289.173,311.4098
1289.656,312.0016
1290.138,311.2803
1290.62,312.3419
1291.102,312.9689
1291.584,313.1844
1292.066,311.7562
1292.548,312.4504
1293.03,312.2941
1293.513,312.1031
1293.995,313.0961
1294.477,311.907
1294.959,312.8812
1295.441,312.9918
1295.923,313.4977
1296.405,313.1477
1296.887,313.0621
1297.37,313.8327
1297.852,314.1292
1298.334,312.4988
1298.816,312.4132
1299.298,313.1566
1299.78,314.1259
1300.262,314.3785
1300.744,313.9716
1301.226,313.497
1301.708,313.0142
1302.191,312.6935
1302.673,312.3394
1303.155,312.4305
1303.637,312.8539
1304.119,313.4673
