Wavenumber (cm⁻¹),Intensity
200.0,-45.095
201.00097751710655,-39.46650342130988
202.0019550342131,-33.838006842619755
203.00293255131965,-28.209510263929637
204.0039100684262,-22.581013685239512
205.00488758553274,-16.95251710654939
206.0058651026393,-11.324020527859268
207.00684261974584,-5.695523949169146
208.0078201368524,-0.06702737047902385
209.00879765395894,5.561469208211098
210.00977517106548,11.086065493646183
211.01075268817203,6.07633333333338
212.01173020527858,1.2278680351906188
213.01270772238513,0.9945239491690827
214.01368523949168,3.395176930596259
215.01466275659823,5.5164164222873735
216.01564027370478,6.774473118279551
217.01661779081132,8.091599217986289
218.01759530791787,9.815724340175924
219.01857282502445,11.624869990224852
220.019550342131,13.670340175953102
221.02052785923755,15.942035190615858
222.0215053763441,18.292559139784974
223.02248289345064,21.018603128054764
224.0234604105572,23.80076539589446
225.02443792766374,28.24196969696973
226.0254154447703,33.28725610948195
227.02639296187684,40.31109090909095
228.02737047898339,50.36655131964813
229.02834799608993,60.61020527859242
230.02932551319648,75.30652785923756
231.03030303030303,89.8949090909091
232.03128054740958,100.99578103616813
233.03225806451613,110.07741935483871
234.03323558162268,114.9886705767351
235.03421309872923,109.8286999022483
236.03519061583577,104.2924692082112
237.03616813294232,88.33764809384172
238.03714565004887,71.37750146627575
239.03812316715542,55.555917888563144
240.03910068426197,40.71912414467263
241.04007820136852,27.43576148582606
242.04105571847506,20.314615835777182
243.0420332355816,14.014027370479006
244.0430107526882,11.599505376344048
245.04398826979474,9.505633431085014
246.0449657869013,7.7156529814271595
247.04594330400784,6.754523949169097
248.04692082111438,5.909073313782989
249.04789833822093,5.8042580645161275
250.04887585532748,5.690303030303025
251.04985337243403,5.281475073313778
252.05083088954058,4.7612482893450565
253.05180840664713,4.083025415444761
254.05278592375367,3.156648093841634
255.05376344086022,2.2624946236559103
256.05474095796677,1.7692864125122156
257.0557184750733,1.2966334310850427
258.05669599217987,1.1009384164222873
259.0576735092864,1.054556207233627
260.05865102639297,1.151052785923755
261.0596285434995,1.527539589442816
262.06060606060606,1.9548787878787899
263.0615835777126,3.1448709677419364
264.06256109481916,4.425809384164223
265.0635386119257,6.45573607038123
266.06451612903226,8.952322580645157
267.0654936461388,11.097539589442812
268.06647116324535,12.3439560117302
269.0674486803519,13.542117302052784
270.06842619745845,14.027507331378297
271.069403714565,14.33370674486804
272.07038123167155,13.266891495601188
273.0713587487781,11.106018572825043
274.07233626588464,8.742425219941376
275.0733137829912,5.745718475073343
276.07429130009774,2.8055816226784214
277.0752688172043,0.7612688172042926
278.07624633431084,1.557847507331357
279.0772238514174,3.2296148582600024
280.07820136852393,4.48111827956988
281.0791788856305,5.274747800586523
282.08015640273703,4.411744868035204
283.0811339198436,3.5184222873900497
284.08211143695013,2.295501466275683
285.0830889540567,1.0462561094819292
286.0840664711632,0.5435190615835438
287.0850439882698,2.2813137829911656
288.0860215053764,4.106150537634485
289.0869990224829,6.272439882698022
290.0879765395895,8.500733137830007
291.088954056696,11.369530791788955
292.0899315738026,14.314989247311894
293.0909090909091,16.268454545454574
294.09188660801567,17.156325513196503
295.0928641251222,17.8851788856305
296.09384164222877,17.93031671554252
297.0948191593353,17.912643206256092
298.09579667644186,17.268213098729206
299.0967741935484,16.43693548387094
300.09775171065496,15.410081133919814
301.0987292277615,14.186780058651001
302.09970674486806,13.213384164222875
303.1006842619746,13.267839687194527
304.10166177908116,13.462428152492699
305.1026392961877,14.903595307917925
306.10361681329425,16.704850439882737
307.1045943304008,18.708990224828977
308.10557184750735,20.95143401759535
309.1065493646139,23.54423069403721
310.10752688172045,27.4924086021506
311.108504398827,31.554483870967818
312.10948191593354,36.56068523949177
313.1104594330401,41.7353343108505
314.11143695014664,46.25981524926691
315.1124144672532,50.100141739980494
316.11339198435974,53.54517399804499
317.1143695014663,55.7189824046921
318.11534701857283,57.8988025415445
319.1163245356794,60.084401759530806
320.11730205278593,62.397997067448706
321.1182795698925,65.7793978494624
322.119257086999,70.17605865102642
323.1202346041056,75.11032844574783
324.1212121212121,81.63206060606063
325.1221896383187,88.60254643206258
326.1231671554252,98.8636392961877
327.12414467253177,109.9925366568915
328.1251221896383,123.37172727272727
329.12609970674487,138.79370967741932
330.1270772238514,156.8947243401759
331.12805474095796,181.57934213098721
332.1290322580645,207.30835483870956
333.13000977517106,240.20265982404678
334.1309872922776,274.0112228739001
335.13196480938416,308.0758563049851
336.1329423264907,341.72429423264884
337.13391984359725,369.8011290322579
338.1348973607038,386.74708211143684
339.13587487781035,399.8794516129033
340.1368523949169,388.47806744868046
341.13782991202345,374.0459824046923
342.13880742913,349.0721329423269
343.13978494623655,318.2901720430112
344.1407624633431,286.3828093841647
345.14173998044964,252.68941055718528
346.1427174975562,220.08495894428194
347.14369501466274,193.7555337243406
348.1446725317693,168.38700195503458
349.14565004887584,149.11582697947247
350.1466275659824,132.65672434017623
351.14760508308893,118.75604985337266
352.1485826001955,108.04071065493669
353.14956011730203,97.77286803519081
354.1505376344086,89.19879569892493
355.1515151515151,80.9323333333335
356.1524926686217,74.4699912023462
357.1534701857282,68.59739491691118
358.1544477028348,63.351428152492794
359.1554252199413,58.73356891495613
360.15640273704787,54.59061681329431
361.1573802541544,51.670079178885715
362.15835777126097,48.6916862170089
363.1593352883675,45.387386119257194
364.16031280547406,42.3105298142718
365.1612903225806,40.892129032258076
366.16226783968716,40.62631671554252
367.1632453567937,40.65921309872921
368.16422287390026,41.23109970674485
369.1652003910068,41.87437438905177
370.16617790811335,42.87317204301071
371.1671554252199,44.03225513196474
372.16813294232645,45.99357282502435
373.169110459433,48.236825024437856
374.17008797653955,49.937319648093805
375.1710654936461,50.94055131964806
376.1720430107527,51.65496774193548
377.17302052785925,51.36986217008797
378.1739980449658,50.848425219941326
379.17497556207235,49.133499511241425
380.1759530791789,47.03056304985335
381.17693059628544,44.49760899315735
382.177908113392,41.67599022482891
383.17888563049854,39.524633431085036
384.1798631476051,38.812117302052776
385.18084066471164,38.23659530791789
386.1818181818182,38.28118181818182
387.18279569892474,38.52405376344086
388.1837732160313,39.717598240469215
389.18475073313783,41.482337243401766
390.1857282502444,43.63852297165201
391.18670576735093,46.330042033235586
392.1876832844575,49.35749853372434
393.188660801564,53.45077321603127
394.1896383186706,57.56717204301074
395.1906158357771,61.685574780058644
396.1915933528837,65.48851124144672
397.1925708699902,67.59681622678396
398.19354838709677,68.19854838709676
399.1945259042033,68.665403714565
400.19550342130987,68.8477771260997
401.1964809384164,68.79655425219943
402.19745845552296,67.76187194525906
403.1984359726295,66.63096578690129
404.19941348973606,65.50086217008798
405.2003910068426,64.37095894428154
406.20136852394916,63.27326979472142
407.2023460410557,62.273002932551336
408.20332355816225,60.9079198435973
409.20430107526886,58.53235483870958
410.2052785923754,56.07412609970663
411.20625610948196,53.30820136852384
412.2072336265885,50.270179863147455
413.20821114369505,46.324439882697774
414.2091886608016,41.78373411534687
415.21016617790815,37.85198240469198
416.2111436950147,34.97686217008788
417.21212121212125,32.37915151515146
418.2130987292278,30.79577908113387
419.21407624633434,29.235469208211093
420.2150537634409,27.675731182795648
421.21603128054744,26.15582111436946
422.217008797654,24.838818181818148
423.21798631476054,23.765978494623628
424.2189638318671,23.097544477028354
425.21994134897363,23.30596774193549
426.2209188660802,23.68770967741938
427.22189638318673,24.701532746823098
428.2228739002933,25.977689149560163
429.2238514173998,28.003496578690186
430.2248289345064,30.45993450635392
431.2258064516129,33.10270967741942
432.2267839687195,35.995135874877874
433.227761485826,39.251548387096854
434.22873900293257,43.446645161290405
435.2297165200391,46.97786119257089
436.23069403714567,48.13271945259043
437.2316715542522,48.39689149560116
438.23264907135876,47.018662756598204
439.2336265884653,44.40382502443788
440.23460410557186,40.74980351906151
441.2355816226784,35.669668621700815
442.23655913978496,30.92824731182791
443.2375366568915,27.167812316715498
444.23851417399806,23.73466666666664
445.2394916911046,21.44136950146626
446.24046920821115,19.509217008797638
447.2414467253177,17.81048387096773
448.24242424242425,16.38627272727272
449.2434017595308,15.51233724340176
450.24437927663735,15.43400293255132
451.2453567937439,15.385769305962855
452.24633431085044,15.324263929618768
453.247311827957,15.338505376344086
454.24828934506354,15.648053763440862
455.2492668621701,16.054953079178887
456.25024437927664,16.457095796676445
457.2512218963832,16.81933235581623
458.25219941348973,17.00358064516129
459.2531769305963,16.923214076246335
460.25415444770283,16.830330400782014
461.2551319648094,16.725914956011728
462.2561094819159,16.52447018572825
463.2570869990225,16.036118279569894
464.258064516129,15.619
465.2590420332356,15.85461876832844
466.2600195503421,16.50516813294232
467.26099706744867,16.662665689149563
468.2619745845552,16.086888563049857
469.26295210166177,15.393948191593365
470.2639296187683,14.365152492668635
471.26490713587486,13.428187683284467
472.2658846529814,12.785763440860222
473.26686217008796,12.232023460410566
474.2678396871945,11.66679569892474
475.26881720430106,11.091548387096784
476.2697947214076,10.506821114369512
477.27077223851416,9.919764418377333
478.2717497556207,9.577807429130004
479.27272727272725,9.864272727272722
480.2737047898338,10.13698435972629
481.27468230694035,10.398318670576728
482.2756598240469,10.587583577712609
483.27663734115345,10.543885630498538
484.27761485826,10.428597262952099
485.27859237536654,10.688357771260979
486.2795698924731,11.391827956989228
487.28054740957964,11.954222873900285
488.2815249266862,12.214914956011722
489.2825024437928,12.36851221896383
490.28347996089934,12.231288367546426
491.2844574780059,11.961296187683272
492.28543499511244,11.445894428152478
493.286412512219,10.800836754643191
494.28739002932554,10.157782991202332
495.2883675464321,9.517309872922763
496.28934506353863,8.880265884652967
497.2903225806452,8.24348387096773
498.29130009775173,7.485882697947194
499.2922776148583,6.427417399804477
500.2932551319648,5.424035190615822
501.2942326490714,4.676396871945249
502.2952101661779,3.976909090909078
503.2961876832845,3.0644516129032096
504.297165200391,2.0305513196480813
505.29814271749757,1.3410547409579643
506.2991202346041,1.1501671554252177
507.30009775171067,1.0926246334310878
508.3010752688172,1.3463763440860241
509.30205278592376,2.6342316715542875
510.3030303030303,6.632878787878829
511.30400782013686,9.48094819159334
512.3049853372434,6.310961876833192
513.3059628543499,1.9706226783967908
514.3069403714564,2.864755620723399
515.307917888563,2.1790058651026736
516.3088954056695,1.6490117302052918
517.3098729227761,1.403081133919857
518.3108504398826,1.1581524926686353
519.3118279569892,0.9142258064516265
520.3128054740957,0.6709882697947352
521.3137829912023,0.4280645161290463
522.3147605083088,0.24689149560117585
523.3157380254154,0.2803049853372308
524.3167155425219,0.4290674486803509
525.3176930596285,0.3802737047898454
526.318670576735,0.472201368523906
527.3196480938416,1.308038123167083
528.3206256109481,2.4514750733137096
529.3216031280547,4.050660801563861
530.3225806451612,6.737612903225612
531.3235581622678,9.607342130987112
532.3245356793743,12.239690127077054
533.3255131964809,14.740131964809212
534.3264907135874,17.24090029325496
535.327468230694,19.61233822091872
536.3284457478005,20.955384164222888
537.3294232649071,20.739844574780072
538.3304007820136,19.823844574780228
539.3313782991202,17.439844574780242
540.3323558162267,15.067105571847668
541.3333333333333,12.952333333333486
542.3343108504398,11.077475073313902
543.3352883675464,9.662135874877897
544.3362658846529,8.584114369501544
545.3372434017595,7.704372434017649
546.338220918866,7.031377321603182
547.3391984359725,6.357719452590475
548.3401759530791,5.683721407624689
549.3411534701856,5.008721407624689
550.3421309872922,4.333061583577769
551.3431085043987,3.5486363636364473
552.3440860215054,2.5081827956988927
553.345063538612,1.4550625610947945
554.3460410557185,0.6287302052785745
555.347018572825,0.29218768328446526
556.3479960899316,0.7282893450635552
557.3489736070381,1.3779413489736212
558.3499511241447,1.684911045943299
559.3509286412512,1.4593919843597214
560.3519061583578,1.3798064516129072
561.3528836754643,1.58392766373412
562.3538611925709,1.707337243401758
563.3548387096774,1.578709677419351
564.355816226784,1.3642111436950108
565.3567937438905,1.1520733137829877
566.3577712609971,0.9422258064516096
567.3587487781036,0.7337390029325483
568.3597262952102,0.527256109481913
569.3607038123167,0.3227771260997041
570.3616813294233,0.12645063538611703
571.3626588465298,0.08153176930596509
572.3636363636364,0.2813636363636384
573.3646138807429,0.35841251221896253
574.3655913978495,0.17694623655913758
575.366568914956,0.008700879765395825
576.3675464320626,0.07173118279570019
577.3685239491691,0.20142424242424262
578.3695014662757,0.15633724340175864
579.3704789833822,0.11787292277614939
580.3714565004888,0.17053763440860153
581.3724340175953,0.08242228739002952
582.3734115347019,0.20033431085044015
583.3743890518084,0.3831388074291301
584.375366568915,0.564565982404692
585.3763440860215,0.7443655913978493
586.377321603128,1.0276813294232638
587.3782991202346,1.5512199413489716
588.3792766373411,2.112881720430106
589.3802541544477,2.4521642228738996
590.3812316715542,2.5843988269794718
591.3822091886608,2.5146881720430128
592.3831867057673,2.2383714565004906
593.3841642228739,2.1433079178885617
594.3851417399804,2.313474095796675
595.386119257087,2.4828680351906143
596.3870967741935,2.6506451612903206
597.3880742913001,2.942380254154442
598.3890518084066,3.48376832844574
599.3900293255132,3.920774193548385
600.3910068426197,3.8922619745845597
601.3919843597263,3.595580645161295
602.3929618768328,3.2975043988269843
603.3939393939394,3.060060606060609
604.3949169110459,3.218453567937428
605.3958944281525,3.837662756598229
606.396871945259,4.2737057673509256
607.3978494623656,4.431462365591394
608.3988269794721,4.436263929618773
609.3998044965787,4.178659824046928
610.4007820136852,3.9921945259042038
611.4017595307918,4.048665689149557
612.4027370478983,4.110808406647118
613.4037145650049,3.943041055718483
614.4046920821114,3.747287390029326
615.405669599218,3.979647116324519
616.4066471163245,4.5882414467253
617.4076246334312,5.19642815249272
618.4086021505377,5.803612903225857
619.4095796676443,6.225075268817217
620.4105571847508,6.374299120234616
621.4115347018574,6.606975562072366
622.4125122189639,7.022956011730245
623.4134897360705,7.65395601173027
624.414467253177,8.554710654936539
625.4154447702836,9.471032258064577
626.4164222873901,10.168445747800629
627.4173998044967,10.73658748778108
628.4183773216032,11.315750733137873
629.4193548387098,11.905096774193593
630.4203323558163,12.499257086999066
631.4213098729228,13.08988758553279
632.4222873900294,13.871134897360779
633.423264907136,14.925930596285509
634.4242424242425,15.989545454545528
635.425219941349,17.052158357771333
636.4261974584556,18.516952101661914
637.4271749755621,20.71457869012724
638.4281524926687,23.06378885630513
639.4291300097752,25.181397849462495
640.4301075268818,27.4702580645163
641.4310850439883,30.660988269794963
642.4320625610949,34.56710361681354
643.4330400782014,38.687032258064775
644.434017595308,43.07415249266889
645.4349951124145,48.48823753665728
646.4359726295211,55.13542228739042
647.4369501466276,62.88770674486857
648.4379276637342,72.18559921798685
649.4389051808407,82.88338905180909
650.4398826979473,95.58609090909164
651.4408602150538,110.67160215053858
652.4418377321604,129.33928543499619
653.4428152492669,150.5778563049865
654.4437927663735,174.3587321603141
655.44477028348,199.88138709677548
656.4457478005866,226.08739296187815
657.4467253176931,251.9338817204313
658.4477028347997,271.9516940371463
659.4486803519062,285.9881730205285
660.4496578690128,291.3614555229714
661.4506353861193,286.36887878787854
662.4516129032259,276.5719032258058
663.4525904203324,260.2195395894421
664.453567937439,243.12908406647045
665.4545454545455,226.21945454545383
666.455522971652,211.84680351906113
667.4565004887586,202.23085532746794
668.4574780058651,196.9095219941348
669.4584555229717,196.90722385141754
670.4594330400782,201.7667390029328
671.4604105571848,212.30949853372488
672.4613880742913,228.23012414467314
673.4623655913979,250.17449462365684
674.4633431085044,277.9001055718484
675.464320625611,309.3512052785935
676.4652981427175,344.93760606060715
677.4662756598241,377.2192727272736
678.4672531769306,405.3284848484857
679.4682306940372,424.9923421309876
680.4692082111437,433.03012903225823
681.4701857282503,429.6260967741932
682.4711632453568,411.4232561094813
683.4721407624634,384.3033870967734
684.4731182795699,350.35981720430016
685.4740957966765,312.5514477028339
686.475073313783,274.0380439882689
687.4760508308896,236.02653274682226
688.4770283479961,202.35180351906095
689.4780058651027,172.67870087976482
690.4789833822092,147.09864809384123
691.4799608993158,125.47188465298103
692.4809384164223,107.38174193548362
693.4819159335289,93.19710557184727
694.4828934506354,80.84565689149545
695.483870967742,70.67596774193535
696.4848484848485,62.16354545454536
697.485826001955,55.56289442815242
698.4868035190616,49.90734604105565
699.4877810361681,44.95791593352878
700.4887585532747,40.401423264907095
701.4897360703812,36.07753665689146
702.4907135874878,32.20872531769303
703.4916911045943,29.280160312805457
704.4926686217009,26.971906158357754
705.4936461388074,24.66463929618767
706.494623655914,22.38509677419354
707.4956011730205,20.340058651026386
708.4965786901271,18.504778103616808
709.4975562072336,17.133199413489734
710.4985337243402,16.23381524926686
711.4995112414467,15.127642228739003
712.5004887585533,13.785331378299121
713.5014662756598,12.777551319648095
714.5024437927664,12.248998044965788
715.5034213098729,11.680019550342134
716.5043988269795,10.867049853372437
717.505376344086,9.967161290322586
718.5063538611926,9.0657751710655
719.5073313782991,8.263331378299124
720.5083088954057,7.697427174975566
721.5092864125122,7.339325513196483
722.5102639296188,7.21841055718475
723.5112414467253,7.21294916911046
724.5122189638319,6.968745845552302
725.5131964809384,6.539351906158363
726.514173998045,6.11093352883676
727.5151515151515,5.682000000000006
728.516129032258,5.252064516129039
729.5171065493646,4.822161290322587
730.5180840664711,4.392223851417407
731.5190615835777,3.9612844574780133
732.5200391006842,3.718117302052787
733.5210166177908,3.707924731182795
734.5219941348973,3.5885835777126154
735.5229716520039,3.23407624633432
736.5239491691104,2.9384046920821154
737.524926686217,2.8790469208211134
738.5259042033235,2.8080185728250284
739.5268817204301,2.4968064516129136
740.5278592375366,2.147950146627573
741.5288367546432,2.0406246334310842
742.5298142717497,2.0796627565982395
743.5307917888563,2.1181700879765386
744.5317693059628,2.118451612903227
