Raman Shift,Intensity 
400,3.562386576
401,3.621054533
402,3.605694457
403,3.568873991
404,3.512186573
405,3.634161698
406,3.626975535
407,3.665470154
408,3.591585823
409,3.579899902
410,3.556236498
411,3.639852418
412,3.609358491
413,3.61485894
414,3.673023617
415,3.667914022
416,3.538716172
417,3.591757746
418,3.642996414
419,3.647951203
420,3.574810555
421,3.571020295
422,3.563723663
423,3.581309065
424,3.600670384
425,3.539777939
426,3.550186333
427,3.602530271
428,3.540256717
429,3.581015236
430,3.621074436
431,3.571483894
432,3.43504143
433,3.620130072
434,3.512348366
435,3.577864158
436,3.580690676
437,3.625286555
438,3.592695829
439,3.584710066
440,3.539002296
441,3.570933143
442,3.555912443
443,3.6535577
444,3.583756504
445,3.558235191
446,3.616447807
447,3.545575703
448,3.537106823
449,3.463723858
450,3.651142127
451,3.561860252
452,3.511756184
453,3.68089068
454,3.527356786
455,3.571547966
456,3.582878381
457,3.604000765
458,3.611488486
459,3.569518641
460,3.59931916
461,3.584699778
462,3.586851762
463,3.625290166
464,3.624728381
465,3.649368721
466,3.660720611
467,3.646566225
468,3.654519747
469,3.61344719
470,3.657417462
471,3.563182362
472,3.59343614
473,3.643192902
474,3.602104482
475,3.563024215
476,3.629222107
477,3.590661401
478,3.623609537
479,3.589746508
480,3.61772345
481,3.510941472
482,3.607759466
483,3.598727573
484,3.578649256
485,3.506403478
486,3.54375128
487,3.589238739
488,3.593622247
489,3.537512774
490,3.610175008
491,3.664613887
492,3.581572561
493,3.617694251
494,3.537120749
495,3.560210329
496,3.565979299
497,3.539071554
498,3.563869253
499,3.563043216
500,3.592708884
501,3.57725809
502,3.651293539
503,3.593602441
504,3.58632669
505,3.567100883
506,3.56660879
507,3.629957972
508,3.715956773
509,3.573010135
510,3.638172781
511,3.695829731
512,3.591515961
513,3.635701482
514,3.68737868
515,3.558729203
516,3.551220571
517,3.529550085
518,3.586032038
519,3.730825702
520,3.564281875
521,3.526794946
522,3.591870516
523,3.601316181
524,3.526433166
525,3.523382157
526,3.520213047
527,3.630580389
528,3.626520413
529,3.578754977
530,3.602405557
531,3.605931193
532,3.514001647
533,3.632702297
534,3.619055847
535,3.561358171
536,3.56762806
537,3.62193518
538,3.572684735
539,3.567588455
540,3.696186786
541,3.610641135
542,3.605239715
543,3.559349492
544,3.596466109
545,3.568092395
546,3.626805512
547,3.608223366
548,3.59825639
549,3.599555543
550,3.645958199
551,3.63679616
552,3.549659267
553,3.594680512
554,3.601990601
555,3.518813922
556,3.550518448
557,3.636883533
558,3.687113866
559,3.554925278
560,3.658517532
561,3.636076016
562,3.612795499
563,3.659069504
564,3.545329016
565,3.679803912
566,3.639793724
567,3.647671952
568,3.597042774
569,3.553901566
570,3.632392938
571,3.599242453
572,3.662894013
573,3.607463266
574,3.549854877
575,3.641228104
576,3.630936174
577,3.587991342
578,3.623602162
579,3.559344707
580,3.523360765
581,3.49361978
582,3.614212784
583,3.630409364
584,3.63324838
585,3.618135956
586,3.64462273
587,3.592526453
588,3.591916844
589,3.579536667
590,3.599360919
591,3.478458282
592,3.535158387
593,3.626924614
594,3.5976083
595,3.604910468
596,3.624110817
597,3.56902937
598,3.647075034
599,3.667602674
600,3.630858696
601,3.581200631
602,3.57929896
603,3.511561446
604,3.589744296
605,3.649222552
606,3.669446468
607,3.638810846
608,3.56829289
609,3.539978821
610,3.569841003
611,3.632196954
612,3.551970158
613,3.743551212
614,3.613761058
615,3.565066378
616,3.622289201
617,3.594994938
618,3.565787815
619,3.574335818
620,3.634334087
621,3.68678015
622,3.553080044
623,3.570860431
624,3.56716154
625,3.544209417
626,3.62927698
627,3.543609585
628,3.635584485
629,3.59468352
630,3.671486191
631,3.57278454
632,3.552232754
633,3.649336147
634,3.640182418
635,3.65495785
636,3.538995981
637,3.599322576
638,3.637496324
639,3.643530353
640,3.492192653
641,3.594112795
642,3.64273044
643,3.572391041
644,3.583806177
645,3.620900047
646,3.688916556
647,3.557937233
648,3.535130714
649,3.660694553
650,3.571544988
651,3.563759244
652,3.583070098
653,3.652400778
654,3.65416528
655,3.579800607
656,3.57197535
657,3.595533293
658,3.585575699
659,3.65621334
660,3.597336026
661,3.554799872
662,3.511252078
663,3.659113535
664,3.558533683
665,3.567363324
666,3.510800355
667,3.57758122
668,3.65417618
669,3.567136947
670,3.57857457
671,3.64174487
672,3.684036331
673,3.602693727
674,3.574451591
675,3.566113552
676,3.602641605
677,3.596657882
678,3.591656903
679,3.586384806
680,3.557061696
681,3.614290826
682,3.588431299
683,3.669204544
684,3.628523941
685,3.622856584
686,3.544199276
687,3.679440902
688,3.646805895
689,3.573433745
690,3.573566623
691,3.596373015
692,3.606705916
693,3.642351696
694,3.615843849
695,3.608828768
696,3.556584094
697,3.614587795
698,3.641761096
699,3.488039373
700,3.662573083
701,3.677164669
702,3.570373221
703,3.514312814
704,3.553713775
705,3.563292754
706,3.63097896
707,3.533587599
708,3.611397098
709,3.5399081
710,3.618846268
711,3.53332633
712,3.629836926
713,3.677789419
714,3.584365284
715,3.556737273
716,3.572439066
717,3.69174315
718,3.571907107
719,3.619240388
720,3.541553791
721,3.584789203
722,3.573766917
723,3.5466828
724,3.583800429
725,3.612857792
726,3.638561607
727,3.566633887
728,3.482676488
729,3.592445919
730,3.58343572
731,3.693037581
732,3.632272265
733,3.677691873
734,3.649110858
735,3.578924119
736,3.610951951
737,3.619039991
738,3.581037099
739,3.569724219
740,3.551432382
741,3.530037006
742,3.565127581
743,3.625996099
744,3.601422596
745,3.611618085
746,3.607943811
747,3.631503521
748,3.639394952
749,3.693879038
750,3.51337975
751,3.619042101
752,3.555657727
753,3.527415089
754,3.600992688
755,3.495339874
756,3.598738187
757,3.693993652
758,3.658495447
759,3.662274171
760,3.58161998
761,3.618537142
762,3.5905649
763,3.642360877
764,3.596682137
765,3.555823831
766,3.586584538
767,3.619177812
768,3.567371394
769,3.62791263
770,3.574445766
771,3.652372841
772,3.61591439
773,3.567275563
774,3.587292244
775,3.610664338
776,3.606665023
777,3.597751282
778,3.591503157
779,3.63372033
780,3.560625476
781,3.613458587
782,3.557673064
783,3.514408624
784,3.608173912
785,3.592196292
786,3.583335195
787,3.6451025
788,3.536595587
789,3.519049515
790,3.52606207
791,3.560114591
792,3.696724782
793,3.553769832
794,3.581298019
795,3.639260469
796,3.54221569
797,3.592260173
798,3.573319567
799,3.684320671
800,3.585552688
801,3.649714661
802,3.597172407
803,3.599963542
804,3.552594347
805,3.629648846
806,3.621859832
807,3.501556027
808,3.552077111
809,3.560481213
810,3.695315817
811,3.622958829
812,3.555133155
813,3.619950606
814,3.533240706
815,3.675081646
816,3.541410505
817,3.62174502
818,3.621370106
819,3.545893161
820,3.677404523
821,3.599804306
822,3.624974772
823,3.614627634
824,3.600308867
825,3.648154429
826,3.600826641
827,3.677883524
828,3.595770042
829,3.550908793
830,3.661148518
831,3.710914013
832,3.590669154
833,3.553208155
834,3.538944636
835,3.612298706
836,3.624530762
837,3.626875395
838,3.589513651
839,3.586821379
840,3.560460138
841,3.573930049
842,3.675074922
843,3.557314106
844,3.576748843
845,3.638559694
846,3.597761416
847,3.641202778
848,3.537189832
849,3.545421688
850,3.528815864
851,3.487081597
852,3.585531539
853,3.567960093
854,3.57640932
855,3.574223387
856,3.559685141
857,3.604944211
858,3.586009072
859,3.591246734
860,3.577139835
861,3.56525358
862,3.636226246
863,3.574259756
864,3.497201966
865,3.621537852
866,3.620076666
867,3.600102523
868,3.539089903
869,3.662216156
870,3.610286647
871,3.649796076
872,3.643528636
873,3.587156102
874,3.571945026
875,3.617706639
876,3.576856449
877,3.648785633
878,3.538615975
879,3.455242486
880,3.602287148
881,3.626949678
882,3.602591289
883,3.553092935
884,3.529141771
885,3.660452263
886,3.560950627
887,3.54263947
888,3.603380953
889,3.721151116
890,3.594077534
891,3.572991072
892,3.521298022
893,3.621727773
894,3.529728838
895,3.636836434
896,3.647875915
897,3.495640852
898,3.559204749
899,3.608101925
900,3.572079695
901,3.505592509
902,3.500714576
903,3.487345882
904,3.55097605
905,3.681441519
906,3.644952536
907,3.633641585
908,3.567578997
909,3.607362549
910,3.734191646
911,3.573493667
912,3.656044772
913,3.635683674
914,3.613941402
915,3.651587846
916,3.63858232
917,3.618018915
918,3.577871806
919,3.608222033
920,3.584835825
921,3.653024889
922,3.634642584
923,3.607032737
924,3.607398444
925,3.659780952
926,3.56454609
927,3.650323439
928,3.562526578
929,3.563287303
930,3.587204739
931,3.614593815
932,3.562367026
933,3.587509075
934,3.550395112
935,3.510395461
936,3.61615297
937,3.575508492
938,3.517252969
939,3.574647696
940,3.60287378
941,3.503705295
942,3.600445082
943,3.51722938
944,3.608715821
945,3.592857968
946,3.671017729
947,3.622698115
948,3.611819608
949,3.59089734
950,3.649193469
951,3.586977929
952,3.596734275
953,3.542178117
954,3.625108854
955,3.548996247
956,3.607510911
957,3.633184288
958,3.485707398
959,3.53247132
960,3.670961681
961,3.677228507
962,3.590098584
963,3.592307827
964,3.575985184
965,3.528661899
966,3.435445139
967,3.637814995
968,3.638736176
969,3.615422847
970,3.665112014
971,3.531859271
972,3.572775903
973,3.729750683
974,3.700928239
975,3.697171203
976,3.585410767
977,3.511498226
978,3.731321199
979,3.596232023
980,3.60466713
981,3.602983139
982,3.60456808
983,3.664678187
984,3.665483573
985,3.623055611
986,3.580490105
987,3.503639756
988,3.593561086
989,3.540898698
990,3.573873371
991,3.64088514
992,3.67798231
993,3.585318461
994,3.548156688
995,3.600135343
996,3.526598514
997,3.636776444
998,3.585786601
999,3.588056857
1000,3.551030824
1001,3.581491029
1002,3.564458383
1003,3.666129222
1004,3.602193494
1005,3.622450569
1006,3.610545276
1007,3.610798096
1008,3.612022956
1009,3.556167034
1010,3.634679448
1011,3.546873664
1012,3.639164702
1013,3.555444008
1014,3.597101795
1015,3.59554372
1016,3.593571011
1017,3.641725645
1018,3.546504798
1019,3.546259915
1020,3.572260147
1021,3.605969905
1022,3.652382748
1023,3.580237452
1024,3.656199566
1025,3.564985924
1026,3.606737905
1027,3.599462713
1028,3.59316648
1029,3.641793305
1030,3.552709601
1031,3.453451458
1032,3.675414079
1033,3.635839512
1034,3.643143096
1035,3.694809672
1036,3.509082398
1037,3.545160672
1038,3.566481497
1039,3.572017749
1040,3.579257606
1041,3.680907144
1042,3.659459528
1043,3.622594667
1044,3.655201206
1045,3.574875508
1046,3.554144876
1047,3.714282366
1048,3.688690741
1049,3.569282235
1050,3.56783808
1051,3.65505571
1052,3.666607189
1053,3.628551933
1054,3.569266372
1055,3.605844792
1056,3.602514223
1057,3.621874738
1058,3.566760455
1059,3.542176722
1060,3.576774961
1061,3.674505344
1062,3.580952104
1063,3.614780923
1064,3.584952399
1065,3.602397152
1066,3.49424643
1067,3.629257608
1068,3.612517884
1069,3.568926228
1070,3.600911474
1071,3.644177169
1072,3.562960997
1073,3.672000093
1074,3.578538027
1075,3.685147568
1076,3.644579753
1077,3.577190928
1078,3.591962513
1079,3.633213199
1080,3.56600385
1081,3.596455345
1082,3.61241142
1083,3.574556459
1084,3.488193512
1085,3.642488074
1086,3.553093048
1087,3.581178084
1088,3.623731978
1089,3.593050088
1090,3.633692948
1091,3.536363904
1092,3.57749391
1093,3.65459812
1094,3.611670464
1095,3.570505656
1096,3.70684451
1097,3.625619103
1098,3.486577571
1099,3.502374716
1100,3.632865176
1101,3.667338678
1102,3.590036185
1103,3.642832641
1104,3.568758662
1105,3.620655439
1106,3.663359594
1107,3.711254047
1108,3.638645625
1109,3.630608005
1110,3.572561797
1111,3.641745679
1112,3.680616809
1113,3.614972167
1114,3.563252012
1115,3.644097204
1116,3.577050649
1117,3.562379563
1118,3.589042328
1119,3.652184369
1120,3.603821597
1121,3.538726796
1122,3.615029266
1123,3.737439066
1124,3.574126912
1125,3.526947206
1126,3.651814165
1127,3.510175388
1128,3.601474792
1129,3.508710523
1130,3.637905496
1131,3.584352377
1132,3.695670525
1133,3.552543236
1134,3.61702737
1135,3.470806541
1136,3.540550562
1137,3.740338665
1138,3.668208327
1139,3.591795168
1140,3.488024581
1141,3.61441791
1142,3.582111776
1143,3.560864946
1144,3.613901511
1145,3.593385409
1146,3.645569313
1147,3.683699018
1148,3.64309824
1149,3.591763352
1150,3.585973887
1151,3.632506911
1152,3.595595477
1153,3.652265471
1154,3.520300753
1155,3.647577418
1156,3.555991637
1157,3.551005437
1158,3.600402046
1159,3.621591127
1160,3.708160049
1161,3.606411549
1162,3.579792439
1163,3.58626816
1164,3.502389928
1165,3.652254322
1166,3.581884063
1167,3.618207147
1168,3.543698983
1169,3.538854786
1170,3.647666886
1171,3.621897102
1172,3.618055422
1173,3.562090959
1174,3.613626364
1175,3.521086201
1176,3.642236886
1177,3.601718415
1178,3.59218723
1179,3.636202156
1180,3.649584917
1181,3.696219075
1182,3.667614327
1183,3.621635592
1184,3.549941486
1185,3.58907868
1186,3.583986038
1187,3.586401953
1188,3.621311545
1189,3.746644669
1190,3.670722929
1191,3.58494682
1192,3.627109408
1193,3.648178541
1194,3.607679526
1195,3.595081443
1196,3.517942305
1197,3.627244532
1198,3.548748616
1199,3.632095258
1200,3.728875967
1201,3.593909185
1202,3.553184369
1203,3.559995691
1204,3.561827602
1205,3.540205438
1206,3.509693014
1207,3.580768531
1208,3.559324903
1209,3.596471004
1210,3.605466575
1211,3.610679444
1212,3.614161706
1213,3.547496262
1214,3.701570259
1215,3.622173819
1216,3.681842678
1217,3.615552525
1218,3.607972368
1219,3.597123501
1220,3.562428649
1221,3.611434277
1222,3.632800559
1223,3.542471943
1224,3.6600076
1225,3.574694016
1226,3.575389967
1227,3.536630105
1228,3.741611028
1229,3.681923112
1230,3.533501557
1231,3.601900018
1232,3.564324433
1233,3.631212092
1234,3.587829141
1235,3.544520962
1236,3.675294144
1237,3.666073339
1238,3.58205534
1239,3.617210245
1240,3.581627468
1241,3.575708908
1242,3.599515039
1243,3.553539913
1244,3.619849339
1245,3.691374262
1246,3.608401268
1247,3.635400888
1248,3.568170217
1249,3.630842555
1250,3.547361645
1251,3.620996736
1252,3.607717979
1253,3.554371288
1254,3.588478943
1255,3.538728935
1256,3.572093416
1257,3.598594486
1258,3.591582216
1259,3.572213518
1260,3.575562769
1261,3.624024073
1262,3.634224039
1263,3.52418105
1264,3.585510567
1265,3.604224314
1266,3.569325269
1267,3.614997241
1268,3.633972859
1269,3.602568056
1270,3.594091042
1271,3.56010875
1272,3.64792802
1273,3.546109626
1274,3.650803882
1275,3.611329544
1276,3.562814248
1277,3.633837358
1278,3.591721548
1279,3.620787848
1280,3.642879949
1281,3.656557522
1282,3.570012877
1283,3.590457917
1284,3.592446857
1285,3.57312564
1286,3.569326558
1287,3.625443773
1288,3.626370921
1289,3.654725536
1290,3.601839876
1291,3.51359967
1292,3.552780968
1293,3.55694504
1294,3.665301364
1295,3.647767858
1296,3.537970932
1297,3.60090265
1298,3.619254243
1299,3.635293293
1300,3.56602189
1301,3.686645141
1302,3.642634967
1303,3.694061563
1304,3.63298022
1305,3.621279249
1306,3.650228704
1307,3.645999747
1308,3.616991995
1309,3.627187909
1310,3.57974792
1311,3.499249794
1312,3.63131533
1313,3.585851881
1314,3.609808531
1315,3.606252386
1316,3.643630738
1317,3.627699141
1318,3.600376406
1319,3.65727572
1320,3.589708982
1321,3.589461701
1322,3.57708315
1323,3.633123847
1324,3.633854543
1325,3.59266553
1326,3.62719011
1327,3.499333895
1328,3.596880594
1329,3.663415491
1330,3.570449169
1331,3.57291615
1332,3.586367904
1333,3.540896486
1334,3.55163892
1335,3.566786692
1336,3.610485011
1337,3.597666643
1338,3.600600192
1339,3.589765906
1340,3.60587078
1341,3.597959238
1342,3.616346244
1343,3.595667964
1344,3.639762528
1345,3.596188867
1346,3.594295711
1347,3.582990766
1348,3.675874941
1349,3.625456871
1350,3.577105262
1351,3.587753422
1352,3.529240359
1353,3.600499818
1354,3.499570795
1355,3.673560946
1356,3.535598971
1357,3.572976101
1358,3.560036014
1359,3.622988414
1360,3.578079455
1361,3.573449298
1362,3.623516957
1363,3.583978066
1364,3.691564687
1365,3.643652562
1366,3.609841228
1367,3.685705574
1368,3.623598178
1369,3.594343529
1370,3.649426406
1371,3.557245968
1372,3.590180485
1373,3.45003533
1374,3.658570139
1375,3.576921984
1376,3.582218653
1377,3.640677091
1378,3.602571999
1379,3.559303329
1380,3.67537235
1381,3.506829354
1382,3.611282842
1383,3.561063581
1384,3.484984489
1385,3.54035478
1386,3.541528193
1387,3.568928942
1388,3.571680771
1389,3.652002067
1390,3.556320667
1391,3.625471932
1392,3.591835759
1393,3.58760825
1394,3.614264203
1395,3.598649267
1396,3.698489787
1397,3.489035143
1398,3.587280937
1399,3.596486026
1400,3.512185072
1401,3.589300364
1402,3.587688658
1403,3.611811992
1404,3.575422863
1405,3.532157662
1406,3.632953131
1407,3.593105192
1408,3.724965613
1409,3.598335834
1410,3.692663063
1411,3.589348645
1412,3.62028167
1413,3.620103436
1414,3.536640524
1415,3.612096306
1416,3.628172611
1417,3.672977423
1418,3.567500376
1419,3.616844908
1420,3.566570202
1421,3.641513921
1422,3.543508304
1423,3.623827654
1424,3.558234976
1425,3.663387405
1426,3.588229011
1427,3.583078409
1428,3.622279103
1429,3.660111671
1430,3.690654871
1431,3.616106223
1432,3.618684481
1433,3.616014171
1434,3.631110553
1435,3.625331014
1436,3.672358087
1437,3.6166422
1438,3.582414845
1439,3.593882953
1440,3.616237095
1441,3.607515847
1442,3.616626177
1443,3.68861628
1444,3.63039974
1445,3.645401291
1446,3.628280804
1447,3.723386944
1448,3.633429038
1449,3.727192746
1450,3.672097342
1451,3.600480028
1452,3.651276046
1453,3.618293925
1454,3.581573608
1455,3.605377513
1456,3.687783654
1457,3.565797021
1458,3.631053821
1459,3.678336562
1460,3.653251714
1461,3.709861361
1462,3.55542598
1463,3.686184425
1464,3.682525203
1465,3.634579535
1466,3.792063167
1467,3.667647328
1468,3.616865211
1469,3.573852792
1470,3.597177915
1471,3.707138245
1472,3.702209954
1473,3.66224181
1474,3.639996387
1475,3.653381233
1476,3.69500481
1477,3.619967129
1478,3.675388526
1479,3.615150879
1480,3.603568209
1481,3.706960114
1482,3.583398143
1483,3.750732546
1484,3.699461689
1485,3.681088668
1486,3.672063269
1487,3.576546991
1488,3.688302219
1489,3.663258816
1490,3.776888673
1491,3.692779157
1492,3.62143813
1493,3.734350764
1494,3.681085718
1495,3.650444973
1496,3.655210295
1497,3.631887381
1498,3.741828284
1499,3.745291955
1500,3.698333339
1501,3.750437893
1502,3.788967922
1503,3.762462752
1504,3.719011275
1505,3.706459267
1506,3.791720874
1507,3.682589376
1508,3.745113819
1509,3.81528037
1510,3.767711336
1511,3.789015936
1512,3.699376672
1513,3.731302181
1514,3.724248782
1515,3.809040278
1516,3.715493781
1517,3.715067978
1518,3.726252903
1519,3.749627433
1520,3.770532741
1521,3.822971677
1522,3.733277564
1523,3.765750583
1524,3.771087747
1525,3.859698431
1526,3.824317342
1527,3.82207377
1528,3.823805658
1529,3.801217342
1530,3.801369629
1531,3.748643364
1532,3.75924621
1533,3.877511431
1534,3.830213205
1535,3.681215523
1536,3.795301633
1537,3.775103548
1538,3.749558987
1539,3.806619182
1540,3.802582207
1541,3.857106536
1542,3.796408109
1543,3.760031309
1544,3.764057067
1545,3.781872589
1546,3.8277347
1547,3.877778384
1548,3.92154971
1549,3.816825517
1550,3.796712253
1551,3.866293046
1552,3.899034413
1553,3.8193473
1554,3.791174368
1555,3.821784362
1556,3.975226572
1557,3.766143
1558,3.828174576
1559,3.809672009
1560,3.768862294
1561,3.863361918
1562,3.795082306
1563,3.817543355
1564,3.867885423
1565,3.708815621
1566,3.81616243
1567,3.794788245
1568,3.817910006
1569,3.935177146
1570,3.877478275
1571,3.980133187
1572,3.808009031
1573,3.851661369
1574,3.783266567
1575,3.852044706
1576,3.913533308
1577,3.81621176
1578,3.883713669
1579,3.967127895
1580,3.882430716
1581,3.940486101
1582,3.865810629
1583,3.947763065
1584,3.934013139
1585,3.940150187
1586,3.785363772
1587,3.874525421
1588,3.871683971
1589,3.831445115
1590,3.853777806
1591,3.839951904
1592,3.943552159
1593,3.925573345
1594,3.843831224
1595,4.004004045
1596,3.917836919
1597,3.888657313
1598,3.867699438
1599,4.016640503
1600,3.922767003
1601,3.895256856
1602,3.85647585
1603,3.808121816
1604,3.878163184
1605,3.938076592
1606,3.957316457
1607,3.874399922
1608,3.950001187
1609,3.927830798
1610,3.841300805
1611,3.888051152
1612,3.915506923
1613,3.86183632
1614,3.950170006
1615,3.907922582
1616,3.877755807
1617,3.893747819
1618,3.720471521
1619,3.955078715
1620,3.929689502
1621,3.952264168
1622,3.900614589
1623,3.970197725
1624,3.907056774
1625,3.909444742
1626,3.910851133
1627,3.902772494
1628,3.90164453
1629,3.893442571
1630,3.875587233
1631,3.90269795
1632,3.846141582
1633,3.924118912
1634,3.840299536
1635,3.994806895
1636,3.903960586
1637,4.003254982
1638,3.982457321
1639,3.81378659
1640,3.884583364
1641,3.83515125
1642,3.874728048
1643,3.831064969
1644,3.771138343
1645,3.9285273
1646,3.786114943
1647,3.853373184
1648,3.942720013
1649,3.893368357
1650,3.853565302
1651,3.820115075
1652,3.845991904
1653,3.880045195
1654,3.918105061
1655,3.862092565
1656,3.843099627
1657,3.822912901
1658,3.830412569
1659,3.748861917
1660,3.859396156
1661,3.895694355
1662,3.789053534
1663,3.769930276
1664,3.812773536
1665,3.816699046
1666,3.796499551
1667,3.750469268
1668,3.838161657
1669,3.782389634
1670,3.779168261
1671,3.809252054
1672,3.823366152
1673,3.755046076
1674,3.884955684
1675,3.842290159
1676,3.855640572
1677,3.754826068
1678,3.838394962
1679,3.709629532
1680,3.804142015
1681,3.822687776
1682,3.736061743
1683,3.850479542
1684,3.826955872
1685,3.69731143
1686,3.760428962
1687,3.740998996
1688,3.83052432
1689,3.75879931
1690,3.73754891
1691,3.791312787
1692,3.766009399
1693,3.796835768
1694,3.79715282
1695,3.757595621
1696,3.784982608
1697,3.675257196
1698,3.721804272
1699,3.709429067
1700,3.780107073
1701,3.709571638
1702,3.708742449
1703,3.734639122
1704,3.77967912
1705,3.722936512
1706,3.678605631
1707,3.682721802
1708,3.825500984
1709,3.820634735
1710,3.722851085
1711,3.718952792
1712,3.746378049
1713,3.738961282
1714,3.768054403
1715,3.756054881
1716,3.680396942
1717,3.835987782
1718,3.740506259
1719,3.65836347
1720,3.70002162
1721,3.789328356
1722,3.651090033
1723,3.647178698
1724,3.868367343
1725,3.676676234
1726,3.710889101
1727,3.680627383
1728,3.691425105
1729,3.729017941
1730,3.659464641
1731,3.763877052
1732,3.749181931
1733,3.603277137
1734,3.733517214
1735,3.65920188
1736,3.722142192
1737,3.700976946
1738,3.648907999
1739,3.671414419
1740,3.649111422
1741,3.659800155
1742,3.590007185
1743,3.70052487
1744,3.632769001
1745,3.710403382
1746,3.694258214
1747,3.6744335
1748,3.663478407
1749,3.604140106
1750,3.710152363
1751,3.663514772
1752,3.698293486
1753,3.629148646
1754,3.702022667
1755,3.595864329
1756,3.650324491
1757,3.681000905
1758,3.632492323
1759,3.616176036
1760,3.619659616
1761,3.642191469
1762,3.62540878
1763,3.674065301
1764,3.707416078
1765,3.670887739
1766,3.68854546
1767,3.675730681
1768,3.689100418
1769,3.649916925
1770,3.631103199
1771,3.592218663
1772,3.621136571
1773,3.652189704
1774,3.672084364
1775,3.630736004
1776,3.603404759
1777,3.674846348
1778,3.641864804
1779,3.62309926
1780,3.649312985
1781,3.5851301
1782,3.646447085
1783,3.609933358
1784,3.598121935
1785,3.589331273
1786,3.636192782
1787,3.590333085
1788,3.606574087
1789,3.595294797
1790,3.529812248
1791,3.641214684
1792,3.496262749
1793,3.59544994
1794,3.594576033
1795,3.565079005
1796,3.567251678
1797,3.600106753
1798,3.551490878
1799,3.56952286
1800,3.5680787
1801,3.656463878
1802,3.536224711
1803,3.595950899
1804,3.565241622
1805,3.625981833
1806,3.618047564
1807,3.556515034
1808,3.611484306
1809,3.590215553
1810,3.604372051
1811,3.546491698
1812,3.718630379
1813,3.697678334
1814,3.561783765
1815,3.639221315
1816,3.626366686
1817,3.710649404
1818,3.542531332
1819,3.52690162
1820,3.621984454
1821,3.62318845
1822,3.649439203
1823,3.57381745
1824,3.559178828
1825,3.603639261
1826,3.573677597
1827,3.57387406
1828,3.635673455
1829,3.755119117
1830,3.638557743
1831,3.587634386
1832,3.620675877
1833,3.618862219
1834,3.58373352
1835,3.53750852
1836,3.631530248
1837,3.545643717
1838,3.617942349
1839,3.655569234
1840,3.655364557
1841,3.576710906
1842,3.606266328
1843,3.526746473
1844,3.615874351
1845,3.544852275
1846,3.613950094
1847,3.718684394
1848,3.721077497
1849,3.605898197
1850,3.535778712
1851,3.593710967
1852,3.611458432
1853,3.627896561
1854,3.624850619
1855,3.704430468
1856,3.633569891
1857,3.585088645
1858,3.651236549
1859,3.532338251
1860,3.521334911
1861,3.651425207
1862,3.572881836
1863,3.608543803
1864,3.602328843
1865,3.589315482
1866,3.608847788
1867,3.646877373
1868,3.709114069
1869,3.592164603
1870,3.55676593
1871,3.684620741
1872,3.549927418
1873,3.580058988
1874,3.488664434
1875,3.640911585
1876,3.662372472
1877,3.580271682
1878,3.62246664
1879,3.657481842
1880,3.615112979
1881,3.626755762
1882,3.599571786
1883,3.621611875
1884,3.531294668
1885,3.535843395
1886,3.607277088
1887,3.728820912
1888,3.551849012
1889,3.58757486
1890,3.555791656
1891,3.5393661
1892,3.549009022
1893,3.632602798
1894,3.608351082
1895,3.596255855
1896,3.650761375
1897,3.639010563
1898,3.623022225
1899,3.657159659
1900,3.608657244
1901,3.551887268
1902,3.590905177
1903,3.680427879
1904,3.523127022
1905,3.61396063
1906,3.58504783
1907,3.568266645
1908,3.607389832
1909,3.53137383
1910,3.596020464
1911,3.641640887
1912,3.616500811
1913,3.559274611
1914,3.500991552
1915,3.565613684
1916,3.492243786
1917,3.677266383
1918,3.592915488
1919,3.639782345
1920,3.595691746
1921,3.655394447
1922,3.637767167
1923,3.6279055
1924,3.684827653
1925,3.552460675
1926,3.534984882
1927,3.58864586
1928,3.60768854
1929,3.679722292
1930,3.543244115
1931,3.660781033
1932,3.625951638
1933,3.58854945
1934,3.559864631
1935,3.574842849
1936,3.546293211
1937,3.632418807
1938,3.572580958
1939,3.578067845
1940,3.625151877
1941,3.638194654
1942,3.634968508
1943,3.494793011
1944,3.610593404
1945,3.631019487
1946,3.680825505
1947,3.590947083
1948,3.620794526
1949,3.553406764
1950,3.586394514
1951,3.673742143
1952,3.629201686
1953,3.601750413
1954,3.555680507
1955,3.610040526
1956,3.602234368
1957,3.596206246
1958,3.630564842
1959,3.619919262
1960,3.678762415
1961,3.646046064
1962,3.644071544
1963,3.632835089
1964,3.551970834
1965,3.57680766
1966,3.609616975
1967,3.61237947
1968,3.545324232
1969,3.64683583
1970,3.569602265
1971,3.572090783
1972,3.607052391
1973,3.630728785
1974,3.550118807
1975,3.628419268
1976,3.591738621
1977,3.621932242
1978,3.679648698
1979,3.569278843
1980,3.549028603
1981,3.631271138
1982,3.641271413
1983,3.629309911
1984,3.600362662
1985,3.664876107
1986,3.537121381
1987,3.560641476
1988,3.512710302
1989,3.600440676
1990,3.595618849
1991,3.546377146
1992,3.550833833
1993,3.550168296
1994,3.566790863
1995,3.590477776
1996,3.642498982
1997,3.645653302
1998,3.635476596
1999,3.646634259
2000,3.568569242
2001,3.569788703
2002,3.62929164
2003,3.612591252
2004,3.57013161
2005,3.671761441
2006,3.567519177
2007,3.668972705
2008,3.586146564
2009,3.606647916
2010,3.58001976
2011,3.581018784
2012,3.655661873
2013,3.546453205
2014,3.548310913
2015,3.509970781
2016,3.645162229
2017,3.587215973
2018,3.56780471
2019,3.621318666
2020,3.602117537
2021,3.601570845
2022,3.625977443
2023,3.586605425
2024,3.676892926
2025,3.536988136
2026,3.604690525
2027,3.560461716
2028,3.654245559
2029,3.560674701
2030,3.656052877
2031,3.626653218
2032,3.627538556
2033,3.502725039
2034,3.703252825
2035,3.619272619
2036,3.595197555
2037,3.591248119
2038,3.613657631
2039,3.694026364
2040,3.489562638
2041,3.528105661
2042,3.59782404
2043,3.535106906
2044,3.566792276
2045,3.644016935
2046,3.552944658
2047,3.576201934
2048,3.556606274
2049,3.654443444
2050,3.566045785
2051,3.566846084
2052,3.614215996
2053,3.534890714
2054,3.581548307
2055,3.515952029
2056,3.581398103
2057,3.596934399
2058,3.557782
2059,3.648719095
2060,3.646727315
2061,3.546547913
2062,3.541384792
2063,3.527809471
2064,3.618230178
2065,3.577158535
2066,3.624915182
2067,3.592690475
2068,3.578431669
2069,3.657469448
2070,3.593677543
2071,3.581677175
2072,3.612169891
2073,3.568393835
2074,3.707583259
2075,3.575221367
2076,3.558278228
2077,3.67208046
2078,3.597047506
2079,3.532803496
2080,3.594084136
2081,3.548040801
2082,3.576183298
2083,3.602012966
2084,3.558403376
2085,3.672020179
2086,3.622981916
2087,3.543340413
2088,3.60670829
2089,3.579533049
2090,3.562696333
2091,3.588254405
2092,3.552914139
2093,3.600915834
2094,3.608171429
2095,3.554456763
2096,3.584179299
2097,3.501067914
2098,3.571739844
2099,3.656263403
2100,3.567391731
2101,3.613566487
2102,3.612830822
2103,3.54842524
2104,3.624222665
2105,3.591329503
2106,3.533744855
2107,3.635819514
2108,3.556910871
2109,3.563386785
2110,3.526247398
2111,3.668120124
2112,3.567825781
2113,3.65630457
2114,3.541272347
2115,3.625547485
2116,3.583279098
2117,3.457332462
2118,3.584800561
2119,3.590409791
2120,3.632255822
2121,3.587282863
2122,3.529772233
2123,3.594146374
2124,3.618773266
2125,3.559652633
2126,3.618728315
2127,3.602680752
2128,3.581393237
2129,3.567015786
2130,3.607543682
2131,3.519756747
2132,3.653312279
2133,3.606135661
2134,3.550987295
2135,3.524676348
2136,3.519127523
2137,3.639041032
2138,3.615666712
2139,3.667833943
2140,3.60503833
2141,3.561246682
2142,3.541531201
2143,3.634824523
2144,3.660282948
2145,3.552236964
2146,3.50245376
2147,3.631625345
2148,3.555077464
2149,3.599197742
2150,3.586440597
2151,3.661946679
2152,3.603143457
2153,3.656293291
2154,3.598620201
2155,3.648386873
2156,3.661888903
2157,3.630772207
2158,3.573263739
2159,3.558913836
2160,3.638433128
2161,3.624672449
2162,3.660422897
2163,3.664714969
2164,3.583014544
2165,3.657017772
2166,3.608786183
2167,3.554563951
2168,3.605461612
2169,3.565106045
2170,3.649971918
2171,3.577160537
2172,3.571664676
2173,3.608232752
2174,3.639197455
2175,3.61497888
2176,3.631489688
2177,3.667806802
2178,3.611323311
2179,3.61329766
2180,3.591164425
2181,3.603427015
2182,3.592938791
2183,3.631614726
2184,3.578051298
2185,3.564126958
2186,3.625885583
2187,3.57610066
2188,3.612474319
2189,3.568958089
2190,3.639526513
2191,3.680821016
2192,3.617728199
2193,3.550558304
2194,3.616952854
2195,3.584522324
2196,3.646255886
2197,3.582117389
2198,3.557698666
2199,3.602309926
2200,3.538981412
2201,3.707282047
2202,3.561342329
2203,3.53114341
2204,3.640798603
2205,3.543551274
2206,3.5947749
2207,3.578291037
2208,3.558919777
2209,3.656323158
2210,3.526906108
2211,3.656948101
2212,3.616547321
2213,3.612954973
2214,3.496373167
2215,3.555644989
2216,3.536912823
2217,3.604899493
2218,3.603948106
2219,3.635673372
2220,3.595858299
2221,3.614169954
2222,3.559505053
2223,3.550507062
2224,3.513176855
2225,3.666330229
2226,3.709749756
2227,3.61776359
2228,3.555504294
2229,3.566284817
2230,3.564846017
2231,3.652920437
2232,3.592733138
2233,3.580318293
2234,3.620521228
2235,3.614552281
2236,3.584099404
2237,3.551193482
2238,3.624666713
2239,3.517563306
2240,3.528846688
2241,3.655573567
2242,3.541981043
2243,3.550813164
2244,3.622531175
2245,3.573226792
2246,3.584193603
2247,3.597859102
2248,3.594453286
2249,3.570138968
2250,3.601358452
2251,3.521449985
2252,3.658824202
2253,3.626095363
2254,3.666543969
2255,3.647590922
2256,3.49910052
2257,3.564684608
2258,3.557113233
2259,3.65506113
2260,3.622149682
2261,3.540248265
2262,3.583742208
2263,3.602810596
2264,3.634799268
2265,3.629206822
2266,3.658815767
2267,3.490407091
2268,3.625348548
2269,3.629649017
2270,3.55022362
2271,3.652853388
2272,3.650603653
2273,3.62117754
2274,3.597558583
2275,3.622451181
2276,3.56763924
2277,3.521972109
2278,3.552788311
2279,3.518287554
2280,3.674770214
2281,3.670541576
2282,3.681625059
2283,3.709267881
2284,3.613911039
2285,3.687159285
2286,3.645645476
2287,3.563023183
2288,3.563475555
2289,3.634681187
2290,3.595976045
2291,3.652588335
2292,3.601811074
2293,3.587373001
2294,3.626791254
2295,3.701462846
2296,3.593344565
2297,3.624224827
2298,3.625206051
2299,3.58650164
2300,3.618529651
2301,3.571589297
2302,3.554641904
2303,3.55921207
2304,3.60755705
2305,3.591860843
2306,3.611263364
2307,3.623631485
2308,3.554102934
2309,3.643886297
2310,3.506287056
2311,3.484718484
2312,3.626986661
2313,3.601037471
2314,3.493062162
2315,3.57387009
2316,3.592625907
2317,3.508087544
2318,3.600089627
2319,3.650048932
2320,3.550331961
2321,3.659149807
2322,3.591211679
2323,3.56988164
2324,3.598586515
2325,3.546816825
2326,3.644352311
2327,3.592883209
2328,3.536027785
2329,3.54990737
2330,3.589197073
2331,3.525999349
2332,3.539732467
2333,3.59957773
2334,3.687880542
2335,3.713072579
2336,3.552496344
2337,3.59038125
2338,3.638044234
2339,3.548413736
2340,3.538122381
2341,3.590994915
2342,3.603533307
2343,3.676896699
2344,3.642545901
2345,3.645799741
2346,3.697863172
2347,3.522963277
2348,3.594966674
2349,3.634310159
2350,3.657738319
2351,3.567930925
2352,3.568794353
2353,3.715892543
2354,3.70054228
2355,3.573255699
2356,3.528592826
2357,3.537324533
2358,3.582790856
2359,3.537974837
2360,3.553028367
2361,3.639871119
2362,3.59793279
2363,3.69051936
2364,3.522992261
2365,3.5836124
2366,3.694423801
2367,3.686303104
2368,3.68973774
2369,3.58586845
2370,3.589808015
2371,3.564029785
2372,3.60505559
2373,3.605637881
2374,3.492671931
2375,3.563191978
2376,3.598143908
2377,3.62413985
2378,3.56973661
2379,3.697797505
2380,3.585125337
2381,3.524615026
2382,3.570928136
2383,3.556580057
2384,3.592677807
2385,3.5582846
2386,3.567414285
2387,3.682981696
2388,3.609656295
2389,3.616550132
2390,3.657519005
2391,3.679152228
2392,3.597916868
2393,3.68296626
2394,3.601535869
2395,3.601659934
2396,3.566266821
2397,3.639682065
2398,3.684159977
2399,3.639466595
2400,3.55145576
2401,3.555704719
2402,3.569484187
2403,3.57435577
2404,3.584995476
2405,3.610039467
2406,3.545040717
2407,3.630193146
2408,3.672264573
2409,3.541213967
2410,3.684811294
2411,3.599891309
2412,3.704704965
2413,3.586395325
2414,3.535101504
2415,3.622186302
2416,3.594162716
2417,3.645321961
2418,3.632291622
2419,3.662110202
2420,3.611746799
2421,3.569030632
2422,3.569233391
2423,3.601331197
2424,3.662506875
2425,3.565949842
2426,3.553193574
2427,3.590779409
2428,3.540295514
2429,3.619141188
2430,3.558692563
2431,3.613704184
2432,3.677331854
2433,3.59332277
2434,3.614840727
2435,3.513935652
2436,3.566771456
2437,3.609169466
2438,3.619981549
2439,3.63981682
2440,3.582769757
2441,3.550127544
2442,3.516812549
2443,3.622633808
2444,3.553425364
2445,3.630437755
2446,3.630334867
2447,3.551334803
2448,3.594659104
2449,3.556973921
2450,3.560818895
2451,3.512370209
2452,3.585726365
2453,3.548576896
2454,3.535798635
2455,3.630303973
2456,3.553782332
2457,3.621820528
2458,3.548679248
2459,3.581028484
2460,3.559854195
2461,3.612481368
2462,3.555973458
2463,3.620972387
2464,3.652376751
2465,3.559108078
2466,3.585365632
2467,3.535518118
2468,3.641165652
2469,3.513169672
2470,3.609252374
2471,3.585878879
2472,3.565510797
2473,3.675368665
2474,3.620849709
2475,3.554204833
2476,3.564210418
2477,3.613757798
2478,3.489911687
2479,3.627352734
2480,3.53800592
2481,3.559035777
2482,3.59708051
2483,3.602824958
2484,3.626782636
2485,3.64727096
2486,3.607490243
2487,3.628914637
2488,3.576914284
2489,3.569045183
2490,3.548948117
2491,3.596948494
2492,3.577294414
2493,3.588186881
2494,3.615666381
2495,3.713689364
2496,3.629632711
2497,3.582659539
2498,3.570653355
2499,3.526350586
2500,3.650535311
2501,3.478936427
2502,3.706477634
2503,3.605127127
2504,3.563017853
2505,3.563619451
2506,3.587440203
2507,3.562905143
2508,3.501989029
2509,3.576571301
2510,3.655135277
2511,3.678666105
2512,3.584533987
2513,3.64596909
2514,3.598301126
2515,3.587006186
2516,3.66271157
2517,3.564373993
2518,3.521758982
2519,3.513809656
2520,3.670855345
2521,3.482117817
2522,3.596333232
2523,3.585116092
2524,3.663594361
2525,3.581526623
2526,3.536114474
2527,3.565960947
2528,3.652941214
2529,3.566207045
2530,3.628586198
2531,3.596250966
2532,3.657262472
2533,3.688459571
2534,3.604299673
2535,3.597715491
2536,3.641070748
2537,3.656208367
2538,3.599413978
2539,3.578617532
2540,3.668286493
2541,3.528237315
2542,3.633859325
2543,3.633410589
2544,3.605027277
2545,3.53598256
2546,3.685531595
2547,3.619841183
2548,3.649675124
2549,3.62710882
2550,3.581631367
2551,3.556563935
2552,3.604800473
2553,3.576670208
2554,3.566820863
2555,3.588569446
2556,3.521811243
2557,3.61866718
2558,3.623509673
2559,3.70741064
2560,3.575223297
2561,3.57576006
2562,3.58686557
2563,3.64663194
2564,3.578241334
2565,3.570855475
2566,3.662304572
2567,3.513608057
2568,3.62472792
2569,3.483982044
2570,3.583164193
2571,3.514117744
2572,3.65324511
2573,3.533834384
2574,3.611421221
2575,3.589371659
2576,3.607553663
2577,3.619077824
2578,3.643192191
2579,3.622595736
2580,3.642886657
2581,3.631093101
2582,3.533481551
2583,3.64352245
2584,3.559558003
2585,3.577981541
2586,3.629637498
2587,3.582385647
2588,3.611356735
2589,3.573187987
2590,3.508861601
2591,3.59953746
2592,3.594100434
2593,3.552936414
2594,3.602000297
2595,3.646249566
2596,3.622053671
2597,3.711643103
2598,3.602784445
2599,3.570199937
2600,3.600511283
2601,3.5517811
2602,3.517254834
2603,3.567999828
2604,3.641232851
2605,3.688571036
2606,3.628130277
2607,3.607065483
2608,3.660165161
2609,3.634073104
2610,3.567466626
2611,3.593251395
2612,3.542443792
2613,3.510492788
2614,3.654188009
2615,3.61376435
2616,3.52570455
2617,3.5886896
2618,3.583799199
2619,3.591380588
2620,3.517122323
2621,3.647759448
2622,3.615431797
2623,3.664494212
2624,3.628138462
2625,3.63304116
2626,3.622922994
2627,3.67016362
2628,3.628151016
2629,3.536275412
2630,3.613700828
2631,3.663636167
2632,3.614194294
2633,3.637970807
2634,3.5685632
2635,3.712929524
2636,3.612678145
2637,3.658024984
2638,3.636770549
2639,3.455120713
2640,3.511168839
2641,3.615717421
2642,3.604985671
2643,3.681733152
2644,3.633937518
2645,3.572362839
2646,3.568413096
2647,3.607732712
2648,3.588209122
2649,3.571017803
2650,3.571352135
2651,3.602349566
2652,3.522691879
2653,3.576820291
2654,3.670256503
2655,3.659985113
2656,3.631859318
2657,3.652397315
2658,3.627152452
2659,3.622539264
2660,3.698803395
2661,3.69768373
2662,3.691051858
2663,3.618266952
2664,3.537306582
2665,3.561615184
2666,3.603554151
2667,3.571319639
2668,3.604723528
2669,3.526002804
2670,3.696464367
2671,3.607004851
2672,3.511340196
2673,3.669290212
2674,3.612955389
2675,3.635040464
2676,3.650824489
2677,3.641316522
2678,3.621875492
2679,3.554218109
2680,3.665518105
2681,3.691310849
2682,3.561540754
2683,3.632608062
2684,3.59305438
2685,3.623137216
2686,3.671021612
2687,3.693515557
2688,3.603796477
2689,3.710723275
2690,3.682317603
2691,3.665695852
2692,3.626640733
2693,3.529038582
2694,3.577942507
2695,3.602366807
2696,3.629592008
2697,3.561878158
2698,3.594919345
2699,3.621498079
2700,3.648503649
2701,3.579537104
2702,3.654558345
2703,3.587346528
2704,3.615717418
2705,3.5406343
2706,3.696701243
2707,3.56014677
2708,3.588592268
2709,3.601892246
2710,3.668753465
2711,3.690410916
2712,3.62452899
2713,3.596137805
2714,3.618498451
2715,3.62569925
2716,3.526982144
2717,3.545182122
2718,3.604481179
2719,3.615206123
2720,3.56221257
2721,3.554159134
2722,3.572839909
2723,3.612243081
2724,3.540694408
2725,3.517243874
2726,3.605223414
2727,3.611573512
2728,3.582174686
2729,3.696434885
2730,3.611847777
2731,3.559749192
2732,3.477641359
2733,3.553492518
2734,3.636233914
2735,3.543658285
2736,3.555368327
2737,3.612470858
2738,3.583177678
2739,3.648600701
2740,3.535797142
2741,3.549626678
2742,3.636844626
2743,3.564023076
2744,3.537530377
2745,3.559010117
2746,3.642583527
2747,3.619865163
2748,3.631919766
2749,3.586356696
2750,3.562586898
2751,3.597300287
2752,3.628699004
2753,3.658174471
2754,3.622550322
2755,3.546316096
2756,3.44930597
2757,3.593082713
2758,3.688827066
2759,3.538082132
2760,3.543492822
2761,3.48631145
2762,3.546038452
2763,3.586813363
2764,3.631441057
2765,3.558326104
2766,3.66547347
2767,3.543758534
2768,3.639491011
2769,3.55593681
2770,3.594987691
2771,3.625574345
2772,3.664159781
2773,3.554695347
2774,3.58588733
2775,3.625162081
2776,3.500710712
2777,3.694365885
2778,3.628937718
2779,3.519604757
2780,3.668756765
2781,3.614388012
2782,3.627116452
2783,3.650949047
2784,3.572137131
2785,3.552059909
2786,3.600063059
2787,3.56362137
2788,3.528584001
2789,3.574571679
2790,3.498499843
2791,3.629314184
2792,3.626379525
2793,3.588558649
2794,3.65415095
2795,3.517286023
2796,3.595784392
2797,3.603648036
2798,3.499770462
2799,3.6744855
2800,3.599505375
2801,3.589855536
2802,3.528770042
2803,3.54539668
2804,3.646495689
2805,3.617211496
2806,3.541169013
2807,3.717962301
2808,3.576615801
2809,3.549247687
2810,3.684710851
2811,3.632742489
2812,3.592863395
2813,3.577095518
2814,3.536433462
2815,3.692871993
2816,3.546145315
2817,3.647878825
2818,3.541730636
2819,3.524485243
2820,3.577603327
2821,3.656051714
2822,3.641101849
2823,3.627557777
2824,3.610062277
2825,3.484650559
2826,3.542482664
2827,3.601455839
2828,3.680391856
2829,3.609186873
2830,3.650622917
2831,3.648009711
2832,3.585285014
2833,3.589012945
2834,3.632062281
2835,3.601321976
2836,3.636720735
2837,3.543578609
2838,3.571542766
2839,3.645701976
2840,3.561790938
2841,3.604190401
2842,3.65628765
2843,3.588769587
2844,3.580327811
2845,3.557819689
2846,3.717598913
2847,3.57228168
2848,3.57515565
2849,3.64669138
2850,3.632489082
2851,3.462538326
2852,3.649641671
2853,3.672847561
2854,3.709795325
2855,3.596516726
2856,3.632284097
2857,3.609289884
2858,3.648293265
2859,3.631151522
2860,3.583171028
2861,3.550702871
2862,3.61797405
2863,3.628861849
2864,3.62701518
2865,3.68630654
2866,3.634891768
2867,3.641361624
2868,3.590257157
2869,3.656585514
2870,3.593684415
2871,3.623440947
2872,3.606368462
2873,3.556147866
2874,3.518797727
2875,3.568131461
2876,3.627722276
2877,3.61230039
2878,3.557941195
2879,3.614767698
2880,3.562758599
2881,3.542563578
2882,3.610583541
2883,3.460962312
2884,3.593373908
2885,3.63995114
2886,3.594093939
2887,3.639587972
2888,3.59968185
2889,3.585147081
2890,3.63098992
2891,3.593827911
2892,3.687288672
2893,3.648833359
2894,3.66642681
2895,3.525398404
2896,3.583099107
2897,3.60458627
2898,3.625647816
2899,3.534103663
2900,3.53666686
2901,3.604049176
2902,3.645677067
2903,3.602513842
2904,3.632825009
2905,3.577829299
2906,3.455736298
2907,3.642485399
2908,3.598998398
2909,3.681548477
2910,3.643055023
2911,3.623030121
2912,3.592879113
2913,3.530874633
2914,3.539389773
2915,3.553934525
2916,3.649426405
2917,3.647142106
2918,3.540711502
2919,3.629222868
2920,3.718040508
2921,3.645893046
2922,3.518889821
2923,3.635277491
2924,3.620344842
2925,3.6502279
2926,3.539418099
2927,3.587523882
2928,3.683422719
2929,3.611553321
2930,3.688243927
2931,3.595047457
2932,3.562708678
2933,3.525192947
2934,3.672888208
2935,3.514779414
2936,3.553897217
2937,3.57853416
2938,3.590573113
2939,3.626998376
2940,3.588815307
2941,3.665021976
2942,3.653336163
2943,3.592979075
2944,3.627929403
2945,3.559773531
2946,3.551542214
2947,3.55207558
2948,3.601279418
2949,3.53722233
2950,3.637724211
2951,3.622708105
2952,3.625173258
2953,3.591656023
2954,3.598958996
2955,3.666909721
2956,3.613878123
2957,3.581692939
2958,3.622611058
2959,3.710102215
2960,3.613181844
2961,3.602188823
2962,3.536157901
2963,3.555180413
2964,3.662078441
2965,3.602520161
2966,3.749286472
2967,3.586247831
2968,3.667229537
2969,3.654307408
2970,3.605952075
2971,3.718466823
2972,3.655924478
2973,3.634428466
2974,3.661097779
2975,3.549107516
2976,3.63517668
2977,3.570990644
2978,3.631933659
2979,3.65445752
2980,3.485678912
2981,3.544657246
2982,3.613047759
2983,3.601394673
2984,3.608417274
2985,3.564729639
2986,3.631067904
2987,3.571527011
2988,3.684223216
2989,3.629976186
2990,3.600331569
2991,3.474874306
2992,3.582097163
2993,3.554568238
2994,3.618461679
2995,3.652333452
2996,3.664828608
2997,3.569796049
2998,3.626986243
2999,3.543838983
3000,3.680894711
3001,3.583899615
3002,3.681725119
3003,3.609035366
3004,3.631413993
3005,3.577505006
3006,3.55824023
3007,3.597098763
3008,3.658091565
3009,3.508704632
3010,3.591081811
3011,3.631955196
3012,3.696556545
3013,3.650967508
3014,3.516436823
3015,3.559156526
3016,3.62884992
3017,3.607071339
3018,3.553967847
3019,3.559851881
3020,3.550622746
3021,3.603461167
3022,3.610624026
3023,3.55438594
3024,3.636557156
3025,3.670016214
3026,3.537319276
3027,3.562859616
3028,3.573665603
3029,3.598494714
3030,3.559417389
3031,3.4741681
3032,3.575300658
3033,3.63022903
3034,3.753160021
3035,3.587361321
3036,3.617704343
3037,3.625537816
3038,3.56018512
3039,3.683725973
3040,3.631550354
3041,3.534899336
3042,3.656048601
3043,3.514290379
3044,3.519907928
3045,3.574820947
3046,3.583540196
3047,3.650490453
3048,3.678318063
3049,3.497993223
3050,3.570123005
3051,3.663305498
3052,3.652370554
3053,3.592989925
3054,3.565660042
3055,3.551223914
3056,3.686297449
3057,3.607583138
3058,3.654034364
3059,3.706398856
3060,3.691713281
3061,3.631132757
3062,3.621354059
3063,3.554752648
3064,3.627750448
3065,3.602879384
3066,3.515531302
3067,3.618247003
3068,3.524632836
3069,3.585075221
3070,3.572770886
3071,3.668784157
3072,3.596342477
3073,3.628497561
3074,3.607229157
3075,3.654381587
3076,3.519920971
3077,3.600526581
3078,3.606513906
3079,3.664546436
3080,3.550891522
3081,3.593151293
3082,3.64135183
3083,3.661743167
3084,3.632505012
3085,3.576026884
3086,3.601029019
3087,3.583289341
3088,3.662930594
3089,3.639121476
3090,3.607972571
3091,3.572460687
3092,3.626482965
3093,3.619544753
3094,3.544405756
3095,3.652090814
3096,3.684621828
3097,3.554188516
3098,3.57550858
3099,3.591502715
3100,3.614477145
3101,3.615887036
3102,3.661049966
3103,3.718924744
3104,3.533087915
3105,3.578702788
3106,3.500424072
3107,3.515547546
3108,3.513034367
3109,3.691290468
3110,3.550843488
3111,3.546675753
3112,3.578709499
3113,3.613444935
3114,3.575733237
3115,3.636812745
3116,3.609331349
3117,3.5250697
3118,3.554329067
3119,3.566857506
3120,3.540479547
3121,3.55727449
3122,3.61912438
3123,3.61940484
3124,3.556202182
3125,3.52975021
3126,3.611518429
3127,3.582024873
3128,3.580419753
3129,3.579037667
3130,3.606901147
3131,3.647416442
3132,3.532820118
3133,3.603809594
3134,3.606605426
3135,3.620581304
3136,3.635358411
3137,3.658288465
3138,3.651078631
3139,3.617570687
3140,3.634056094
3141,3.576973328
3142,3.649239087
3143,3.545358365
3144,3.593572717
3145,3.618537971
3146,3.62981442
3147,3.537088053
3148,3.498425289
3149,3.570227003
3150,3.655528696
3151,3.58862515
3152,3.523430531
3153,3.574558772
3154,3.592388355
3155,3.696145014
3156,3.593069501
3157,3.583891728
3158,3.577733527
3159,3.549270323
3160,3.622162735
3161,3.580872155
3162,3.595167655
3163,3.714172148
3164,3.592552219
3165,3.544173389
3166,3.654802458
3167,3.608196502
3168,3.573891738
3169,3.583431666
3170,3.553641129
3171,3.558449559
3172,3.591750265
3173,3.606455735
3174,3.619783419
3175,3.653450064
3176,3.544566304
3177,3.595698702
3178,3.579877016
3179,3.619563594
3180,3.619845395
3181,3.573263427
3182,3.608239909
3183,3.616857196
3184,3.552171193
3185,3.574307097
3186,3.586232193
3187,3.510155762
3188,3.60375917
3189,3.590334538
3190,3.578709856
3191,3.594508997
3192,3.533258004
3193,3.567979309
3194,3.539070517
3195,3.602611332
3196,3.566247523
3197,3.643521136
3198,3.599881912
3199,3.595975452
3200,3.579229724
3201,3.560526594
3202,3.665592678
3203,3.537298358
3204,3.621041544
3205,3.558333963
3206,3.593168596
3207,3.565740022
3208,3.566170653
3209,3.607748058
3210,3.51533274
3211,3.636209675
3212,3.647753807
3213,3.561994255
3214,3.690562307
3215,3.560934925
3216,3.609020378
3217,3.569446335
3218,3.522462983
3219,3.66194523
3220,3.522880178
3221,3.600013583
3222,3.561763855
3223,3.648414479
3224,3.64270749
3225,3.597740244
3226,3.549025428
3227,3.58117987
3228,3.621044239
3229,3.564910969
3230,3.513909264
3231,3.539300573
3232,3.660504313
3233,3.646530213
3234,3.581989899
3235,3.630873444
3236,3.662532427
3237,3.646945594
3238,3.551869543
3239,3.587968483
3240,3.585121905
3241,3.566798212
3242,3.555227247
3243,3.615121517
3244,3.538393206
3245,3.616017869
3246,3.674241527
3247,3.645103349
3248,3.567535928
3249,3.562569345
3250,3.560539913
3251,3.701609898
3252,3.595217098
3253,3.647579644
3254,3.679984914
3255,3.588080232
3256,3.591520326
3257,3.570688008
3258,3.608472628
3259,3.629500599
3260,3.706971374
3261,3.597457094
3262,3.599347763
3263,3.597856866
3264,3.625759337
3265,3.680992617
3266,3.620836693
3267,3.666621505
3268,3.569608561
3269,3.594281708
3270,3.620971934
3271,3.602989249
3272,3.682178789
3273,3.57552592
3274,3.687645026
3275,3.671272841
3276,3.60776964
3277,3.620330792
3278,3.459562074
3279,3.598394
3280,3.604752816
3281,3.513333422
3282,3.674002315
3283,3.611136213
3284,3.648073177
3285,3.582773925
3286,3.643743752
3287,3.701542559
3288,3.629518178
3289,3.621752504
3290,3.558110696
3291,3.619739424
3292,3.575719757
3293,3.584766807
3294,3.623230147
3295,3.651411058
3296,3.657234243
3297,3.703817407
3298,3.673110728
3299,3.653566115
3300,3.574978264
3301,3.619355063
3302,3.639608613
3303,3.64932541
3304,3.658341035
3305,3.650361551
3306,3.597940915
3307,3.67008352
3308,3.723090451
3309,3.586381263
3310,3.532215086
3311,3.63270121
3312,3.58554527
3313,3.568811324
3314,3.537375324
3315,3.635542003
3316,3.606817397
3317,3.632084984
3318,3.525136086
3319,3.655988618
3320,3.479466148
3321,3.589273665
3322,3.686499811
3323,3.611042539
3324,3.564895194
3325,3.610769239
3326,3.658081438
3327,3.575140898
3328,3.593166162
3329,3.687031508
3330,3.586562443
3331,3.597787281
3332,3.575528152
3333,3.604340845
3334,3.674203285
3335,3.568099799
3336,3.697263853
3337,3.568109067
3338,3.538691159
3339,3.625785149
3340,3.534494035
3341,3.536788205
3342,3.667883223
3343,3.704837677
3344,3.544161415
3345,3.615377488
3346,3.596288608
3347,3.601068858
3348,3.658481237
3349,3.595250698
3350,3.551739002
3351,3.533805803
3352,3.498026652
3353,3.557797974
3354,3.575607508
3355,3.650013475
3356,3.497929542
3357,3.617807612
3358,3.627858432
3359,3.584381548
3360,3.566308815
3361,3.634941812
3362,3.584287834
3363,3.681243032
3364,3.655594826
3365,3.611908
3366,3.654915004
3367,3.666548559
3368,3.634493985
3369,3.593287385
3370,3.587080369
3371,3.638124658
3372,3.596946771
3373,3.619575502
3374,3.581438371
3375,3.671835174
3376,3.585621356
3377,3.502217156
3378,3.4878163
3379,3.604467728
3380,3.610778175
3381,3.61964087
3382,3.642177354
3383,3.61403276
3384,3.601145068
3385,3.539238781
3386,3.573795091
3387,3.601509666
3388,3.52941032
3389,3.643211862
3390,3.670835106
3391,3.552697443
3392,3.58592926
3393,3.651511659
3394,3.66343067
3395,3.524853643
3396,3.664488004
3397,3.595041953
3398,3.553008692
3399,3.537407965
3400,3.603547964
3401,3.580035386
3402,3.655953242
3403,3.507331246
3404,3.502159373
3405,3.646859717
3406,3.518821738
3407,3.632771571
3408,3.625884102
3409,3.664909581
3410,3.58383528
3411,3.479217262
3412,3.654202598
3413,3.57665527
3414,3.518916794
3415,3.663416327
3416,3.578710845
3417,3.604227876
3418,3.635259238
3419,3.570008551
3420,3.675610706
3421,3.673777129
3422,3.56933703
3423,3.59261957
3424,3.654963074
3425,3.562158861
3426,3.568378794
3427,3.59500594
3428,3.63469034
3429,3.516448637
3430,3.640425402
3431,3.663741678
3432,3.581670216
3433,3.503126321
3434,3.604133753
3435,3.611862724
3436,3.660995879
3437,3.657987419
3438,3.592972101
3439,3.601951046
3440,3.581433631
3441,3.597428224
3442,3.6155815
3443,3.587180898
3444,3.605130858
3445,3.608451939
3446,3.599493776
3447,3.598654329
3448,3.566212086
3449,3.606360449
3450,3.580587018
3451,3.568501183
3452,3.630900281
3453,3.558508526
3454,3.647756637
3455,3.669820028
3456,3.604093632
3457,3.643528849
3458,3.608651444
3459,3.634890588
3460,3.646333587
3461,3.639749517
3462,3.678806647
3463,3.621268121
3464,3.674764713
3465,3.645397184
3466,3.646147299
3467,3.550487094
3468,3.564690391
3469,3.644681422
3470,3.635490226
3471,3.525460919
3472,3.578561513
3473,3.61727954
3474,3.616863999
3475,3.659032826
3476,3.681789012
3477,3.563190625
3478,3.628971442
3479,3.565738344
3480,3.648903102
3481,3.592209098
3482,3.590232463
3483,3.594726363
3484,3.604740576
3485,3.568295249
3486,3.504547306
3487,3.621118816
3488,3.751430929
3489,3.636753169
3490,3.678999549
3491,3.511448863
3492,3.62196391
3493,3.628332169
3494,3.564304962
3495,3.529433641
3496,3.542028818
3497,3.60967698
3498,3.603561026
3499,3.648966343
3500,3.559020565
3501,3.590589232
3502,3.631149228
3503,3.577687578
3504,3.572734681
3505,3.638154876
3506,3.567053409
3507,3.574977466
3508,3.626553818
3509,3.585199223
3510,3.60850041
3511,3.62678231
3512,3.66315289
3513,3.567142873
3514,3.56940934
3515,3.617602677
3516,3.633225146
3517,3.57184326
3518,3.626462483
3519,3.627680903
3520,3.638797566
3521,3.614306955
3522,3.542535618
3523,3.600233287
3524,3.573444557
3525,3.590642957
3526,3.604949505
3527,3.59771069
3528,3.578764755
3529,3.541214622
3530,3.595370894
3531,3.518787844
3532,3.612218858
3533,3.670422368
3534,3.631330842
3535,3.622518277
3536,3.536196829
3537,3.709587256
3538,3.600052136
3539,3.658858066
3540,3.590766214
3541,3.613693097
3542,3.615087659
3543,3.672246715
3544,3.545745556
3545,3.671209317
3546,3.597951668
3547,3.678080647
3548,3.598592956
3549,3.585474069
3550,3.612465198
3551,3.598038989
3552,3.57043667
3553,3.569275957
3554,3.624019982
3555,3.656185157
3556,3.596923419
3557,3.648980646
3558,3.582919072
3559,3.561287274
3560,3.601521479
3561,3.606706945
3562,3.691723815
3563,3.625504964
3564,3.667960279
3565,3.591696224
3566,3.622650559
3567,3.601949816
3568,3.621330401
3569,3.605586951
3570,3.615206223
3571,3.630989335
3572,3.618409805
3573,3.588100785
3574,3.633901441
3575,3.561292838
3576,3.532186252
3577,3.634091091
3578,3.521109907
3579,3.67714269
3580,3.539178057
3581,3.674064394
3582,3.560035337
3583,3.498130036
3584,3.667634274
3585,3.576111238
3586,3.709975612
3587,3.566404537
3588,3.64400044
3589,3.598953432
3590,3.673456159
3591,3.605851919
3592,3.63023526
3593,3.606459475
3594,3.699340821
3595,3.584622047
3596,3.567994385
3597,3.684220914
3598,3.528652321
3599,3.598171125
3600,3.607963006
3601,3.541087026
3602,3.609985004
3603,3.559462213
3604,3.64366144
3605,3.56693543
3606,3.60907193
3607,3.632201429
3608,3.540117575
3609,3.555047154
3610,3.656120947
3611,3.588615092
3612,3.557465637
3613,3.651020906
3614,3.57249228
3615,3.678268437
3616,3.556541617
3617,3.656852074
3618,3.525995893
3619,3.543113765
3620,3.614454737
3621,3.635170395
3622,3.629679062
3623,3.6370796
3624,3.632309102
3625,3.602673418
3626,3.591018615
3627,3.635753874
3628,3.562186314
3629,3.65205677
3630,3.582271763
3631,3.653970904
3632,3.62813267
3633,3.664664555
3634,3.647842777
3635,3.692423679
3636,3.55234106
3637,3.598410035
3638,3.560714805
3639,3.547829041
3640,3.61704014
3641,3.617050118
3642,3.621415093
3643,3.622267112
3644,3.636286551
3645,3.59312937
3646,3.594853642
3647,3.561481026
3648,3.607545445
3649,3.569144966
3650,3.516099219
3651,3.604811691
3652,3.659244681
3653,3.563939898
3654,3.591465783
3655,3.605650604
3656,3.530140891
3657,3.627762084
3658,3.601625802
3659,3.617871512
3660,3.618463005
3661,3.552952813
3662,3.582867569
3663,3.605157341
3664,3.698833951
3665,3.618253198
3666,3.632231949
3667,3.527247729
3668,3.641050109
3669,3.547181472
3670,3.567834313
3671,3.732347746
3672,3.608110877
3673,3.581425992
3674,3.635444668
3675,3.620796991
3676,3.57929317
3677,3.586489616
3678,3.574912389
3679,3.637002124
3680,3.576314865
3681,3.584811442
3682,3.618928894
3683,3.576932872
3684,3.638396231
3685,3.570322282
3686,3.54288002
3687,3.66380296
3688,3.631525748
3689,3.643745085
3690,3.576781864
3691,3.607322228
3692,3.535289728
3693,3.584991193
3694,3.56550157
3695,3.575962075
3696,3.616309645
3697,3.62421673
3698,3.537079593
3699,3.583447124
3700,3.621036315
3701,3.55757827
3702,3.567327589
3703,3.593208397
3704,3.613851287
3705,3.628877268
3706,3.608643091
3707,3.571375967
3708,3.534023737
3709,3.634756492
3710,3.593298322
3711,3.644984748
3712,3.631323241
3713,3.593232152
3714,3.664042395
3715,3.567728578
3716,3.638946911
3717,3.584287353
3718,3.571690628
3719,3.607356634
3720,3.59799409
3721,3.696852079
3722,3.570852285
3723,3.588009208
3724,3.562314024
3725,3.596092537
3726,3.572588014
3727,3.525227152
3728,3.639324782
3729,3.640598824
3730,3.606313796
3731,3.719603202
3732,3.697848428
3733,3.522395167
3734,3.624294256
3735,3.620503276
3736,3.60718843
3737,3.626916898
3738,3.667961347
3739,3.564825373
3740,3.632988143
3741,3.596691177
3742,3.599086778
3743,3.518684334
3744,3.716097145
3745,3.610363053
3746,3.573961726
3747,3.593627496
3748,3.556724481
3749,3.659435256
3750,3.660847365
3751,3.6101342
3752,3.596786674
3753,3.502778127
3754,3.704548927
3755,3.654949098
3756,3.563996395
3757,3.600375593
3758,3.62073853
3759,3.637498992
3760,3.668504866
3761,3.607858488
3762,3.695522307
3763,3.659773588
3764,3.557032997
3765,3.613373224
3766,3.634036786
3767,3.604765856
3768,3.613487541
3769,3.727492441
3770,3.636651088
3771,3.615687839
3772,3.523406793
3773,3.577429921
3774,3.620664247
3775,3.539724265
3776,3.578330061
3777,3.615545175
3778,3.622387768
3779,3.584454841
3780,3.659396992
3781,3.553307711
3782,3.575921934
3783,3.592805113
3784,3.624125127
3785,3.610817774
3786,3.631429161
3787,3.569651776
3788,3.580984755
3789,3.59651468
3790,3.615677171
3791,3.560188202
3792,3.6435545
3793,3.628913783
3794,3.685229044
3795,3.635226608
3796,3.627414724
3797,3.560708878
3798,3.570269071
3799,3.543062955
3800,3.574661151
3801,3.657787418
3802,3.543665334
3803,3.508080065
3804,3.674894359
3805,3.62461637
3806,3.588332546
3807,3.601189527
3808,3.601449347
3809,3.619577581
3810,3.576162978
3811,3.672566766
3812,3.632834394
3813,3.525340682
3814,3.64606501
3815,3.560340977
3816,3.630553493
3817,3.642178767
3818,3.656080439
3819,3.648924429
3820,3.637658826
3821,3.542800491
3822,3.505840178
3823,3.590302182
3824,3.645185702
3825,3.623890786
3826,3.642737081
3827,3.507857747
3828,3.566207858
3829,3.61014761
3830,3.583343456
3831,3.607183848
3832,3.646014054
3833,3.601725827
3834,3.617387435
3835,3.554383117
3836,3.52749268
3837,3.583605724
3838,3.480565009
3839,3.606420625
3840,3.549723603
3841,3.53205414
3842,3.629320197
3843,3.588275526
3844,3.585223968
3845,3.58380191
3846,3.599080962
3847,3.591488723
3848,3.590947632
3849,3.607781038
3850,3.542724627
3851,3.587844167
3852,3.533328382
3853,3.511679887
3854,3.611884522
3855,3.500272727
3856,3.56890418
3857,3.581943496
3858,3.60875978
3859,3.5718732
3860,3.644018745
3861,3.574765466
3862,3.551849662
3863,3.573615588
3864,3.524598118
3865,3.616795665
3866,3.620024026
3867,3.669710294
3868,3.589340875
3869,3.577099003
3870,3.547261232
3871,3.615446888
3872,3.58558052
3873,3.575785026
3874,3.582541299
3875,3.571421704
3876,3.548592485
3877,3.574586604
3878,3.650146149
3879,3.588008695
3880,3.636096174
3881,3.570161855
3882,3.603081573
3883,3.59432496
3884,3.525848195
3885,3.663979649
3886,3.521870058
3887,3.634995466
3888,3.60809999
3889,3.535946519
3890,3.575908843
3891,3.517429432
3892,3.656670194
3893,3.641419658
3894,3.618868883
3895,3.599919864
3896,3.49219133
3897,3.576082731
3898,3.664126926
3899,3.654966606
3900,3.565665546
3901,3.630791888
3902,3.542911957
3903,3.588476289
3904,3.63249003
3905,3.607013757
3906,3.685317207
3907,3.491145114
3908,3.619311139
3909,3.539366415
3910,3.590637533
3911,3.597850598
3912,3.626481552
3913,3.627909345
3914,3.608791836
3915,3.628340477
3916,3.595670351
3917,3.648579449
3918,3.507785224
3919,3.523027553
3920,3.551150454
3921,3.589838817
3922,3.587657012
3923,3.616756508
3924,3.566830853
3925,3.59503538
3926,3.651258824
3927,3.591176534
3928,3.642487425
3929,3.720155088
3930,3.588464255
3931,3.656497462
3932,3.598767258
3933,3.601565906
3934,3.498311347
3935,3.58884681
3936,3.58301437
3937,3.645352018
3938,3.552024034
3939,3.579510448
3940,3.611439297
3941,3.560550046
3942,3.671027506
3943,3.586812323
3944,3.61444879
3945,3.555498389
3946,3.573148517
3947,3.556312293
3948,3.562931007
3949,3.617131835
3950,3.565266563
3951,3.586733356
3952,3.68011234
3953,3.649067948
3954,3.557727055
3955,3.658159212
3956,3.581247362
3957,3.554986055
3958,3.584621975
3959,3.631164512
3960,3.649437254
3961,3.564982409
3962,3.554515081
3963,3.586168783
3964,3.616455495
3965,3.592283345
3966,3.618897183
3967,3.592017877
3968,3.623552407
3969,3.611015068
3970,3.526839723
3971,3.585186164
3972,3.618707855
3973,3.669111598
3974,3.578920687
3975,3.611739803
3976,3.622209793
3977,3.623589372
3978,3.535415246
3979,3.529648258
3980,3.601208193
3981,3.593823601
3982,3.616550499
3983,3.525137495
3984,3.492252768
3985,3.573470744
3986,3.643170624
3987,3.585390361
3988,3.658821135
3989,3.62153066
3990,3.703009836
3991,3.610710237
3992,3.626494399
3993,3.559423024
3994,3.588176485
3995,3.534541576
3996,3.682838658
3997,3.581555355
3998,3.639555033
3999,3.595824784
4000,3.584432543
