Wavenumber (cm⁻¹),Intensity
200.0,13247.882994186042
201.00097751710655,12285.460570398282
202.0019550342131,11622.582762050191
203.00293255131965,11208.60630072291
204.0039100684262,10957.634466855348
205.00488758553274,10979.93159227307
206.0058651026393,11098.646035723807
207.00684261974584,11266.652458569188
208.0078201368524,11406.323740025915
209.00879765395894,11535.014108237803
210.00977517106548,11580.386528036968
211.01075268817203,11478.468817204302
212.01173020527858,11115.852935217277
213.01270772238513,10731.68931745971
214.01368523949168,10306.72619354839
215.01466275659823,9778.210064516132
216.01564027370478,9271.186004999994
217.01661779081132,8824.09967473012
218.01759530791787,8447.32045486561
219.01857282502445,8151.543983289721
220.019550342131,7880.890332975217
221.02052785923755,7649.32370687729
222.0215053763441,7469.963554119771
223.02248289345064,7304.770725279246
224.0234604105572,7202.312275736715
225.02443792766374,7123.417236766318
226.0254154447703,7001.666875982054
227.02639296187684,6911.281071791934
228.02737047898339,6861.580182389172
229.02834799608993,6834.184035407207
230.02932551319648,6726.206868838864
231.03030303030303,6663.502331852441
232.03128054740958,6626.471359888739
233.03225806451613,6607.080680454577
234.03323558162268,6572.035515741876
235.03421309872923,6544.6602340194495
236.03519061583577,6547.900152081983
237.03616813294232,6617.260373909206
238.03714565004887,6541.297761264798
239.03812316715542,6551.411327782176
240.03910068426197,6633.270483475255
241.04007820136852,6668.315648187957
242.04105571847506,6667.3133398976815
243.0420332355816,6668.765301641501
244.0430107526882,6682.106444313633
245.04398826979474,6669.855794657191
246.0449657869013,6633.671201896911
247.04594330400784,6606.935104280384
248.04692082111438,6618.62535265535
249.04789833822093,6623.954191649048
250.04887585532748,6619.411448954743
251.04985337243403,6619.1993877843925
252.05083088954058,6654.295750692438
253.05180840664713,6646.960994352124
254.05278592375367,6663.016457014972
255.05376344086022,6711.249190404327
256.05474095796677,6773.444430867819
257.0557184750733,6759.976663922758
258.05669599217987,6767.823695100474
259.0576735092864,6842.980610551322
260.05865102639297,6931.582131816786
261.0596285434995,6980.270393092022
262.06060606060606,7044.804277227287
263.0615835777126,7191.693883581789
264.06256109481916,7203.057559096165
265.0635386119257,7221.991332586241
266.06451612903226,7269.979832805931
267.0654936461388,7381.362396934919
268.06647116324535,7560.58670920226
269.0674486803519,7700.845643894669
270.06842619745845,7794.437789450689
271.069403714565,7967.50056896508
272.07038123167155,8104.261207455461
273.0713587487781,8200.710705065543
274.07233626588464,8251.89455715035
275.0733137829912,8295.925826231283
276.07429130009774,8281.581853988306
277.0752688172043,8210.54857615503
278.07624633431084,8076.3515903451425
279.0772238514174,7901.782865071109
280.07820136852393,7795.840105720913
281.0791788856305,7738.140106243131
282.08015640273703,7655.888101902755
283.0811339198436,7589.158613617015
284.08211143695013,7506.582831127646
285.0830889540567,7405.690024520405
286.0840664711632,7319.031662804651
287.0850439882698,7297.443841534651
288.0860215053764,7306.588194921072
289.0869990224829,7329.351449314338
290.0879765395895,7310.257234021037
291.088954056696,7335.1278308163355
292.0899315738026,7360.816334440037
293.0909090909091,7340.97316780136
294.09188660801567,7340.0
295.0928641251222,7361.706984758347
296.09384164222877,7386.949229397857
297.0948191593353,7373.720451638741
298.09579667644186,7465.413897693247
299.0967741935484,7538.265838685977
300.09775171065496,7580.528935871001
301.0987292277615,7637.160286949035
302.09970674486806,7693.82457305503
303.1006842619746,7793.716199706532
304.10166177908116,7943.007083405211
305.1026392961877,7998.208049422115
306.10361681329425,8073.901703467311
307.1045943304008,8140.036305517613
308.10557184750735,8173.917810879571
309.1065493646139,8234.206652866425
310.10752688172045,8267.294072966366
311.108504398827,8280.414281675978
312.10948191593354,8281.88739060476
313.1104594330401,8252.069010262132
314.11143695014664,8288.053338746387
315.1124144672532,8369.557089804259
316.11339198435974,8424.79867463354
317.1143695014663,8506.436842173458
318.11534701857283,8649.215308580124
319.1163245356794,8844.612700236245
320.11730205278593,9008.248200087242
321.1182795698925,9269.402587935123
322.119257086999,9577.504210233848
323.1202346041056,9929.561171896788
324.1212121212121,10515.98499363569
325.1221896383187,11057.673281655312
326.1231671554252,11748.46926444002
327.12414467253177,12739.230415261101
328.1251221896383,13767.500613379376
329.12609970674487,15115.532149932082
330.1270772238514,16744.005331649343
331.12805474095796,18629.327292335285
332.1290322580645,20777.799885812165
333.13000977517106,22839.83652251895
334.1309872922776,24886.404718774473
335.13196480938416,27130.662797718865
336.1329423264907,28330.254603889123
337.13391984359725,29079.90082638069
338.1348973607038,29289.870495936626
339.13587487781035,28192.119506696545
340.1368523949169,26711.297686783357
341.13782991202345,24956.613711085272
342.13880742913,22981.81832765164
343.13978494623655,20993.170232366083
344.1407624633431,19257.373241877
345.14173998044964,17664.890029325517
346.1427174975562,16181.704947334769
347.14369501466274,15048.299510374516
348.1446725317693,14066.712051492701
349.14565004887584,13267.792955523699
350.1466275659824,12689.680386559668
351.14760508308893,12179.133948041217
352.1485826001955,11809.110031724156
353.14956011730203,11544.205538877999
354.1505376344086,11345.786918623147
355.1515151515151,11358.355528679254
356.1524926686217,11424.809956792584
357.1534701857282,11532.629421240457
358.1544477028348,11682.183754417621
359.1554252199413,11884.444790542897
360.15640273704787,12120.482574364734
361.1573802541544,12380.881753688818
362.15835777126097,12645.93349268596
363.1593352883675,12769.04829918535
364.16031280547406,12787.254378914597
365.1612903225806,12701.76020152337
366.16226783968716,12477.262653275195
367.1632453567937,12122.096994315934
368.16422287390026,11793.857697404159
369.1652003910068,11501.64016726405
370.16617790811335,10792.058327359642
371.1671554252199,10417.622041924637
372.16813294232645,10151.45239404738
373.169110459433,9880.050421477268
374.17008797653955,9732.389542378525
375.1710654936461,9789.639138336765
376.1720430107527,9871.239534475608
377.17302052785925,9835.670584705957
378.1739980449658,10002.623839968355
379.17497556207235,10207.18591969277
380.1759530791789,10411.399490009982
381.17693059628544,10570.932600594051
382.177908113392,10731.293881671123
383.17888563049854,10829.578211165466
384.1798631476051,10851.979502597527
385.18084066471164,10774.010185612222
386.1818181818182,10637.005736653844
387.18279569892474,10452.175539430516
388.1837732160313,10193.600432807125
389.18475073313783,9794.547035118763
390.1857282502444,9419.192387993739
391.18670576735093,9098.964457884704
392.1876832844575,8806.832942544206
393.188660801564,8447.907819483724
394.1896383186706,8167.75295833279
395.1906158357771,7901.144067575047
396.1915933528837,7646.424697214623
397.1925708699902,7455.848997054364
398.19354838709677,7328.040112447872
399.1945259042033,7195.628002776293
400.19550342130987,7047.764304999874
401.1964809384164,6936.875345855726
402.19745845552296,6866.865265437685
403.1984359726295,6794.257624487968
404.19941348973606,6710.731733693816
405.2003910068426,6687.660876422216
406.20136852394916,6640.9717989224055
407.2023460410557,6603.170703288647
408.20332355816225,6587.524158637063
409.20430107526886,6551.774961597541
410.2052785923754,6539.292335843726
411.20625610948196,6504.895324209839
412.2072336265885,6424.779869407208
413.20821114369505,6419.562562914471
414.2091886608016,6405.469450588802
415.21016617790815,6398.282160094285
416.2111436950147,6408.851664872486
417.21212121212125,6345.49865746068
418.2130987292278,6307.8454867408755
419.21407624633434,6262.200619725447
420.2150537634409,6176.423857827348
421.21603128054744,6172.211073258424
422.217008797654,6184.124518226834
423.21798631476054,6183.951395312728
424.2189638318671,6139.1649292229495
425.21994134897363,6180.167485637934
426.2209188660802,6187.0041323970745
427.22189638318673,6177.879631269759
428.2228739002933,6180.865395675744
429.2238514173998,6144.6477089579475
430.2248289345064,6152.5191177543375
431.2258064516129,6175.281704381319
432.2267839687195,6161.835737733619
433.227761485826,6165.203409638027
434.22873900293257,6166.552433579901
435.2297165200391,6166.423761627347
436.23069403714567,6168.050723591718
437.2316715542522,6168.235882308109
438.23264907135876,6173.794552937406
439.2336265884653,6177.261597619209
440.23460410557186,6162.360563378369
441.2355816226784,6161.679299195428
442.23655913978496,6155.592386325281
443.2375366568915,6158.034958464649
444.23851417399806,6205.130988022314
445.2394916911046,6256.953974870943
446.24046920821115,6265.338996795672
447.2414467253177,6248.509634429074
448.24242424242425,6264.231794383627
449.2434017595308,6277.205282581347
450.24437927663735,6284.989139426694
451.2453567937439,6286.389253599522
452.24633431085044,6278.902510764021
453.247311827957,6316.188546014589
454.24828934506354,6316.4593204464845
455.2492668621701,6290.650102288092
456.25024437927664,6303.387091652472
457.2512218963832,6319.39586955122
458.25219941348973,6302.380865102639
459.2531769305963,6268.139578614033
460.25415444770283,6278.628863972934
461.2551319648094,6286.512963808454
462.2561094819159,6263.945980281247
463.2570869990225,6240.514577452671
464.258064516129,6317.743554427931
465.2590420332356,6267.529656111679
466.2600195503421,6282.601742689673
467.26099706744867,6341.706327188312
468.2619745845552,6280.176974562572
469.26295210166177,6207.635012685757
470.2639296187683,6238.240275756546
471.26490713587486,6326.963697037114
472.2658846529814,6281.942219506084
473.26686217008796,6335.3146717764475
474.2678396871945,6334.805715910374
475.26881720430106,6300.455299308697
476.2697947214076,6366.536335696825
477.27077223851416,6465.3545153150435
478.2717497556207,6550.321063403679
479.27272727272725,6613.768737638954
480.2737047898338,6655.820306249582
481.27468230694035,6788.830606266089
482.2756598240469,6898.8804209850105
483.27663734115345,6990.038211231755
484.27761485826,7120.796535538467
485.27859237536654,7390.544612896603
486.2795698924731,7667.634723433098
487.28054740957964,7988.277189946523
488.2815249266862,8491.020402367158
489.2825024437928,9159.240973756865
490.28347996089934,9867.68685375361
491.2844574780059,10656.808278123113
492.28543499511244,11659.289893677593
493.286412512219,12526.450658905353
494.28739002932554,13141.89494151423
495.2883675464321,13500.56611029039
496.28934506353863,13608.942623420726
497.2903225806452,13129.680911957292
498.29130009775173,12462.466968527448
499.2922776148583,11669.642582997058
500.2932551319648,10787.578184464095
501.2942326490714,9920.327655054858
502.2952101661779,9235.114337873729
503.2961876832845,8695.11489687524
504.297165200391,8224.376786874045
505.29814271749757,7983.604030547957
506.2991202346041,7724.077135588019
507.30009775171067,7483.52089074774
508.3010752688172,7335.032509068527
509.30205278592376,7177.077496201815
510.3030303030303,7092.046869295363
511.30400782013686,7053.750546909043
512.3049853372434,7027.369362346748
513.3059628543499,6907.999203695561
514.3069403714564,6879.4517779098815
515.307917888563,6889.728514697011
516.3088954056695,6882.792194743212
517.3098729227761,6859.408394418945
518.3108504398826,6860.245370789844
519.3118279569892,6887.429572325207
520.3128054740957,6942.249659489612
521.3137829912023,7010.89242818343
522.3147605083088,7098.253260970525
523.3157380254154,7160.463692537695
524.3167155425219,7171.2650628008605
525.3176930596285,7210.548708755233
526.318670576735,7346.215347166008
527.3196480938416,7506.051159187732
528.3206256109481,7650.019897084037
529.3216031280547,7790.534476843907
530.3225806451612,7937.379914790013
531.3235581622678,8170.719251771181
532.3245356793743,8508.750663051693
533.3255131964809,8818.487102307292
534.3264907135874,9368.430489969354
535.327468230694,9997.523266974365
536.3284457478005,10667.24508509708
537.3294232649071,11468.631919034375
538.3304007820136,12243.723050119339
539.3313782991202,12992.67672112829
540.3323558162267,13669.552716522943
541.3333333333333,14111.071500503489
542.3343108504398,14364.735744542182
543.3352883675464,14230.68631239438
544.3362658846529,13848.342680702137
545.3372434017595,13687.187570238268
546.338220918866,13147.807451312721
547.3391984359725,12575.846869948842
548.3401759530791,12081.369199781737
549.3411534701856,11789.101936844425
550.3421309872922,11326.90761797865
551.3431085043987,11001.829010724585
552.3440860215054,10767.879890358361
553.345063538612,10523.314279143979
554.3460410557185,10271.953345572645
555.347018572825,10083.464202228386
556.3479960899316,9945.145108711753
557.3489736070381,9839.984826655356
558.3499511241447,9755.1176942436
559.3509286412512,9603.537920258294
560.3519061583578,9450.909810717136
561.3528836754643,9353.164199176515
562.3538611925709,9374.397055599988
563.3548387096774,9268.357771260997
564.355816226784,9166.69576836624
565.3567937438905,9129.223597959584
566.3577712609971,9041.192216621941
567.3587487781036,8912.806842175081
568.3597262952102,8824.041651525897
569.3607038123167,8782.218887002287
570.3616813294233,8671.929226228141
571.3626588465298,8649.87222143284
572.3636363636364,8573.378179061268
573.3646138807429,8446.402198597654
574.3655913978495,8397.036843049915
575.366568914956,8359.646363703163
576.3675464320626,8255.64862561688
577.3685239491691,8114.069517275781
578.3695014662757,8020.584145518678
579.3704789833822,7953.991871329678
580.3714565004888,7890.338732315441
581.3724340175953,7805.995576660816
582.3734115347019,7671.365621852405
583.3743890518084,7657.799669113799
584.375366568915,7527.727754057882
585.3763440860215,7396.1713326965
586.377321603128,7365.513999441421
587.3782991202346,7186.768014243827
588.3792766373411,7145.788156804151
589.3802541544477,7099.951777803527
590.3812316715542,6975.335530702587
591.3822091886608,6903.782765221203
592.3831867057673,6804.344999609735
593.3841642228739,6706.232786592776
594.3851417399804,6624.9424744191565
595.386119257087,6578.509296819539
596.3870967741935,6476.561731877841
597.3880742913001,6397.026005377091
598.3890518084066,6347.99451132328
599.3900293255132,6300.7642175176425
600.3910068426197,6216.547341138589
601.3919843597263,6175.086127886614
602.3929618768328,6148.1346628459405
603.3939393939394,6071.898751413605
604.3949169110459,6038.954647372235
605.3958944281525,6023.545278101011
606.396871945259,6004.074963575761
607.3978494623656,5960.857936237296
608.3988269794721,5955.356752868339
609.3998044965787,5942.460450718832
610.4007820136852,5933.923282043487
611.4017595307918,5935.858598276232
612.4027370478983,5934.332717914789
613.4037145650049,5943.54529957323
614.4046920821114,5942.809571919033
615.405669599218,5928.652922567532
616.4066471163245,5920.2605805795965
617.4076246334312,5920.297672972435
618.4086021505377,5927.597737916554
619.4095796676443,5936.8241192466485
620.4105571847508,5936.060597113081
621.4115347018574,5900.150823955207
622.4125122189639,5903.672128823325
623.4134897360705,5910.683691880635
624.414467253177,5863.309183437426
625.4154447702836,5844.022046368635
626.4164222873901,5860.498594166239
627.4173998044967,5883.011296665249
628.4183773216032,5888.823557788885
629.4193548387098,5901.058577096529
630.4203323558163,5862.791147127514
631.4213098729228,5874.028170265712
632.4222873900294,5941.819918049859
633.423264907136,5870.703868324182
634.4242424242425,5911.424983782788
635.425219941349,5898.144909256685
636.4261974584556,5850.896453436408
637.4271749755621,5922.832146561803
638.4281524926687,5907.310606060605
639.4291300097752,5934.264633610448
640.4301075268818,5967.252227812303
641.4310850439883,5938.171841229697
642.4320625610949,5957.03333131398
643.4330400782014,5974.238154052808
644.434017595308,5981.293593319975
645.4349951124145,5974.471278423349
646.4359726295211,5980.598149224306
647.4369501466276,5995.584432572637
648.4379276637342,5982.524163234875
649.4389051808407,5962.205551039721
650.4398826979473,6087.902574627381
651.4408602150538,6018.083255116987
652.4418377321604,6038.33883916476
653.4428152492669,6108.400564953988
654.4437927663735,6024.858030984141
655.44477028348,6137.755981768001
656.4457478005866,6172.729170128394
657.4467253176931,6174.019226001206
658.4477028347997,6210.184468872379
659.4486803519062,6250.100750229389
660.4496578690128,6283.861281708446
661.4506353861193,6313.045707920288
662.4516129032259,6340.436336670376
663.4525904203324,6377.253900517974
664.453567937439,6456.728436152543
665.4545454545455,6548.13998884551
666.455522971652,6667.453900278254
667.4565004887586,6882.552676018725
668.4574780058651,7003.241802799421
669.4584555229717,7203.642406537597
670.4594330400782,7436.67932937676
671.4604105571848,7612.808796753723
672.4613880742913,7850.1856599816
673.4623655913979,8060.717886460869
674.4633431085044,8184.3122053101015
675.464320625611,8201.39946289114
676.4652981427175,8275.973056715513
677.4662756598241,8211.809093611904
678.4672531769306,8033.801217917239
679.4682306940372,7804.260104453819
680.4692082111437,7688.85147450303
681.4701857282503,7327.245649598403
682.4711632453568,7092.887451790971
683.4721407624634,6947.185408922969
684.4731182795699,6762.531601001706
685.4740957966765,6619.305289637343
686.475073313783,6484.71348973607
687.4760508308896,6372.566840455833
688.4770283479961,6294.181500864727
689.4780058651027,6265.692140762463
690.4789833822092,6213.78942025716
691.4799608993158,6167.238306639596
692.4809384164223,6130.9938529435
693.4819159335289,6091.5041725592355
694.4828934506354,6049.837178044211
695.483870967742,6012.626162854801
696.4848484848485,5979.727412695081
697.485826001955,5949.624965290242
698.4868035190616,5914.949069778467
699.4877810361681,5896.542409602261
700.4887585532747,5887.49834925881
701.4897360703812,5884.927359264648
702.4907135874878,5901.11651259024
703.4916911045943,5906.535257641277
704.4926686217009,5913.163540005151
705.4936461388074,5932.429110791051
706.494623655914,5983.558455824442
707.4956011730205,5963.983638261436
708.4965786901271,5971.916698313499
709.4975562072336,5997.221546236106
710.4985337243402,6017.763905877989
711.4995112414467,5989.980412727769
712.5004887585533,5929.217241863075
713.5014662756598,5870.37770899233
714.5024437927664,5837.667680388109
715.5034213098729,5860.838456247058
716.5043988269795,5890.012001737808
717.505376344086,5896.409996017523
718.5063538611926,5891.177843952038
719.5073313782991,5902.772178127017
720.5083088954057,5926.472666479611
721.5092864125122,5940.359410772314
722.5102639296188,5956.904634336891
723.5112414467253,5976.082754560175
724.5122189638319,5915.792216850281
725.5131964809384,5910.844792341826
726.514173998045,5940.707575191446
727.5151515151515,5952.014566062484
728.516129032258,5823.604776387299
729.5171065493646,5922.069620520908
730.5180840664711,5933.199022936147
731.5190615835777,5894.476958039341
732.5200391006842,5882.4525783335675
733.5210166177908,5954.393002669665
734.5219941348973,5975.508093433398
735.5229716520039,5960.058327455378
736.5239491691104,5929.728800617507
737.524926686217,5939.792766373412
738.5259042033235,5913.045609646854
739.5268817204301,5914.142562516112
740.5278592375366,5927.080799506098
741.5288367546432,5913.841251827172
742.5298142717497,5890.598739820052
743.5307917888563,5919.506713999073
744.5317693059628,5975.703037723374
745.5327468230694,6014.3487103129655
746.5337243401759,5884.190643073097
747.5347018572825,5868.585525175041
748.535679374389,5926.95532042647
749.5366568914956,5994.415166128691
