Raman Shift,Intensity
90.74744,4230.367
91.22955,4294.448
91.71167,4396.99
92.19379,4520.277
92.6759,4659.31
93.15802,4758.027
93.64014,4751.658
94.12225,4670.973
94.60437,4598.573
95.08649,4554.775
95.5686,4530.808
96.05072,4510.292
96.53284,4496.728
97.01495,4491.069
97.49707,4498.257
97.97919,4517.604
98.4613,4527.369
98.94342,4508.558
99.42554,4465.995
99.90765,4479.4
100.3898,4564.682
100.8719,4670.556
101.354,4716.413
101.8361,4685.997
102.3182,4661.743
102.8004,4671.366
103.2825,4714.755
103.7646,4786.709
104.2467,4894.426
104.7288,5025.271
105.2109,5144.711
105.6931,5222.731
106.1752,5332.639
106.6573,5507.205
107.1394,5753.386
107.6215,6044.811
108.1036,6408.512
108.5858,6825.771
109.0679,7193.383
109.55,7506.58
110.0321,7779.121
110.5142,8016.709
110.9963,8329.208
111.4785,8493.095
111.9606,8453.126
112.4427,8217.458
112.9248,7941.15
113.4069,7584.928
113.889,7227.921
114.3712,6929.592
114.8533,6687.951
115.3354,6519.598
115.8175,6448.608
116.2996,6480.603
116.7817,6522.467
117.2639,6531.906
117.746,6534.178
118.2281,6561.364
118.7102,6651.349
119.1923,6751.373
119.6744,6820.655
120.1566,6844.557
120.6387,6886.353
121.1208,6985.564
121.6029,7130.379
122.085,7296.824
122.5671,7464.082
123.0493,7650.431
123.5314,7884.147
124.0135,8187.214
124.4956,8495.326
124.9777,8728.503
125.4598,8905.798
125.942,9095.691
126.4241,9331.636
126.9062,9611.548
127.3883,9931.429
127.8704,10289.34
128.3525,10688.08
128.8347,11129.32
129.3168,11615.56
129.7989,12148.4
130.281,12743.06
130.7631,13389.63
131.2452,14079.87
131.7274,14848.68
132.2095,15641.7
132.6916,16346.1
133.1737,16976.47
133.6558,17440.34
134.1379,17668.39
134.6201,17661.23
135.1022,17436.39
135.5843,16950.61
136.0664,16234.51
136.5485,15505.94
137.0306,14734.96
137.5128,14015.33
137.9949,13425.66
138.477,12960.62
138.9591,12647.68
139.4412,12504.17
139.9233,12536.88
140.4055,12661.05
140.8876,12879.98
141.3697,13188.83
141.8518,13587.09
142.3339,14088.72
142.816,14642.92
143.2982,15242.24
143.7803,15898.91
144.2624,16554.26
144.7445,17257.44
145.2266,17942.99
145.7087,18440.32
146.1909,18772.35
146.673,18900.51
147.1551,18809.12
147.6372,18475.54
148.1193,17959.41
148.6014,17193.74
149.0836,16238.2
149.5657,15261.2
150.0478,14226.38
150.5299,13221.12
151.012,12276.72
151.4941,11378.94
151.9763,10568.89
152.4584,9845.312
152.9405,9208.603
153.4226,8641.867
153.9047,8158.813
154.3868,7735.753
154.869,7359.789
155.3511,7049.163
155.8332,6764.533
156.3153,6503.262
156.7974,6265.305
157.2795,6050.689
157.7617,5854.947
158.2438,5685.005
158.7259,5545.868
159.208,5461.32
159.6901,5386.207
160.1722,5301.867
160.6544,5209.555
161.1365,5137.941
161.6186,5110.112
162.1007,5102.536
162.5828,5092.81
163.0649,5054.115
163.5471,5028.335
164.0292,5046.606
164.5113,5109.911
164.9934,5161.097
165.4755,5157.553
165.9576,5129.126
166.4398,5112.803
166.9219,5120.565
167.404,5146.433
167.8861,5189.565
168.3682,5250.564
168.8503,5318.108
169.3325,5385.38
169.8146,5454.678
170.2967,5528.615
170.7788,5606.336
171.2609,5691.474
171.743,5786.258
172.2252,5891.353
172.7073,6005.46
173.1894,6117.721
173.6715,6238.717
174.1536,6387.169
174.6357,6594.576
175.1179,6827.604
175.6,7037.955
176.0821,7212.699
176.5642,7404.068
177.0463,7670.568
177.5284,7998.346
178.0106,8339.855
178.4927,8668.581
178.9748,8996.468
179.4569,9343.981
179.939,9724.058
180.4211,10094.45
180.9033,10430.72
181.3854,10727.98
181.8675,10955.31
182.3496,11109.64
182.8317,11181.62
183.3138,11154.23
183.796,11022.95
184.2781,10799.16
184.7602,10477.56
185.2423,10063.0
185.7244,9623.276
186.2065,9178.284
186.6887,8734.962
187.1708,8309.306
187.6529,7901.107
188.135,7516.818
188.6171,7178.835
189.0992,6883.877
189.5814,6618.077
190.0635,6372.115
190.5456,6144.343
191.0277,5947.62
191.5098,5784.772
191.9919,5648.627
192.4741,5527.386
192.9562,5421.113
193.4383,5336.414
193.9204,5286.235
194.4025,5268.627
194.8846,5249.228
195.3668,5222.215
195.8489,5193.286
196.331,5176.427
196.8131,5172.377
197.2952,5174.667
197.7773,5176.594
198.2595,5177.813
198.7416,5192.479
199.2237,5221.349
199.7058,5265.178
200.1879,5329.979
200.67,5420.265
201.1522,5514.198
201.6343,5590.891
202.1164,5646.323
202.5985,5727.804
203.0806,5844.248
203.5627,5987.787
204.0449,6129.952
204.527,6266.458
205.0091,6415.6
205.4912,6589.645
205.9733,6789.637
206.4554,7007.792
206.9376,7243.216
207.4197,7495.481
207.9018,7775.514
208.3839,8090.34
208.866,8416.516
209.3481,8737.042
209.8303,9054.78
210.3124,9365.54
210.7945,9681.714
211.2766,9987.647
211.7587,10232.98
212.2408,10419.11
212.723,10542.15
213.2051,10604.05
213.6872,10609.84
214.1693,10533.45
214.6514,10363.26
215.1335,10107.82
215.6157,9809.599
216.0978,9448.226
216.5799,9076.427
217.062,8725.386
217.5441,8400.837
218.0262,8076.762
218.5084,7744.615
218.9905,7406.537
219.4726,7089.748
219.9547,6786.934
220.4368,6509.188
220.9189,6268.901
221.4011,6073.174
221.8832,5891.25
222.3653,5718.504
222.8474,5557.57
223.3295,5413.054
223.8116,5292.568
224.2938,5181.467
224.7759,5069.995
225.258,4952.225
225.7401,4851.385
226.2222,4773.9
226.7043,4714.477
227.1865,4646.105
227.6686,4562.021
228.1507,4480.988
228.6328,4414.968
229.1149,4368.581
229.597,4327.26
230.0792,4294.097
230.5613,4265.466
231.0434,4226.267
231.5255,4166.339
232.0076,4111.605
232.4897,4079.021
232.9719,4083.704
233.454,4076.389
233.9361,4051.158
234.4182,4012.868
234.9003,3977.386
235.3824,3942.932
235.8646,3913.818
236.3467,3892.751
236.8288,3883.175
237.3109,3874.164
237.793,3866.878
238.2751,3859.624
238.7573,3847.036
239.2394,3825.302
239.7215,3803.535
240.2036,3785.797
240.6857,3774.059
241.1678,3761.464
241.65,3745.934
242.1321,3730.112
242.6142,3721.297
243.0963,3724.36
243.5784,3727.344
244.0605,3725.535
244.5427,3718.616
245.0248,3707.054
245.5069,3686.115
245.989,3662.436
246.4711,3652.198
246.9532,3664.6
247.4354,3675.199
247.9175,3673.815
248.3996,3655.83
248.8817,3640.863
249.3638,3628.536
249.8459,3619.514
250.3281,3615.648
250.8102,3620.139
251.2923,3624.381
251.7744,3626.001
252.2565,3625.397
252.7386,3620.069
253.2208,3607.077
253.7029,3591.538
254.185,3581.029
254.6671,3575.936
255.1492,3575.233
255.6313,3580.847
256.1135,3595.044
256.5956,3598.549
257.0777,3584.961
257.5598,3566.684
258.0419,3561.696
258.524,3576.768
259.0062,3589.813
259.4883,3595.087
259.9704,3592.253
260.4525,3584.058
260.9346,3565.446
261.4167,3547.871
261.8989,3547.516
262.381,3573.876
262.8631,3591.922
263.3452,3590.83
263.8273,3570.739
264.3094,3557.618
264.7916,3552.485
265.2737,3552.438
265.7558,3555.575
266.2379,3563.344
266.72,3569.625
267.2021,3573.281
267.6843,3574.414
268.1664,3573.297
268.6485,3567.96
269.1306,3564.381
269.6127,3570.16
270.0948,3589.19
270.577,3598.763
271.0591,3590.787
271.5412,3570.611
272.0233,3565.753
272.5054,3580.532
272.9875,3598.951
273.4697,3609.162
273.9518,3609.865
274.4339,3611.397
274.916,3615.257
275.3981,3620.559
275.8802,3624.693
276.3624,3627.469
276.8445,3629.727
277.3266,3631.224
277.8087,3631.738
278.2908,3635.655
278.7729,3644.445
279.2551,3655.574
279.7372,3663.098
280.2193,3666.749
280.7014,3668.767
281.1835,3671.51
281.6656,3674.896
282.1478,3670.416
282.6299,3654.269
283.112,3637.13
283.5941,3638.501
284.0762,3659.157
284.5583,3683.779
285.0405,3709.514
285.5226,3735.196
286.0047,3747.374
286.4868,3743.157
286.9689,3734.83
287.451,3738.689
287.9332,3754.329
288.4153,3774.063
288.8974,3798.651
289.3795,3824.966
289.8616,3837.063
290.3438,3833.042
290.8259,3827.897
291.308,3839.898
291.7901,3866.407
292.2722,3892.533
292.7543,3913.824
293.2365,3931.165
293.7186,3946.041
294.2007,3958.313
294.6828,3968.841
295.1649,3973.537
295.647,3976.153
296.1292,3990.501
296.6113,4025.083
297.0934,4067.476
297.5755,4095.716
298.0576,4111.4
298.5397,4129.944
299.0219,4168.16
299.504,4217.505
299.9861,4258.11
300.4682,4283.544
300.9503,4304.482
301.4324,4334.679
301.9146,4372.035
302.3967,4408.961
302.8788,4433.263
303.3609,4456.33
303.843,4495.873
304.3251,4556.834
304.8073,4624.542
305.2894,4690.216
305.7715,4752.571
306.2536,4810.377
306.7357,4858.262
307.2178,4903.048
307.7,4949.577
308.1821,4997.803
308.6642,5051.381
309.1463,5118.107
309.6284,5190.789
310.1105,5259.258
310.5927,5307.743
311.0748,5357.65
311.5569,5430.957
312.039,5527.705
312.5211,5616.322
313.0032,5676.696
313.4854,5721.666
313.9675,5764.021
314.4496,5815.22
314.9317,5858.435
315.4138,5889.161
315.8959,5906.546
316.3781,5906.534
316.8602,5878.961
317.3423,5838.27
317.8244,5795.111
318.3065,5755.253
318.7886,5708.439
319.2708,5651.67
319.7529,5585.611
320.235,5511.84
320.7171,5423.974
321.1992,5334.4
321.6813,5250.123
322.1635,5176.104
322.6456,5097.86
323.1277,5006.407
323.6098,4909.897
324.0919,4821.619
324.574,4744.092
325.0562,4675.769
325.5383,4618.686
326.0204,4576.418
326.5025,4530.965
326.9846,4475.239
327.4667,4418.423
327.9489,4369.582
328.431,4333.3
328.9131,4300.004
329.3952,4268.903
329.8773,4240.091
330.3594,4210.804
330.8416,4180.26
331.3237,4150.256
331.8058,4122.152
332.2879,4096.207
332.77,4071.447
333.2521,4046.91
333.7343,4023.104
334.2164,4003.118
334.6985,3990.152
335.1806,3976.277
335.6627,3954.843
336.1448,3918.667
336.627,3899.62
337.1091,3907.278
337.5912,3926.033
338.0733,3919.776
338.5554,3878.762
339.0375,3844.728
339.5197,3838.985
340.0018,3863.826
340.4839,3873.539
340.966,3864.025
341.4481,3847.951
341.9302,3845.005
342.4124,3856.848
342.8945,3857.765
343.3766,3835.962
343.8587,3797.285
344.3408,3765.452
344.8229,3740.239
345.3051,3724.785
345.7872,3723.809
346.2693,3736.033
346.7514,3756.465
347.2335,3791.5
347.7156,3824.444
348.1978,3809.863
348.6799,3752.035
349.162,3704.389
349.6441,3716.216
350.1262,3764.004
350.6083,3791.605
351.0905,3790.605
351.5726,3775.93
352.0547,3760.527
352.5368,3744.999
353.0189,3731.175
353.501,3714.219
353.9832,3702.15
354.4653,3710.714
354.9474,3741.511
355.4295,3767.504
355.9116,3761.096
356.3937,3737.491
356.8759,3719.568
357.358,3713.934
357.8401,3718.019
358.3222,3739.432
358.8043,3773.865
359.2864,3794.293
359.7686,3768.409
360.2507,3731.744
360.7328,3716.613
361.2149,3744.809
361.697,3770.323
362.1791,3771.368
362.6613,3756.104
363.1434,3743.353
363.6255,3736.178
364.1076,3735.108
364.5897,3743.985
365.0718,3769.511
365.554,3782.182
366.0361,3759.526
366.5182,3727.073
367.0003,3715.449
367.4824,3753.144
367.9645,3786.256
368.4467,3803.055
368.9288,3802.572
369.4109,3798.879
369.893,3782.041
370.3751,3769.752
370.8572,3775.857
371.3394,3823.592
371.8215,3849.263
372.3036,3834.896
372.7857,3795.55
373.2678,3787.218
373.7499,3825.604
374.2321,3866.98
374.7142,3891.349
375.1963,3896.28
375.6784,3893.329
376.1605,3878.129
376.6426,3860.573
377.1248,3857.487
377.6069,3870.866
378.089,3885.99
378.5711,3897.204
379.0532,3905.76
379.5353,3923.361
380.0175,3952.923
380.4996,3977.659
380.9817,3973.662
381.4638,3945.604
381.9459,3933.843
382.428,3950.623
382.9102,3982.642
383.3923,4005.313
383.8744,4019.465
384.3565,4031.91
384.8386,4042.109
385.3207,4054.391
385.8029,4081.226
386.285,4127.064
386.7671,4171.33
387.2492,4187.015
387.7313,4184.947
388.2134,4189.478
388.6956,4217.636
389.1777,4253.331
389.6598,4280.343
390.1419,4299.152
390.624,4322.975
391.1061,4365.724
391.5883,4415.565
392.0704,4459.245
392.5525,4481.941
393.0346,4513.36
393.5167,4572.773
393.9988,4652.624
394.481,4732.124
394.9631,4799.95
395.4452,4868.868
395.9273,4943.537
396.4094,5021.876
396.8915,5114.446
397.3737,5220.731
397.8558,5343.062
398.3379,5484.305
398.82,5658.53
399.3021,5837.001
399.7842,6014.857
400.2664,6191.934
400.7485,6371.778
401.2306,6545.199
401.7127,6727.904
402.1948,6929.641
402.6769,7154.558
403.1591,7388.822
403.6412,7629.94
404.1233,7880.075
404.6054,8149.696
405.0875,8432.915
405.5696,8744.323
406.0518,9081.872
406.5339,9444.425
407.016,9875.636
407.4981,10372.44
407.9802,10934.25
408.4623,11550.49
408.9445,12225.04
409.4266,12989.81
409.9087,13847.41
410.3908,14802.61
410.8729,15852.78
411.355,17004.04
411.8372,18267.88
412.3193,19697.93
412.8014,21255.84
413.2835,22897.19
413.7656,24661.44
414.2477,26372.04
414.7299,27990.46
415.212,29411.57
415.6941,30339.99
416.1762,30699.55
416.6583,30474.5
417.1404,29544.44
417.6226,27918.88
418.1047,26024.82
418.5868,23859.29
419.0689,21650.49
419.551,19576.64
420.0331,17680.01
420.5153,15958.03
420.9974,14458.05
421.4795,13148.83
421.9616,12014.4
422.4437,11078.9
422.9258,10277.53
423.408,9594.022
423.8901,9033.748
424.3722,8541.13
424.8543,8136.209
425.3364,7785.741
425.8185,7459.692
426.3007,7149.459
426.7828,6870.955
427.2649,6625.981
427.747,6415.042
428.2291,6236.645
428.7112,6096.887
429.1934,5981.283
429.6755,5883.005
430.1576,5806.061
430.6397,5728.383
431.1218,5648.905
431.6039,5569.52
432.0861,5490.5
432.5682,5411.517
433.0503,5339.318
433.5324,5274.672
434.0145,5218.323
434.4966,5175.136
434.9788,5145.452
435.4609,5120.235
435.943,5091.256
436.4251,5060.505
436.9072,5034.094
437.3893,5013.902
437.8715,4995.842
438.3536,4971.458
438.8357,4944.826
439.3178,4927.303
439.7999,4932.403
440.282,4944.374
440.7642,4949.383
441.2463,4946.619
441.7284,4940.971
442.2105,4930.577
442.6926,4920.572
443.1747,4915.923
443.6569,4919.379
444.139,4926.563
444.6211,4940.837
445.1032,4958.433
445.5853,4967.984
446.0674,4957.107
446.5496,4947.125
447.0317,4945.186
447.5138,4951.611
447.9959,4967.343
448.478,5002.238
448.9601,5039.918
449.4423,5064.767
449.9244,5072.645
450.4065,5074.785
450.8886,5065.956
451.3707,5053.136
451.8528,5070.424
452.335,5127.737
452.8171,5185.444
453.2992,5222.032
453.7813,5237.26
454.2634,5250.553
454.7455,5261.449
455.2277,5273.208
455.7098,5288.245
456.1919,5307.033
456.674,5334.785
457.1561,5375.414
457.6382,5423.463
458.1204,5469.346
458.6025,5513.631
459.0846,5557.163
459.5667,5601.185
460.0488,5645.191
460.5309,5687.03
461.0131,5724.554
461.4952,5768.268
461.9773,5830.427
462.4594,5901.742
462.9415,5969.506
463.4236,6023.417
463.9058,6076.922
464.3879,6133.031
464.87,6192.203
465.3521,6262.597
465.8342,6352.092
466.3163,6449.713
466.7985,6549.236
467.2806,6645.348
467.7627,6752.012
468.2448,6872.819
468.7269,7001.736
469.209,7130.942
469.6912,7255.945
470.1733,7391.671
470.6554,7540.49
471.1375,7702.602
471.6196,7881.43
472.1017,8079.939
472.5839,8287.306
473.066,8493.768
473.5481,8698.229
474.0302,8940.142
474.5123,9225.13
474.9944,9541.294
475.4766,9865.54
475.9587,10202.16
476.4408,10580.04
476.9229,11010.96
477.405,11485.87
477.8871,11985.77
478.3693,12512.08
478.8514,13076.47
479.3335,13691.77
479.8156,14350.85
480.2977,15035.2
480.7798,15731.65
481.262,16478.73
481.7441,17298.83
482.2262,18182.46
482.7083,19115.49
483.1904,20073.7
483.6725,21103.59
484.1547,22192.11
484.6368,23341.06
485.1189,24636.23
485.601,26110.42
486.0831,27725.77
486.5652,29438.97
487.0474,31219.93
487.5295,33187.9
488.0116,35330.94
488.4937,37646.41
488.9758,40158.22
489.4579,42889.52
489.9401,45775.73
490.4222,48855.11
490.9043,52076.95
491.3864,55389.09
491.8685,58831.16
492.3506,62177.91
492.8328,65450.28
493.3149,68535.29
493.797,71043.09
494.2791,72987.99
494.7612,74148.7
495.2433,74315.44
495.7255,73517.52
496.2076,71826.98
496.6897,69059.1
497.1718,65621.17
497.6539,61710.04
498.136,57442.16
498.6182,53171.0
499.1003,48990.53
499.5824,44960.46
500.0645,41204.3
500.5466,37662.88
501.0287,34440.39
501.5109,31617.36
501.993,29092.28
502.4751,26800.91
502.9572,24769.7
503.4393,22936.77
503.9214,21322.08
504.4036,19917.02
504.8857,18648.74
505.3678,17517.49
505.8499,16501.19
506.332,15599.23
506.8141,14815.68
507.2963,14091.13
507.7784,13418.23
508.2605,12801.19
508.7426,12234.63
509.2247,11718.18
509.7068,11247.74
510.189,10826.36
510.6711,10444.67
511.1532,10102.28
511.6353,9794.236
512.1174,9505.757
512.5995,9227.489
513.0817,8961.919
513.5638,8712.479
514.0459,8479.114
514.528,8259.044
515.0101,8041.922
515.4922,7841.0
515.9744,7673.862
516.4565,7558.394
516.9386,7445.637
517.4207,7317.198
517.9028,7181.919
518.3849,7054.24
518.8671,6934.811
519.3492,6825.317
519.8313,6728.018
520.3134,6642.681
520.7955,6552.585
521.2776,6453.732
521.7598,6355.513
522.2419,6262.363
522.724,6172.123
523.2061,6096.879
523.6882,6039.324
524.1703,5990.885
524.6525,5940.5
525.1346,5888.273
525.6167,5839.205
526.0988,5796.774
526.5809,5756.657
527.063,5708.954
527.5452,5655.598
528.0273,5606.441
528.5094,5570.305
528.9915,5539.661
529.4736,5505.61
529.9557,5467.276
530.4379,5428.05
530.92,5386.656
531.4021,5346.376
531.8842,5310.417
532.3663,5282.424
532.8484,5254.572
533.3306,5219.554
533.8127,5183.736
534.2948,5161.866
534.7769,5178.354
535.259,5181.199
535.7411,5151.359
536.2233,5090.517
536.7054,5054.184
537.1875,5053.407
537.6696,5056.552
538.1517,5041.286
538.6339,5005.959
539.116,4975.251
539.5981,4948.837
540.0802,4932.364
540.5623,4940.297
541.0444,4967.604
541.5266,4985.728
542.0087,4983.77
542.4908,4970.447
542.9729,4952.365
543.455,4932.084
543.9371,4919.279
544.4193,4925.417
544.9014,4937.222
545.3835,4942.218
545.8656,4938.808
546.3477,4939.872
546.8298,4958.979
547.312,4980.175
547.7941,4990.121
548.2762,4977.412
548.7583,4966.059
549.2404,4952.911
549.7225,4943.552
550.2047,4949.492
550.6868,4982.345
551.1689,5007.954
551.651,5016.309
552.1331,5009.992
552.6152,5003.39
553.0974,4995.365
553.5795,4993.039
554.0616,5003.1
554.5437,5023.767
555.0258,5046.591
555.5079,5072.285
555.9901,5093.053
556.4722,5093.544
556.9543,5084.042
557.4364,5086.935
557.9185,5114.887
558.4006,5147.101
558.8828,5165.715
559.3649,5175.928
559.847,5190.282
560.3291,5220.186
560.8112,5249.269
561.2933,5265.384
561.7755,5267.931
562.2576,5285.52
562.7397,5330.948
563.2218,5385.043
563.7039,5441.002
564.186,5506.331
564.6682,5553.416
565.1503,5578.128
565.6324,5590.532
566.1145,5599.212
566.5966,5602.651
567.0787,5618.884
567.5609,5652.984
568.043,5700.712
568.5251,5756.912
569.0072,5820.566
569.4893,5878.979
569.9714,5921.245
570.4536,5956.682
570.9357,5998.203
571.4178,6045.744
571.8999,6096.811
572.382,6153.625
572.8641,6210.521
573.3463,6261.0
573.8284,6301.965
574.3105,6343.156
574.7926,6384.411
575.2747,6428.568
575.7568,6479.122
576.239,6542.576
576.7211,6604.698
577.2032,6661.644
577.6853,6716.536
578.1674,6779.008
578.6495,6851.432
579.1317,6924.806
579.6138,6998.278
580.0959,7070.482
580.578,7125.626
581.0601,7162.589
581.5422,7200.618
582.0244,7260.362
582.5065,7333.709
582.9886,7398.587
583.4707,7452.104
583.9528,7502.478
584.4349,7554.244
584.9171,7608.549
585.3992,7667.444
585.8813,7755.723
586.3634,7822.688
586.8455,7822.508
587.3276,7782.699
587.8098,7778.572
588.2919,7856.912
588.774,7940.247
589.2561,8008.821
589.7382,8062.535
590.2203,8102.643
590.7025,8120.999
591.1846,8139.595
591.6667,8173.252
592.1488,8223.133
592.6309,8275.4
593.113,8331.042
593.5952,8384.919
594.0773,8429.847
594.5594,8467.708
595.0415,8503.257
595.5236,8534.365
596.0057,8571.171
596.4879,8625.766
596.97,8694.561
597.4521,8768.678
597.9342,8854.112
598.4163,8935.057
598.8984,8995.177
599.3806,9038.167
599.8627,9096.942
600.3448,9196.591
600.8269,9298.489
601.309,9381.421
601.7911,9434.266
602.2733,9514.579
602.7554,9632.849
603.2375,9763.594
603.7196,9875.423
604.2017,9964.655
604.6838,10084.84
605.166,10246.58
605.6481,10434.06
606.1302,10623.97
606.6123,10816.57
607.0944,11011.88
607.5765,11211.01
608.0587,11413.75
608.5408,11618.73
609.0229,11827.53
609.505,12053.59
609.9871,12305.58
610.4692,12572.93
610.9514,12846.63
611.4335,13127.76
611.9156,13427.01
612.3977,13758.68
612.8798,14100.46
613.3619,14432.16
613.8441,14740.69
614.3262,15082.22
614.8083,15464.6
615.2904,15871.89
615.7725,16283.93
616.2546,16701.67
616.7368,17109.23
617.2189,17509.62
617.701,17897.9
618.1831,18273.42
618.6652,18629.8
619.1473,18942.02
619.6295,19196.86
620.1116,19398.31
620.5937,19564.18
621.0758,19685.49
621.5579,19719.77
622.04,19658.74
622.5222,19492.32
623.0043,19205.67
623.4864,18787.8
623.9685,18304.26
624.4506,17746.23
624.9327,17137.94
625.4149,16487.0
625.897,15786.59
626.3791,15081.25
626.8612,14369.82
627.3433,13658.46
627.8254,12943.21
628.3076,12226.38
628.7897,11558.67
629.2718,10956.17
629.7539,10400.96
630.236,9879.033
630.7181,9386.721
631.2003,8919.634
631.6824,8462.88
632.1645,8038.919
632.6466,7674.359
633.1287,7362.381
633.6108,7079.398
634.093,6824.48
634.5751,6585.887
635.0572,6360.189
635.5393,6144.537
636.0214,5946.959
636.5035,5766.292
636.9857,5604.486
637.4678,5467.805
637.9499,5360.173
638.432,5251.833
638.9141,5140.952
639.3962,5032.268
639.8784,4929.934
640.3605,4835.644
640.8426,4752.864
641.3247,4684.788
641.8068,4626.359
642.2889,4575.788
642.7711,4530.352
643.2532,4482.482
643.7353,4416.857
644.2174,4360.27
644.6995,4331.947
645.1816,4327.514
645.6638,4314.848
646.1459,4279.549
646.628,4245.146
647.1101,4220.431
647.5922,4206.455
648.0743,4184.801
648.5565,4151.47
649.0386,4121.071
649.5207,4107.144
650.0028,4107.862
650.4849,4109.739
650.967,4112.577
651.4492,4111.249
651.9313,4096.441
652.4134,4074.189
652.8955,4056.088
653.3776,4045.177
653.8597,4037.974
654.3419,4033.535
654.824,4031.075
655.3061,4029.467
655.7882,4023.043
656.2703,4023.824
656.7524,4043.439
657.2346,4072.327
657.7167,4079.773
658.1988,4054.828
658.6809,4033.906
659.163,4032.897
659.6451,4046.432
660.1273,4036.705
660.6094,4001.88
661.0915,3977.347
661.5736,3999.271
662.0557,4044.301
662.5378,4063.435
663.02,4054.282
663.5021,4044.973
663.9842,4058.161
664.4663,4078.957
664.9484,4093.398
665.4305,4097.831
665.9127,4099.872
666.3948,4099.507
666.8769,4098.612
667.359,4099.117
667.8411,4101.746
668.3232,4104.24
668.8054,4105.907
669.2875,4107.958
669.7696,4113.215
670.2517,4121.754
670.7338,4129.159
671.2159,4134.275
671.6981,4137.198
672.1802,4140.13
672.6623,4141.437
673.1444,4135.377
673.6265,4110.449
674.1086,4084.041
674.5908,4072.554
675.0729,4073.302
675.555,4066.391
676.0371,4034.197
676.5192,4003.481
677.0013,3986.005
677.4835,3982.72
677.9656,3982.691
678.4477,3987.654
678.9298,3992.744
679.4119,3994.698
679.894,3993.492
680.3762,3991.218
680.8583,3988.184
681.3404,3982.157
681.8225,3966.687
682.3046,3947.116
682.7867,3934.182
683.2689,3930.508
683.751,3932.795
684.2331,3946.15
684.7152,3961.547
685.1973,3967.172
685.6794,3944.582
686.1616,3930.474
686.6437,3939.959
687.1258,3959.77
687.6079,3965.064
688.09,3948.764
688.5721,3936.479
689.0543,3935.302
689.5364,3941.577
690.0185,3945.458
690.5006,3946.897
690.9827,3946.259
691.4648,3946.293
691.947,3942.969
692.4291,3924.606
692.9112,3894.703
693.3933,3872.761
693.8754,3875.907
694.3575,3885.407
694.8397,3888.756
695.3218,3884.334
695.8039,3883.198
696.286,3893.306
696.7681,3900.964
697.2502,3898.182
697.7324,3881.967
698.2145,3870.097
698.6966,3862.683
699.1787,3859.372
699.6608,3862.576
700.1429,3870.317
700.6251,3872.338
701.1072,3866.665
701.5893,3858.644
702.0714,3849.431
702.5535,3842.498
703.0356,3843.902
703.5178,3862.325
703.9999,3876.984
704.482,3881.141
704.9641,3876.247
705.4462,3863.622
705.9283,3829.505
706.4105,3811.599
706.8926,3823.848
707.3747,3849.576
707.8568,3843.833
708.3389,3803.498
708.821,3774.521
709.3032,3777.326
709.7853,3796.456
710.2674,3800.357
710.7495,3792.381
711.2316,3786.429
711.7137,3794.612
712.1959,3803.912
712.678,3803.277
713.1601,3794.006
713.6422,3787.427
714.1243,3784.367
714.6064,3787.134
715.0886,3799.147
715.5707,3820.98
716.0528,3832.883
716.5349,3832.338
717.017,3828.563
717.4991,3829.277
717.9813,3832.972
718.4634,3823.605
718.9455,3800.092
719.4276,3780.835
719.9097,3786.252
720.3918,3803.531
720.874,3815.789
721.3561,3820.153
721.8382,3822.428
722.3203,3824.339
722.8024,3825.987
723.2845,3827.568
723.7667,3830.527
724.2488,3830.689
724.7309,3827.118
725.213,3821.688
725.6951,3815.187
726.1772,3807.179
726.6594,3806.568
727.1415,3817.289
727.6236,3828.447
728.1057,3825.291
728.5878,3810.53
729.0699,3789.925
729.5521,3757.405
730.0342,3732.465
730.5163,3733.893
730.9984,3751.014
731.4805,3764.794
731.9626,3772.676
732.4448,3773.864
732.9269,3764.692
733.409,3749.806
733.8911,3742.094
734.3732,3742.596
734.8553,3746.895
735.3375,3756.169
735.8196,3766.317
736.3017,3761.66
736.7838,3745.521
737.2659,3738.151
737.748,3763.504
738.2302,3793.072
738.7123,3800.386
739.1944,3787.917
739.6765,3770.007
740.1586,3738.986
740.6407,3715.74
741.1229,3711.97
741.605,3726.637
742.0871,3744.182
742.5692,3769.749
743.0513,3786.212
743.5334,3777.909
744.0156,3749.65
744.4977,3745.223
744.9798,3764.555
745.4619,3786.66
745.944,3793.969
746.4261,3795.138
746.9083,3802.471
747.3904,3817.171
747.8725,3827.767
748.3546,3827.19
748.8367,3821.719
749.3188,3814.251
749.801,3803.127
750.2831,3798.209
750.7652,3803.419
751.2473,3808.717
751.7294,3802.008
752.2115,3783.69
752.6937,3787.31
753.1758,3818.758
753.6579,3845.564
754.14,3818.232
754.6221,3768.923
755.1042,3754.908
755.5864,3796.475
756.0685,3835.924
756.5506,3840.114
757.0327,3828.192
757.5148,3819.027
757.9969,3814.182
758.4791,3814.029
758.9612,3821.585
759.4433,3830.456
759.9254,3830.681
760.4075,3821.548
760.8896,3821.54
761.3718,3836.27
761.8539,3851.73
762.336,3844.044
762.8181,3823.899
763.3002,3814.24
763.7823,3826.297
764.2645,3842.086
764.7466,3859.99
765.2287,3872.877
765.7108,3870.008
766.1929,3823.369
766.675,3798.935
767.1572,3810.305
767.6393,3840.57
768.1214,3860.839
768.6035,3870.974
769.0856,3869.222
769.5677,3849.586
770.0499,3828.39
770.532,3837.761
771.0141,3866.214
771.4962,3884.236
771.9783,3862.437
772.4604,3844.615
772.9426,3864.854
773.4247,3905.212
773.9068,3923.177
774.3889,3893.091
774.871,3870.113
775.3531,3865.854
775.8353,3873.736
776.3174,3873.876
776.7995,3865.779
777.2816,3861.071
777.7637,3862.918
778.2458,3871.863
778.728,3901.191
779.2101,3940.43
779.6922,3955.685
780.1743,3896.196
780.6564,3842.547
781.1385,3846.873
781.6207,3894.893
782.1028,3920.243
782.5849,3903.624
783.067,3888.156
783.5491,3884.7
784.0313,3890.9
784.5134,3899.074
784.9955,3909.324
785.4776,3916.374
785.9597,3916.622
786.4418,3913.038
786.924,3907.183
787.4061,3900.863
787.8882,3900.974
788.3703,3919.931
788.8524,3937.595
789.3345,3944.128
789.8167,3939.972
790.2988,3931.917
790.7809,3915.227
791.263,3904.109
791.7451,3905.845
792.2272,3916.501
792.7094,3917.648
793.1915,3909.645
793.6736,3901.538
794.1557,3893.637
794.6378,3891.546
795.1199,3911.843
795.6021,3947.343
796.0842,3966.658
796.5663,3936.981
797.0484,3906.306
797.5305,3896.574
798.0126,3906.011
798.4948,3918.039
798.9769,3934.944
799.459,3948.822
799.9411,3957.201
800.4232,3959.772
800.9053,3949.565
801.3875,3928.499
801.8696,3915.471
802.3517,3933.742
802.8338,3956.904
803.3159,3954.085
803.798,3929.953
804.2802,3915.198
804.7623,3925.634
805.2444,3941.243
805.7265,3958.05
806.2086,3974.733
806.6907,3977.806
807.1729,3963.614
807.655,3951.245
808.1371,3951.1
808.6192,3958.645
809.1013,3965.254
809.5834,3969.805
810.0656,3965.853
810.5477,3934.949
811.0298,3906.826
811.5119,3906.114
811.994,3929.622
812.4761,3947.311
812.9583,3949.959
813.4404,3952.355
813.9225,3959.908
814.4046,3971.047
814.8867,3976.692
815.3688,3976.747
815.851,3972.496
816.3331,3960.079
816.8152,3946.296
817.2973,3942.97
817.7794,3948.53
818.2615,3957.026
818.7437,3970.422
819.2258,3981.047
819.7079,3983.255
820.19,3978.412
820.6721,3977.777
821.1542,3983.077
821.6364,3988.924
822.1185,3994.749
822.6006,3999.221
823.0827,3995.282
823.5648,3984.425
824.0469,3978.385
824.5291,3986.887
825.0112,4000.31
825.4933,4013.012
825.9754,4023.465
826.4575,4027.033
826.9396,4014.036
827.4218,4003.533
827.9039,4002.043
828.386,4006.564
828.8681,4005.67
829.3502,3997.433
829.8323,3995.853
830.3145,4009.192
830.7966,4027.542
831.2787,4029.959
831.7608,4020.977
832.2429,4014.628
832.725,4017.315
833.2072,4024.406
833.6893,4038.086
834.1714,4054.228
834.6535,4061.214
835.1356,4051.694
835.6177,4045.678
836.0999,4047.104
836.582,4053.555
837.0641,4059.925
837.5462,4066.286
838.0283,4074.02
838.5104,4085.697
838.9926,4094.965
839.4747,4093.447
839.9568,4084.805
840.4389,4075.365
840.921,4061.194
841.4031,4054.005
841.8853,4063.854
842.3674,4078.32
842.8495,4079.431
843.3316,4064.817
843.8137,4046.832
844.2958,4024.843
844.778,4006.765
845.2601,4009.561
845.7422,4025.063
846.2243,4033.209
846.7064,4026.543
847.1885,4016.89
847.6707,4011.03
848.1528,4005.963
848.6349,3997.836
849.117,3981.121
849.5991,3971.737
850.0812,3972.706
850.5634,3976.824
851.0455,3975.484
851.5276,3969.583
852.0097,3965.223
852.4918,3962.978
852.9739,3964.08
853.4561,3978.234
853.9382,3991.877
854.4203,3986.638
854.9024,3950.69
855.3845,3925.126
855.8666,3918.316
856.3488,3923.863
856.8309,3942.622
857.313,3979.108
857.7951,3992.659
858.2772,3980.957
858.7593,3960.356
859.2415,3939.415
859.7236,3921.383
860.2057,3914.833
860.6878,3920.342
861.1699,3920.294
861.652,3897.115
862.1342,3873.255
862.6163,3864.255
863.0984,3870.867
863.5805,3871.999
864.0626,3864.655
864.5447,3861.068
865.0269,3874.864
865.509,3897.194
865.9911,3889.068
866.4732,3855.675
866.9553,3832.568
867.4374,3859.477
867.9196,3889.329
868.4017,3882.947
868.8838,3845.551
869.3659,3824.441
869.848,3833.314
870.3301,3841.987
870.8123,3841.458
871.2944,3834.574
871.7765,3831.38
872.2586,3831.502
872.7407,3830.841
873.2228,3826.453
873.705,3821.741
874.1871,3817.38
874.6692,3815.636
875.1513,3821.464
875.6334,3851.824
876.1155,3870.267
876.5977,3868.023
877.0798,3852.818
877.5619,3837.068
878.044,3820.626
878.5261,3806.375
879.0082,3795.058
879.4904,3785.217
879.9725,3774.327
880.4546,3763.456
880.9367,3754.335
881.4188,3746.954
881.9009,3742.396
882.3831,3743.178
882.8652,3745.695
883.3473,3746.012
883.8294,3742.907
884.3115,3743.44
884.7936,3749.29
885.2758,3753.538
885.7579,3742.781
886.24,3726.347
886.7221,3732.267
887.2042,3765.718
887.6863,3784.163
888.1685,3742.888
888.6506,3693.53
889.1327,3674.692
889.6148,3692.333
890.0969,3707.397
890.579,3721.0
891.0612,3729.152
891.5433,3725.612
892.0254,3714.827
892.5075,3714.487
892.9896,3723.535
893.4717,3733.651
893.9539,3747.177
894.436,3753.504
894.9181,3742.739
895.4002,3717.034
895.8823,3690.847
896.3644,3655.203
896.8466,3639.299
897.3287,3658.673
897.8108,3696.392
898.2929,3703.773
898.775,3685.868
899.2571,3675.567
899.7393,3690.242
900.2214,3709.903
900.7035,3722.804
901.1856,3727.918
901.6677,3723.254
902.1498,3695.907
902.632,3676.052
903.1141,3667.794
903.5962,3664.688
904.0783,3657.831
904.5604,3647.625
905.0425,3640.54
905.5247,3637.611
906.0068,3637.234
906.4889,3634.719
906.971,3635.652
907.4531,3650.954
907.9352,3692.531
908.4174,3708.133
908.8995,3671.006
909.3816,3630.1
909.8637,3617.688
910.3458,3633.501
910.8279,3635.248
911.3101,3622.641
911.7922,3610.339
912.2743,3608.503
912.7564,3612.889
913.2385,3621.094
913.7206,3632.08
914.2028,3640.232
914.6849,3640.816
915.167,3642.105
915.6491,3649.288
916.1312,3658.558
916.6133,3652.723
917.0955,3631.51
917.5776,3610.936
918.0597,3593.255
918.5418,3584.418
919.0239,3599.118
919.506,3626.997
919.9882,3647.738
920.4703,3646.721
920.9524,3648.877
921.4345,3662.771
921.9166,3677.959
922.3987,3678.201
922.8809,3661.779
923.363,3660.728
923.8451,3681.188
924.3272,3701.937
924.8093,3694.357
925.2914,3676.035
925.7736,3671.032
926.2557,3684.814
926.7378,3699.703
927.2199,3714.484
927.702,3725.208
928.1841,3728.485
928.6663,3724.342
929.1484,3726.106
929.6305,3734.346
930.1126,3736.522
930.5947,3713.713
931.0768,3687.347
931.559,3687.689
932.0411,3709.868
932.5232,3731.877
933.0053,3749.991
933.4874,3762.622
933.9695,3768.899
934.4517,3770.207
934.9338,3768.185
935.4159,3762.692
935.898,3763.53
936.3801,3775.708
936.8622,3788.985
937.3444,3784.667
937.8265,3775.579
938.3086,3782.438
938.7907,3826.439
939.2728,3854.558
939.7549,3846.778
940.2371,3831.69
940.7192,3834.498
941.2013,3856.018
941.6834,3862.071
942.1655,3850.407
942.6476,3845.015
943.1298,3878.341
943.6119,3920.566
944.094,3936.792
944.5761,3925.978
945.0582,3920.004
945.5403,3930.952
946.0225,3942.355
946.5046,3949.056
946.9867,3952.288
947.4688,3955.026
947.9509,3957.749
948.433,3969.167
948.9152,4003.672
949.3973,4033.731
949.8794,4023.0
950.3615,3991.163
950.8436,3973.089
951.3257,3985.842
951.8079,4001.867
952.29,4020.226
952.7721,4040.594
953.2542,4065.52
953.7363,4093.375
954.2184,4108.779
954.7006,4108.901
955.1827,4111.438
955.6648,4137.924
956.1469,4168.466
956.629,4183.1
957.1111,4177.359
957.5933,4179.963
958.0754,4192.213
958.5575,4212.832
959.0396,4246.11
959.5217,4285.301
960.0038,4302.542
960.486,4302.38
960.9681,4308.516
961.4502,4334.542
961.9323,4369.491
962.4144,4413.851
962.8965,4461.214
963.3787,4496.588
963.8608,4516.868
964.3429,4531.041
964.825,4536.27
965.3071,4545.271
965.7892,4583.583
966.2714,4638.058
966.7535,4673.101
967.2356,4679.127
967.7177,4690.4
968.1998,4733.539
968.6819,4782.247
969.1641,4813.944
969.6462,4826.3
970.1283,4862.98
970.6104,4929.867
971.0925,4990.59
971.5746,5015.077
972.0568,5025.275
972.5389,5061.091
973.021,5117.662
973.5031,5177.971
973.9852,5237.169
974.4673,5296.519
974.9495,5358.306
975.4316,5419.629
975.9137,5472.388
976.3958,5515.594
976.8779,5564.493
977.36,5620.875
977.8422,5686.971
978.3243,5771.27
978.8064,5864.707
979.2885,5954.157
979.7706,6035.843
980.2527,6121.906
980.7349,6209.642
981.217,6308.817
981.6991,6428.385
982.1812,6564.22
982.6633,6674.399
983.1454,6762.003
983.6276,6862.437
984.1097,6995.497
984.5918,7150.821
985.0739,7321.807
985.556,7507.725
986.0381,7705.886
986.5203,7911.408
987.0024,8133.97
987.4845,8368.685
987.9666,8632.772
988.4487,8968.96
988.9308,9353.219
989.413,9724.027
989.8951,10069.58
990.3772,10411.78
990.8593,10763.72
991.3414,11116.8
991.8235,11462.91
992.3057,11803.74
992.7878,12141.51
993.2699,12467.59
993.752,12857.31
994.2341,13319.23
994.7162,13896.62
995.1984,14617.17
995.6805,15511.27
996.1626,16640.16
996.6447,18028.86
997.1268,19680.92
997.6089,21639.26
998.0911,23826.18
998.5732,26130.57
999.0553,28560.51
999.5374,31063.37
1000.02,33580.81
1000.502,36255.13
1000.984,39022.35
1001.466,42082.63
1001.948,45531.39
1002.43,49326.43
1002.912,54034.44
1003.394,59377.15
1003.876,66025.65
1004.359,74043.79
1004.841,83705.59
1005.323,95212.74
1005.805,108868.6
1006.287,125400.8
1006.769,144685.5
1007.251,167916.9
1007.733,197696.8
1008.216,230836.9
1008.698,264167.6
1009.18,302857.3
1009.662,322767.9
1010.144,322060.0
1010.626,305689.1
1011.108,271481.5
1011.59,228436.1
1012.072,188463.7
1012.555,152391.0
1013.037,121989.6
1013.519,99354.38
1014.001,81242.88
1014.483,66921.71
1014.965,55936.92
1015.447,47059.74
1015.929,40177.3
1016.411,34596.11
1016.894,30273.04
1017.376,26762.7
1017.858,23959.65
1018.34,21658.58
1018.822,19656.63
1019.304,17929.68
1019.786,16450.93
1020.268,15250.41
1020.751,14218.19
1021.233,13289.25
1021.715,12456.22
1022.197,11723.07
1022.679,11081.69
1023.161,10506.28
1023.643,9998.653
1024.125,9539.446
1024.607,9123.177
1025.09,8747.775
1025.572,8419.854
1026.054,8139.65
1026.536,7869.494
1027.018,7597.377
1027.5,7339.344
1027.982,7113.958
1028.464,6911.484
1028.947,6722.012
1029.429,6547.142
1029.911,6376.166
1030.393,6205.375
1030.875,6040.404
1031.357,5881.754
1031.839,5733.523
1032.321,5618.563
1032.803,5531.245
1033.286,5442.892
1033.768,5328.119
1034.25,5223.802
1034.732,5152.078
1035.214,5097.039
1035.696,5036.517
1036.178,4968.713
1036.66,4902.121
1037.143,4836.425
1037.625,4772.118
1038.107,4708.428
1038.589,4644.861
1039.071,4577.265
1039.553,4506.134
1040.035,4452.211
1040.517,4436.05
1041.0,4410.841
1041.482,4357.823
1041.964,4294.657
1042.446,4274.144
1042.928,4284.005
1043.41,4272.393
1043.892,4216.708
1044.374,4159.473
1044.856,4132.193
1045.339,4112.126
1045.821,4075.555
1046.303,4017.446
1046.785,3982.488
1047.267,3972.875
1047.749,3967.611
1048.231,3954.635
1048.713,3937.167
1049.195,3917.595
1049.677,3896.868
1050.16,3878.108
1050.642,3867.179
1051.124,3849.434
1051.606,3816.281
1052.088,3786.155
1052.57,3796.323
1053.052,3832.072
1053.534,3830.979
1054.017,3784.8
1054.499,3734.067
1054.981,3693.301
1055.463,3665.939
1055.945,3663.24
1056.427,3678.008
1056.909,3666.04
1057.391,3624.099
1057.874,3594.466
1058.356,3596.366
1058.838,3606.704
1059.32,3599.026
1059.802,3580.89
1060.284,3561.724
1060.766,3537.412
1061.248,3528.637
1061.73,3540.962
1062.213,3558.657
1062.695,3575.844
1063.177,3588.899
1063.659,3578.559
1064.141,3550.175
1064.623,3529.393
1065.105,3544.948
1065.587,3552.325
1066.07,3522.763
1066.552,3480.325
1067.034,3460.536
1067.516,3463.94
1067.998,3475.895
1068.48,3496.183
1068.962,3509.199
1069.444,3493.934
1069.927,3469.824
1070.409,3452.768
1070.891,3444.848
1071.373,3443.435
1071.855,3451.845
1072.337,3457.247
1072.819,3456.057
1073.301,3449.133
1073.783,3432.229
1074.266,3411.87
1074.748,3402.207
1075.23,3409.997
1075.712,3420.54
1076.194,3438.756
1076.676,3448.773
1077.158,3435.305
1077.64,3402.306
1078.122,3391.987
1078.604,3402.397
1079.087,3417.011
1079.569,3433.024
1080.051,3443.506
1080.533,3439.626
1081.015,3428.775
1081.497,3423.719
1081.979,3424.214
1082.461,3436.116
1082.944,3462.665
1083.426,3481.451
1083.908,3462.291
1084.39,3428.597
1084.872,3406.387
1085.354,3396.966
1085.836,3392.97
1086.318,3392.97
1086.801,3398.304
1087.283,3410.791
1087.765,3426.464
1088.247,3442.851
1088.729,3456.001
1089.211,3452.975
1089.693,3427.692
1090.175,3404.337
1090.657,3390.696
1091.14,3384.761
1091.622,3386.616
1092.104,3395.29
1092.586,3406.045
1093.068,3418.014
1093.55,3419.93
1094.032,3397.739
1094.514,3377.373
1094.997,3379.116
1095.479,3393.516
1095.961,3408.159
1096.443,3423.278
1096.925,3434.718
1097.407,3441.778
1097.889,3450.028
1098.371,3471.672
1098.854,3491.501
1099.336,3480.858
1099.818,3449.597
1100.3,3437.573
1100.782,3467.327
1101.264,3493.894
1101.746,3512.921
1102.228,3524.544
1102.71,3528.36
1103.193,3524.891
1103.675,3510.57
1104.157,3485.17
1104.639,3472.175
1105.121,3488.502
1105.603,3512.891
1106.085,3541.442
1106.567,3569.604
1107.049,3579.146
1107.531,3572.944
1108.014,3573.18
1108.496,3587.46
1108.978,3603.811
1109.46,3612.775
1109.942,3620.826
1110.424,3635.137
1110.906,3656.42
1111.388,3664.408
1111.871,3657.449
1112.353,3661.688
1112.835,3699.007
1113.317,3742.737
1113.799,3760.688
1114.281,3765.53
1114.763,3778.772
1115.245,3809.121
1115.728,3837.405
1116.21,3864.293
1116.692,3886.845
1117.174,3895.109
1117.656,3900.752
1118.138,3931.151
1118.62,3979.706
1119.102,4017.503
1119.584,4013.393
1120.067,4028.116
1120.549,4074.511
1121.031,4136.889
1121.513,4201.33
1121.995,4264.042
1122.477,4306.74
1122.959,4328.807
1123.441,4353.815
1123.924,4389.707
1124.406,4436.769
1124.888,4492.662
1125.37,4559.509
1125.852,4646.715
1126.334,4753.224
1126.816,4862.537
1127.298,4971.071
1127.781,5079.149
1128.263,5178.0
1128.745,5283.298
1129.227,5407.553
1129.709,5550.616
1130.191,5708.919
1130.673,5883.417
1131.155,6077.818
1131.637,6293.687
1132.12,6533.078
1132.602,6795.941
1133.084,7086.907
1133.566,7407.843
1134.048,7768.379
1134.53,8132.024
1135.012,8493.058
1135.494,8885.025
1135.976,9342.563
1136.458,9842.769
1136.941,10347.22
1137.423,10860.07
1137.905,11389.35
1138.387,11936.26
1138.869,12515.13
1139.351,13132.01
1139.833,13758.26
1140.315,14381.67
1140.798,14980.29
1141.28,15518.09
1141.762,15989.42
1142.244,16345.85
1142.726,16583.52
1143.208,16679.14
1143.69,16643.27
1144.172,16463.61
1144.655,16099.94
1145.137,15576.3
1145.619,14944.07
1146.101,14211.75
1146.583,13444.96
1147.065,12638.1
1147.547,11838.64
1148.029,11050.87
1148.511,10290.49
1148.994,9601.946
1149.476,8983.319
1149.958,8423.169
1150.44,7917.216
1150.922,7450.038
1151.404,6992.063
1151.886,6584.361
1152.368,6271.898
1152.851,6042.191
1153.333,5789.642
1153.815,5513.95
1154.297,5263.687
1154.779,5058.43
1155.261,4881.907
1155.743,4734.45
1156.225,4604.06
1156.708,4478.332
1157.19,4354.768
1157.672,4241.904
1158.154,4139.527
1158.636,4049.885
1159.118,3977.599
1159.6,3916.413
1160.082,3864.385
1160.564,3817.447
1161.047,3768.373
1161.529,3713.856
1162.011,3661.725
1162.493,3610.69
1162.975,3566.917
1163.457,3541.248
1163.939,3521.41
1164.421,3489.199
1164.903,3448.231
1165.385,3410.037
1165.868,3378.234
1166.35,3346.329
1166.832,3311.145
1167.314,3283.942
1167.796,3284.049
1168.278,3297.063
1168.76,3302.958
1169.242,3298.886
1169.725,3276.651
1170.207,3203.3
1170.689,3159.122
1171.171,3165.615
1171.653,3188.079
1172.135,3173.602
1172.617,3138.573
1173.099,3120.502
1173.582,3123.399
1174.064,3126.799
1174.546,3120.465
1175.028,3118.255
1175.51,3127.339
1175.992,3137.883
1176.474,3125.552
1176.956,3098.559
1177.438,3082.435
1177.921,3083.437
1178.403,3081.481
1178.885,3056.627
1179.367,3042.053
1179.849,3057.744
1180.331,3088.384
1180.813,3080.748
1181.295,3045.438
1181.778,3023.662
1182.26,3030.897
1182.742,3037.37
1183.224,3024.194
1183.706,3011.953
1184.188,3012.031
1184.67,3022.632
1185.152,3039.776
1185.635,3059.944
1186.117,3063.866
1186.599,3032.473
1187.081,3008.23
1187.563,3024.313
1188.045,3045.18
1188.527,3042.443
1189.009,3018.476
1189.491,3002.219
1189.974,2993.589
1190.456,2992.088
1190.938,3002.263
1191.42,3012.994
1191.902,3021.49
1192.384,3025.813
1192.866,3021.704
1193.348,3008.774
1193.83,3009.922
1194.313,3024.071
1194.795,3037.587
1195.277,3044.619
1195.759,3046.245
1196.241,3039.882
1196.723,3030.103
1197.205,3021.12
1197.687,3012.757
1198.169,3017.601
1198.652,3035.375
1199.134,3042.907
1199.616,3006.782
1200.098,2974.43
1200.58,2982.001
1201.062,3008.651
1201.544,3016.362
1202.026,3004.137
1202.509,3020.361
1202.991,3069.596
1203.473,3102.084
1203.955,3063.777
1204.437,3014.727
1204.919,2992.771
1205.401,2988.897
1205.883,2980.893
1206.365,2968.346
1206.848,2971.485
1207.33,2993.974
1207.812,3014.129
1208.294,3010.684
1208.776,3003.427
1209.258,3008.536
1209.74,3020.528
1210.222,3020.774
1210.705,3009.101
1211.187,3010.532
1211.669,3031.048
1212.151,3050.761
1212.633,3056.291
1213.115,3052.581
1213.597,3037.424
1214.079,3016.267
1214.562,3008.866
1215.044,3014.909
1215.526,3020.305
1216.008,3021.88
1216.49,3022.081
1216.972,3023.514
1217.454,3023.514
1217.936,3015.439
1218.418,3003.648
1218.901,3016.377
1219.383,3052.204
1219.865,3079.341
1220.347,3090.055
1220.829,3084.781
1221.311,3047.462
1221.793,3008.789
1222.275,2993.94
1222.757,2998.901
1223.24,2990.742
1223.722,2970.853
1224.204,2956.297
1224.686,2951.85
1225.168,2956.973
1225.65,2987.464
1226.132,3012.305
1226.614,3002.219
1227.096,2963.713
1227.579,2963.669
1228.061,2996.198
1228.543,3007.017
1229.025,2962.732
1229.507,2922.294
1229.989,2923.752
1230.471,2940.58
1230.953,2954.139
1231.436,2964.051
1231.918,2962.485
1232.4,2951.764
1232.882,2948.667
1233.364,2967.281
1233.846,2981.275
1234.328,2968.355
1234.81,2954.856
1235.292,2962.33
1235.775,2987.198
1236.257,3002.03
1236.739,3007.414
1237.221,3006.459
1237.703,2994.173
1238.185,2986.167
1238.667,2993.705
1239.149,3002.365
1239.632,2999.616
1240.114,2988.752
1240.596,2992.454
1241.078,3006.8
1241.56,3015.244
1242.042,3000.338
1242.524,2993.921
1243.006,3012.892
1243.489,3030.088
1243.971,3016.804
1244.453,2984.096
1244.935,2982.084
1245.417,3003.27
1245.899,3019.585
1246.381,3018.319
1246.863,3011.321
1247.345,2995.673
1247.828,2984.482
1248.31,2995.163
1248.792,3017.129
1249.274,3018.667
1249.756,3005.801
1250.238,3000.25
1250.72,3019.091
1251.202,3032.209
1251.684,3038.685
1252.167,3036.012
1252.649,3017.522
1253.131,2990.49
1253.613,2962.177
1254.095,2937.407
1254.577,2931.448
1255.059,2964.104
1255.541,2984.883
1256.023,2989.087
1256.506,2988.32
1256.988,2994.168
1257.47,3000.301
1257.952,2998.905
1258.434,2990.22
1258.916,2973.96
1259.398,2944.125
1259.88,2926.957
1260.363,2925.87
1260.845,2926.027
1261.327,2909.976
1261.809,2893.005
1262.291,2891.911
1262.773,2902.593
1263.255,2912.909
1263.737,2922.258
1264.219,2930.922
1264.702,2938.843
1265.184,2946.315
1265.666,2958.467
1266.148,2965.586
1266.63,2954.196
1267.112,2934.185
1267.594,2928.401
1268.076,2938.469
1268.559,2933.815
1269.041,2912.677
1269.523,2896.462
1270.005,2905.396
1270.487,2917.436
1270.969,2921.288
1271.451,2919.462
1271.933,2914.31
1272.416,2906.025
1272.898,2894.729
1273.38,2881.279
1273.862,2875.181
1274.344,2890.141
1274.826,2903.095
1275.308,2904.604
1275.79,2902.083
1276.272,2906.032
1276.755,2913.881
1277.237,2915.761
1277.719,2911.59
1278.201,2905.278
1278.683,2893.701
1279.165,2887.953
1279.647,2892.477
1280.129,2898.272
1280.611,2894.217
1281.094,2884.404
1281.576,2874.231
1282.058,2865.702
1282.54,2867.198
1283.022,2887.931
1283.504,2905.358
1283.986,2916.886
1284.468,2926.127
1284.95,2942.845
1285.433,2955.169
1285.915,2941.165
1286.397,2908.017
1286.879,2883.92
1287.361,2867.764
1287.843,2876.979
1288.325,2916.522
1288.807,2953.027
1289.29,2953.887
1289.772,2942.828
1290.254,2939.227
1290.736,2939.73
1291.218,2933.194
1291.7,2918.406
1292.182,2914.356
1292.664,2922.241
1293.146,2930.995
1293.629,2935.928
1294.111,2936.073
1294.593,2921.841
1295.075,2908.631
1295.557,2922.881
1296.039,2958.963
1296.521,2964.621
1297.003,2941.157
1297.486,2924.896
1297.968,2941.939
1298.45,2961.744
1298.932,2983.11
1299.414,2993.734
1299.896,2969.487
1300.378,2926.393
1300.86,2907.464
1301.343,2912.061
1301.825,2926.636
