Wavenumber (cm⁻¹),Intensity
200.0,-43.20599999999999
201.00097751710655,-36.89884066471163
202.0019550342131,-30.591681329423267
203.00293255131965,-24.284521994134906
204.0039100684262,-17.977362658846545
205.00488758553274,-11.670203323558184
206.0058651026393,-5.363043988269823
207.00684261974584,0.9441153470185366
208.0078201368524,7.251274682306898
209.00879765395894,13.558434017595257
210.00977517106548,19.822944281524908
211.01075268817203,21.767182795698904
212.01173020527858,24.155483870967675
213.01270772238513,30.28366471163236
214.01368523949168,38.59630987292268
215.01466275659823,46.11353958944275
216.01564027370478,50.99848191593346
217.01661779081132,56.019790811339064
218.01759530791787,64.75107331378284
219.01857282502445,74.01715640273714
220.019550342131,82.69303910068435
221.02052785923755,90.86031378299127
222.0215053763441,97.53970967741932
223.02248289345064,94.59403519061581
224.0234604105572,91.55084457478
225.02443792766374,84.03998533724335
226.0254154447703,75.02602443792762
227.02639296187684,65.92921994134893
228.02737047898339,56.83605083088951
229.02834799608993,47.874330400782
230.02932551319648,42.556392961876824
231.03030303030303,37.31857575757576
232.03128054740958,32.260198435972626
233.03225806451613,27.521645161290326
234.03323558162268,23.573477028347998
235.03421309872923,22.470949169110458
236.03519061583577,22.13200879765396
237.03616813294232,21.334637341153478
238.03714565004887,19.748572825024446
239.03812316715542,18.18379178885632
240.03910068426197,16.193355816226795
241.04007820136852,14.482345063538622
242.04105571847506,13.254431085044002
243.0420332355816,11.749033235581631
244.0430107526882,10.696806451612883
245.04398826979474,9.52708211143693
246.0449657869013,8.324839687194508
247.04594330400784,7.161959921798613
248.04692082111438,5.961709677419337
249.04789833822093,4.739564027370463
250.04887585532748,3.548821114369494
251.04985337243403,2.9629530791788814
252.05083088954058,2.592923753665684
253.05180840664713,2.0658484848484773
254.05278592375367,1.2907243401759463
255.05376344086022,0.571870967741936
256.05474095796677,0.6439413489736076
257.0557184750733,0.7004105571847494
258.05669599217987,0.4839296187683266
259.0576735092864,0.14573216031280514
260.05865102639297,0.0716011730205276
261.0596285434995,0.005710654936461595
262.06060606060606,0.13836363636363802
263.0615835777126,1.1157917888563058
264.06256109481916,2.2829315738025415
265.0635386119257,3.1985268817204293
266.06451612903226,3.9202903225806445
267.0654936461388,4.166060606060609
268.06647116324535,3.2039217986314794
269.0674486803519,2.315668621700879
270.06842619745845,2.4980752688172023
271.069403714565,2.7740342130987306
272.07038123167155,2.5885014662756634
273.0713587487781,2.0528123167155456
274.07233626588464,1.720990224828932
275.0733137829912,2.0252873900293227
276.07429130009774,2.2489784946236644
277.0752688172043,1.4527634408602264
278.07624633431084,0.5276862170088018
279.0772238514174,0.2420821114369465
280.07820136852393,0.48281720430107733
281.0791788856305,0.47824046920818675
282.08015640273703,2.1406764418376953
283.0811339198436,4.334279569892453
284.08211143695013,5.514826979472123
285.0830889540567,6.391430107526883
286.0840664711632,6.241633431085067
287.0850439882698,5.08747800586512
288.0860215053764,4.436365591397898
289.0869990224829,5.81284066471168
290.0879765395895,7.179560117302098
291.088954056696,8.539265884653027
292.0899315738026,9.997357771261077
293.0909090909091,12.646090909091031
294.09188660801567,16.621285434995244
295.0928641251222,21.1315532746825
296.09384164222877,27.7402258064518
297.0948191593353,34.54063049853397
298.09579667644186,43.67421603128081
299.0967741935484,53.23900000000022
300.09775171065496,61.51126197458473
301.0987292277615,68.41345161290337
302.09970674486806,73.52122287390023
303.1006842619746,71.04757086999018
304.10166177908116,68.0057253176929
305.1026392961877,60.28783870967724
306.10361681329425,51.414376344085866
307.1045943304008,43.532771260996945
308.10557184750735,36.795152492668514
309.1065493646139,31.44743401759531
310.10752688172045,31.498591397849463
311.108504398827,31.624642228739017
312.10948191593354,32.37873802541546
313.1104594330401,33.25771163245357
314.11143695014664,33.82473020527859
315.1124144672532,34.02891397849462
316.11339198435974,34.34761192570871
317.1143695014663,35.00705571847508
318.11534701857283,35.915511241446744
319.1163245356794,38.74428739002935
320.11730205278593,42.246973607038164
321.1182795698925,47.873838709677464
322.119257086999,55.45527956989251
323.1202346041056,63.24925513196485
324.1212121212121,71.67612121212125
325.1221896383187,79.29817302052787
326.1231671554252,81.00342815249267
327.12414467253177,81.43124731182795
328.1251221896383,80.05878201368523
329.12609970674487,77.18081818181818
330.1270772238514,73.56763929618769
331.12805474095796,68.15258357771263
332.1290322580645,63.52338709677419
333.13000977517106,64.33889442815249
334.1309872922776,65.81581329423264
335.13196480938416,67.28859237536656
336.1329423264907,68.6234193548387
337.13391984359725,68.69844086021507
338.1348973607038,66.26425513196483
339.13587487781035,63.43654252199419
340.1368523949169,58.11145943304013
341.13782991202345,52.44069208211152
342.13880742913,45.47715151515161
343.13978494623655,37.96405376344095
344.1407624633431,31.714137829912083
345.14173998044964,27.483156402737112
346.1427174975562,23.306960899315797
347.14369501466274,19.49037243401766
348.1446725317693,15.97317595307921
349.14565004887584,14.391334310850453
350.1466275659824,13.539551319648117
351.14760508308893,12.317909090909126
352.1485826001955,10.658022482893484
353.14956011730203,9.266914956011739
354.1505376344086,8.891397849462374
355.1515151515151,8.463363636363653
356.1524926686217,7.730718475073335
357.1534701857282,7.071000977517102
358.1544477028348,7.449886608015604
359.1554252199413,8.80792668621697
360.15640273704787,10.279989247311777
361.1573802541544,12.05146138807424
362.15835777126097,13.93321114369494
363.1593352883675,16.457414467253095
364.16031280547406,19.36171945259028
365.1612903225806,23.924870967741747
366.16226783968716,29.64963343108484
367.1632453567937,35.80392277614834
368.16422287390026,42.751692082111184
369.1652003910068,49.01229227761476
370.16617790811335,51.73226686216999
371.1671554252199,53.41660703812326
372.16813294232645,50.48045063538632
373.169110459433,45.34937829912046
374.17008797653955,39.62637536656918
375.1710654936461,33.22468230694063
376.1720430107527,27.081698924731107
377.17302052785925,21.65532551319641
378.1739980449658,16.57049266862166
379.17497556207235,13.257469208211111
380.1759530791789,10.466865102639268
381.17693059628544,7.927220918866057
382.177908113392,5.603326490713568
383.17888563049854,3.3902463343108353
384.1798631476051,1.488592375366557
385.18084066471164,0.2345239491691151
386.1818181818182,1.0920000000000065
387.18279569892474,2.0090967741935453
388.1837732160313,1.2688230694037106
389.18475073313783,0.5098914956011755
390.1857282502444,1.2535650048875848
391.18670576735093,0.7843401759530788
392.1876832844575,0.48667448680351894
393.188660801564,1.2386353861192556
394.1896383186706,2.216252199413491
395.1906158357771,1.4523929618768365
396.1915933528837,0.342129032258066
397.1925708699902,0.10942717497555998
398.19354838709677,0.6765161290322523
399.1945259042033,2.1510175953078967
400.19550342130987,5.435514173998021
401.1964809384164,8.700580645161264
402.19745845552296,11.953689149560088
403.1984359726295,15.399128054740917
404.19941348973606,19.640480938416374
405.2003910068426,24.093045943303967
406.20136852394916,27.442467253176908
407.2023460410557,29.327205278592352
408.20332355816225,30.195037145650076
409.20430107526886,28.105344086021418
410.2052785923754,25.838642228738877
411.20625610948196,22.709679374388916
412.2072336265885,19.602477028347916
413.20821114369505,17.799806451612874
414.2091886608016,17.082625610948178
415.21016617790815,16.973186705767382
416.2111436950147,17.917741935483903
417.21212121212125,18.863393939393973
418.2130987292278,19.797493646138836
419.21407624633434,20.63766275659826
420.2150537634409,21.194698924731195
421.21603128054744,21.397314760508287
422.217008797654,20.384976539589374
423.21798631476054,18.22749071358743
424.2189638318671,16.59961974584554
425.21994134897363,16.135947214076232
426.2209188660802,15.584893450635363
427.22189638318673,14.71629618768326
428.2228739002933,13.987604105571846
429.2238514173998,14.00500293255133
430.2248289345064,14.415955034213107
431.2258064516129,14.82490322580646
432.2267839687195,15.206674486803525
433.227761485826,15.224459433040058
434.22873900293257,14.303102639296169
435.2297165200391,14.044541544477065
436.23069403714567,16.1636500488759
437.2316715542522,18.147527859237538
438.23264907135876,17.54791104594327
439.2336265884653,15.470466275659803
440.23460410557186,14.42896480938417
441.2355816226784,14.821112414467258
442.23655913978496,15.212021505376349
443.2375366568915,15.600926686217013
444.23851417399806,15.579253176930584
445.2394916911046,14.12949071358747
446.24046920821115,12.681211143695013
447.2414467253177,12.81067155425221
448.24242424242425,14.022393939393947
449.2434017595308,14.89976246334311
450.24437927663735,15.276397849462368
451.2453567937439,15.433377321603125
452.24633431085044,14.920384164222872
453.247311827957,14.241419354838706
454.24828934506354,13.006643206256106
455.2492668621701,11.933563049853372
456.25024437927664,12.183306940371455
457.2512218963832,13.30562854349951
458.25219941348973,13.599870967741937
459.2531769305963,12.62940566959922
460.25415444770283,11.987904203323556
461.2551319648094,12.328530791788856
462.2561094819159,12.422321603128058
463.2570869990225,11.688198435972637
464.258064516129,10.859967741935487
465.2590420332356,10.690520039100681
466.2600195503421,10.997804496578688
467.26099706744867,11.141378299120236
468.2619745845552,11.041112414467255
469.26295210166177,10.829268817204307
470.2639296187683,10.289214076246342
471.26490713587486,9.835634408602154
472.2658846529814,9.65567741935484
473.26686217008796,9.556046920821116
474.2678396871945,9.454948191593354
475.26881720430106,9.385032258064516
476.2697947214076,9.488269794721402
477.27077223851416,9.832770283479954
478.2717497556207,10.301867057673492
479.27272727272725,11.089636363636348
480.2737047898338,11.877131964809369
481.27468230694035,12.663900293255114
482.2756598240469,13.184105571847512
483.27663734115345,12.776362658846555
484.27761485826,11.888374389051824
485.27859237536654,11.554721407624626
486.2795698924731,11.911827956989237
487.28054740957964,12.546195503421275
488.2815249266862,13.779431085043953
489.2825024437928,14.47906842619744
490.28347996089934,13.724732160312778
491.2844574780059,12.612507331378266
492.28543499511244,11.239138807429093
493.286412512219,9.861432062561072
494.28739002932554,9.092178885630496
495.2883675464321,8.941303030303027
496.28934506353863,8.776313782991197
497.2903225806452,8.566225806451607
498.29130009775173,7.961819159335261
499.2922776148583,6.491015640273677
500.2932551319648,5.218648093841631
501.2942326490714,4.737805474095794
502.2952101661779,4.520133919843591
503.2961876832845,4.078105571847498
504.297165200391,3.3588250244379148
505.29814271749757,2.1173792766373154
506.2991202346041,0.881944281524933
507.30009775171067,1.1675747800586482
508.3010752688172,0.8960752688172011
509.30205278592376,0.7982697947214112
510.3030303030303,1.240000000000005
511.30400782013686,1.6895689149560125
512.3049853372434,1.680114369501481
513.3059628543499,1.3402121212121434
514.3069403714564,0.8115571847507714
515.307917888563,0.3044662756598229
516.3088954056695,0.31189540566960045
517.3098729227761,0.48719159335285006
518.3108504398826,0.7404780058651333
519.3118279569892,0.3620537634408595
520.3128054740957,0.5070703812316467
521.3137829912023,0.8916627565982247
522.3147605083088,1.1029217986314717
523.3157380254154,1.0975356793744
524.3167155425219,1.0379266862169962
525.3176930596285,1.6936158357770261
526.318670576735,3.3178836754642194
527.3196480938416,4.803061583577637
528.3206256109481,6.017591397849381
529.3216031280547,7.410861192570762
530.3225806451612,9.109580645161174
531.3235581622678,11.54831573802516
532.3245356793743,15.862450635385757
533.3255131964809,21.19047507331342
534.3264907135874,26.512521994134527
535.327468230694,32.12937341153427
536.3284457478005,39.95054252199334
537.3294232649071,51.09355131964729
538.3304007820136,62.790319648092904
539.3313782991202,75.71716129032161
540.3323558162267,87.34744868035125
541.3333333333333,95.55366666666613
542.3343108504398,100.44379765395891
543.3352883675464,98.86662658846573
544.3362658846529,92.40605962854413
545.3372434017595,82.57058064516235
546.338220918866,69.29168914956118
547.3391984359725,56.52650830889638
548.3401759530791,44.548733137830894
549.3411534701856,34.792466275660274
550.3421309872922,29.587983382209586
551.3431085043987,25.277325513196775
552.3440860215054,21.980387096774113
553.345063538612,19.27526197458449
554.3460410557185,17.26498240469204
555.347018572825,15.751252199413452
556.3479960899316,14.413328445747773
557.3489736070381,13.289524926686191
558.3499511241447,12.33593352883674
559.3509286412512,11.648912023460396
560.3519061583578,10.8169589442815
561.3528836754643,9.702301075268794
562.3538611925709,9.007294232649073
563.3548387096774,9.328451612903239
564.355816226784,10.00110850439884
565.3567937438905,10.673408602150548
566.3577712609971,11.294618768328455
567.3587487781036,11.71105474095797
568.3597262952102,11.998804496578696
569.3607038123167,13.003032258064543
570.3616813294233,15.039659824046947
571.3626588465298,16.616159335288376
572.3636363636364,17.344636363636372
573.3646138807429,18.12569696969698
574.3655913978495,19.16363440860216
575.366568914956,20.731337243401775
576.3675464320626,23.466922776148607
577.3685239491691,26.807437927663752
578.3695014662757,29.933486803519077
579.3704789833822,33.008433040078216
580.3714565004888,37.02763147605085
581.3724340175953,42.25098826979473
582.3734115347019,48.14037438905182
583.3743890518084,55.16694525904204
584.375366568915,63.58016129032258
585.3763440860215,74.62338709677418
586.377321603128,86.16461876832842
587.3782991202346,97.46676246334307
588.3792766373411,106.82602737047895
589.3802541544477,110.66509188660801
590.3812316715542,109.7674164222874
591.3822091886608,105.84796871945264
592.3831867057673,98.5676793743891
593.3841642228739,89.09424926686228
594.3851417399804,76.42349071358761
595.386119257087,65.46339687194533
596.3870967741935,57.46370967741944
597.3880742913001,50.45934506353868
598.3890518084066,44.70435386119264
599.3900293255132,39.83678885630504
600.3910068426197,36.12755718475078
601.3919843597263,33.329141739980486
602.3929618768328,31.38573020527861
603.3939393939394,30.233212121212137
604.3949169110459,29.475104594330404
605.3958944281525,29.178419354838713
606.396871945259,28.514022482893473
607.3978494623656,27.28684946236562
608.3988269794721,26.052049853372463
609.3998044965787,24.814042033235612
610.4007820136852,23.69386412512221
611.4017595307918,22.81341348973609
612.4027370478983,21.662985337243445
613.4037145650049,19.572833822091955
614.4046920821114,17.130026392961934
615.405669599218,15.694872922776163
616.4066471163245,15.114587487781058
617.4076246334312,13.733604105571652
618.4086021505377,11.380161290322384
619.4095796676443,9.735805474095748
620.4105571847508,9.177510263929577
621.4115347018574,8.361520039100585
622.4125122189639,7.070333333333225
623.4134897360705,5.844346041055638
624.414467253177,4.867736070381161
625.4154447702836,4.038217986314705
626.4164222873901,3.4292756598240133
627.4173998044967,3.124755620723355
628.4183773216032,3.288505376344126
629.4193548387098,3.7395483870967983
630.4203323558163,3.577341153470125
631.4213098729228,2.7349931573801936
632.4222873900294,2.085953079178859
633.423264907136,1.7201270772238273
634.4242424242425,1.0495151515150751
635.425219941349,0.595120234604135
636.4261974584556,1.0916207233626978
637.4271749755621,1.5258132942326648
638.4281524926687,1.5702316715542384
639.4291300097752,1.1816520039100282
640.4301075268818,0.708580645161273
641.4310850439883,0.6892228739003131
642.4320625610949,0.8776412512218976
643.4330400782014,0.5850058651025966
644.434017595308,0.5949765395894993
645.4349951124145,0.6846099706744266
646.4359726295211,0.6453743890518799
647.4369501466276,1.1339442815249
648.4379276637342,0.5946676441837375
649.4389051808407,0.2988132942326565
650.4398826979473,0.6401290322580976
651.4408602150538,0.8718709677419224
652.4418377321604,0.43510850439879095
653.4428152492669,0.2170703812316906
654.4437927663735,0.3602003910068356
655.44477028348,0.22306647116323847
656.4457478005866,0.08459530791788165
657.4467253176931,0.06596774193549028
658.4477028347997,0.2070508308895478
659.4486803519062,0.35875073313783695
660.4496578690128,0.30485434995111016
661.4506353861193,0.16223558162268092
662.4516129032259,0.23680645161290748
663.4525904203324,0.5611016617791069
664.453567937439,1.0064740957966873
665.4545454545455,1.2080000000000055
666.455522971652,1.4658533724340341
667.4565004887586,1.9619002932551557
668.4574780058651,2.4664164222874048
669.4584555229717,2.735765395894433
670.4594330400782,2.729571847507325
671.4604105571848,2.2718299120234313
672.4613880742913,1.6151495601172852
673.4623655913979,1.8488064516129397
674.4633431085044,2.9030234604105916
675.464320625611,3.5202903225806494
676.4652981427175,3.652419354838714
677.4662756598241,3.5887126099706657
678.4672531769306,3.27800293255131
679.4682306940372,3.108832844574781
680.4692082111437,3.182404692082115
681.4701857282503,3.176829912023456
682.4711632453568,2.9326891495601086
683.4721407624634,2.7058973607038097
684.4731182795699,2.714397849462369
685.4740957966765,2.6854398826979424
686.475073313783,2.192565982404674
687.4760508308896,1.5438758553274579
688.4770283479961,1.5826480938416547
689.4780058651027,2.186715542522006
690.4789833822092,2.7917849462365707
691.4799608993158,3.396896383186717
692.4809384164223,3.5604662756598184
693.4819159335289,3.2365581622678343
694.4828934506354,2.9017135874877757
695.483870967742,2.566903225806447
696.4848484848485,2.892909090909105
697.485826001955,4.175058651026413
698.4868035190616,5.3137096774193635
699.4877810361681,5.741826001955036
700.4887585532747,5.660484848484845
701.4897360703812,5.107762463343101
702.4907135874878,4.384415444770278
703.4916911045943,3.8967585532746796
704.4926686217009,3.564434017595306
705.4936461388074,3.2321094819159315
706.494623655914,2.9522150537634397
707.4956011730205,3.141803519061586
708.4965786901271,3.7554027370479
709.4975562072336,3.6694379276637323
710.4985337243402,2.871175953079178
711.4995112414467,3.1018807429130018
712.5004887585533,4.517262952101661
713.5014662756598,5.360184750733137
714.5024437927664,5.258198435972631
715.5034213098729,4.776837732160315
716.5043988269795,4.059985337243405
717.505376344086,3.7660860215053753
718.5063538611926,4.419951124144666
719.5073313782991,5.015806451612903
720.5083088954057,4.423939393939404
721.5092864125122,3.445045943304014
722.5102639296188,3.4229149560117245
723.5112414467253,3.9094682306940336
724.5122189638319,3.6758103616813385
725.5131964809384,2.9431055718475156
726.514173998045,2.9404721407624552
727.5151515151515,3.574606060606052
728.516129032258,3.9712903225806424
729.5171065493646,4.139288367546429
730.5180840664711,3.8771006842619853
731.5190615835777,3.1530557184750867
732.5200391006842,2.368809384164237
733.5210166177908,1.5855650048876004
734.5219941348973,0.9656627565982498
735.5229716520039,0.5814936461388138
736.5239491691104,0.41451808406647206
737.524926686217,0.48633724340175555
738.5259042033235,0.5484897360703821
739.5268817204301,0.37035483870968483
740.5278592375366,0.15468328445748147
741.5288367546432,0.18095992179862697
742.5298142717497,0.15815640273705323
