Raman shift,Intensity
757.02644,322.17884
758.70234,323.28189
760.37825,324.38495
762.05415,324.38495
763.73006,325.488
765.40596,327.69411
767.08186,329.90022
768.75777,331.00328
770.43367,332.10633
772.10958,333.20939
773.78548,333.20939
775.46139,333.20939
777.13729,332.10633
778.8132,331.00328
780.4891,329.90022
782.16501,328.79717
783.84091,328.79717
785.51682,327.69411
787.19272,326.59106
788.86863,325.488
790.54453,325.488
792.22044,324.38495
793.89634,323.28189
795.57225,323.28189
797.24815,322.17884
798.92406,321.07578
800.59996,319.97272
802.27587,319.97272
803.95177,318.86967
805.62768,317.76661
807.30358,316.66356
808.97949,315.5605
810.65539,313.35439
812.3313,312.25134
814.0072,310.04523
815.68311,308.94217
817.35901,306.73606
819.03492,304.52995
820.71082,303.4269
822.38673,302.32384
824.06263,301.22079
825.73854,300.11773
827.41444,300.11773
829.09035,300.11773
830.76625,301.22079
832.44216,302.32384
834.11806,302.32384
835.79397,303.4269
837.46987,305.63301
839.14578,306.73606
840.82168,307.83912
842.49759,308.94217
844.17349,310.04523
845.8494,310.04523
847.5253,311.14828
849.20121,311.14828
850.87711,311.14828
852.55301,311.14828
854.22892,312.25134
855.90482,312.25134
857.58073,313.35439
859.25663,313.35439
860.93254,313.35439
862.60844,314.45745
864.28435,313.35439
865.96025,313.35439
867.63616,313.35439
869.31206,312.25134
870.98797,312.25134
872.66387,311.14828
874.33978,310.04523
876.01568,308.94217
877.69159,306.73606
879.36749,305.63301
881.0434,304.52995
882.7193,302.32384
884.39521,301.22079
886.07111,300.11773
887.74702,297.91162
889.42292,296.80857
891.09883,295.70551
892.77473,294.60246
894.45064,293.4994
896.12654,293.4994
897.80245,292.39635
899.47835,292.39635
901.15426,292.39635
902.83016,292.39635
904.50607,292.39635
906.18197,292.39635
907.85788,291.29329
909.53378,291.29329
911.20969,290.19024
912.88559,289.08718
914.5615,286.88107
916.2374,285.77801
917.91331,283.5719
919.58921,281.36579
921.26512,280.26274
922.94102,279.15968
924.61693,276.95357
926.29283,275.85052
927.96874,274.74746
929.64464,273.64441
931.32055,273.64441
932.99645,273.64441
934.67235,274.74746
936.34826,275.85052
938.02416,276.95357
939.70007,279.15968
941.37597,280.26274
943.05188,281.36579
944.72778,282.46885
946.40369,283.5719
948.07959,284.67496
949.7555,284.67496
951.4314,284.67496
953.10731,283.5719
954.78321,282.46885
956.45912,280.26274
958.13502,279.15968
959.81093,276.95357
961.48683,275.85052
963.16274,273.64441
964.83864,271.4383
966.51455,270.33524
968.19045,269.23219
969.86636,268.12913
971.54226,267.02608
973.21817,267.02608
974.89407,267.02608
976.56998,268.12913
978.24588,269.23219
979.92179,270.33524
981.59769,271.4383
983.2736,272.54135
984.9495,273.64441
986.62541,273.64441
988.30131,273.64441
989.97722,273.64441
991.65312,272.54135
993.32903,270.33524
995.00493,268.12913
996.68084,265.92302
998.35674,262.61386
1000.03265,259.30469
1001.70855,257.09858
1003.38446,254.89247
1005.06036,252.68636
1006.73627,251.5833
1008.41217,249.37719
1010.08808,249.37719
1011.76398,248.27414
1013.43989,248.27414
1015.11579,249.37719
1016.79169,250.48025
1018.4676,251.5833
1020.1435,252.68636
1021.81941,254.89247
1023.49531,257.09858
1025.17122,259.30469
1026.84712,261.5108
1028.52303,263.71691
1030.19893,267.02608
1031.87484,268.12913
1033.55074,270.33524
1035.22665,272.54135
1036.90255,273.64441
1038.57846,273.64441
1040.25436,273.64441
1041.93027,273.64441
1043.60617,273.64441
1045.28208,272.54135
1046.95798,272.54135
1048.63389,272.54135
1050.30979,272.54135
1051.9857,271.4383
1053.6616,271.4383
1055.33751,270.33524
1057.01341,269.23219
1058.68932,268.12913
1060.36522,265.92302
1062.04113,264.81997
1063.71703,263.71691
1065.39294,261.5108
1067.06884,260.40775
1068.74475,259.30469
1070.42065,258.20164
1072.09656,257.09858
1073.77246,258.20164
1075.44837,259.30469
1077.12427,262.61386
1078.80018,264.81997
1080.47608,268.12913
1082.15199,271.4383
1083.82789,273.64441
1085.5038,276.95357
1087.1797,280.26274
1088.85561,283.5719
1090.53151,285.77801
1092.20742,287.98413
1093.88332,289.08718
1095.55923,290.19024
1097.23513,290.19024
1098.91104,290.19024
1100.58694,289.08718
1102.26284,286.88107
1103.93875,284.67496
1105.61465,282.46885
1107.29056,280.26274
1108.96646,278.05663
1110.64237,274.74746
1112.31827,272.54135
1113.99418,270.33524
1115.67008,269.23219
1117.34599,267.02608
1119.02189,267.02608
1120.6978,265.92302
1122.3737,265.92302
1124.04961,267.02608
1125.72551,267.02608
1127.40142,268.12913
1129.07732,269.23219
1130.75323,270.33524
1132.42913,271.4383
1134.10504,271.4383
1135.78094,272.54135
1137.45685,274.74746
1139.13275,274.74746
1140.80866,275.85052
1142.48456,276.95357
1144.16047,276.95357
1145.83637,279.15968
1147.51228,279.15968
1149.18818,280.26274
1150.86409,280.26274
1152.53999,280.26274
1154.2159,280.26274
1155.8918,279.15968
1157.56771,278.05663
1159.24361,275.85052
1160.91952,274.74746
1162.59542,273.64441
1164.27133,271.4383
1165.94723,270.33524
1167.62314,269.23219
1169.29904,267.02608
1170.97495,267.02608
1172.65085,265.92302
1174.32676,265.92302
1176.00266,267.02608
1177.67857,268.12913
1179.35447,269.23219
1181.03038,269.23219
1182.70628,270.33524
1184.38218,271.4383
1186.05809,272.54135
1187.73399,273.64441
1189.4099,274.74746
1191.0858,274.74746
1192.76171,274.74746
1194.43761,273.64441
1196.11352,271.4383
1197.78942,270.33524
1199.46533,268.12913
1201.14123,267.02608
1202.81714,265.92302
1204.49304,264.81997
1206.16895,263.71691
1207.84485,263.71691
1209.52076,262.61386
1211.19666,263.71691
1212.87257,264.81997
1214.54847,265.92302
1216.22438,268.12913
1217.90028,270.33524
1219.57619,271.4383
1221.25209,273.64441
1222.928,275.85052
1224.6039,278.05663
1226.27981,279.15968
1227.95571,280.26274
1229.63162,280.26274
1231.30752,281.36579
1232.98343,279.15968
1234.65933,278.05663
1236.33524,275.85052
1238.01114,273.64441
1239.68705,271.4383
1241.36295,269.23219
1243.03886,265.92302
1244.71476,263.71691
1246.39067,261.5108
1248.06657,259.30469
1249.74248,258.20164
1251.41838,258.20164
1253.09429,261.5108
1254.77019,264.81997
1256.4461,268.12913
1258.122,274.74746
1259.79791,280.26274
1261.47381,285.77801
1263.14972,290.19024
1264.82562,296.80857
1266.50152,302.32384
1268.17743,307.83912
1269.85333,310.04523
1271.52924,315.5605
1273.20514,318.86967
1274.88105,324.38495
1276.55695,327.69411
1278.23286,329.90022
1279.90876,333.20939
1281.58467,335.4155
1283.26057,337.62161
1284.93648,340.93077
1286.61238,343.13688
1288.28829,346.44605
1289.96419,348.65216
1291.6401,350.85827
1293.316,353.06438
1294.99191,355.27049
1296.66781,357.4766
1298.34372,358.57966
1300.01962,360.78577
1301.69553,360.78577
1303.37143,358.57966
1305.04734,357.4766
1306.72324,354.16743
1308.39915,349.75521
1310.07505,344.23994
1311.75096,338.72466
1313.42686,334.31244
1315.10277,329.90022
1316.77867,323.28189
1318.45458,318.86967
1320.13048,314.45745
1321.80639,310.04523
1323.48229,306.73606
1325.1582,305.63301
1326.8341,305.63301
1328.51001,305.63301
1330.18591,305.63301
1331.86182,305.63301
1333.53772,306.73606
1335.21363,306.73606
1336.88953,307.83912
1338.56544,308.94217
1340.24134,310.04523
1341.91725,312.25134
1343.59315,313.35439
1345.26906,315.5605
1346.94496,317.76661
1348.62087,318.86967
1350.29677,319.97272
1351.97267,319.97272
1353.64858,318.86967
1355.32448,317.76661
1357.00039,315.5605
1358.67629,313.35439
1360.3522,312.25134
1362.0281,310.04523
1363.70401,308.94217
1365.37991,306.73606
1367.05582,304.52995
1368.73172,302.32384
1370.40763,300.11773
1372.08353,297.91162
1373.75944,295.70551
1375.43534,294.60246
1377.11125,293.4994
1378.78715,292.39635
1380.46306,291.29329
1382.13896,291.29329
1383.81487,292.39635
1385.49077,293.4994
1387.16668,294.60246
1388.84258,294.60246
1390.51849,294.60246
1392.19439,294.60246
1393.8703,294.60246
1395.5462,294.60246
1397.22211,294.60246
1398.89801,293.4994
1400.57392,292.39635
1402.24982,290.19024
1403.92573,289.08718
1405.60163,287.98413
1407.27754,285.77801
1408.95344,284.67496
1410.62935,284.67496
1412.30525,284.67496
1413.98116,284.67496
1415.65706,284.67496
1417.33297,285.77801
1419.00887,285.77801
1420.68478,284.67496
1422.36068,284.67496
1424.03659,283.5719
1425.71249,283.5719
1427.3884,282.46885
1429.0643,281.36579
1430.74021,280.26274
1432.41611,280.26274
1434.09201,279.15968
1435.76792,278.05663
1437.44382,278.05663
1439.11973,279.15968
1440.79563,280.26274
1442.47154,281.36579
1444.14744,282.46885
1445.82335,284.67496
1447.49925,285.77801
1449.17516,286.88107
1450.85106,289.08718
1452.52697,290.19024
1454.20287,291.29329
1455.87878,293.4994
1457.55468,294.60246
1459.23059,296.80857
1460.90649,297.91162
1462.5824,300.11773
1464.2583,301.22079
1465.93421,302.32384
1467.61011,301.22079
1469.28602,299.01468
1470.96192,297.91162
1472.63783,295.70551
1474.31373,293.4994
1475.98964,292.39635
1477.66554,291.29329
1479.34145,292.39635
1481.01735,293.4994
1482.69326,294.60246
1484.36916,296.80857
1486.04507,297.91162
1487.72097,296.80857
1489.39688,296.80857
1491.07278,295.70551
1492.74869,294.60246
1494.42459,294.60246
1496.1005,295.70551
1502.69092,309.15951
1530.87926,319.62453
1554.75717,334.31244
1556.43307,334.31244
1558.10898,335.4155
1559.78488,335.4155
1561.46079,337.62161
1563.13669,338.72466
1564.8126,340.93077
1566.4885,342.03383
1568.16441,344.23994
1569.84031,346.44605
1571.51622,347.5491
1573.19212,348.65216
1574.86803,347.5491
1576.54393,345.34299
1578.21984,344.23994
1579.89574,342.03383
1581.57165,340.93077
1583.24755,339.82772
1584.92346,338.72466
1586.59936,337.62161
1588.27527,337.62161
1589.95117,336.51855
1591.62708,334.31244
1593.30298,333.20939
1594.97889,331.00328
1596.65479,329.90022
1598.3307,326.59106
1600.0066,324.38495
1601.6825,323.28189
1603.35841,321.07578
1605.03431,317.76661
1606.71022,315.5605
1608.38612,314.45745
1610.06203,312.25134
1611.73793,310.04523
1613.41384,307.83912
1615.08974,305.63301
1616.76565,303.4269
1618.44155,302.32384
1620.11746,303.4269
1621.79336,306.73606
1623.46927,310.04523
1625.14517,313.35439
1626.82108,318.86967
1628.49698,323.28189
1630.17289,328.79717
1631.84879,334.31244
1633.5247,339.82772
1635.2006,344.23994
1636.87651,347.5491
1638.55241,350.85827
1640.22832,351.96132
1641.90422,350.85827
1643.58013,348.65216
1645.25603,345.34299
1646.93194,340.93077
1648.60784,337.62161
1650.28375,332.10633
1651.95965,328.79717
1653.63556,324.38495
1655.31146,319.97272
1656.98737,316.66356
1658.66327,312.25134
1660.33918,308.94217
1662.01508,305.63301
1663.69099,301.22079
1665.36689,299.01468
1667.0428,296.80857
1668.7187,294.60246
1670.39461,295.70551
1672.07051,296.80857
1673.74642,297.91162
1675.42232,300.11773
1677.09823,300.11773
1678.77413,300.11773
1680.45004,296.80857
1682.12594,293.4994
1683.80184,291.29329
1685.47775,287.98413
1687.15365,286.88107
1688.82956,283.5719
1690.50546,281.36579
1692.18137,280.26274
1693.85727,279.15968
1695.53318,278.05663
1697.20908,274.74746
1698.88499,273.64441
1700.56089,270.33524
1702.2368,268.12913
1703.9127,264.81997
1705.58861,262.61386
1707.26451,261.5108
1708.94042,262.61386
1710.61632,263.71691
1712.29223,265.92302
1713.96813,268.12913
1715.64404,269.23219
1717.31994,271.4383
1718.99585,272.54135
1720.67175,273.64441
1722.34766,274.74746
1724.02356,275.85052
1725.69947,278.05663
1727.37537,280.26274
1729.05128,281.36579
1730.72718,284.67496
1732.40309,286.88107
1734.07899,289.08718
1735.7549,290.19024
1737.4308,291.29329
1739.10671,292.39635
1740.78261,292.39635
1742.45852,293.4994
1744.13442,293.4994
1745.81033,294.60246
1747.48623,295.70551
1749.16214,297.91162
1750.83804,299.01468
1752.51395,300.11773
1754.18985,301.22079
1755.86576,301.22079
1757.54166,300.11773
1759.21757,299.01468
1760.89347,297.91162
1762.56938,294.60246
1764.24528,292.39635
1765.92118,289.08718
1767.59709,286.88107
1769.27299,282.46885
1770.9489,278.05663
1772.6248,273.64441
1774.30071,269.23219
1775.97661,265.92302
1777.65252,261.5108
1779.32842,258.20164
1781.00433,254.89247
1782.68023,252.68636
1784.35614,251.5833
1786.03204,252.68636
1787.70795,254.89247
1789.38385,257.09858
1791.05976,260.40775
1792.73566,263.71691
1794.41157,267.02608
1796.08747,269.23219
1797.76338,272.54135
1799.43928,275.85052
1801.11519,279.15968
1802.79109,282.46885
1804.467,284.67496
1806.1429,287.98413
1807.81881,289.08718
1809.49471,291.29329
1811.17062,292.39635
1812.84652,293.4994
1814.52243,294.60246
1816.19833,295.70551
1817.87424,295.70551
1819.55014,296.80857
1821.22605,296.80857
1822.90195,295.70551
1824.57786,295.70551
1826.25376,295.70551
1827.92967,295.70551
1829.60557,295.70551
1831.28148,295.70551
1832.95738,296.80857
1834.63329,296.80857
1836.30919,297.91162
1837.9851,297.91162
1839.661,296.80857
1841.33691,295.70551
1843.01281,293.4994
1844.68872,291.29329
1846.36462,289.08718
1848.04052,285.77801
1849.71643,282.46885
1851.39233,279.15968
1853.06824,275.85052
1854.74414,272.54135
1856.42005,269.23219
1858.09595,267.02608
1859.77186,263.71691
1861.44776,262.61386
1863.12367,260.40775
1864.79957,261.5108
1866.47548,264.81997
1868.15138,268.12913
1869.82729,272.54135
1871.50319,276.95357
1873.1791,282.46885
1874.855,285.77801
1876.53091,290.19024
1878.20681,295.70551
1879.88272,299.01468
1881.55862,302.32384
1883.23453,304.52995
1884.91043,305.63301
1886.58634,306.73606
1888.26224,305.63301
1889.93815,305.63301
1891.61405,304.52995
1893.28996,303.4269
1894.96586,302.32384
1896.64177,301.22079
1898.31767,300.11773
1899.99358,299.01468
1901.66948,297.91162
1903.34539,296.80857
1905.02129,296.80857
1906.6972,296.80857
1908.3731,297.91162
1910.04901,299.01468
1911.72491,300.11773
1913.40082,301.22079
1915.07672,302.32384
1916.75263,302.32384
1918.42853,302.32384
1920.10444,302.32384
1921.78034,301.22079
1923.45625,301.22079
1925.13215,301.22079
1926.80806,301.22079
1928.48396,300.11773
1930.15987,300.11773
1931.83577,300.11773
1933.51167,300.11773
1935.18758,299.01468
1936.86348,297.91162
1938.53939,297.91162
1940.21529,295.70551
1941.8912,293.4994
1943.5671,291.29329
1945.24301,289.08718
1946.91891,286.88107
1948.59482,283.5719
1950.27072,281.36579
1951.94663,280.26274
1953.62253,281.36579
1955.29844,283.5719
1956.97434,285.77801
1958.65025,289.08718
1960.32615,291.29329
1962.00206,294.60246
1963.67796,296.80857
1965.35387,299.01468
1967.02977,301.22079
1968.70568,304.52995
1970.38158,306.73606
1972.05749,310.04523
1973.73339,312.25134
1975.4093,314.45745
1977.0852,317.76661
1978.76111,317.76661
1980.43701,315.5605
1982.11292,313.35439
1983.78882,310.04523
1985.46473,306.73606
1987.14063,303.4269
1988.81654,300.11773
1990.49244,296.80857
1992.16835,295.70551
1993.84425,293.4994
1995.52016,292.39635
1997.19606,292.39635
1998.87197,292.39635
2000.54787,291.29329
2002.22378,291.29329
2003.89968,291.29329
2005.57559,292.39635
2007.25149,293.4994
2008.9274,294.60246
2010.6033,296.80857
2012.27921,297.91162
2013.95511,300.11773
2015.63101,301.22079
2017.30692,302.32384
2018.98282,303.4269
2020.65873,302.32384
2022.33463,301.22079
2024.01054,300.11773
2025.68644,299.01468
2027.36235,297.91162
2029.03825,296.80857
2030.71416,296.80857
2032.39006,296.80857
2034.06597,295.70551
2035.74187,295.70551
2037.41778,294.60246
2039.09368,294.60246
2040.76959,294.60246
2042.44549,295.70551
2044.1214,295.70551
2045.7973,296.80857
2047.47321,297.91162
2049.14911,299.01468
2050.82502,300.11773
2052.50092,301.22079
2054.17683,301.22079
2055.85273,301.22079
2057.52864,299.01468
2059.20454,297.91162
2060.88045,296.80857
2062.55635,295.70551
2064.23226,294.60246
2065.90816,293.4994
2067.58407,292.39635
2069.25997,291.29329
2070.93588,291.29329
2072.61178,291.29329
2074.28769,291.29329
2075.96359,291.29329
2077.6395,292.39635
2079.3154,294.60246
2080.99131,295.70551
2082.66721,299.01468
2084.34312,301.22079
2086.01902,303.4269
2087.69493,306.73606
2089.37083,308.94217
2091.04674,311.14828
2092.72264,314.45745
2094.39855,316.66356
2094.39855,321.07578
2096.07445,317.76661
2096.07445,322.17884
2097.75035,319.97272
2097.75035,322.17884
2099.42626,323.28189
2099.42626,321.07578
2101.10216,323.28189
2101.10216,321.07578
2102.77807,323.28189
2102.77807,322.17884
2104.45397,323.28189
2104.45397,323.28189
2106.12988,323.28189
2106.12988,323.28189
2107.80578,323.28189
2107.80578,324.38495
2109.48169,321.07578
2109.48169,324.38495
2111.15759,324.38495
2111.15759,319.97272
2112.8335,318.86967
2112.8335,323.28189
2114.5094,315.5605
2114.5094,322.17884
2116.18531,313.35439
2117.86121,312.25134
2119.53712,310.04523
2121.21302,308.94217
2122.88893,307.83912
2124.56483,306.73606
2126.24074,306.73606
2127.91664,305.63301
2129.59255,305.63301
2131.26845,304.52995
2132.94436,304.52995
2134.62026,304.52995
2136.29617,306.73606
2137.97207,308.94217
2139.64798,311.14828
2139.64798,321.07578
2141.32388,324.38495
2141.32388,314.45745
2142.99979,326.59106
2142.99979,318.86967
2144.67569,322.17884
2144.67569,327.69411
2146.3516,325.488
2146.3516,328.79717
2148.0275,329.90022
2148.0275,329.90022
2149.70341,333.20939
2149.70341,333.20939
2151.37931,336.51855
2151.37931,336.51855
2153.05522,338.72466
2153.05522,338.72466
2154.73112,340.93077
2154.73112,340.93077
2156.40703,343.13688
2156.40703,343.13688
2158.08293,346.44605
2158.08293,346.44605
2159.75884,348.65216
2159.75884,348.65216
2161.43474,349.75521
2161.43474,349.75521
2163.11065,351.96132
2163.11065,351.96132
2164.78655,351.96132
2164.78655,351.96132
2166.46246,351.96132
2166.46246,351.96132
2168.13836,349.75521
2168.13836,349.75521
2169.81427,348.65216
2169.81427,348.65216
2171.49017,346.44605
2171.49017,346.44605
2173.16608,345.34299
2173.16608,345.34299
2174.84198,345.34299
2174.84198,345.34299
2176.51789,345.34299
2176.51789,345.34299
2178.19379,346.44605
2178.19379,346.44605
2179.8697,348.65216
2179.8697,348.65216
2181.5456,350.85827
2181.5456,350.85827
2183.2215,353.06438
2183.2215,353.06438
2184.89741,355.27049
2184.89741,355.27049
2186.57331,357.4766
2186.57331,357.4766
2188.24922,360.78577
2188.24922,360.78577
2189.92512,364.09493
2189.92512,364.09493
2191.60103,366.30104
2191.60103,366.30104
2193.27693,367.4041
2193.27693,367.4041
2194.95284,370.71326
2194.95284,370.71326
2196.62874,371.81632
2196.62874,371.81632
2198.30465,372.91937
2198.30465,372.91937
2199.98055,374.02243
2199.98055,374.02243
2201.65646,374.02243
2201.65646,374.02243
2203.33236,372.91937
2203.33236,372.91937
2205.00827,371.81632
2205.00827,371.81632
2206.68417,370.71326
2206.68417,370.71326
2208.36008,367.4041
2208.36008,367.4041
2210.03598,366.30104
2210.03598,366.30104
2211.71189,364.09493
2211.71189,364.09493
2213.38779,361.88882
2213.38779,361.88882
2215.0637,359.68271
2215.0637,359.68271
2216.7396,356.37355
2216.7396,356.37355
2218.41551,355.27049
2220.09141,354.16743
2221.76732,354.16743
2223.44322,354.16743
2225.11913,355.27049
2226.79503,357.4766
2228.47094,357.4766
2230.14684,357.4766
2231.82275,356.37355
2233.49865,356.37355
2235.17456,355.27049
2236.85046,353.06438
2238.52637,351.96132
2240.20227,349.75521
2241.87818,348.65216
2243.55408,346.44605
2245.22999,345.34299
2246.90589,343.13688
2248.5818,342.03383
2250.2577,342.03383
2251.93361,340.93077
2253.60951,340.93077
2255.28542,340.93077
2256.96132,340.93077
2258.63723,340.93077
2260.31313,342.03383
2261.98904,342.03383
2263.66494,342.03383
2265.34084,342.03383
2267.01675,342.03383
2268.69265,342.03383
2270.36856,342.03383
2272.04446,340.93077
2273.72037,339.82772
2275.39627,338.72466
2277.07218,336.51855
2284.01378,319.62453
2316.53878,306.30542
2344.10838,295.70551
2345.78428,293.4994
2347.46018,291.29329
2349.13609,289.08718
2350.81199,289.08718
2352.4879,290.19024
2354.1638,291.29329
2355.83971,292.39635
2357.51561,293.4994
2359.19152,294.60246
2360.86742,295.70551
2362.54333,295.70551
2364.21923,296.80857
2365.89514,296.80857
2367.57104,296.80857
2369.24695,295.70551
2370.92285,294.60246
2372.59876,291.29329
2374.27466,289.08718
2375.95057,286.88107
2377.62647,283.5719
2379.30238,281.36579
2380.97828,279.15968
2382.65419,275.85052
2384.33009,275.85052
2386.006,278.05663
2387.6819,280.26274
2389.35781,283.5719
2391.03371,285.77801
2392.70962,287.98413
2394.38552,290.19024
2396.06143,293.4994
2397.73733,294.60246
2399.41324,296.80857
2401.08914,299.01468
2402.76505,300.11773
2404.44095,302.32384
2406.11686,304.52995
2407.79276,306.73606
2409.46867,306.73606
2411.14457,306.73606
2412.82048,304.52995
2414.49638,302.32384
2416.17229,299.01468
2417.84819,296.80857
2419.5241,294.60246
2421.2,292.39635
2422.87591,290.19024
2424.55181,287.98413
2426.22772,285.77801
2427.90362,281.36579
2429.57953,279.15968
2431.25543,275.85052
2432.93133,272.54135
2434.60724,268.12913
2436.28314,264.81997
2437.95905,261.5108
2439.63495,258.20164
2441.31086,254.89247
2442.98676,253.78942
2444.66267,252.68636
2446.33857,252.68636
2448.01448,253.78942
2449.69038,254.89247
2451.36629,257.09858
2453.04219,258.20164
2454.7181,261.5108
2456.394,263.71691
2458.06991,265.92302
2459.74581,269.23219
2461.42172,271.4383
2463.09762,272.54135
2464.77353,274.74746
2466.44943,276.95357
2468.12534,278.05663
2469.80124,280.26274
2471.47715,281.36579
2473.15305,282.46885
2474.82896,282.46885
2476.50486,283.5719
2478.18077,283.5719
2479.85667,286.88107
2481.53258,289.08718
2483.20848,292.39635
2484.88439,295.70551
2486.56029,300.11773
2488.2362,303.4269
2489.9121,306.73606
2491.58801,310.04523
2493.26391,313.35439
2494.93982,313.35439
2496.61572,312.25134
2498.29163,308.94217
2499.96753,304.52995
2501.64344,302.32384
2503.31934,297.91162
2504.99525,294.60246
2506.67115,290.19024
2508.34706,285.77801
2510.02296,283.5719
2511.69887,279.15968
2513.37477,275.85052
2515.05067,273.64441
2516.72658,272.54135
2518.40248,273.64441
2520.07839,274.74746
2521.75429,276.95357
2523.4302,278.05663
2525.1061,281.36579
2526.78201,283.5719
2528.45791,285.77801
2530.13382,287.98413
2531.80972,290.19024
2533.48563,291.29329
2535.16153,292.39635
2536.83744,293.4994
2538.51334,294.60246
2540.18925,294.60246
2541.86515,293.4994
2543.54106,293.4994
2545.21696,293.4994
2546.89287,293.4994
2548.56877,293.4994
2550.24468,293.4994
2551.92058,292.39635
2553.59649,292.39635
2555.27239,290.19024
2556.9483,289.08718
2558.6242,287.98413
2560.30011,285.77801
2561.97601,282.46885
2561.97601,282.46885
2563.65192,279.15968
2563.65192,279.15968
2565.32782,276.95357
2565.32782,276.95357
2567.00373,273.64441
2567.00373,273.64441
2568.67963,271.4383
2570.35554,269.23219
2572.03144,267.02608
2573.70735,264.81997
2575.38325,263.71691
2577.05916,264.81997
2578.73506,267.02608
2580.41097,269.23219
2582.08687,271.4383
2583.76278,273.64441
2585.43868,276.95357
2587.11459,281.36579
2588.79049,285.77801
2590.4664,291.29329
2592.1423,296.80857
2593.81821,301.22079
2595.49411,305.63301
2597.17001,308.94217
2598.84592,313.35439
2600.52182,316.66356
2602.19773,319.97272
2603.87363,322.17884
2605.54954,322.17884
2607.22544,323.28189
2608.90135,322.17884
2610.57725,321.07578
2612.25316,319.97272
2613.92906,316.66356
2615.60497,313.35439
2617.28087,310.04523
2618.95678,306.73606
2620.63268,304.52995
2622.30859,299.01468
2623.98449,294.60246
2625.6604,291.29329
2627.3363,285.77801
2629.01221,281.36579
2630.68811,278.05663
2632.36402,273.64441
2634.03992,270.33524
2635.71583,265.92302
2637.39173,262.61386
2639.06764,260.40775
2640.74354,258.20164
2642.41945,257.09858
2644.09535,255.99553
2645.77126,254.89247
2647.44716,257.09858
2649.12307,260.40775
2650.79897,262.61386
2652.47488,267.02608
2654.15078,270.33524
2655.82669,274.74746
2657.50259,278.05663
2659.1785,282.46885
2660.8544,284.67496
2662.53031,287.98413
2664.20621,289.08718
2665.88212,287.98413
2667.55802,285.77801
2669.23393,282.46885
2670.90983,280.26274
2672.58574,276.95357
2674.26164,272.54135
2675.93755,269.23219
2677.61345,265.92302
2679.28936,262.61386
2680.96526,259.30469
2682.64116,255.99553
2684.31707,253.78942
2685.99297,252.68636
2687.66888,251.5833
2689.34478,250.48025
2691.02069,250.48025
2692.69659,250.48025
2694.3725,249.37719
2696.0484,248.27414
2697.72431,247.17108
2699.40021,246.06803
2701.07612,243.86192
2702.75202,240.55275
2704.42793,238.34664
2706.10383,235.03748
2707.77974,231.72831
2709.45564,229.5222
2711.13155,227.31609
2712.80745,227.31609
2714.48336,229.5222
2716.15926,232.83137
2717.83517,237.24359
2719.51107,242.75886
2721.18698,249.37719
2722.86288,255.99553
2724.53879,261.5108
2726.21469,269.23219
2727.8906,274.74746
2729.5665,279.15968
2731.24241,283.5719
2732.91831,286.88107
2734.59422,292.39635
2736.27012,294.60246
2737.94603,295.70551
2739.62193,297.91162
2741.29784,296.80857
2742.97374,295.70551
2744.64965,294.60246
2746.32555,292.39635
2748.00146,291.29329
2749.67736,290.19024
2751.35327,290.19024
2753.02917,291.29329
2754.70508,291.29329
2756.38098,291.29329
2758.05689,290.19024
2759.73279,289.08718
2761.4087,286.88107
2763.0846,284.67496
2764.7605,281.36579
2766.43641,278.05663
2768.11231,274.74746
2769.78822,271.4383
2771.46412,269.23219
2773.14003,267.02608
2774.81593,267.02608
2776.49184,267.02608
2778.16774,270.33524
2779.84365,272.54135
2781.51955,278.05663
2783.19546,283.5719
2784.87136,289.08718
2786.54727,293.4994
2788.22317,299.01468
2789.89908,302.32384
2791.57498,306.73606
2793.25089,310.04523
2794.92679,311.14828
2796.6027,311.14828
2798.2786,310.04523
2799.95451,310.04523
2801.63041,310.04523
2803.30632,313.35439
2804.98222,316.66356
2806.65813,317.76661
2808.33403,321.07578
2810.00994,323.28189
2811.68584,325.488
2813.36175,327.69411
2815.03765,328.79717
2816.71356,329.90022
2818.38946,331.00328
2820.06537,333.20939
2821.74127,334.31244
2823.41718,336.51855
2825.09308,336.51855
2826.76899,335.4155
2828.44489,333.20939
2830.1208,328.79717
2831.7967,325.488
2833.47261,322.17884
2835.14851,318.86967
2836.82442,317.76661
2838.50032,318.86967
2840.17623,322.17884
2841.85213,325.488
2843.52804,328.79717
2845.20394,332.10633
2846.87984,335.4155
2848.55575,335.4155
2850.23165,334.31244
2851.90756,333.20939
2853.58346,333.20939
2855.25937,333.20939
2856.93527,334.31244
2858.61118,334.31244
2860.28708,334.31244
2861.96299,332.10633
2863.63889,329.90022
2865.3148,326.59106
2866.9907,323.28189
2868.66661,321.07578
2870.34251,317.76661
2872.01842,318.86967
2873.69432,321.07578
2875.37023,325.488
2877.04613,328.79717
2878.72204,333.20939
2880.39794,335.4155
2882.07385,339.82772
2883.74975,344.23994
2885.42566,346.44605
2887.10156,347.5491
2888.77747,348.65216
2890.45337,347.5491
2892.12928,346.44605
2893.80518,345.34299
2895.48109,342.03383
2897.15699,339.82772
2898.8329,336.51855
2900.5088,333.20939
2902.18471,331.00328
2903.86061,328.79717
2905.53652,326.59106
2907.21242,324.38495
2908.88833,323.28189
2910.56423,322.17884
2912.24014,321.07578
2913.91604,319.97272
2915.59195,317.76661
2917.26785,316.66356
2918.94376,313.35439
2920.61966,312.25134
2922.29557,310.04523
2923.97147,307.83912
2925.64738,305.63301
2927.32328,304.52995
2928.99919,302.32384
2930.67509,301.22079
2932.35099,300.11773
2934.0269,299.01468
2935.7028,296.80857
2937.37871,294.60246
2939.05461,293.4994
2940.73052,292.39635
2942.40642,290.19024
2944.08233,287.98413
2945.75823,286.88107
2947.43414,285.77801
2949.11004,285.77801
2950.78595,285.77801
2952.46185,286.88107
2954.13776,289.08718
2955.81366,292.39635
2957.48957,296.80857
2959.16547,301.22079
2960.84138,305.63301
2962.51728,310.04523
2964.19319,314.45745
2965.86909,319.97272
2967.545,324.38495
2969.2209,329.90022
2970.89681,333.20939
2972.57271,334.31244
2974.24862,332.10633
2975.92452,328.79717
2977.60043,324.38495
2979.27633,319.97272
2980.95224,314.45745
2982.62814,308.94217
2984.30405,303.4269
2985.97995,296.80857
2987.65586,291.29329
2989.33176,287.98413
2991.00767,286.88107
2992.68357,283.5719
2994.35948,281.36579
2996.03538,280.26274
2997.71129,280.26274
2999.38719,280.26274
3001.0631,280.26274
3002.739,281.36579
3004.41491,282.46885
3006.09081,283.5719
3007.76672,285.77801
3009.44262,286.88107
3011.11853,287.98413
3012.79443,289.08718
3014.47033,291.29329
3016.14624,294.60246
3017.82214,297.91162
3019.49805,302.32384
3021.17395,305.63301
3022.84986,310.04523
3024.52576,315.5605
3026.20167,322.17884
3027.87757,328.79717
3029.55348,334.31244
3031.22938,340.93077
3032.90529,344.23994
3034.58119,348.65216
3036.2571,350.85827
3037.933,354.16743
3039.60891,357.4766
3041.28481,358.57966
3042.96072,358.57966
3044.63662,357.4766
3046.31253,356.37355
3047.98843,355.27049
3049.66434,354.16743
3049.66434,355.27049
3051.34024,353.06438
3051.34024,353.06438
3053.01615,351.96132
3053.01615,351.96132
3054.69205,348.65216
3054.69205,348.65216
3056.36796,346.44605
3056.36796,346.44605
3058.04386,343.13688
3058.04386,343.13688
3059.71977,340.93077
3059.71977,340.93077
3061.39567,336.51855
3061.39567,336.51855
3063.07158,333.20939
3063.07158,333.20939
3064.74748,328.79717
3064.74748,328.79717
3066.42339,326.59106
3066.42339,326.59106
3068.09929,323.28189
3068.09929,323.28189
3069.7752,319.97272
3069.7752,319.97272
3071.4511,316.66356
3071.4511,316.66356
3073.12701,314.45745
3073.12701,314.45745
3074.80291,314.45745
3074.80291,314.45745
3076.47882,313.35439
3076.47882,313.35439
3078.15472,312.25134
3078.15472,312.25134
3079.83063,312.25134
3079.83063,312.25134
3081.50653,311.14828
3081.50653,311.14828
3083.18244,310.04523
3083.18244,310.04523
3084.85834,312.25134
3084.85834,312.25134
3086.53425,315.5605
3086.53425,315.5605
3088.21015,321.07578
3088.21015,321.07578
3089.88606,325.488
3089.88606,325.488
3091.56196,329.90022
3091.56196,329.90022
3093.23787,336.51855
3093.23787,336.51855
3094.91377,342.03383
3094.91377,343.13688
3096.58967,346.44605
3096.58967,349.75521
3098.26558,357.4766
3098.26558,350.85827
3099.94148,354.16743
3099.94148,362.99188
3101.61739,367.4041
3101.61739,356.37355
3103.29329,359.68271
3103.29329,371.81632
3104.9692,376.22854
3106.6451,379.5377
3108.32101,383.94992
3109.99691,386.15603
3111.67282,386.15603
3113.34872,386.15603
3115.02463,383.94992
3116.70053,381.74381
3118.37644,378.43465
3120.05234,376.22854
3121.72825,374.02243
3123.40415,371.81632
3125.08006,369.61021
3126.75596,368.50715
3128.43187,367.4041
3130.10777,366.30104
3131.78368,366.30104
3133.45958,365.19799
3135.13549,365.19799
3136.81139,366.30104
3138.4873,367.4041
3140.1632,369.61021
3141.83911,370.71326
3143.51501,372.91937
3145.19092,376.22854
3146.86682,378.43465
3148.54273,381.74381
3150.21863,383.94992
3151.89454,387.25909
3153.57044,390.56826
3155.24635,394.98048
3156.92225,398.28964
3158.59816,401.59881
3160.27406,403.80492
3161.94997,407.11408
3163.62587,409.32019
3165.30178,411.5263
3166.97768,410.42325
3168.65359,409.32019
3170.32949,408.21714
3172.0054,406.01103
3173.6813,404.90797
3175.35721,402.70186
3177.03311,400.49575
3178.70902,399.3927
3180.38492,398.28964
3182.06082,397.18659
3183.73673,396.08353
3185.41263,396.08353
3187.08854,397.18659
3188.76444,397.18659
3190.44035,398.28964
3192.11625,399.3927
3193.79216,401.59881
3195.46806,403.80492
3197.14397,406.01103
3198.81987,409.32019
3200.49578,411.5263
3202.17168,413.73241
3203.84759,415.93852
3205.52349,418.14463
3207.1994,420.35074
3208.8753,422.55685
3210.55121,422.55685
3212.22711,423.65991
3213.90302,423.65991
3215.57892,424.76297
3217.25483,424.76297
3218.93073,424.76297
3220.60664,424.76297
3222.28254,423.65991
3223.95845,421.4538
3225.63435,418.14463
3227.31026,415.93852
3228.98616,412.62936
3230.66207,409.32019
3232.33797,406.01103
3234.01388,401.59881
3235.68978,398.28964
3237.36569,396.08353
3239.04159,396.08353
3240.7175,396.08353
3242.3934,398.28964
3244.06931,400.49575
3245.74521,403.80492
3247.42112,407.11408
3249.09702,410.42325
3250.77293,412.62936
3252.44883,417.04158
3254.12474,421.4538
3255.80064,424.76297
3257.47655,425.86602
3259.15245,428.07213
3260.82836,430.27824
3262.50426,432.48435
3265.85607,433.58741
3267.53197,430.27824
3269.20788,426.96908
3270.88378,425.86602
3272.55969,425.86602
3274.23559,424.76297
3275.9115,421.4538
3277.5874,418.14463
3279.26331,413.73241
3280.93921,410.42325
3282.61512,407.11408
3284.29102,402.70186
3285.96693,398.28964
3287.64283,393.87742
3289.31874,391.67131
3290.99464,386.15603
3292.67055,382.84687
3294.34645,378.43465
3296.02236,375.12548
3297.69826,371.81632
3299.37417,368.50715
3301.05007,366.30104
3302.72598,362.99188
3304.40188,359.68271
3306.07779,357.4766
3307.75369,354.16743
3309.4296,353.06438
3311.1055,354.16743
3312.78141,354.16743
3314.45731,351.96132
3316.13322,348.65216
3317.80912,345.34299
3319.48503,340.93077
3321.16093,336.51855
3322.83684,331.00328
3324.51274,324.38495
3326.18865,318.86967
3327.86455,314.45745
3329.54046,311.14828
3331.21636,308.94217
3332.89227,307.83912
3334.56817,308.94217
3336.24408,312.25134
3337.91998,316.66356
3339.59589,322.17884
3341.27179,326.59106
3342.9477,333.20939
3344.6236,338.72466
3346.2995,345.34299
3347.97541,353.06438
3349.65131,361.88882
3351.32722,370.71326
3353.00312,377.33159
3354.67903,386.15603
3356.35493,396.08353
3358.03084,406.01103
3359.70674,412.62936
3361.38265,415.93852
3363.05855,421.4538
3364.73446,425.86602
3366.41036,428.07213
3368.08627,428.07213
3369.76217,422.55685
3371.43808,415.93852
3373.11398,407.11408
3374.78989,396.08353
3376.46579,381.74381
3378.1417,370.71326
3379.8176,359.68271
3381.49351,345.34299
3383.16941,332.10633
3384.84532,347.5491
3384.84532,316.66356
3386.52122,305.63301
3388.19713,299.01468
3389.87303,293.4994
3391.54894,289.08718
3393.22484,285.77801
3394.90075,284.67496
3396.57665,284.67496
3398.25256,285.77801
3399.92846,283.5719
3401.60437,282.46885
3403.28027,280.26274
3404.95618,278.05663
3406.63208,275.85052
3408.30799,273.64441
3409.98389,272.54135
3411.6598,272.54135
3413.3357,274.74746
3415.01161,278.05663
3416.68751,280.26274
3418.36342,281.36579
3420.03932,284.67496
3421.71523,286.88107
3423.39113,289.08718
3425.06704,289.08718
3426.74294,287.98413
3428.41885,285.77801
3430.09475,283.5719
3431.77065,281.36579
3433.44656,278.05663
3435.12246,275.85052
3436.79837,273.64441
3438.47427,272.54135
3440.15018,271.4383
3441.82608,273.64441
3443.50199,275.85052
3445.17789,280.26274
3446.8538,286.88107
3448.5297,293.4994
3450.20561,300.11773
3451.88151,307.83912
3453.55742,315.5605
3455.23332,319.97272
3456.90923,327.69411
3458.58513,333.20939
3460.26104,340.93077
3461.93694,346.44605
3463.61285,348.65216
3465.28875,350.85827
3466.96466,351.96132
3468.64056,351.96132
3470.31647,349.75521
3471.99237,342.03383
3473.66828,335.4155
3475.34418,328.79717
3477.02009,322.17884
3478.69599,316.66356
3480.3719,306.73606
3482.0478,297.91162
3483.72371,290.19024
3485.39961,281.36579
3487.07552,273.64441
3488.75142,270.33524
3490.42733,268.12913
3492.10323,265.92302
3493.77914,262.61386
3495.45504,262.61386
3497.13095,262.61386
3498.80685,263.71691
3500.48276,265.92302
3502.15866,267.02608
3503.83457,268.12913
3505.51047,270.33524
3507.18638,271.4383
3508.86228,271.4383
3510.53819,271.4383
3512.21409,270.33524
3513.88999,271.4383
3515.5659,273.64441
3517.2418,275.85052
3518.91771,278.05663
3520.59361,280.26274
3522.26952,282.46885
3523.94542,284.67496
3525.62133,286.88107
3527.29723,286.88107
3528.97314,285.77801
3530.64904,282.46885
3532.32495,281.36579
3534.00085,279.15968
3535.67676,276.95357
3537.35266,274.74746
3539.02857,272.54135
3540.70447,270.33524
3542.38038,269.23219
3544.05628,267.02608
3545.73219,268.12913
3547.40809,269.23219
3549.084,272.54135
3550.7599,275.85052
3552.43581,278.05663
3554.11171,282.46885
3555.78762,286.88107
3557.46352,292.39635
3559.13943,296.80857
3560.81533,301.22079
3562.49124,304.52995
3564.16714,306.73606
3565.84305,310.04523
3567.51895,313.35439
3569.19486,316.66356
3570.87076,317.76661
3572.54667,318.86967
3574.22257,319.97272
3575.89848,321.07578
3577.57438,321.07578
3579.25029,319.97272
3580.92619,317.76661
3582.6021,316.66356
3584.278,314.45745
3585.95391,313.35439
3587.62981,311.14828
3589.30572,308.94217
3590.98162,306.73606
3592.65753,304.52995
3594.33343,303.4269
3596.00933,303.4269
3597.68524,305.63301
3599.36114,307.83912
3601.03705,311.14828
3602.71295,316.66356
3604.38886,322.17884
3606.06476,328.79717
3607.74067,335.4155
3609.41657,340.93077
3611.09248,346.44605
3612.76838,350.85827
3614.44429,355.27049
3616.12019,360.78577
3617.7961,366.30104
3619.472,368.50715
3621.14791,369.61021
3622.82381,368.50715
3624.49972,366.30104
3626.17562,364.09493
3627.85153,360.78577
3629.52743,357.4766
3631.20334,355.27049
3632.87924,351.96132
3634.55515,349.75521
3636.23105,347.5491
3637.90696,346.44605
3639.58286,345.34299
3641.25877,344.23994
3642.93467,343.13688
3644.61058,343.13688
3646.28648,342.03383
3647.96239,340.93077
3649.63829,340.93077
3651.3142,338.72466
3652.9901,333.20939
3654.66601,327.69411
3656.34191,322.17884
3658.01782,316.66356
3659.69372,312.25134
3661.36963,306.73606
3663.04553,301.22079
3664.72144,295.70551
3666.39734,291.29329
3668.07325,287.98413
3669.74915,286.88107
3671.42506,285.77801
3673.10096,285.77801
3674.77687,285.77801
3676.45277,286.88107
3678.12868,287.98413
3679.80458,290.19024
3681.48048,291.29329
3683.15639,292.39635
3684.83229,293.4994
3686.5082,295.70551
3688.1841,295.70551
3689.86001,294.60246
3691.53591,293.4994
3693.21182,292.39635
3694.88772,292.39635
3696.56363,293.4994
3698.23953,295.70551
3699.91544,299.01468
3701.59134,301.22079
3703.26725,303.4269
3704.94315,305.63301
3706.61906,307.83912
3708.29496,307.83912
3709.97087,306.73606
3711.64677,305.63301
3713.32268,303.4269
3714.99858,302.32384
3716.67449,300.11773
3718.35039,296.80857
3720.0263,293.4994
3721.7022,291.29329
3723.37811,287.98413
3725.05401,285.77801
3726.72992,283.5719
3728.40582,281.36579
3730.08173,279.15968
3731.75763,278.05663
3733.43354,275.85052
3735.10944,275.85052
3736.78535,276.95357
3738.46125,280.26274
3740.13716,281.36579
3741.81306,283.5719
3743.48897,283.5719
3745.16487,284.67496
3746.84078,282.46885
3748.51668,280.26274
3750.19259,278.05663
3751.86849,275.85052
3753.5444,274.74746
3755.2203,273.64441
3756.89621,274.74746
3758.57211,276.95357
3760.24802,278.05663
3761.92392,280.26274
3763.59982,282.46885
3765.27573,283.5719
3766.95163,286.88107
3768.62754,289.08718
3770.30344,291.29329
3771.97935,294.60246
3773.65525,296.80857
3775.33116,299.01468
3777.00706,300.11773
3778.68297,302.32384
3780.35887,302.32384
3782.03478,302.32384
3783.71068,303.4269
3785.38659,305.63301
3787.06249,306.73606
3788.7384,308.94217
3790.4143,311.14828
3792.09021,313.35439
3793.76611,315.5605
3795.44202,316.66356
3797.11792,316.66356
3798.79383,311.14828
3800.46973,307.83912
3800.46973,307.83912
3802.14564,302.32384
3802.14564,302.32384
3803.82154,296.80857
3803.82154,296.80857
3805.49745,293.4994
3805.49745,293.4994
3807.17335,289.08718
3807.17335,289.08718
3808.84926,284.67496
3808.84926,284.67496
3810.52516,280.26274
3810.52516,280.26274
3812.20107,276.95357
3812.20107,276.95357
3813.87697,276.95357
3813.87697,276.95357
3815.55288,280.26274
3815.55288,280.26274
3817.22878,282.46885
3817.22878,282.46885
3818.90469,284.67496
3818.90469,284.67496
3820.58059,287.98413
3820.58059,287.98413
3822.2565,290.19024
3822.2565,290.19024
3823.9324,291.29329
3823.9324,291.29329
3825.60831,294.60246
3825.60831,294.60246
3827.28421,296.80857
3828.96012,297.91162
3830.63602,299.01468
3832.31193,297.91162
3833.98783,295.70551
3835.66374,293.4994
3837.33964,291.29329
3839.01555,289.08718
3840.69145,286.88107
3842.36736,285.77801
3844.04326,287.98413
3845.71916,289.08718
3847.39507,292.39635
3849.07097,295.70551
3850.74688,299.01468
3852.42278,301.22079
3854.09869,305.63301
3855.77459,310.04523
3857.4505,314.45745
3859.1264,318.86967
3860.80231,323.28189
3862.47821,326.59106
3864.15412,331.00328
3865.83002,333.20939
3867.50593,337.62161
3869.18183,339.82772
3870.85774,339.82772
3872.53364,338.72466
3874.20955,336.51855
3875.88545,334.31244
3877.56136,332.10633
3879.23726,325.488
3880.91317,317.76661
3882.58907,311.14828
3884.26498,305.63301
3885.94088,300.11773
3887.61679,294.60246
3889.29269,289.08718
3890.9686,284.67496
3892.6445,279.15968
3894.32041,278.05663
3895.99631,279.15968
3897.67222,279.15968
3899.34812,279.15968
3901.02403,279.15968
3902.69993,279.15968
3904.37584,278.05663
3906.05174,278.05663
3907.72765,276.95357
3909.40355,276.95357
3911.07946,274.74746
3912.75536,273.64441
3914.43127,270.33524
3916.10717,269.23219
3917.78308,268.12913
3919.45898,268.12913
3921.13489,270.33524
3922.81079,273.64441
3924.4867,278.05663
3926.1626,281.36579
3927.8385,289.08718
3929.51441,296.80857
3931.19031,304.52995
3932.86622,312.25134
3934.54212,316.66356
3936.21803,321.07578
3937.89393,324.38495
3939.56984,328.79717
3941.24574,332.10633
3942.92165,332.10633
3944.59755,329.90022
3946.27346,327.69411
3947.94936,324.38495
3949.62527,323.28189
3951.30117,321.07578
3952.97708,317.76661
3954.65298,314.45745
3956.32889,313.35439
3958.00479,313.35439
3959.6807,312.25134
3961.3566,311.14828
3963.03251,310.04523
3964.70841,308.94217
3966.38432,306.73606
3968.06022,304.52995
3969.73613,302.32384
3971.41203,301.22079
3973.08794,299.01468
3974.76384,297.91162
3976.43975,296.80857
3978.11565,296.80857
3979.79156,295.70551
3981.46746,295.70551
3983.14337,296.80857
