Raman shift,Intensity
435.79823,1127.19064
437.35257,1128.54699
438.90691,1131.25968
440.46125,1133.97238
442.01559,1135.32872
443.56993,1139.39777
445.12427,1142.11046
446.6786,1144.82316
448.23294,1147.53585
449.78728,1151.6049
451.34162,1155.67394
452.89596,1159.74298
454.4503,1165.16837
456.00464,1170.59377
457.55898,1173.30646
459.11331,1178.73185
459.11331,1178.73185
460.66765,1184.15724
460.66765,1184.15724
462.22199,1188.22629
462.22199,1188.22629
463.77633,1193.65168
463.77633,1193.65168
465.33067,1199.07707
465.33067,1199.07707
466.88501,1204.50246
466.88501,1204.50246
468.43935,1209.92785
468.43935,1209.92785
469.99369,1215.35324
469.99369,1215.35324
471.54802,1220.77863
471.54802,1220.77863
473.10236,1224.84768
473.10236,1224.84768
474.6567,1230.27307
474.6567,1230.27307
476.21104,1235.69846
476.21104,1232.98576
477.76538,1234.34211
477.76538,1239.7675
479.31972,1245.19289
479.31972,1238.41115
480.87406,1241.12385
480.87406,1250.61828
482.4284,1242.4802
482.4284,1253.33098
483.98273,1258.75637
485.53707,1264.18176
487.09141,1266.89446
488.64575,1272.31985
490.20009,1276.38889
491.75443,1280.45793
493.30877,1284.52698
494.86311,1287.23967
496.41745,1291.30872
497.97178,1294.02141
499.52612,1296.73411
501.08046,1299.4468
502.6348,1302.1595
504.18914,1303.51585
505.74348,1304.87219
507.29782,1306.22854
508.85216,1306.22854
510.40649,1304.87219
511.96083,1302.1595
513.51517,1300.80315
515.06951,1296.73411
516.62385,1294.02141
518.17819,1289.95237
519.73253,1285.88332
521.28687,1283.17063
522.8412,1277.74524
524.39554,1270.9635
525.94988,1264.18176
527.50422,1258.75637
529.05856,1251.97463
530.6129,1245.19289
532.16724,1238.41115
533.72158,1230.27307
535.27591,1223.49133
536.83025,1216.70959
538.38459,1209.92785
539.93893,1201.78976
541.49327,1177.3755
541.49327,1195.00803
543.04761,1173.30646
543.04761,1188.22629
544.60195,1180.0882
544.60195,1170.59377
546.15629,1169.23742
546.15629,1176.01916
547.71063,1170.59377
547.71063,1166.52472
549.26496,1165.16837
549.26496,1165.16837
550.8193,1159.74298
552.37364,1154.31759
553.92798,1150.24855
555.48232,1146.17951
557.03666,1144.82316
558.591,1140.75412
560.14534,1138.04142
561.69967,1135.32872
563.25401,1131.25968
564.80835,1129.90333
566.36269,1128.54699
567.91703,1127.19064
569.47137,1124.47794
571.02571,1123.12159
572.58005,1121.76525
574.13438,1120.4089
575.68872,1120.4089
577.24306,1120.4089
578.7974,1120.4089
580.35174,1120.4089
581.90608,1120.4089
583.46042,1120.4089
585.01476,1120.4089
586.56909,1121.76525
588.12343,1121.76525
589.67777,1123.12159
591.23211,1123.12159
592.78645,1123.12159
594.34079,1123.12159
595.89513,1124.47794
597.44947,1124.47794
599.0038,1123.12159
600.55814,1123.12159
602.11248,1121.76525
603.66682,1120.4089
605.22116,1119.05255
606.7755,1116.33986
643.53154,1124.36939
661.04726,1124.36939
695.04837,1124.36939
723.8978,1113.58143
760.65504,1117.6962
762.20938,1117.6962
763.76372,1117.6962
765.31805,1117.6962
766.87239,1117.6962
768.42673,1116.33986
769.98107,1117.6962
771.53541,1119.05255
773.08975,1120.4089
774.64409,1121.76525
776.19843,1121.76525
777.75277,1120.4089
779.3071,1120.4089
780.86144,1119.05255
782.41578,1116.33986
782.41578,1119.05255
782.41578,1117.6962
783.97012,1116.33986
785.52446,1114.98351
785.52446,1116.33986
787.0788,1114.98351
787.0788,1113.62716
788.63314,1113.62716
790.18748,1113.62716
791.74181,1110.91446
791.74181,1112.27081
793.29615,1109.55812
793.29615,1110.91446
794.85049,1109.55812
794.85049,1106.84542
794.85049,1105.48907
794.85049,1104.13273
794.85049,1108.20177
796.40483,1104.13273
797.95917,1104.13273
799.51351,1104.13273
801.06785,1104.13273
802.62219,1091.9256
802.62219,1095.99464
802.62219,1094.63829
802.62219,1101.42003
802.62219,1097.35099
802.62219,1098.70733
802.62219,1100.06368
802.62219,1102.77638
804.17652,1091.9256
804.17652,1093.28194
805.73086,1093.28194
805.73086,1091.9256
807.2852,1093.28194
807.2852,1091.9256
808.83954,1093.28194
808.83954,1094.63829
810.39388,1091.9256
810.39388,1093.28194
811.94822,1093.28194
811.94822,1094.63829
813.50256,1094.63829
813.50256,1095.99464
815.0569,1097.35099
815.0569,1095.99464
816.61123,1097.35099
816.61123,1091.9256
816.61123,1095.99464
816.61123,1093.28194
816.61123,1094.63829
816.61123,1090.56925
818.16557,1095.99464
818.16557,1089.2129
818.16557,1090.56925
819.71991,1087.85655
819.71991,1095.99464
819.71991,1094.63829
819.71991,1089.2129
821.27425,1094.63829
821.27425,1087.85655
821.27425,1086.50021
822.82859,1093.28194
822.82859,1094.63829
822.82859,1086.50021
824.38293,1086.50021
824.38293,1085.14386
824.38293,1093.28194
824.38293,1091.9256
825.93727,1085.14386
825.93727,1091.9256
825.93727,1090.56925
827.49161,1085.14386
827.49161,1090.56925
827.49161,1083.78751
829.04594,1082.43116
829.04594,1089.2129
829.04594,1090.56925
829.04594,1087.85655
829.04594,1086.50021
829.04594,1085.14386
829.04594,1083.78751
830.60028,1082.43116
830.60028,1083.78751
832.15462,1085.14386
832.15462,1082.43116
833.70896,1086.50021
833.70896,1082.43116
835.2633,1081.07481
835.2633,1087.85655
836.81764,1087.85655
836.81764,1081.07481
838.37198,1081.07481
838.37198,1082.43116
838.37198,1086.50021
839.92632,1086.50021
839.92632,1079.71847
841.48066,1079.71847
841.48066,1085.14386
841.48066,1083.78751
843.03499,1085.14386
843.03499,1079.71847
844.58933,1083.78751
844.58933,1081.07481
846.14367,1079.71847
846.14367,1083.78751
847.69801,1078.36212
847.69801,1083.78751
849.25235,1083.78751
849.25235,1079.71847
850.80669,1083.78751
850.80669,1081.07481
852.36103,1083.78751
852.36103,1082.43116
853.91537,1082.43116
853.91537,1083.78751
855.4697,1083.78751
855.4697,1082.43116
857.02404,1081.07481
857.02404,1083.78751
858.57838,1079.71847
858.57838,1082.43116
860.13272,1083.78751
860.13272,1078.36212
861.68706,1082.43116
861.68706,1078.36212
863.2414,1081.07481
863.2414,1077.00577
864.79574,1077.00577
864.79574,1079.71847
866.35008,1078.36212
866.35008,1077.00577
867.90441,1077.00577
867.90441,1078.36212
869.45875,1077.00577
869.45875,1078.36212
869.45875,1079.71847
869.45875,1081.07481
869.45875,1082.43116
869.45875,1083.78751
871.01309,1078.36212
871.01309,1085.14386
871.01309,1079.71847
871.01309,1081.07481
871.01309,1082.43116
872.56743,1082.43116
872.56743,1083.78751
872.56743,1085.14386
874.12177,1085.14386
874.12177,1083.78751
874.12177,1086.50021
875.67611,1086.50021
875.67611,1085.14386
877.23045,1085.14386
877.23045,1083.78751
878.78479,1082.43116
878.78479,1083.78751
880.33912,1081.07481
880.33912,1082.43116
881.89346,1081.07481
881.89346,1082.43116
883.4478,1083.78751
883.4478,1081.07481
885.00214,1085.14386
885.00214,1082.43116
886.55648,1083.78751
886.55648,1086.50021
888.11082,1085.14386
888.11082,1086.50021
889.66516,1086.50021
889.66516,1085.14386
891.2195,1085.14386
892.77384,1085.14386
894.32817,1083.78751
895.88251,1082.43116
897.43685,1081.07481
897.43685,1082.43116
898.99119,1081.07481
900.54553,1081.07481
902.09987,1079.71847
903.65421,1074.29308
903.65421,1078.36212
903.65421,1077.00577
903.65421,1075.64942
905.20855,1072.93673
906.76288,1071.58038
908.31722,1071.58038
909.87156,1071.58038
911.4259,1071.58038
912.98024,1071.58038
914.53458,1072.93673
916.08892,1072.93673
917.64326,1074.29308
917.64326,1075.64942
919.19759,1075.64942
920.75193,1075.64942
920.75193,1077.00577
920.75193,1078.36212
922.30627,1078.36212
923.86061,1078.36212
925.41495,1077.00577
925.41495,1078.36212
926.96929,1078.36212
928.52363,1078.36212
928.52363,1079.71847
930.07797,1079.71847
931.6323,1079.71847
931.6323,1081.07481
933.18664,1081.07481
934.74098,1081.07481
934.74098,1082.43116
936.29532,1082.43116
937.84966,1083.78751
937.84966,1082.43116
939.404,1083.78751
940.95834,1091.9256
940.95834,1083.78751
940.95834,1085.14386
940.95834,1086.50021
940.95834,1087.85655
940.95834,1093.28194
940.95834,1090.56925
940.95834,1089.2129
942.51268,1093.28194
942.51268,1094.63829
944.06701,1095.99464
944.06701,1094.63829
945.62135,1097.35099
945.62135,1095.99464
947.17569,1098.70733
947.17569,1100.06368
947.17569,1097.35099
948.73003,1100.06368
948.73003,1102.77638
948.73003,1101.42003
950.28437,1102.77638
951.83871,1102.77638
953.39305,1102.77638
954.94739,1102.77638
956.50173,1102.77638
958.05606,1104.13273
958.05606,1102.77638
959.6104,1105.48907
961.16474,1105.48907
961.16474,1106.84542
962.71908,1109.55812
962.71908,1108.20177
964.27342,1110.91446
964.27342,1113.62716
964.27342,1112.27081
965.82776,1116.33986
965.82776,1117.6962
965.82776,1119.05255
965.82776,1120.4089
965.82776,1114.98351
967.3821,1121.76525
968.93644,1121.76525
970.49077,1124.47794
970.49077,1123.12159
972.04511,1127.19064
972.04511,1125.83429
973.59945,1129.90333
973.59945,1131.25968
973.59945,1128.54699
975.15379,1131.25968
975.15379,1133.97238
975.15379,1135.32872
975.15379,1136.68507
975.15379,1138.04142
975.15379,1139.39777
975.15379,1140.75412
975.15379,1142.11046
975.15379,1143.46681
975.15379,1132.61603
976.70813,1143.46681
978.26247,1144.82316
978.26247,1143.46681
979.81681,1143.46681
981.37115,1142.11046
982.92548,1140.75412
984.47982,1140.75412
986.03416,1142.11046
987.5885,1143.46681
989.14284,1144.82316
990.69718,1142.11046
990.69718,1140.75412
990.69718,1139.39777
990.69718,1138.04142
990.69718,1136.68507
990.69718,1143.46681
992.25152,1135.32872
993.80586,1133.97238
995.36019,1132.61603
995.36019,1133.97238
996.91453,1132.61603
998.46887,1132.61603
998.46887,1131.25968
1000.02321,1129.90333
1000.02321,1131.25968
1001.57755,1129.90333
1003.13189,1129.90333
1004.68623,1128.54699
1006.24057,1128.54699
1007.79491,1128.54699
1009.34924,1129.90333
1010.90358,1129.90333
1010.90358,1132.61603
1010.90358,1135.32872
1010.90358,1136.68507
1010.90358,1138.04142
1010.90358,1131.25968
1010.90358,1133.97238
1012.45792,1138.04142
1012.45792,1139.39777
1014.01226,1140.75412
1015.5666,1140.75412
1017.12094,1140.75412
1018.67528,1140.75412
1020.22962,1142.11046
1020.22962,1143.46681
1020.22962,1146.17951
1020.22962,1144.82316
1020.22962,1140.75412
1021.78395,1146.17951
1023.33829,1147.53585
1024.89263,1147.53585
1026.44697,1146.17951
1028.00131,1144.82316
1029.55565,1143.46681
1031.10999,1144.82316
1032.66433,1146.17951
1034.21866,1144.82316
1034.21866,1143.46681
1034.21866,1142.11046
1034.21866,1140.75412
1034.21866,1146.17951
1035.773,1139.39777
1035.773,1140.75412
1037.32734,1138.04142
1038.88168,1138.04142
1040.43602,1136.68507
1040.43602,1138.04142
1041.99036,1136.68507
1041.99036,1135.32872
1043.5447,1135.32872
1045.09904,1135.32872
1046.65337,1133.97238
1048.20771,1133.97238
1049.76205,1135.32872
1051.31639,1136.68507
1052.87073,1138.04142
1054.42507,1139.39777
1054.42507,1138.04142
1054.42507,1142.11046
1054.42507,1140.75412
1055.97941,1143.46681
1055.97941,1142.11046
1057.53375,1144.82316
1057.53375,1143.46681
1059.08808,1146.17951
1059.08808,1144.82316
1060.64242,1146.17951
1062.19676,1146.17951
1063.7511,1146.17951
1065.30544,1146.17951
1066.85978,1146.17951
1068.41412,1147.53585
1068.41412,1146.17951
1069.96846,1148.8922
1069.96846,1147.53585
1071.5228,1150.24855
1071.5228,1148.8922
1073.07713,1151.6049
1073.07713,1150.24855
1074.63147,1152.96124
1076.18581,1154.31759
1076.18581,1155.67394
1076.18581,1167.88107
1076.18581,1152.96124
1077.74015,1166.52472
1077.74015,1155.67394
1077.74015,1169.23742
1077.74015,1157.03029
1079.29449,1157.03029
1079.29449,1165.16837
1079.29449,1170.59377
1079.29449,1158.38664
1080.84883,1159.74298
1080.84883,1161.09933
1080.84883,1163.81203
1080.84883,1171.95011
1080.84883,1162.45568
1082.40317,1174.66281
1082.40317,1176.01916
1082.40317,1177.3755
1082.40317,1178.73185
1082.40317,1180.0882
1082.40317,1181.44455
1082.40317,1182.8009
1082.40317,1173.30646
1082.40317,1185.51359
1082.40317,1186.86994
1083.95751,1188.22629
1083.95751,1189.58263
1083.95751,1184.15724
1085.51184,1190.93898
1087.06618,1190.93898
1088.62052,1190.93898
1090.17486,1190.93898
1091.7292,1190.93898
1093.28354,1192.29533
1093.28354,1190.93898
1094.83788,1193.65168
1094.83788,1196.36437
1094.83788,1197.72072
1094.83788,1195.00803
1096.39222,1200.43342
1096.39222,1199.07707
1097.94655,1201.78976
1097.94655,1203.14611
1097.94655,1200.43342
1099.50089,1203.14611
1099.50089,1205.85881
1099.50089,1204.50246
1101.05523,1205.85881
1102.60957,1207.21516
1102.60957,1209.92785
1102.60957,1208.5715
1104.16391,1212.64055
1104.16391,1211.2842
1105.71825,1213.99689
1105.71825,1215.35324
1107.27259,1218.06594
1107.27259,1219.42228
1107.27259,1220.77863
1107.27259,1222.13498
1107.27259,1223.49133
1107.27259,1224.84768
1107.27259,1226.20402
1107.27259,1227.56037
1107.27259,1216.70959
1108.82693,1228.91672
1108.82693,1230.27307
1108.82693,1227.56037
1110.38126,1230.27307
1111.9356,1232.98576
1111.9356,1234.34211
1111.9356,1235.69846
1111.9356,1237.05481
1111.9356,1231.62941
1113.48994,1237.05481
1115.04428,1237.05481
1116.59862,1238.41115
1116.59862,1239.7675
1116.59862,1241.12385
1116.59862,1242.4802
1116.59862,1243.83654
1116.59862,1237.05481
1118.15296,1245.19289
1118.15296,1243.83654
1119.7073,1245.19289
1119.7073,1246.54924
1121.26164,1247.90559
1122.81598,1247.90559
1124.37031,1247.90559
1125.92465,1247.90559
1125.92465,1250.61828
1125.92465,1249.26194
1127.47899,1250.61828
1127.47899,1251.97463
1129.03333,1250.61828
1129.03333,1253.33098
1129.03333,1251.97463
1130.58767,1253.33098
1130.58767,1249.26194
1130.58767,1247.90559
1132.14201,1246.54924
1133.69635,1245.19289
1133.69635,1243.83654
1135.25069,1242.4802
1135.25069,1241.12385
1135.25069,1235.69846
1136.80502,1239.7675
1136.80502,1237.05481
1136.80502,1238.41115
1136.80502,1234.34211
1138.35936,1232.98576
1138.35936,1231.62941
1139.9137,1230.27307
1139.9137,1228.91672
1139.9137,1213.99689
1139.9137,1215.35324
1139.9137,1216.70959
1139.9137,1218.06594
1139.9137,1212.64055
1139.9137,1209.92785
1141.46804,1227.56037
1141.46804,1223.49133
1141.46804,1224.84768
1141.46804,1208.5715
1141.46804,1219.42228
1141.46804,1211.2842
1143.02238,1220.77863
1143.02238,1222.13498
1143.02238,1226.20402
1143.02238,1207.21516
1144.57672,1205.85881
1144.57672,1199.07707
1144.57672,1197.72072
1146.13106,1196.36437
1146.13106,1203.14611
1146.13106,1204.50246
1146.13106,1200.43342
1147.6854,1201.78976
1147.6854,1195.00803
1147.6854,1186.86994
1147.6854,1185.51359
1149.23973,1192.29533
1149.23973,1193.65168
1149.23973,1188.22629
1149.23973,1184.15724
1149.23973,1182.8009
1150.79407,1181.44455
1150.79407,1176.01916
1150.79407,1189.58263
1150.79407,1169.23742
1150.79407,1167.88107
1150.79407,1166.52472
1150.79407,1190.93898
1152.34841,1165.16837
1152.34841,1180.0882
1152.34841,1170.59377
1152.34841,1171.95011
1152.34841,1173.30646
1152.34841,1174.66281
1152.34841,1163.81203
1152.34841,1177.3755
1152.34841,1161.09933
1153.90275,1162.45568
1153.90275,1157.03029
1153.90275,1158.38664
1153.90275,1178.73185
1153.90275,1159.74298
1155.45709,1154.31759
1155.45709,1152.96124
1155.45709,1155.67394
1157.01143,1151.6049
1157.01143,1152.96124
1157.01143,1154.31759
1158.56577,1154.31759
1158.56577,1148.8922
1158.56577,1150.24855
1158.56577,1151.6049
1160.12011,1154.31759
1160.12011,1147.53585
1160.12011,1148.8922
1161.67444,1154.31759
1161.67444,1146.17951
1161.67444,1144.82316
1163.22878,1143.46681
1163.22878,1154.31759
1163.22878,1142.11046
1164.78312,1140.75412
1164.78312,1148.8922
1164.78312,1150.24855
1164.78312,1151.6049
1164.78312,1152.96124
1164.78312,1139.39777
1164.78312,1138.04142
1166.33746,1138.04142
1166.33746,1148.8922
1166.33746,1147.53585
1166.33746,1146.17951
1166.33746,1136.68507
1166.33746,1133.97238
1166.33746,1135.32872
1167.8918,1144.82316
1167.8918,1143.46681
1167.8918,1132.61603
1169.44614,1143.46681
1169.44614,1142.11046
1169.44614,1140.75412
1169.44614,1129.90333
1169.44614,1131.25968
1169.44614,1132.61603
1171.00048,1140.75412
1171.00048,1127.19064
1171.00048,1128.54699
1171.00048,1139.39777
1171.00048,1129.90333
1172.55482,1136.68507
1172.55482,1139.39777
1172.55482,1124.47794
1172.55482,1125.83429
1172.55482,1138.04142
1174.10915,1135.32872
1174.10915,1136.68507
1174.10915,1124.47794
1174.10915,1123.12159
1174.10915,1121.76525
1174.10915,1133.97238
1175.66349,1120.4089
1175.66349,1119.05255
1175.66349,1131.25968
1175.66349,1121.76525
1175.66349,1132.61603
1177.21783,1129.90333
1177.21783,1131.25968
1177.21783,1119.05255
1177.21783,1128.54699
1177.21783,1117.6962
1178.77217,1128.54699
1178.77217,1117.6962
1178.77217,1116.33986
1178.77217,1114.98351
1178.77217,1127.19064
1178.77217,1125.83429
1180.32651,1125.83429
1180.32651,1114.98351
1180.32651,1124.47794
1181.88085,1124.47794
1181.88085,1114.98351
1183.43519,1113.62716
1183.43519,1108.20177
1183.43519,1110.91446
1183.43519,1124.47794
1183.43519,1112.27081
1183.43519,1109.55812
1184.98953,1124.47794
1184.98953,1123.12159
1184.98953,1108.20177
1186.54387,1123.12159
1186.54387,1121.76525
1186.54387,1120.4089
1186.54387,1108.20177
1188.0982,1108.20177
1188.0982,1120.4089
1189.65254,1119.05255
1189.65254,1117.6962
1189.65254,1108.20177
1191.20688,1108.20177
1191.20688,1114.98351
1191.20688,1116.33986
1191.20688,1113.62716
1192.76122,1108.20177
1192.76122,1112.27081
1192.76122,1113.62716
1194.31556,1108.20177
1195.8699,1106.84542
1195.8699,1105.48907
1195.8699,1104.13273
1195.8699,1102.77638
1195.8699,1101.42003
1195.8699,1100.06368
1195.8699,1108.20177
1197.42424,1098.70733
1198.97858,1098.70733
1200.53291,1098.70733
1202.08725,1098.70733
1203.64159,1098.70733
1205.19593,1097.35099
1206.75027,1097.35099
1208.30461,1097.35099
1209.85895,1097.35099
1211.41329,1095.99464
1212.96762,1095.99464
1214.52196,1094.63829
1216.0763,1094.63829
1217.63064,1094.63829
1219.18498,1093.28194
1220.73932,1093.28194
1222.29366,1093.28194
1223.848,1094.63829
1225.40233,1093.28194
1226.95667,1093.28194
1228.51101,1093.28194
1230.06535,1093.28194
1231.61969,1094.63829
1233.17403,1094.63829
1234.72837,1093.28194
1236.28271,1093.28194
1237.83705,1091.9256
1239.39138,1091.9256
1240.94572,1091.9256
1242.50006,1091.9256
1244.0544,1093.28194
1245.60874,1094.63829
1247.16308,1095.99464
1248.71742,1095.99464
1248.71742,1094.63829
1248.71742,1093.28194
1248.71742,1091.9256
1250.27176,1091.9256
1251.82609,1090.56925
1253.38043,1089.2129
1254.93477,1087.85655
1256.48911,1086.50021
1258.04345,1086.50021
1259.59779,1086.50021
1261.15213,1087.85655
1262.70647,1089.2129
1262.70647,1091.9256
1262.70647,1098.70733
1262.70647,1097.35099
1262.70647,1095.99464
1262.70647,1094.63829
1262.70647,1093.28194
1262.70647,1090.56925
1264.2608,1100.06368
1265.81514,1100.06368
1267.36948,1100.06368
1268.92382,1100.06368
1270.47816,1100.06368
1272.0325,1100.06368
1273.58684,1100.06368
1273.58684,1101.42003
1275.14118,1101.42003
1275.14118,1102.77638
1276.69551,1102.77638
1276.69551,1104.13273
1278.24985,1104.13273
1279.80419,1105.48907
1279.80419,1112.27081
1279.80419,1110.91446
1279.80419,1109.55812
1279.80419,1108.20177
1279.80419,1106.84542
1279.80419,1104.13273
1281.35853,1112.27081
1281.35853,1105.48907
1281.35853,1106.84542
1281.35853,1108.20177
1281.35853,1109.55812
1281.35853,1110.91446
1282.91287,1112.27081
1282.91287,1110.91446
1284.46721,1112.27081
1284.46721,1110.91446
1286.02155,1110.91446
1286.02155,1109.55812
1287.57589,1109.55812
1287.57589,1108.20177
1289.13022,1108.20177
1289.13022,1106.84542
1290.68456,1109.55812
1290.68456,1108.20177
1292.2389,1109.55812
1292.2389,1110.91446
1293.79324,1109.55812
1293.79324,1108.20177
1295.34758,1108.20177
1295.34758,1106.84542
1296.90192,1105.48907
1296.90192,1106.84542
1298.45626,1108.20177
1298.45626,1106.84542
1300.0106,1109.55812
1300.0106,1108.20177
1301.56494,1109.55812
1301.56494,1110.91446
1303.11927,1108.20177
1303.11927,1110.91446
1304.67361,1110.91446
1304.67361,1106.84542
1306.22795,1109.55812
1306.22795,1106.84542
1307.78229,1106.84542
1307.78229,1108.20177
1309.33663,1108.20177
1309.33663,1106.84542
1310.89097,1106.84542
1310.89097,1109.55812
1312.44531,1110.91446
1312.44531,1106.84542
1313.99965,1112.27081
1313.99965,1105.48907
1315.55398,1106.84542
1315.55398,1110.91446
1317.10832,1108.20177
1317.10832,1110.91446
1318.66266,1110.91446
1318.66266,1109.55812
1320.217,1110.91446
1320.217,1109.55812
1321.77134,1108.20177
1321.77134,1106.84542
1321.77134,1109.55812
1321.77134,1105.48907
1323.32568,1108.20177
1323.32568,1102.77638
1323.32568,1104.13273
1324.88002,1108.20177
1324.88002,1102.77638
1326.43436,1104.13273
1326.43436,1108.20177
1327.98869,1105.48907
1327.98869,1108.20177
1329.54303,1108.20177
1329.54303,1106.84542
1331.09737,1106.84542
1331.09737,1108.20177
1332.65171,1109.55812
1332.65171,1108.20177
1334.20605,1106.84542
1334.20605,1108.20177
1335.76039,1106.84542
1335.76039,1105.48907
1337.31473,1105.48907
1337.31473,1104.13273
1338.86907,1104.13273
1338.86907,1105.48907
1340.4234,1106.84542
1340.4234,1104.13273
1341.97774,1105.48907
1341.97774,1106.84542
1343.53208,1104.13273
1343.53208,1105.48907
1345.08642,1104.13273
1345.08642,1105.48907
1346.64076,1106.84542
1346.64076,1105.48907
1348.1951,1108.20177
1348.1951,1106.84542
1348.1951,1105.48907
1348.1951,1109.55812
1349.74944,1109.55812
1349.74944,1110.91446
1349.74944,1112.27081
1351.30378,1113.62716
1352.85812,1113.62716
1354.41245,1112.27081
1355.96679,1110.91446
1357.52113,1110.91446
1359.07547,1112.27081
1360.62981,1108.20177
1360.62981,1110.91446
1360.62981,1112.27081
1360.62981,1109.55812
1360.62981,1106.84542
1362.18415,1105.48907
1362.18415,1106.84542
1363.73849,1104.13273
1363.73849,1105.48907
1365.29283,1104.13273
1365.29283,1102.77638
1366.84716,1102.77638
1368.4015,1101.42003
1368.4015,1102.77638
1368.4015,1100.06368
1369.95584,1100.06368
1371.51018,1098.70733
1371.51018,1100.06368
1373.06452,1098.70733
1374.61886,1097.35099
1376.1732,1097.35099
1377.72754,1098.70733
1379.28187,1100.06368
1380.83621,1101.42003
1382.39055,1100.06368
1383.94489,1098.70733
1385.49923,1098.70733
1387.05357,1100.06368
1387.05357,1101.42003
1387.05357,1102.77638
1387.05357,1104.13273
1387.05357,1105.48907
1387.05357,1106.84542
1387.05357,1098.70733
1388.60791,1098.70733
1388.60791,1106.84542
1388.60791,1100.06368
1390.16225,1101.42003
1390.16225,1100.06368
1390.16225,1108.20177
1391.71658,1101.42003
1391.71658,1108.20177
1393.27092,1109.55812
1393.27092,1108.20177
1393.27092,1101.42003
1394.82526,1106.84542
1394.82526,1105.48907
1394.82526,1102.77638
1394.82526,1104.13273
1394.82526,1109.55812
1394.82526,1108.20177
1396.3796,1108.20177
1396.3796,1109.55812
1397.93394,1106.84542
1397.93394,1108.20177
1399.48828,1105.48907
1399.48828,1109.55812
1401.04262,1110.91446
1401.04262,1106.84542
1402.59696,1110.91446
1402.59696,1108.20177
1404.15129,1110.91446
1404.15129,1109.55812
1405.70563,1110.91446
1405.70563,1109.55812
1405.70563,1108.20177
1405.70563,1106.84542
1405.70563,1105.48907
1405.70563,1104.13273
1405.70563,1102.77638
1407.25997,1101.42003
1407.25997,1102.77638
1408.81431,1101.42003
1408.81431,1100.06368
1410.36865,1100.06368
1410.36865,1098.70733
1411.92299,1097.35099
1413.47733,1097.35099
1415.03167,1098.70733
1416.58601,1100.06368
1418.14034,1101.42003
1419.69468,1102.77638
1421.24902,1102.77638
1422.80336,1102.77638
1424.3577,1101.42003
1425.91204,1102.77638
1427.46638,1102.77638
1429.02072,1102.77638
1430.57505,1101.42003
1432.12939,1100.06368
1433.68373,1098.70733
1435.23807,1097.35099
1436.79241,1100.06368
1436.79241,1101.42003
1436.79241,1102.77638
1436.79241,1104.13273
1436.79241,1098.70733
1436.79241,1097.35099
1438.34675,1104.13273
1439.90109,1105.48907
1441.45543,1105.48907
1443.00976,1105.48907
1444.5641,1104.13273
1446.11844,1102.77638
1447.67278,1101.42003
1449.22712,1100.06368
1450.78146,1101.42003
1452.3358,1102.77638
1453.89014,1102.77638
1455.44447,1102.77638
1456.99881,1104.13273
1458.55315,1105.48907
1460.10749,1104.13273
1461.66183,1104.13273
1463.21617,1104.13273
1464.77051,1098.70733
1464.77051,1102.77638
1464.77051,1101.42003
1464.77051,1100.06368
1466.32485,1098.70733
1467.87919,1094.63829
1467.87919,1097.35099
1467.87919,1095.99464
1469.43352,1094.63829
1470.98786,1095.99464
1472.5422,1097.35099
1474.09654,1098.70733
1475.65088,1097.35099
1477.20522,1095.99464
1478.75956,1094.63829
1480.3139,1098.70733
1480.3139,1097.35099
1480.3139,1095.99464
1480.3139,1100.06368
1480.3139,1101.42003
1480.3139,1102.77638
1480.3139,1104.13273
1481.86823,1104.13273
1481.86823,1105.48907
1483.42257,1105.48907
1483.42257,1106.84542
1484.97691,1106.84542
1484.97691,1108.20177
1486.53125,1108.20177
1488.08559,1108.20177
1488.08559,1109.55812
1489.63993,1112.27081
1489.63993,1113.62716
1489.63993,1114.98351
1489.63993,1110.91446
1489.63993,1109.55812
1491.19427,1114.98351
1491.19427,1116.33986
1492.74861,1117.6962
1492.74861,1116.33986
1494.30294,1117.6962
1495.85728,1117.6962
1495.85728,1119.05255
1497.41162,1119.05255
1498.96596,1117.6962
1500.5203,1116.33986
1502.07464,1114.98351
1503.62898,1116.33986
1505.18332,1117.6962
1506.73765,1119.05255
1508.29199,1119.05255
1509.84633,1119.05255
1511.40067,1117.6962
1512.95501,1113.62716
1512.95501,1116.33986
1512.95501,1114.98351
1514.50935,1112.27081
1516.06369,1110.91446
1517.61803,1109.55812
1519.17236,1105.48907
1519.17236,1108.20177
1519.17236,1109.55812
1519.17236,1106.84542
1520.7267,1102.77638
1520.7267,1105.48907
1520.7267,1104.13273
1522.28104,1105.48907
1522.28104,1104.13273
1522.28104,1102.77638
1523.83538,1108.20177
1523.83538,1106.84542
1525.38972,1109.55812
1525.38972,1110.91446
1526.94406,1132.61603
1526.94406,1112.27081
1526.94406,1129.90333
1526.94406,1131.25968
1528.4984,1114.98351
1528.4984,1113.62716
1528.4984,1128.54699
1528.4984,1132.61603
1528.4984,1133.97238
1528.4984,1116.33986
1530.05274,1123.12159
1530.05274,1133.97238
1530.05274,1120.4089
1530.05274,1135.32872
1530.05274,1117.6962
1530.05274,1119.05255
1530.05274,1127.19064
1530.05274,1136.68507
1531.60708,1124.47794
1531.60708,1125.83429
1531.60708,1136.68507
1531.60708,1121.76525
1533.16141,1136.68507
1534.71575,1136.68507
1536.27009,1136.68507
1537.82443,1136.68507
1539.37877,1136.68507
1539.37877,1139.39777
1539.37877,1138.04142
1540.93311,1140.75412
1540.93311,1142.11046
1540.93311,1139.39777
1542.48745,1142.11046
1542.48745,1143.46681
1544.04179,1143.46681
1544.04179,1146.17951
1544.04179,1144.82316
1545.59612,1144.82316
1545.59612,1147.53585
1545.59612,1146.17951
1545.59612,1148.8922
1547.15046,1150.24855
1548.7048,1151.6049
1550.25914,1151.6049
1551.81348,1151.6049
1553.36782,1148.8922
1553.36782,1147.53585
1553.36782,1146.17951
1553.36782,1144.82316
1553.36782,1150.24855
1554.92216,1144.82316
1556.4765,1143.46681
1558.03083,1142.11046
1559.58517,1142.11046
1561.13951,1142.11046
1562.69385,1142.11046
1564.24819,1142.11046
1565.80253,1140.75412
1567.35687,1142.11046
1568.91121,1143.46681
1570.46554,1143.46681
1570.46554,1144.82316
1572.01988,1143.46681
1573.57422,1143.46681
1575.12856,1142.11046
1575.12856,1139.39777
1575.12856,1138.04142
1575.12856,1136.68507
1575.12856,1135.32872
1575.12856,1133.97238
1575.12856,1132.61603
1575.12856,1140.75412
1576.6829,1131.25968
1578.23724,1131.25968
1579.79158,1129.90333
1579.79158,1131.25968
1581.34592,1129.90333
1582.90026,1129.90333
1584.45459,1129.90333
1586.00893,1129.90333
1587.56327,1128.54699
1587.56327,1129.90333
1587.56327,1125.83429
1587.56327,1124.47794
1587.56327,1123.12159
1587.56327,1121.76525
1587.56327,1120.4089
1587.56327,1127.19064
1589.11761,1119.05255
1590.67195,1119.05255
1592.22629,1119.05255
1593.78063,1120.4089
1595.33497,1121.76525
1596.8893,1121.76525
1598.44364,1120.4089
1599.99798,1119.05255
1601.55232,1119.05255
1603.10666,1120.4089
1604.661,1121.76525
1606.21534,1123.12159
1607.76968,1124.47794
1609.32401,1125.83429
1610.87835,1124.47794
1610.87835,1125.83429
1612.43269,1124.47794
1613.98703,1124.47794
1615.54137,1123.12159
1617.09571,1123.12159
1618.65005,1121.76525
1618.65005,1120.4089
1620.20439,1119.05255
1620.20439,1117.6962
1620.20439,1120.4089
1621.75872,1116.33986
1623.31306,1116.33986
1623.31306,1114.98351
1624.8674,1113.62716
1624.8674,1112.27081
1624.8674,1114.98351
1626.42174,1110.91446
1626.42174,1109.55812
1626.42174,1108.20177
1626.42174,1106.84542
1626.42174,1112.27081
1627.97608,1105.48907
1629.53042,1105.48907
1631.08476,1105.48907
1632.6391,1105.48907
1634.19343,1106.84542
1635.74777,1106.84542
1635.74777,1108.20177
1637.30211,1108.20177
1637.30211,1109.55812
1638.85645,1109.55812
1640.41079,1109.55812
1640.41079,1110.91446
1641.96513,1110.91446
1643.51947,1112.27081
1643.51947,1113.62716
1643.51947,1114.98351
1643.51947,1116.33986
1643.51947,1117.6962
1643.51947,1120.4089
1643.51947,1119.05255
1645.07381,1121.76525
1646.62815,1121.76525
1648.18248,1123.12159
1649.73682,1121.76525
1651.29116,1120.4089
1652.8455,1119.05255
1654.39984,1120.4089
1655.95418,1121.76525
1657.50852,1121.76525
1657.50852,1120.4089
1659.06286,1120.4089
1660.61719,1119.05255
1660.61719,1120.4089
1662.17153,1119.05255
1663.72587,1119.05255
1665.28021,1116.33986
1665.28021,1114.98351
1665.28021,1117.6962
1665.28021,1113.62716
1665.28021,1110.91446
1665.28021,1109.55812
1665.28021,1112.27081
1666.83455,1109.55812
1668.38889,1109.55812
1669.94323,1108.20177
1671.49757,1109.55812
1673.0519,1108.20177
1674.60624,1106.84542
1676.16058,1106.84542
1677.71492,1108.20177
1679.26926,1106.84542
1680.8236,1106.84542
1682.37794,1108.20177
1683.93228,1109.55812
1685.48661,1110.91446
1687.04095,1112.27081
1688.59529,1110.91446
1690.14963,1109.55812
1691.70397,1108.20177
1693.25831,1106.84542
1694.81265,1105.48907
1696.36699,1105.48907
1697.92133,1105.48907
1699.47566,1106.84542
1701.03,1108.20177
1702.58434,1109.55812
1704.13868,1110.91446
1705.69302,1110.91446
1707.24736,1109.55812
1708.8017,1108.20177
1710.35604,1106.84542
1711.91037,1106.84542
1713.46471,1106.84542
1715.01905,1105.48907
1716.57339,1105.48907
1718.12773,1105.48907
1719.68207,1104.13273
1721.23641,1104.13273
1722.79075,1104.13273
1724.34508,1105.48907
1725.89942,1106.84542
1727.45376,1105.48907
1729.0081,1104.13273
1730.56244,1102.77638
1732.11678,1101.42003
1733.67112,1102.77638
1735.22546,1104.13273
1736.77979,1105.48907
1738.33413,1106.84542
1739.88847,1108.20177
1741.44281,1109.55812
1742.99715,1109.55812
1744.55149,1109.55812
1746.10583,1109.55812
1747.66017,1108.20177
1749.2145,1106.84542
1749.2145,1105.48907
1749.2145,1108.20177
1750.76884,1105.48907
1752.32318,1104.13273
1752.32318,1105.48907
1752.32318,1101.42003
1752.32318,1100.06368
1752.32318,1098.70733
1752.32318,1102.77638
1753.87752,1097.35099
1755.43186,1098.70733
1756.9862,1100.06368
1758.54054,1101.42003
1760.09488,1100.06368
1761.64922,1098.70733
1763.20355,1097.35099
1764.75789,1097.35099
1766.31223,1098.70733
1767.86657,1100.06368
1767.86657,1098.70733
1769.42091,1100.06368
1770.97525,1100.06368
1772.52959,1102.77638
1772.52959,1104.13273
1772.52959,1105.48907
1772.52959,1106.84542
1772.52959,1108.20177
1772.52959,1101.42003
1774.08393,1106.84542
1775.63826,1106.84542
1777.1926,1108.20177
1778.74694,1109.55812
1780.30128,1109.55812
1781.85562,1109.55812
1783.40996,1109.55812
1784.9643,1108.20177
1786.51864,1108.20177
1788.07297,1108.20177
1789.62731,1106.84542
1791.18165,1106.84542
1792.73599,1105.48907
1794.29033,1104.13273
1795.84467,1102.77638
1797.39901,1101.42003
1798.95335,1100.06368
1800.50768,1100.06368
1802.06202,1101.42003
1803.61636,1101.42003
1803.61636,1102.77638
1805.1707,1102.77638
1806.72504,1110.91446
1806.72504,1104.13273
1806.72504,1105.48907
1806.72504,1106.84542
1806.72504,1108.20177
1806.72504,1109.55812
1806.72504,1112.27081
1808.27938,1112.27081
1809.83372,1112.27081
1811.38806,1113.62716
1812.9424,1113.62716
1814.49673,1113.62716
1816.05107,1113.62716
1817.60541,1110.91446
1817.60541,1112.27081
1819.15975,1110.91446
1820.71409,1109.55812
1820.71409,1110.91446
1822.26843,1109.55812
1823.82277,1109.55812
1823.82277,1108.20177
1825.37711,1108.20177
1825.37711,1106.84542
1826.93144,1106.84542
1828.48578,1106.84542
1828.48578,1105.48907
1830.04012,1104.13273
1830.04012,1105.48907
1831.59446,1104.13273
1833.1488,1104.13273
1834.70314,1101.42003
1834.70314,1102.77638
1836.25748,1101.42003
1837.81182,1101.42003
1839.36615,1097.35099
1839.36615,1100.06368
1839.36615,1098.70733
1840.92049,1098.70733
1842.47483,1097.35099
1844.02917,1095.99464
1845.58351,1094.63829
1847.13785,1093.28194
1848.69219,1093.28194
1850.24653,1093.28194
1851.80086,1094.63829
1853.3552,1094.63829
1854.90954,1094.63829
1856.46388,1095.99464
1856.46388,1100.06368
1856.46388,1097.35099
1856.46388,1098.70733
1856.46388,1102.77638
1856.46388,1101.42003
1858.01822,1102.77638
1859.57256,1101.42003
1861.1269,1100.06368
1862.68124,1101.42003
1864.23557,1102.77638
1865.78991,1104.13273
1867.34425,1104.13273
1868.89859,1102.77638
1870.45293,1102.77638
1870.45293,1101.42003
1872.00727,1101.42003
1873.56161,1101.42003
1875.11595,1100.06368
1875.11595,1098.70733
1876.67029,1098.70733
1878.22462,1097.35099
1878.22462,1098.70733
1879.77896,1097.35099
1881.3333,1090.56925
1881.3333,1097.35099
1881.3333,1095.99464
1881.3333,1094.63829
1881.3333,1093.28194
1881.3333,1091.9256
1882.88764,1089.2129
1884.44198,1089.2129
1885.99632,1090.56925
1887.55066,1091.9256
1889.105,1093.28194
1890.65933,1094.63829
1892.21367,1094.63829
1893.76801,1093.28194
1895.32235,1091.9256
1896.87669,1090.56925
1898.43103,1095.99464
1898.43103,1090.56925
1898.43103,1091.9256
1898.43103,1093.28194
1898.43103,1094.63829
1899.98537,1097.35099
1901.53971,1098.70733
1903.09404,1098.70733
1904.64838,1097.35099
1906.20272,1098.70733
1907.75706,1097.35099
1909.3114,1095.99464
1910.86574,1094.63829
1912.42008,1093.28194
1913.97442,1094.63829
1913.97442,1093.28194
1915.52875,1094.63829
1917.08309,1094.63829
1918.63743,1102.77638
1918.63743,1095.99464
1918.63743,1097.35099
1918.63743,1098.70733
1918.63743,1100.06368
1918.63743,1101.42003
1920.19177,1102.77638
1921.74611,1101.42003
1923.30045,1100.06368
1924.85479,1098.70733
1926.40913,1098.70733
1927.96346,1098.70733
1929.5178,1097.35099
1931.07214,1098.70733
1932.62648,1100.06368
1934.18082,1101.42003
1934.18082,1102.77638
1934.18082,1104.13273
1934.18082,1105.48907
1935.73516,1105.48907
1937.2895,1105.48907
1938.84384,1106.84542
1940.39818,1106.84542
1941.95251,1105.48907
1943.50685,1104.13273
1945.06119,1102.77638
1946.61553,1102.77638
1948.16987,1102.77638
1949.72421,1104.13273
1951.27855,1104.13273
1952.83289,1105.48907
1954.38722,1105.48907
1955.94156,1106.84542
1957.4959,1105.48907
1959.05024,1106.84542
1960.60458,1105.48907
1962.15892,1104.13273
1963.71326,1102.77638
1965.2676,1101.42003
1966.82193,1100.06368
1968.37627,1100.06368
1969.93061,1101.42003
1971.48495,1102.77638
1971.48495,1104.13273
1971.48495,1105.48907
1971.48495,1106.84542
1971.48495,1108.20177
1973.03929,1108.20177
1974.59363,1109.55812
1976.14797,1109.55812
1977.70231,1108.20177
1979.25664,1106.84542
1980.81098,1105.48907
1982.36532,1106.84542
1983.91966,1108.20177
1985.474,1109.55812
1987.02834,1109.55812
1988.58268,1109.55812
1990.13702,1108.20177
1990.13702,1106.84542
1990.13702,1105.48907
1990.13702,1104.13273
1990.13702,1102.77638
1990.13702,1101.42003
1990.13702,1100.06368
1991.69136,1098.70733
1993.24569,1097.35099
1994.80003,1097.35099
1996.35437,1097.35099
1996.35437,1095.99464
1997.90871,1095.99464
1999.46305,1097.35099
2001.01739,1098.70733
2002.57173,1097.35099
2004.12607,1095.99464
2005.6804,1094.63829
2007.23474,1095.99464
2008.78908,1097.35099
2008.78908,1098.70733
2008.78908,1100.06368
2008.78908,1101.42003
2008.78908,1102.77638
2010.34342,1102.77638
2011.89776,1104.13273
2013.4521,1104.13273
2015.00644,1104.13273
2015.00644,1105.48907
2016.56078,1105.48907
2018.11511,1105.48907
2018.11511,1106.84542
2019.66945,1106.84542
2021.22379,1105.48907
2022.77813,1104.13273
2024.33247,1102.77638
2025.88681,1102.77638
2027.44115,1104.13273
2028.99549,1105.48907
2030.54982,1106.84542
2032.10416,1106.84542
2033.6585,1106.84542
2035.21284,1106.84542
2035.21284,1105.48907
2035.21284,1104.13273
2035.21284,1102.77638
2035.21284,1101.42003
2035.21284,1100.06368
2035.21284,1098.70733
2036.76718,1098.70733
2036.76718,1097.35099
2038.32152,1095.99464
2039.87586,1094.63829
2041.4302,1094.63829
2042.98453,1094.63829
2042.98453,1093.28194
2044.53887,1093.28194
2046.09321,1094.63829
2047.64755,1095.99464
2049.20189,1097.35099
2050.75623,1098.70733
2052.31057,1098.70733
2053.86491,1097.35099
2055.41925,1095.99464
2056.97358,1094.63829
2058.52792,1093.28194
2060.08226,1093.28194
2061.6366,1093.28194
2063.19094,1097.35099
2063.19094,1095.99464
2063.19094,1098.70733
2063.19094,1094.63829
2063.19094,1101.42003
2063.19094,1102.77638
2063.19094,1104.13273
2063.19094,1100.06368
2064.74528,1105.48907
2066.29962,1105.48907
2066.29962,1106.84542
2067.85396,1108.20177
2069.40829,1108.20177
2070.96263,1108.20177
2072.51697,1108.20177
2074.07131,1106.84542
2075.62565,1105.48907
2077.17999,1106.84542
2078.73433,1105.48907
2080.28867,1104.13273
2081.843,1106.84542
2081.843,1105.48907
2081.843,1109.55812
2081.843,1108.20177
2081.843,1112.27081
2081.843,1113.62716
2081.843,1110.91446
2083.39734,1113.62716
2084.95168,1114.98351
2084.95168,1113.62716
2086.50602,1116.33986
2088.06036,1116.33986
2089.6147,1116.33986
2091.16904,1114.98351
2092.72338,1113.62716
2094.27771,1112.27081
2095.83205,1110.91446
2097.38639,1109.55812
2098.94073,1109.55812
2100.49507,1110.91446
2102.04941,1112.27081
2103.60375,1113.62716
2105.15809,1114.98351
2106.71243,1113.62716
2108.26676,1113.62716
2109.8211,1113.62716
2111.37544,1112.27081
2112.92978,1110.91446
2114.48412,1109.55812
2116.03846,1108.20177
2117.5928,1108.20177
2119.14714,1112.27081
2119.14714,1108.20177
2119.14714,1109.55812
2119.14714,1110.91446
2119.14714,1114.98351
2119.14714,1113.62716
2120.70147,1116.33986
2122.25581,1116.33986
2122.25581,1117.6962
2123.81015,1117.6962
2125.36449,1119.05255
2126.91883,1119.05255
2128.47317,1119.05255
2130.02751,1117.6962
2131.58185,1116.33986
2133.13618,1114.98351
2134.69052,1114.98351
2136.24486,1113.62716
2136.24486,1114.98351
2136.24486,1110.91446
2136.24486,1112.27081
2137.7992,1112.27081
2139.35354,1113.62716
2140.90788,1114.98351
2142.46222,1114.98351
2144.01656,1113.62716
2145.57089,1113.62716
2147.12523,1113.62716
2148.67957,1113.62716
2150.23391,1112.27081
2151.78825,1110.91446
2153.34259,1109.55812
2154.89693,1108.20177
2156.45127,1108.20177
2158.0056,1108.20177
2159.55994,1108.20177
2161.11428,1109.55812
2162.66862,1108.20177
2164.22296,1108.20177
2165.7773,1108.20177
2167.33164,1108.20177
2168.88598,1108.20177
2170.44032,1109.55812
2171.99465,1109.55812
2173.54899,1109.55812
2175.10333,1109.55812
2176.65767,1117.6962
2176.65767,1116.33986
2176.65767,1119.05255
2176.65767,1110.91446
2176.65767,1112.27081
2176.65767,1113.62716
2176.65767,1114.98351
2178.21201,1120.4089
2179.76635,1121.76525
2179.76635,1120.4089
2181.32069,1121.76525
2182.87503,1121.76525
2184.42936,1121.76525
2185.9837,1121.76525
2187.53804,1125.83429
2187.53804,1124.47794
2187.53804,1127.19064
2187.53804,1123.12159
2189.09238,1129.90333
2189.09238,1128.54699
2189.09238,1127.19064
2190.64672,1129.90333
2192.20106,1129.90333
2193.7554,1129.90333
2195.30974,1129.90333
2196.86407,1129.90333
2198.41841,1138.04142
2198.41841,1136.68507
2198.41841,1140.75412
2198.41841,1139.39777
2198.41841,1129.90333
2198.41841,1131.25968
2198.41841,1132.61603
2198.41841,1133.97238
2198.41841,1135.32872
2199.97275,1140.75412
2201.52709,1140.75412
2203.08143,1139.39777
2204.63577,1138.04142
2206.19011,1139.39777
2207.74445,1140.75412
2209.29878,1140.75412
2210.85312,1133.97238
2210.85312,1135.32872
2210.85312,1132.61603
2210.85312,1131.25968
2210.85312,1136.68507
2210.85312,1139.39777
2210.85312,1138.04142
2212.40746,1131.25968
2212.40746,1129.90333
2212.40746,1128.54699
2213.9618,1127.19064
2213.9618,1125.83429
2215.51614,1125.83429
2217.07048,1125.83429
2218.62482,1125.83429
2218.62482,1124.47794
2220.17916,1124.47794
2221.7335,1124.47794
2223.28783,1124.47794
2224.84217,1123.12159
2224.84217,1124.47794
2224.84217,1121.76525
2224.84217,1116.33986
2224.84217,1114.98351
2224.84217,1117.6962
2224.84217,1119.05255
2224.84217,1120.4089
2226.39651,1114.98351
2227.95085,1113.62716
2229.50519,1113.62716
2231.05953,1114.98351
2232.61387,1116.33986
2234.16821,1114.98351
2235.72254,1113.62716
2237.27688,1113.62716
2238.83122,1119.05255
2238.83122,1117.6962
2238.83122,1116.33986
2238.83122,1114.98351
2238.83122,1120.4089
2238.83122,1121.76525
2238.83122,1123.12159
2240.38556,1123.12159
2241.9399,1123.12159
2243.49424,1124.47794
2245.04858,1128.54699
2245.04858,1127.19064
2245.04858,1125.83429
2246.60292,1131.25968
2246.60292,1129.90333
2282.35271,1132.61603
2282.35271,1131.25968
2283.90705,1127.19064
2283.90705,1128.54699
2283.90705,1129.90333
2285.46139,1127.19064
2287.01572,1125.83429
2288.57006,1125.83429
2290.1244,1120.4089
2290.1244,1124.47794
2290.1244,1125.83429
2290.1244,1121.76525
2290.1244,1123.12159
2291.67874,1119.05255
2293.23308,1117.6962
2294.78742,1117.6962
2296.34176,1117.6962
2297.8961,1117.6962
2299.45043,1120.4089
2299.45043,1119.05255
2301.00477,1121.76525
2301.00477,1120.4089
2302.55911,1125.83429
2302.55911,1121.76525
2302.55911,1123.12159
2302.55911,1124.47794
2302.55911,1127.19064
2302.55911,1128.54699
2302.55911,1129.90333
2302.55911,1131.25968
2304.11345,1131.25968
2304.11345,1132.61603
2304.11345,1133.97238
2305.66779,1133.97238
2305.66779,1135.32872
2307.22213,1135.32872
2308.77647,1135.32872
2310.33081,1135.32872
2311.88514,1135.32872
2311.88514,1150.24855
2313.43948,1136.68507
2313.43948,1140.75412
2313.43948,1135.32872
2313.43948,1147.53585
2313.43948,1148.8922
2313.43948,1146.17951
2313.43948,1151.6049
2313.43948,1152.96124
2313.43948,1154.31759
2313.43948,1157.03029
2314.99382,1139.39777
2314.99382,1142.11046
2314.99382,1138.04142
2314.99382,1144.82316
2314.99382,1155.67394
2314.99382,1158.38664
2316.54816,1159.74298
2316.54816,1161.09933
2316.54816,1162.45568
2316.54816,1163.81203
2316.54816,1165.16837
2316.54816,1143.46681
2318.1025,1165.16837
2319.65684,1165.16837
2321.21118,1165.16837
2321.21118,1166.52472
2321.21118,1169.23742
2321.21118,1167.88107
2322.76552,1171.95011
2322.76552,1170.59377
2324.31985,1171.95011
2325.87419,1174.66281
2325.87419,1171.95011
2325.87419,1173.30646
2327.42853,1174.66281
2327.42853,1177.3755
2327.42853,1176.01916
2328.98287,1177.3755
2328.98287,1178.73185
2328.98287,1180.0882
2328.98287,1185.51359
2328.98287,1182.8009
2328.98287,1184.15724
2328.98287,1186.86994
2328.98287,1181.44455
2330.53721,1188.22629
2330.53721,1177.3755
2332.09155,1190.93898
2332.09155,1192.29533
2332.09155,1193.65168
2332.09155,1195.00803
2332.09155,1196.36437
2332.09155,1189.58263
2333.64589,1197.72072
2355.95111,1159.43028
2384.80054,1128.86438
2431.16569,1124.36939
2482.68252,1128.86438
2529.04767,1128.86438
2580.56451,1118.97541
2616.53555,1144.82316
2616.53555,1143.46681
2618.08988,1142.11046
2619.64422,1142.11046
2619.64422,1140.75412
2621.19856,1140.75412
2622.7529,1140.75412
2624.30724,1139.39777
2624.30724,1140.75412
2625.86158,1138.04142
2625.86158,1139.39777
2627.41592,1136.68507
2628.97026,1136.68507
2630.5246,1136.68507
2632.07893,1135.32872
2633.63327,1133.97238
2633.63327,1132.61603
2635.18761,1132.61603
2636.74195,1131.25968
2638.29629,1129.90333
2638.29629,1128.54699
2639.85063,1128.54699
2639.85063,1127.19064
2641.40497,1127.19064
2641.40497,1125.83429
2641.40497,1124.47794
2642.95931,1124.47794
2644.51364,1124.47794
2646.06798,1124.47794
2646.06798,1123.12159
2647.62232,1123.12159
2647.62232,1121.76525
2649.17666,1121.76525
2649.17666,1120.4089
2650.731,1120.4089
2652.28534,1119.05255
2652.28534,1117.6962
2653.83968,1117.6962
2655.39402,1117.6962
2656.94835,1114.98351
2656.94835,1116.33986
2658.50269,1113.62716
2658.50269,1114.98351
2660.05703,1112.27081
2660.05703,1113.62716
2660.05703,1109.55812
2660.05703,1110.91446
2661.61137,1108.20177
2663.16571,1106.84542
2664.72005,1108.20177
2666.27439,1109.55812
2667.82873,1110.91446
2669.38306,1112.27081
2670.9374,1112.27081
2672.49174,1110.91446
2674.04608,1112.27081
2675.60042,1113.62716
2677.15476,1114.98351
2678.7091,1113.62716
2680.26344,1112.27081
2681.81778,1110.91446
2683.37211,1109.55812
2684.92645,1108.20177
2686.48079,1108.20177
2688.03513,1108.20177
2689.58947,1108.20177
2691.14381,1109.55812
2692.69815,1108.20177
2694.25249,1108.20177
2695.80682,1109.55812
2697.36116,1110.91446
2698.9155,1112.27081
2700.46984,1113.62716
2702.02418,1113.62716
2703.57852,1113.62716
2705.13286,1112.27081
2706.6872,1110.91446
2706.6872,1112.27081
2708.24153,1109.55812
2708.24153,1110.91446
2709.79587,1109.55812
2711.35021,1101.42003
2711.35021,1108.20177
2711.35021,1106.84542
2711.35021,1105.48907
2711.35021,1104.13273
2711.35021,1102.77638
2712.90455,1100.06368
2714.45889,1101.42003
2716.01323,1102.77638
2717.56757,1104.13273
2719.12191,1105.48907
2720.67624,1106.84542
2722.23058,1108.20177
2723.78492,1108.20177
2725.33926,1108.20177
2726.8936,1106.84542
2728.44794,1105.48907
2730.00228,1104.13273
2731.55662,1105.48907
2733.11095,1106.84542
2734.66529,1108.20177
2736.21963,1105.48907
2736.21963,1108.20177
2736.21963,1106.84542
2736.21963,1100.06368
2736.21963,1104.13273
2736.21963,1102.77638
2736.21963,1101.42003
2737.77397,1100.06368
2739.32831,1100.06368
2739.32831,1098.70733
2740.88265,1097.35099
2740.88265,1098.70733
2742.43699,1097.35099
2742.43699,1095.99464
2743.99133,1094.63829
2743.99133,1095.99464
2745.54567,1093.28194
2747.1,1093.28194
2748.65434,1091.9256
2750.20868,1091.9256
2751.76302,1093.28194
2753.31736,1094.63829
2754.8717,1093.28194
2756.42604,1093.28194
2757.98038,1094.63829
2759.53471,1094.63829
2761.08905,1093.28194
2762.64339,1091.9256
2764.19773,1089.2129
2764.19773,1090.56925
2765.75207,1089.2129
2767.30641,1087.85655
2767.30641,1089.2129
2768.86075,1087.85655
2770.41509,1086.50021
2771.96942,1086.50021
2773.52376,1086.50021
2775.0781,1086.50021
2776.63244,1094.63829
2776.63244,1087.85655
2776.63244,1089.2129
2776.63244,1090.56925
2776.63244,1091.9256
2776.63244,1093.28194
2778.18678,1097.35099
2778.18678,1094.63829
2778.18678,1095.99464
2779.74112,1098.70733
2779.74112,1097.35099
2781.29546,1100.06368
2782.8498,1100.06368
2784.40413,1100.06368
2785.95847,1100.06368
2787.51281,1100.06368
2789.06715,1109.55812
2789.06715,1100.06368
2789.06715,1101.42003
2789.06715,1102.77638
2789.06715,1104.13273
2789.06715,1105.48907
2789.06715,1106.84542
2789.06715,1108.20177
2790.62149,1109.55812
2792.17583,1110.91446
2793.73017,1110.91446
2795.28451,1109.55812
2796.83885,1108.20177
2798.39318,1106.84542
2799.94752,1108.20177
2801.50186,1109.55812
2803.0562,1110.91446
2804.61054,1110.91446
2804.61054,1109.55812
2804.61054,1108.20177
2804.61054,1106.84542
2804.61054,1105.48907
2804.61054,1104.13273
2806.16488,1102.77638
2807.71922,1102.77638
2809.27356,1102.77638
2809.27356,1101.42003
2810.82789,1101.42003
2812.38223,1102.77638
2813.93657,1104.13273
2815.49091,1105.48907
2817.04525,1106.84542
2818.59959,1106.84542
2820.15393,1106.84542
2821.70827,1106.84542
2823.2626,1106.84542
2824.81694,1106.84542
2826.37128,1106.84542
2827.92562,1105.48907
2829.47996,1105.48907
2831.0343,1104.13273
2831.0343,1101.42003
2831.0343,1100.06368
2831.0343,1098.70733
2831.0343,1097.35099
2831.0343,1095.99464
2831.0343,1102.77638
2832.58864,1095.99464
2834.14298,1095.99464
2835.69731,1094.63829
2835.69731,1091.9256
2835.69731,1093.28194
2837.25165,1091.9256
2838.80599,1091.9256
2840.36033,1087.85655
2840.36033,1091.9256
2840.36033,1090.56925
2840.36033,1089.2129
2841.91467,1087.85655
2843.46901,1087.85655
2843.46901,1086.50021
2845.02335,1086.50021
2846.57769,1086.50021
2848.13202,1087.85655
2849.68636,1086.50021
2851.2407,1085.14386
2852.79504,1085.14386
2854.34938,1085.14386
2855.90372,1085.14386
2855.90372,1086.50021
2855.90372,1087.85655
2855.90372,1089.2129
2855.90372,1090.56925
2855.90372,1091.9256
2855.90372,1093.28194
2857.45806,1093.28194
2857.45806,1094.63829
2857.45806,1095.99464
2859.0124,1097.35099
2860.56674,1097.35099
2860.56674,1098.70733
2862.12107,1100.06368
2863.67541,1100.06368
2865.22975,1100.06368
2866.78409,1098.70733
2868.33843,1097.35099
2869.89277,1095.99464
2871.44711,1095.99464
2873.00145,1095.99464
2874.55578,1097.35099
2876.11012,1095.99464
2877.66446,1095.99464
2879.2188,1097.35099
2880.77314,1097.35099
2882.32748,1097.35099
2883.88182,1098.70733
2885.43616,1100.06368
2886.99049,1100.06368
2888.54483,1098.70733
2890.09917,1097.35099
2891.65351,1098.70733
2893.20785,1100.06368
2893.20785,1098.70733
2893.20785,1101.42003
2894.76219,1101.42003
2896.31653,1102.77638
2896.31653,1104.13273
2896.31653,1105.48907
2897.87087,1106.84542
2899.4252,1106.84542
2900.97954,1105.48907
2902.53388,1106.84542
2904.08822,1105.48907
2905.64256,1104.13273
2907.1969,1102.77638
2908.75124,1101.42003
2910.30558,1100.06368
2911.85992,1100.06368
2913.41425,1101.42003
2914.96859,1102.77638
2916.52293,1104.13273
2918.07727,1102.77638
2919.63161,1101.42003
2921.18595,1098.70733
2921.18595,1100.06368
2921.18595,1101.42003
2922.74029,1098.70733
2922.74029,1097.35099
2924.29463,1095.99464
2924.29463,1097.35099
2925.84896,1095.99464
2925.84896,1094.63829
2927.4033,1093.28194
2927.4033,1094.63829
2928.95764,1091.9256
2930.51198,1091.9256
2932.06632,1090.56925
2932.06632,1091.9256
2933.62066,1086.50021
2933.62066,1085.14386
2933.62066,1087.85655
2933.62066,1090.56925
2933.62066,1089.2129
2933.62066,1083.78751
2935.175,1082.43116
2935.175,1083.78751
2936.72934,1081.07481
2938.28367,1079.71847
2939.83801,1079.71847
2941.39235,1079.71847
2941.39235,1078.36212
2942.94669,1075.64942
2942.94669,1077.00577
2988.57784,1093.80349
2999.91154,1109.08644
3005.06322,1093.80349
3051.42838,1078.52054
3089.05454,1072.93673
3089.05454,1074.29308
3090.60888,1075.64942
3092.16321,1075.64942
3093.71755,1075.64942
3095.27189,1077.00577
3096.82623,1077.00577
3098.38057,1081.07481
3098.38057,1078.36212
3098.38057,1079.71847
3099.93491,1082.43116
3099.93491,1081.07481
3099.93491,1086.50021
3099.93491,1087.85655
3099.93491,1089.2129
3099.93491,1090.56925
3099.93491,1091.9256
3099.93491,1093.28194
3099.93491,1085.14386
3099.93491,1083.78751
3101.48925,1094.63829
3101.48925,1093.28194
3103.04359,1094.63829
3103.04359,1097.35099
3103.04359,1095.99464
3104.59792,1097.35099
3104.59792,1100.06368
3104.59792,1098.70733
3106.15226,1100.06368
3107.7066,1100.06368
3109.26094,1100.06368
3110.81528,1100.06368
3112.36962,1100.06368
3113.92396,1100.06368
3115.4783,1101.42003
3115.4783,1102.77638
3115.4783,1106.84542
3115.4783,1105.48907
3115.4783,1104.13273
3115.4783,1100.06368
3117.03263,1108.20177
3118.58697,1108.20177
3120.14131,1108.20177
3121.69565,1108.20177
3123.24999,1109.55812
3124.80433,1109.55812
3126.35867,1109.55812
3127.91301,1108.20177
3129.46734,1108.20177
3131.02168,1108.20177
3132.57602,1106.84542
3134.13036,1106.84542
3135.6847,1106.84542
3137.23904,1106.84542
3138.79338,1106.84542
3140.34772,1105.48907
3141.90206,1105.48907
3143.45639,1105.48907
3145.01073,1105.48907
3146.56507,1105.48907
3146.56507,1109.55812
3146.56507,1110.91446
3146.56507,1108.20177
3146.56507,1106.84542
3146.56507,1112.27081
3148.11941,1113.62716
3148.11941,1112.27081
3148.11941,1114.98351
3149.67375,1116.33986
3149.67375,1114.98351
3151.22809,1116.33986
3152.78243,1116.33986
3154.33677,1117.6962
3155.8911,1119.05255
3157.44544,1120.4089
3157.44544,1119.05255
3158.99978,1123.12159
3158.99978,1121.76525
3223.4946,1138.75334
3241.37974,1109.55812
3241.37974,1108.20177
3242.93408,1109.55812
3244.48841,1109.55812
3246.04275,1109.55812
3247.59709,1109.55812
3249.15143,1110.91446
3250.70577,1110.91446
3252.26011,1110.91446
3252.26011,1112.27081
3253.81445,1112.27081
3253.81445,1113.62716
3255.36879,1113.62716
3255.36879,1114.98351
3255.36879,1116.33986
3256.92313,1116.33986
3256.92313,1120.4089
3258.47746,1119.05255
3258.47746,1117.6962
3258.47746,1121.76525
3260.0318,1123.12159
3260.0318,1124.47794
3260.0318,1125.83429
3260.0318,1127.19064
3261.58614,1128.54699
3263.14048,1129.90333
3263.14048,1131.25968
3263.14048,1132.61603
3264.69482,1133.97238
3264.69482,1135.32872
3264.69482,1136.68507
3264.69482,1138.04142
3264.69482,1139.39777
3264.69482,1155.67394
3264.69482,1154.31759
3264.69482,1152.96124
3264.69482,1151.6049
3264.69482,1150.24855
3264.69482,1147.53585
3264.69482,1148.8922
3266.24916,1146.17951
3266.24916,1144.82316
3266.24916,1143.46681
3266.24916,1142.11046
3266.24916,1157.03029
3266.24916,1140.75412
3267.8035,1161.09933
3267.8035,1158.38664
3269.35784,1159.74298
3328.42271,1123.12159
3328.42271,1119.05255
3328.42271,1120.4089
3329.97705,1121.76525
3329.97705,1124.47794
3329.97705,1123.12159
3331.53139,1124.47794
3333.08573,1124.47794
3334.64006,1124.47794
3334.64006,1125.83429
3336.1944,1127.19064
3336.1944,1128.54699
3336.1944,1129.90333
3337.74874,1129.90333
3337.74874,1131.25968
3337.74874,1133.97238
3337.74874,1132.61603
3339.30308,1133.97238
3340.85742,1136.68507
3340.85742,1135.32872
3340.85742,1138.04142
3340.85742,1133.97238
3340.85742,1139.39777
3340.85742,1140.75412
3342.41176,1140.75412
3342.41176,1142.11046
3343.9661,1142.11046
3345.52044,1142.11046
3345.52044,1143.46681
3347.07477,1143.46681
3348.62911,1143.46681
3350.18345,1143.46681
3351.73779,1143.46681
3353.29213,1143.46681
3354.84647,1136.68507
3354.84647,1135.32872
3354.84647,1140.75412
3354.84647,1138.04142
3354.84647,1139.39777
3354.84647,1132.61603
3354.84647,1142.11046
3354.84647,1133.97238
3356.40081,1131.25968
3356.40081,1132.61603
3357.95515,1131.25968
3359.50948,1131.25968
3361.06382,1131.25968
3362.61816,1131.25968
3364.1725,1131.25968
3364.1725,1129.90333
3364.1725,1125.83429
3364.1725,1128.54699
3364.1725,1127.19064
3364.1725,1123.12159
3364.1725,1124.47794
3365.72684,1123.12159
3367.28118,1123.12159
3367.28118,1121.76525
3368.83552,1121.76525
3370.38986,1121.76525
3371.9442,1123.12159
3373.49853,1121.76525
3375.05287,1120.4089
3376.60721,1120.4089
3378.16155,1120.4089
3379.71589,1124.47794
3379.71589,1131.25968
3379.71589,1129.90333
3379.71589,1120.4089
3379.71589,1121.76525
3379.71589,1128.54699
3379.71589,1127.19064
3379.71589,1125.83429
3379.71589,1123.12159
3381.27023,1132.61603
3382.82457,1133.97238
3382.82457,1132.61603
3384.37891,1135.32872
3384.37891,1133.97238
3385.93324,1135.32872
3385.93324,1136.68507
3387.48758,1136.68507
3389.04192,1138.04142
3390.59626,1138.04142
3392.1506,1138.04142
3393.70494,1138.04142
3395.25928,1132.61603
3395.25928,1129.90333
3395.25928,1131.25968
3395.25928,1135.32872
3395.25928,1133.97238
3395.25928,1136.68507
3396.81362,1125.83429
3396.81362,1129.90333
3396.81362,1128.54699
3396.81362,1127.19064
3398.36795,1125.83429
3399.92229,1125.83429
3401.47663,1125.83429
3401.47663,1123.12159
3401.47663,1124.47794
3403.03097,1123.12159
3404.58531,1123.12159
3406.13965,1123.12159
3407.69399,1120.4089
3407.69399,1121.76525
3407.69399,1123.12159
3409.24833,1116.33986
3409.24833,1110.91446
3409.24833,1112.27081
3409.24833,1113.62716
3409.24833,1114.98351
3409.24833,1117.6962
3409.24833,1120.4089
3409.24833,1119.05255
3410.80266,1109.55812
3410.80266,1110.91446
3412.357,1108.20177
3413.91134,1108.20177
3415.46568,1109.55812
3417.02002,1110.91446
3418.57436,1109.55812
3420.1287,1108.20177
3421.68304,1109.55812
3423.23737,1110.91446
3424.79171,1112.27081
3426.34605,1113.62716
3427.90039,1114.98351
3429.45473,1110.91446
3429.45473,1108.20177
3429.45473,1106.84542
3429.45473,1113.62716
3429.45473,1109.55812
3429.45473,1112.27081
3431.00907,1105.48907
3431.00907,1106.84542
3432.56341,1105.48907
3432.56341,1102.77638
3432.56341,1104.13273
3432.56341,1101.42003
3434.11775,1100.06368
3435.67209,1095.99464
3435.67209,1097.35099
3435.67209,1098.70733
3435.67209,1100.06368
3437.22642,1095.99464
3437.22642,1094.63829
3437.22642,1097.35099
3438.78076,1098.70733
3440.3351,1098.70733
3441.88944,1098.70733
3443.44378,1098.70733
3444.99812,1100.06368
3444.99812,1098.70733
3446.55246,1101.42003
3446.55246,1100.06368
3448.1068,1104.13273
3448.1068,1102.77638
3448.1068,1101.42003
3448.1068,1105.48907
3448.1068,1106.84542
3448.1068,1108.20177
3449.66113,1109.55812
3451.21547,1109.55812
3452.76981,1109.55812
3454.32415,1109.55812
3455.87849,1109.55812
3457.43283,1109.55812
3457.43283,1110.91446
3458.98717,1110.91446
3458.98717,1112.27081
3460.54151,1112.27081
3460.54151,1113.62716
3460.54151,1120.4089
3460.54151,1116.33986
3460.54151,1114.98351
3460.54151,1117.6962
3460.54151,1119.05255
3462.09584,1120.4089
3463.65018,1121.76525
3465.20452,1120.4089
3466.75886,1120.4089
3468.3132,1119.05255
3469.86754,1117.6962
3471.42188,1117.6962
3472.97622,1117.6962
3474.53055,1117.6962
3476.08489,1119.05255
3476.08489,1121.76525
3476.08489,1123.12159
3476.08489,1124.47794
3476.08489,1120.4089
3477.63923,1125.83429
3479.19357,1127.19064
3480.74791,1127.19064
3482.30225,1127.19064
3483.85659,1127.19064
3485.41093,1125.83429
3486.96527,1124.47794
3486.96527,1125.83429
3488.5196,1124.47794
3490.07394,1124.47794
3491.62828,1123.12159
3493.18262,1120.4089
3493.18262,1121.76525
3493.18262,1117.6962
3493.18262,1119.05255
3494.73696,1116.33986
3496.2913,1114.98351
3497.84564,1114.98351
3499.39998,1116.33986
3500.95431,1114.98351
3502.50865,1116.33986
3504.06299,1117.6962
3505.61733,1117.6962
3507.17167,1117.6962
3508.72601,1119.05255
3510.28035,1120.4089
3511.83469,1117.6962
3511.83469,1119.05255
3511.83469,1121.76525
3511.83469,1116.33986
3511.83469,1114.98351
3511.83469,1113.62716
3511.83469,1112.27081
3511.83469,1120.4089
3513.38902,1110.91446
3513.38902,1112.27081
3514.94336,1109.55812
3514.94336,1110.91446
3514.94336,1106.84542
3514.94336,1105.48907
3516.4977,1104.13273
3516.4977,1108.20177
3518.05204,1104.13273
3519.60638,1104.13273
3521.16072,1104.13273
3522.71506,1104.13273
3524.2694,1104.13273
3525.82373,1104.13273
3525.82373,1102.77638
3525.82373,1101.42003
3527.37807,1101.42003
3527.37807,1098.70733
3527.37807,1097.35099
3527.37807,1095.99464
3527.37807,1094.63829
3527.37807,1100.06368
3527.37807,1093.28194
3528.93241,1091.9256
3528.93241,1093.28194
3530.48675,1090.56925
3532.04109,1090.56925
3533.59543,1090.56925
3535.14977,1090.56925
3536.70411,1091.9256
3538.25844,1090.56925
3538.25844,1093.28194
3538.25844,1094.63829
3538.25844,1095.99464
3538.25844,1097.35099
3538.25844,1091.9256
3539.81278,1098.70733
3539.81278,1097.35099
3539.81278,1100.06368
3541.36712,1100.06368
3541.36712,1101.42003
3542.92146,1102.77638
3544.4758,1102.77638
3546.03014,1102.77638
3546.03014,1104.13273
3546.03014,1105.48907
3546.03014,1106.84542
3547.58448,1106.84542
3547.58448,1108.20177
3549.13882,1109.55812
3549.13882,1108.20177
3549.13882,1110.91446
3550.69316,1110.91446
3552.24749,1112.27081
3552.24749,1110.91446
3553.80183,1113.62716
3553.80183,1112.27081
3555.35617,1113.62716
3555.35617,1114.98351
3556.91051,1114.98351
3558.46485,1116.33986
3560.01919,1116.33986
3561.57353,1116.33986
3563.12787,1116.33986
3564.6822,1117.6962
3564.6822,1116.33986
3566.23654,1117.6962
3567.79088,1119.05255
3569.34522,1117.6962
3570.89956,1116.33986
3572.4539,1117.6962
3574.00824,1116.33986
3575.56258,1114.98351
3577.11691,1113.62716
3578.67125,1113.62716
3580.22559,1113.62716
3580.22559,1114.98351
3580.22559,1117.6962
3580.22559,1116.33986
3581.77993,1117.6962
3583.33427,1119.05255
3584.88861,1125.83429
3584.88861,1120.4089
3586.44295,1124.47794
3586.44295,1121.76525
3586.44295,1127.19064
3586.44295,1123.12159
3586.44295,1129.90333
3586.44295,1128.54699
3649.02365,1124.36939
3671.69106,1109.08644
3741.87683,1097.35099
3741.87683,1098.70733
3743.43116,1100.06368
3744.9855,1100.06368
3746.53984,1100.06368
3748.09418,1100.06368
3749.64852,1101.42003
3749.64852,1102.77638
3751.20286,1102.77638
3751.20286,1104.13273
3751.20286,1105.48907
3752.7572,1106.84542
3752.7572,1105.48907
3754.31154,1106.84542
3755.86587,1108.20177
3755.86587,1109.55812
3755.86587,1113.62716
3757.42021,1112.27081
3757.42021,1114.98351
3757.42021,1116.33986
3757.42021,1117.6962
3757.42021,1110.91446
3758.97455,1120.4089
3758.97455,1119.05255
3760.52889,1121.76525
3760.52889,1123.12159
3760.52889,1124.47794
3760.52889,1125.83429
3760.52889,1120.4089
3762.08323,1125.83429
3762.08323,1127.19064
3762.08323,1129.90333
3762.08323,1131.25968
3762.08323,1132.61603
3762.08323,1128.54699
3763.63757,1131.25968
3765.19191,1132.61603
3766.74625,1133.97238
3768.30058,1133.97238
3769.85492,1132.61603
3771.40926,1131.25968
3771.40926,1132.61603
3772.9636,1129.90333
3772.9636,1123.12159
3772.9636,1124.47794
3772.9636,1125.83429
3772.9636,1127.19064
3772.9636,1128.54699
3772.9636,1131.25968
3774.51794,1123.12159
3776.07228,1123.12159
3777.62662,1123.12159
3779.18096,1123.12159
3780.7353,1120.4089
3780.7353,1121.76525
3782.28963,1120.4089
3782.28963,1117.6962
3782.28963,1116.33986
3782.28963,1114.98351
3782.28963,1119.05255
3783.84397,1114.98351
3785.39831,1113.62716
3785.39831,1114.98351
3786.95265,1112.27081
3786.95265,1113.62716
3788.50699,1112.27081
3790.06133,1109.55812
3790.06133,1108.20177
3790.06133,1110.91446
3791.61567,1108.20177
3793.17001,1108.20177
3794.72434,1108.20177
3794.72434,1105.48907
3794.72434,1104.13273
3794.72434,1102.77638
3794.72434,1101.42003
3794.72434,1106.84542
3796.27868,1100.06368
3797.83302,1097.35099
3797.83302,1095.99464
3797.83302,1098.70733
3797.83302,1094.63829
3799.38736,1093.28194
3799.38736,1091.9256
3799.38736,1090.56925
3895.75637,1123.12159
3895.75637,1121.76525
3897.3107,1119.05255
3897.3107,1117.6962
3897.3107,1120.4089
3898.86504,1117.6962
3900.41938,1117.6962
3901.97372,1117.6962
3903.52806,1116.33986
3905.0824,1113.62716
3905.0824,1114.98351
3906.63674,1113.62716
3906.63674,1112.27081
3908.19108,1110.91446
3908.19108,1112.27081
3909.74541,1109.55812
3909.74541,1110.91446
3909.74541,1106.84542
3909.74541,1105.48907
3909.74541,1108.20177
3911.29975,1104.13273
3912.85409,1104.13273
3914.40843,1105.48907
3915.96277,1106.84542
3917.51711,1108.20177
3919.07145,1108.20177
3920.62579,1106.84542
3922.18012,1105.48907
3923.73446,1104.13273
3925.2888,1104.13273
3926.84314,1105.48907
3928.39748,1105.48907
3929.95182,1105.48907
3931.50616,1106.84542
3933.0605,1108.20177
3934.61483,1109.55812
3936.16917,1110.91446
3937.72351,1108.20177
3937.72351,1106.84542
3937.72351,1105.48907
3937.72351,1104.13273
3937.72351,1102.77638
3937.72351,1109.55812
3939.27785,1102.77638
3940.83219,1102.77638
3942.38653,1101.42003
3943.94087,1101.42003
3945.49521,1102.77638
3947.04955,1104.13273
3948.60388,1106.84542
3948.60388,1105.48907
3950.15822,1108.20177
3950.15822,1109.55812
3950.15822,1106.84542
3951.71256,1110.91446
3951.71256,1109.55812
3953.2669,1112.27081
3953.2669,1110.91446
3954.82124,1112.27081
3956.37558,1113.62716
3956.37558,1114.98351
3956.37558,1112.27081
3957.92992,1116.33986
3957.92992,1114.98351
3959.48426,1117.6962
3959.48426,1116.33986
3959.48426,1119.05255
3961.03859,1119.05255
3962.59293,1119.05255
3962.59293,1120.4089
3964.14727,1120.4089
3965.70161,1120.4089
3967.25595,1120.4089
3967.25595,1121.76525
3968.81029,1121.76525
3970.36463,1124.47794
3970.36463,1123.12159
