Raman Shift,Intensity 
400,2.380937671
401,2.387349027
402,2.397957272
403,2.398129104
404,2.394904877
405,2.400367228
406,2.403144378
407,2.412969895
408,2.389713125
409,2.41042194
410,2.411073344
411,2.385230922
412,2.376952503
413,2.403910805
414,2.392402829
415,2.40297018
416,2.391585009
417,2.397010684
418,2.385582879
419,2.376893425
420,2.40832951
421,2.402349261
422,2.404507361
423,2.399140057
424,2.410531538
425,2.400998941
426,2.399554539
427,2.414821142
428,2.390277139
429,2.399457033
430,2.388619202
431,2.397303112
432,2.39838532
433,2.40607398
434,2.377738516
435,2.413190911
436,2.389660188
437,2.401777579
438,2.400047888
439,2.407564556
440,2.389270561
441,2.407068768
442,2.397432003
443,2.394309091
444,2.382329044
445,2.409377377
446,2.405314036
447,2.399433816
448,2.403115541
449,2.401519584
450,2.39882177
451,2.399692481
452,2.391851016
453,2.402867334
454,2.404989182
455,2.405812541
456,2.38598356
457,2.378008156
458,2.384708575
459,2.399941512
460,2.384693644
461,2.385888069
462,2.391135565
463,2.389051674
464,2.395663558
465,2.398514014
466,2.382884832
467,2.39260657
468,2.405740514
469,2.389485855
470,2.40642145
471,2.398366939
472,2.394454835
473,2.402376961
474,2.410225076
475,2.39429814
476,2.395292847
477,2.388847034
478,2.407365807
479,2.393846678
480,2.39924039
481,2.389944643
482,2.392684117
483,2.380980195
484,2.401295177
485,2.381980168
486,2.402765846
487,2.409793507
488,2.41389153
489,2.386198298
490,2.415278329
491,2.391481665
492,2.37739227
493,2.393409305
494,2.392567932
495,2.399325013
496,2.405758288
497,2.39973225
498,2.393403083
499,2.393693894
500,2.416212205
501,2.401857169
502,2.395516011
503,2.388504913
504,2.402337031
505,2.412214534
506,2.413446462
507,2.406029661
508,2.391091036
509,2.39180455
510,2.407819636
511,2.421953528
512,2.393233239
513,2.392417209
514,2.411953891
515,2.397052436
516,2.406893047
517,2.388419732
518,2.386216809
519,2.412402302
520,2.393936364
521,2.395490563
522,2.398417628
523,2.371463408
524,2.40043713
525,2.390625604
526,2.38393156
527,2.405890333
528,2.409338248
529,2.396258655
530,2.396902195
531,2.400328005
532,2.419109756
533,2.40301581
534,2.402894594
535,2.399805572
536,2.4066144
537,2.403341083
538,2.38965199
539,2.403134149
540,2.412767975
541,2.385402613
542,2.401395748
543,2.406879434
544,2.404210338
545,2.407397594
546,2.386213182
547,2.391096648
548,2.393286122
549,2.405954281
550,2.410250865
551,2.399149688
552,2.416669256
553,2.406104499
554,2.403474909
555,2.393049772
556,2.397183577
557,2.383689581
558,2.386257122
559,2.3906432
560,2.402838643
561,2.414957931
562,2.397604025
563,2.408021797
564,2.402336178
565,2.39933767
566,2.390140866
567,2.404524764
568,2.399107783
569,2.406249734
570,2.415998913
571,2.398634686
572,2.401028314
573,2.400529217
574,2.391100265
575,2.387708016
576,2.401311462
577,2.404494615
578,2.389379118
579,2.395877833
580,2.409070744
581,2.404273735
582,2.398367126
583,2.403052141
584,2.409498146
585,2.398670459
586,2.410765099
587,2.407418035
588,2.39066485
589,2.400963858
590,2.40120008
591,2.413233598
592,2.406808326
593,2.396062378
594,2.396535121
595,2.402394976
596,2.403035559
597,2.396882775
598,2.40701406
599,2.410098942
600,2.388273124
601,2.414074529
602,2.408687348
603,2.409946618
604,2.400996626
605,2.406752736
606,2.393114237
607,2.390689789
608,2.389243314
609,2.384070577
610,2.411953239
611,2.407185297
612,2.40401265
613,2.396170005
614,2.398475313
615,2.392335603
616,2.402274543
617,2.394383023
618,2.386285923
619,2.398306999
620,2.408565878
621,2.40513144
622,2.386212301
623,2.397925117
624,2.401366548
625,2.394330435
626,2.386418537
627,2.407627198
628,2.402072175
629,2.398429575
630,2.400859031
631,2.411497223
632,2.403731485
633,2.406297539
634,2.400335148
635,2.406094574
636,2.400108918
637,2.406229814
638,2.400252597
639,2.402382483
640,2.385435804
641,2.390799202
642,2.40523184
643,2.41593949
644,2.39753165
645,2.406750428
646,2.419065592
647,2.387689134
648,2.38901769
649,2.406967319
650,2.417466967
651,2.393426928
652,2.422444638
653,2.403523942
654,2.410133571
655,2.386420371
656,2.407762777
657,2.406611496
658,2.415664592
659,2.40009033
660,2.404234681
661,2.390359348
662,2.400110208
663,2.408780344
664,2.396842886
665,2.399634818
666,2.390755412
667,2.418733163
668,2.419664653
669,2.394660685
670,2.395835488
671,2.41539126
672,2.411886758
673,2.401348214
674,2.382736851
675,2.406541173
676,2.416967923
677,2.398250202
678,2.400053287
679,2.399785877
680,2.40412264
681,2.406482025
682,2.408829051
683,2.397268192
684,2.390813119
685,2.411039057
686,2.398391862
687,2.40281896
688,2.380813022
689,2.400444437
690,2.399816211
691,2.394309514
692,2.397289818
693,2.396826201
694,2.389592762
695,2.3896345
696,2.405884685
697,2.418447959
698,2.411408831
699,2.380382156
700,2.412862245
701,2.408209727
702,2.394960448
703,2.397106175
704,2.400677341
705,2.418136677
706,2.398561654
707,2.404733741
708,2.391694553
709,2.401229944
710,2.389561887
711,2.417461159
712,2.392986401
713,2.399262033
714,2.395495466
715,2.385099593
716,2.405938174
717,2.391145091
718,2.387534385
719,2.396348355
720,2.383607445
721,2.399994435
722,2.413202517
723,2.385211254
724,2.40519836
725,2.395486426
726,2.401009501
727,2.406431499
728,2.39228678
729,2.378751236
730,2.402530585
731,2.39300802
732,2.391949555
733,2.391344121
734,2.416956185
735,2.401634858
736,2.391952525
737,2.423061063
738,2.390444559
739,2.394681511
740,2.392662059
741,2.412660092
742,2.389046573
743,2.409841499
744,2.407565875
745,2.412279927
746,2.394653195
747,2.406030418
748,2.397492013
749,2.416884965
750,2.399138955
751,2.395279657
752,2.376888845
753,2.391344055
754,2.390704856
755,2.404809458
756,2.419253472
757,2.400648673
758,2.417340355
759,2.401833202
760,2.412739178
761,2.4038684
762,2.392956121
763,2.397130817
764,2.376297619
765,2.403005504
766,2.42267805
767,2.397281721
768,2.415687214
769,2.390694473
770,2.407179212
771,2.393603679
772,2.414300707
773,2.40626499
774,2.396874071
775,2.390458182
776,2.408019924
777,2.395699207
778,2.387939085
779,2.39700836
780,2.395573375
781,2.3833182
782,2.389981556
783,2.405400034
784,2.399288638
785,2.399249548
786,2.387769453
787,2.395027085
788,2.403226929
789,2.396843562
790,2.381031743
791,2.404761141
792,2.40271484
793,2.388341551
794,2.39034004
795,2.42469443
796,2.392670229
797,2.382196484
798,2.403482067
799,2.393448229
800,2.396018495
801,2.396797803
802,2.402161348
803,2.401079037
804,2.403295012
805,2.387443675
806,2.419026179
807,2.404103025
808,2.402774709
809,2.389683511
810,2.386161708
811,2.405678376
812,2.390791184
813,2.399029746
814,2.414875913
815,2.412341919
816,2.42281265
817,2.399118683
818,2.39724374
819,2.392366315
820,2.404508588
821,2.395479139
822,2.395837007
823,2.400675743
824,2.401922728
825,2.413314579
826,2.39876882
827,2.416708857
828,2.401538925
829,2.390179437
830,2.403484065
831,2.402370971
832,2.402695708
833,2.397781591
834,2.403467831
835,2.411694693
836,2.412822914
837,2.403284648
838,2.384426658
839,2.396920668
840,2.387591901
841,2.397023839
842,2.404430902
843,2.395431312
844,2.401845679
845,2.401117231
846,2.404612143
847,2.408998587
848,2.395883804
849,2.411064557
850,2.392677414
851,2.408474954
852,2.402028782
853,2.394438121
854,2.385801161
855,2.408228545
856,2.378289505
857,2.387245874
858,2.386714656
859,2.395134656
860,2.397789549
861,2.384394433
862,2.4126269
863,2.409277954
864,2.390725315
865,2.397607995
866,2.401470269
867,2.397634095
868,2.406243
869,2.407546601
870,2.399146771
871,2.39983603
872,2.410737433
873,2.39590147
874,2.401880895
875,2.414649924
876,2.391485777
877,2.405750103
878,2.382056534
879,2.395397721
880,2.400452605
881,2.395071386
882,2.400179444
883,2.396858676
884,2.385088487
885,2.412434297
886,2.388825103
887,2.396887614
888,2.404786365
889,2.402790672
890,2.387596171
891,2.387255874
892,2.392210122
893,2.401948942
894,2.409649169
895,2.396354244
896,2.403636767
897,2.392943542
898,2.412270766
899,2.386430286
900,2.384912163
901,2.398604934
902,2.395266556
903,2.405082597
904,2.387691099
905,2.392657117
906,2.39550978
907,2.389008085
908,2.385173917
909,2.425160148
910,2.378612299
911,2.38765205
912,2.400639804
913,2.38910656
914,2.390702559
915,2.386662777
916,2.400950322
917,2.412009591
918,2.409603219
919,2.394737192
920,2.408886029
921,2.394718615
922,2.407847279
923,2.387287373
924,2.390111536
925,2.396401397
926,2.398698196
927,2.4136759
928,2.39779053
929,2.419987511
930,2.407114927
931,2.40907408
932,2.387203601
933,2.392507797
934,2.391045753
935,2.414155012
936,2.394032457
937,2.420865351
938,2.399349361
939,2.382590488
940,2.393441334
941,2.402502667
942,2.398154047
943,2.40013157
944,2.405408081
945,2.391208529
946,2.409539628
947,2.416433991
948,2.402651375
949,2.416337473
950,2.383441544
951,2.392170714
952,2.400797852
953,2.394809432
954,2.398163524
955,2.411017679
956,2.403240855
957,2.408773164
958,2.385105342
959,2.407321537
960,2.400918497
961,2.392004515
962,2.410455946
963,2.407873918
964,2.381437911
965,2.398566271
966,2.425620098
967,2.399965915
968,2.412264503
969,2.398312455
970,2.408401117
971,2.395605639
972,2.409179108
973,2.404130011
974,2.383972044
975,2.393243797
976,2.408916137
977,2.403182137
978,2.404087624
979,2.384920568
980,2.395893503
981,2.400689881
982,2.397378376
983,2.414252757
984,2.398802551
985,2.396615535
986,2.398722441
987,2.400325571
988,2.403112623
989,2.411392808
990,2.40155391
991,2.400126914
992,2.385101798
993,2.39244859
994,2.396636759
995,2.394666763
996,2.413254767
997,2.409891041
998,2.389655934
999,2.385785715
1000,2.402575657
1001,2.404669537
1002,2.384499243
1003,2.403919282
1004,2.412022282
1005,2.419970994
1006,2.412619321
1007,2.406036005
1008,2.41781011
1009,2.398955894
1010,2.393484595
1011,2.39135248
1012,2.41054571
1013,2.389874964
1014,2.409979498
1015,2.395337745
1016,2.396932765
1017,2.422412745
1018,2.408038873
1019,2.38621497
1020,2.407384128
1021,2.400716214
1022,2.39988088
1023,2.406128858
1024,2.394512522
1025,2.392658891
1026,2.391155328
1027,2.389845002
1028,2.399751641
1029,2.396939314
1030,2.381833436
1031,2.396076411
1032,2.397553742
1033,2.402042173
1034,2.397787337
1035,2.396990726
1036,2.405108805
1037,2.407130363
1038,2.404151173
1039,2.405949826
1040,2.40417007
1041,2.407143461
1042,2.394957882
1043,2.398201415
1044,2.405849919
1045,2.40755314
1046,2.409417852
1047,2.425701858
1048,2.391272737
1049,2.399056225
1050,2.397696468
1051,2.404089939
1052,2.407910447
1053,2.400565793
1054,2.405340323
1055,2.403784288
1056,2.390659972
1057,2.390141826
1058,2.400271399
1059,2.409420395
1060,2.399584927
1061,2.404823069
1062,2.406449214
1063,2.39928359
1064,2.403192853
1065,2.411104866
1066,2.398222429
1067,2.392744232
1068,2.391223176
1069,2.391298826
1070,2.386875197
1071,2.38465143
1072,2.3952324
1073,2.40500527
1074,2.386941544
1075,2.397445129
1076,2.415723165
1077,2.39889909
1078,2.412727056
1079,2.421773849
1080,2.407132979
1081,2.406833977
1082,2.398292227
1083,2.394320297
1084,2.405118407
1085,2.407404552
1086,2.416550992
1087,2.407326985
1088,2.392974752
1089,2.408340824
1090,2.411809563
1091,2.404639831
1092,2.404472119
1093,2.400027429
1094,2.388436662
1095,2.395386726
1096,2.386411365
1097,2.413022486
1098,2.382622556
1099,2.405262221
1100,2.398643826
1101,2.416424395
1102,2.406544305
1103,2.413893126
1104,2.416205202
1105,2.407980995
1106,2.407377615
1107,2.407834384
1108,2.390022294
1109,2.395596207
1110,2.398194662
1111,2.399026174
1112,2.395683838
1113,2.387461448
1114,2.404074492
1115,2.395782853
1116,2.398843513
1117,2.388722242
1118,2.416190365
1119,2.403817304
1120,2.399397843
1121,2.400649529
1122,2.391688396
1123,2.396767253
1124,2.379979314
1125,2.399853081
1126,2.402634053
1127,2.393188846
1128,2.396226391
1129,2.404922317
1130,2.408160079
1131,2.395923179
1132,2.40352078
1133,2.413192117
1134,2.400402087
1135,2.421394454
1136,2.392822869
1137,2.410231745
1138,2.400410803
1139,2.384646494
1140,2.39321656
1141,2.395764588
1142,2.389007122
1143,2.385126622
1144,2.414808446
1145,2.399313211
1146,2.397401537
1147,2.410255209
1148,2.39563368
1149,2.41223245
1150,2.39470749
1151,2.419276607
1152,2.39168633
1153,2.402771899
1154,2.397843326
1155,2.401819311
1156,2.38732818
1157,2.404780516
1158,2.387814758
1159,2.410580482
1160,2.38835238
1161,2.423359303
1162,2.385590277
1163,2.409056357
1164,2.38090256
1165,2.400006199
1166,2.392119148
1167,2.398847331
1168,2.415131442
1169,2.393733435
1170,2.389381412
1171,2.399858353
1172,2.391143984
1173,2.409231696
1174,2.404044827
1175,2.398467657
1176,2.404046977
1177,2.395709018
1178,2.39072521
1179,2.404255014
1180,2.406881672
1181,2.406418319
1182,2.400888391
1183,2.394198323
1184,2.410390555
1185,2.385067665
1186,2.413728887
1187,2.399605
1188,2.404315032
1189,2.394830905
1190,2.41357227
1191,2.40489507
1192,2.409479431
1193,2.410065179
1194,2.391243603
1195,2.40597513
1196,2.404510526
1197,2.3977707
1198,2.388073524
1199,2.39300596
1200,2.391740463
1201,2.410164195
1202,2.409225341
1203,2.401680255
1204,2.392384315
1205,2.394570924
1206,2.402210896
1207,2.395428501
1208,2.41250211
1209,2.410578887
1210,2.405773679
1211,2.401315344
1212,2.39670472
1213,2.39451299
1214,2.390586536
1215,2.395055189
1216,2.388348604
1217,2.383886029
1218,2.385397682
1219,2.410922334
1220,2.383725776
1221,2.393184303
1222,2.400562372
1223,2.393391953
1224,2.405574665
1225,2.377663081
1226,2.396833474
1227,2.396593686
1228,2.399048107
1229,2.406315334
1230,2.408391688
1231,2.397605267
1232,2.406560715
1233,2.413406334
1234,2.394584603
1235,2.412018379
1236,2.384031286
1237,2.413266746
1238,2.398949804
1239,2.410974826
1240,2.401533328
1241,2.402880631
1242,2.404276344
1243,2.376686035
1244,2.40393718
1245,2.39598213
1246,2.405486563
1247,2.388478977
1248,2.400107963
1249,2.404110089
1250,2.402905988
1251,2.396534036
1252,2.402739295
1253,2.378820414
1254,2.411627172
1255,2.396102621
1256,2.411989001
1257,2.394130443
1258,2.392736602
1259,2.399047228
1260,2.417215736
1261,2.403817897
1262,2.410054672
1263,2.402522038
1264,2.401799235
1265,2.40478719
1266,2.409928361
1267,2.409472554
1268,2.416657979
1269,2.377945439
1270,2.397185456
1271,2.38984388
1272,2.405018287
1273,2.425180391
1274,2.39772938
1275,2.397886312
1276,2.38872506
1277,2.399208078
1278,2.390015281
1279,2.390431598
1280,2.400861394
1281,2.407625037
1282,2.404057668
1283,2.379381972
1284,2.39407965
1285,2.404641297
1286,2.399682072
1287,2.404905556
1288,2.414692003
1289,2.400735903
1290,2.385713261
1291,2.389771957
1292,2.400301687
1293,2.39898829
1294,2.393864493
1295,2.381009985
1296,2.401480306
1297,2.393394077
1298,2.394103536
1299,2.406967606
1300,2.397795437
1301,2.38723813
1302,2.387258079
1303,2.417843015
1304,2.397799828
1305,2.389315479
1306,2.405929737
1307,2.420835191
1308,2.416967724
1309,2.405817282
1310,2.406217632
1311,2.385018538
1312,2.395513483
1313,2.413000743
1314,2.405077508
1315,2.394434337
1316,2.412628907
1317,2.415583855
1318,2.402149025
1319,2.390348353
1320,2.39940485
1321,2.388051862
1322,2.394667428
1323,2.392102584
1324,2.390881691
1325,2.388143079
1326,2.393664597
1327,2.401114258
1328,2.394222557
1329,2.406514708
1330,2.403920166
1331,2.406273846
1332,2.40183086
1333,2.392894759
1334,2.418786859
1335,2.388955602
1336,2.389483153
1337,2.397436139
1338,2.389467033
1339,2.408275351
1340,2.422178891
1341,2.381426643
1342,2.406622743
1343,2.412391417
1344,2.398255935
1345,2.397905701
1346,2.426395632
1347,2.405096582
1348,2.42142248
1349,2.406513656
1350,2.382122395
1351,2.393940341
1352,2.400719485
1353,2.39699849
1354,2.396128846
1355,2.389263904
1356,2.385676894
1357,2.411410621
1358,2.410802116
1359,2.396159838
1360,2.406457426
1361,2.404348151
1362,2.420794359
1363,2.402388229
1364,2.400493097
1365,2.393448789
1366,2.388462863
1367,2.405255071
1368,2.395845103
1369,2.407730164
1370,2.415889142
1371,2.421864126
1372,2.392680358
1373,2.401580986
1374,2.395325997
1375,2.407142315
1376,2.402325135
1377,2.404318843
1378,2.398363245
1379,2.405623919
1380,2.391438947
1381,2.398419561
1382,2.389116844
1383,2.403652228
1384,2.41170424
1385,2.414659779
1386,2.406942861
1387,2.388428656
1388,2.406700734
1389,2.39428744
1390,2.410166126
1391,2.399031248
1392,2.404144136
1393,2.407084681
1394,2.394448082
1395,2.41287819
1396,2.398665968
1397,2.388755748
1398,2.395502393
1399,2.394419192
1400,2.410370554
1401,2.409628578
1402,2.410336843
1403,2.389058583
1404,2.396565998
1405,2.392066917
1406,2.41098932
1407,2.395739139
1408,2.397840231
1409,2.410835692
1410,2.402030465
1411,2.393970254
1412,2.40291035
1413,2.405405691
1414,2.401760756
1415,2.40150932
1416,2.39514762
1417,2.410078023
1418,2.421350494
1419,2.40245081
1420,2.417810423
1421,2.405692224
1422,2.376812975
1423,2.414277337
1424,2.393575671
1425,2.399677237
1426,2.412599757
1427,2.398399891
1428,2.421229822
1429,2.396247721
1430,2.395842609
1431,2.40946848
1432,2.416353069
1433,2.413356608
1434,2.399724736
1435,2.413402864
1436,2.411779694
1437,2.399200907
1438,2.407956556
1439,2.399877201
1440,2.417621952
1441,2.398251701
1442,2.382393824
1443,2.404797923
1444,2.413271005
1445,2.392783989
1446,2.383421653
1447,2.409239345
1448,2.411024496
1449,2.40630677
1450,2.398666831
1451,2.403815683
1452,2.393128555
1453,2.414978016
1454,2.392065592
1455,2.401237353
1456,2.403113808
1457,2.414544294
1458,2.395564509
1459,2.402087993
1460,2.413592962
1461,2.383788127
1462,2.405605476
1463,2.405741584
1464,2.404295525
1465,2.40081048
1466,2.406939499
1467,2.414832509
1468,2.406240586
1469,2.414330138
1470,2.399628236
1471,2.40461435
1472,2.408029863
1473,2.395669301
1474,2.384248795
1475,2.395958888
1476,2.406829057
1477,2.394111089
1478,2.40239759
1479,2.412664904
1480,2.417733571
1481,2.40815813
1482,2.386378136
1483,2.41199876
1484,2.376700087
1485,2.422301156
1486,2.396949379
1487,2.400600908
1488,2.417631091
1489,2.395329476
1490,2.398877624
1491,2.392275499
1492,2.392199719
1493,2.395330687
1494,2.392905108
1495,2.3940168
1496,2.419239623
1497,2.390755591
1498,2.391215159
1499,2.39056533
1500,2.407585291
1501,2.395164885
1502,2.410348181
1503,2.414012262
1504,2.399234224
1505,2.40497263
1506,2.402967035
1507,2.411022717
1508,2.391812691
1509,2.3959706
1510,2.409046214
1511,2.390007102
1512,2.387482899
1513,2.395266252
1514,2.399038797
1515,2.400265343
1516,2.411723651
1517,2.393526179
1518,2.391027123
1519,2.39229529
1520,2.395756303
1521,2.416566921
1522,2.38778644
1523,2.406930485
1524,2.388478388
1525,2.399919334
1526,2.400603679
1527,2.406181357
1528,2.388971748
1529,2.406157292
1530,2.392169255
1531,2.420512211
1532,2.388035765
1533,2.403141147
1534,2.421858109
1535,2.392467809
1536,2.407616968
1537,2.396592088
1538,2.401525965
1539,2.409593515
1540,2.404048621
1541,2.400269733
1542,2.393807448
1543,2.391860543
1544,2.412492121
1545,2.399327007
1546,2.388134503
1547,2.412080651
1548,2.408775927
1549,2.413255641
1550,2.413248348
1551,2.417656805
1552,2.386009139
1553,2.396195871
1554,2.400913138
1555,2.409461973
1556,2.400899643
1557,2.40001211
1558,2.400124523
1559,2.394593867
1560,2.39321857
1561,2.40971591
1562,2.411252738
1563,2.402247993
1564,2.412503817
1565,2.394233875
1566,2.386986589
1567,2.398483015
1568,2.389750915
1569,2.404728037
1570,2.395696575
1571,2.403417782
1572,2.426542662
1573,2.400308156
1574,2.41262205
1575,2.399644734
1576,2.410698891
1577,2.391089963
1578,2.405251747
1579,2.401346047
1580,2.413567725
1581,2.401543092
1582,2.401474429
1583,2.402864732
1584,2.402453398
1585,2.406176957
1586,2.383747477
1587,2.405700087
1588,2.408219904
1589,2.374748063
1590,2.387180141
1591,2.422246863
1592,2.397439197
1593,2.406735967
1594,2.400373161
1595,2.386743707
1596,2.396510772
1597,2.403564626
1598,2.405728744
1599,2.397633135
1600,2.403583033
1601,2.39905289
1602,2.41429785
1603,2.397129503
1604,2.400263967
1605,2.396518903
1606,2.392954598
1607,2.413927401
1608,2.414762613
1609,2.407651392
1610,2.392822829
1611,2.401574586
1612,2.41923366
1613,2.405515751
1614,2.393220621
1615,2.393940065
1616,2.407425887
1617,2.417231751
1618,2.407738801
1619,2.398294822
1620,2.381888889
1621,2.391949274
1622,2.380253799
1623,2.400273314
1624,2.396614759
1625,2.398839846
1626,2.4087149
1627,2.395535004
1628,2.397952564
1629,2.38999763
1630,2.394367171
1631,2.401229217
1632,2.403704008
1633,2.39076362
1634,2.397340533
1635,2.392740943
1636,2.405618288
1637,2.395328108
1638,2.392913997
1639,2.403518203
1640,2.403795951
1641,2.393124022
1642,2.423194169
1643,2.402120411
1644,2.405474084
1645,2.393006712
1646,2.382584501
1647,2.395810668
1648,2.382105193
1649,2.408068712
1650,2.407119074
1651,2.383979287
1652,2.41588516
1653,2.418481005
1654,2.40776629
1655,2.3824779
1656,2.412928097
1657,2.387385539
1658,2.404383264
1659,2.399613627
1660,2.404616263
1661,2.391276236
1662,2.402605533
1663,2.395596758
1664,2.409186934
1665,2.409009136
1666,2.395888432
1667,2.406166962
1668,2.417056905
1669,2.402532993
1670,2.412813024
1671,2.396178127
1672,2.413716485
1673,2.403945403
1674,2.391555931
1675,2.412872656
1676,2.404487342
1677,2.403123005
1678,2.393402807
1679,2.405569144
1680,2.409821493
1681,2.403217347
1682,2.392993034
1683,2.416248191
1684,2.420198999
1685,2.394591655
1686,2.410063572
1687,2.402867796
1688,2.403524658
1689,2.39736212
1690,2.392387306
1691,2.394088816
1692,2.405504429
1693,2.395574875
1694,2.396351986
1695,2.400869186
1696,2.426155269
1697,2.381854509
1698,2.398899734
1699,2.406750799
1700,2.393694729
1701,2.404869923
1702,2.408959337
1703,2.388267408
1704,2.396563251
1705,2.393738113
1706,2.419127234
1707,2.408938253
1708,2.413298863
1709,2.407114816
1710,2.405398076
1711,2.415643304
1712,2.389699171
1713,2.398044863
1714,2.397225174
1715,2.4084887
1716,2.396396725
1717,2.392095997
1718,2.378354264
1719,2.411514654
1720,2.421439082
1721,2.387995704
1722,2.39507727
1723,2.413358469
1724,2.388833552
1725,2.413330187
1726,2.394503941
1727,2.402639125
1728,2.42052331
1729,2.39986701
1730,2.409016636
1731,2.395961344
1732,2.404491582
1733,2.411231397
1734,2.41063822
1735,2.390151625
1736,2.386691602
1737,2.401349758
1738,2.393069484
1739,2.41779862
1740,2.402570149
1741,2.396403512
1742,2.390738878
1743,2.399961654
1744,2.398970202
1745,2.417491583
1746,2.413297948
1747,2.395396372
1748,2.392159341
1749,2.415106422
1750,2.38501245
1751,2.400323712
1752,2.401167091
1753,2.397687509
1754,2.397828102
1755,2.392141755
1756,2.403727571
1757,2.400836692
1758,2.414874046
1759,2.401422134
1760,2.413748401
1761,2.408157472
1762,2.396166262
1763,2.390641849
1764,2.392821052
1765,2.398395301
1766,2.383613887
1767,2.407904176
1768,2.384418214
1769,2.409772235
1770,2.390363337
1771,2.404379802
1772,2.395096313
1773,2.398312578
1774,2.407327954
1775,2.406247862
1776,2.409356469
1777,2.401779222
1778,2.403514745
1779,2.409904369
1780,2.402765029
1781,2.424755346
1782,2.398133247
1783,2.389175749
1784,2.406232834
1785,2.402645484
1786,2.4203471
1787,2.391936164
1788,2.393966022
1789,2.403701235
1790,2.39903454
1791,2.401256967
1792,2.387105328
1793,2.408599586
1794,2.399534443
1795,2.403518086
1796,2.403234895
1797,2.408709077
1798,2.395695883
1799,2.402036252
1800,2.380729825
1801,2.403020786
1802,2.378675332
1803,2.403087874
1804,2.394813108
1805,2.404588252
1806,2.400733454
1807,2.400291961
1808,2.406849063
1809,2.385980383
1810,2.416668979
1811,2.396990523
1812,2.377312742
1813,2.402840366
1814,2.394796543
1815,2.390417826
1816,2.391657636
1817,2.390946341
1818,2.391229521
1819,2.388065968
1820,2.390231523
1821,2.381639597
1822,2.393593205
1823,2.406933796
1824,2.405872572
1825,2.40955448
1826,2.409418799
1827,2.408632207
1828,2.406611722
1829,2.390583372
1830,2.38473354
1831,2.403592019
1832,2.412977959
1833,2.394155128
1834,2.390508103
1835,2.405013718
1836,2.393254567
1837,2.392240189
1838,2.376900029
1839,2.404096313
1840,2.387862552
1841,2.399826677
1842,2.405098779
1843,2.392465222
1844,2.402128326
1845,2.3970219
1846,2.391145007
1847,2.395919273
1848,2.395945391
1849,2.402507259
1850,2.394336346
1851,2.404123233
1852,2.395398436
1853,2.40674585
1854,2.381428297
1855,2.409751053
1856,2.404408346
1857,2.410856027
1858,2.406570094
1859,2.415098982
1860,2.389405793
1861,2.40418929
1862,2.415780751
1863,2.419230498
1864,2.418112394
1865,2.403744509
1866,2.403959771
1867,2.429449035
1868,2.406183771
1869,2.395048382
1870,2.416348131
1871,2.402537561
1872,2.401055452
1873,2.389748936
1874,2.393793681
1875,2.38871232
1876,2.395772165
1877,2.418789736
1878,2.398894437
1879,2.396595765
1880,2.401141827
1881,2.39297257
1882,2.406252845
1883,2.420727948
1884,2.401072673
1885,2.390355271
1886,2.419632271
1887,2.395118704
1888,2.400843935
1889,2.412322569
1890,2.394543789
1891,2.399436853
1892,2.419307958
1893,2.391249501
1894,2.385883766
1895,2.390838867
1896,2.377032374
1897,2.393983379
1898,2.39473045
1899,2.394564348
1900,2.392798102
1901,2.385201337
1902,2.388163411
1903,2.3973703
1904,2.396344385
1905,2.397649779
1906,2.407071919
1907,2.399801547
1908,2.401967316
1909,2.397416825
1910,2.40548116
1911,2.393677409
1912,2.406295589
1913,2.404002727
1914,2.384758404
1915,2.411783729
1916,2.400947498
1917,2.404934063
1918,2.401643475
1919,2.387437863
1920,2.400238973
1921,2.389356792
1922,2.424063761
1923,2.403241758
1924,2.386436734
1925,2.4032054
1926,2.393477588
1927,2.389720255
1928,2.388179401
1929,2.404430576
1930,2.414983435
1931,2.387334359
1932,2.394200313
1933,2.398763187
1934,2.397217052
1935,2.412670355
1936,2.390239786
1937,2.404828288
1938,2.395611964
1939,2.396148582
1940,2.397575247
1941,2.384528738
1942,2.396966289
1943,2.412868581
1944,2.397088026
1945,2.415893378
1946,2.40486168
1947,2.386834219
1948,2.390727025
1949,2.397118566
1950,2.399737978
1951,2.393499193
1952,2.404750199
1953,2.377406481
1954,2.393176381
1955,2.40968184
1956,2.413967802
1957,2.401484469
1958,2.412327298
1959,2.397533039
1960,2.405476319
1961,2.390072254
1962,2.391830679
1963,2.394970309
1964,2.416436468
1965,2.406038568
1966,2.41567604
1967,2.400668351
1968,2.400029907
1969,2.39958764
1970,2.394926274
1971,2.413995163
1972,2.417610047
1973,2.371505039
1974,2.406917724
1975,2.397381122
1976,2.396394952
1977,2.406209435
1978,2.392120424
1979,2.409358715
1980,2.404334234
1981,2.417687856
1982,2.381658537
1983,2.389645306
1984,2.393361334
1985,2.397875784
1986,2.38607417
1987,2.394463826
1988,2.421516299
1989,2.391773785
1990,2.411740092
1991,2.380845589
1992,2.393906896
1993,2.39862933
1994,2.404488851
1995,2.383483719
1996,2.393347947
1997,2.37125363
1998,2.379877701
1999,2.415783139
2000,2.402319617
2001,2.40000484
2002,2.407249689
2003,2.413592057
2004,2.402815087
2005,2.40803317
2006,2.38640748
2007,2.399611935
2008,2.413557732
2009,2.394893426
2010,2.399995818
2011,2.392794905
2012,2.392263433
2013,2.412811433
2014,2.396796523
2015,2.412734502
2016,2.407488215
2017,2.419030899
2018,2.394762124
2019,2.402339063
2020,2.391891321
2021,2.384238157
2022,2.413620355
2023,2.399851452
2024,2.407882049
2025,2.389214926
2026,2.390233683
2027,2.402404359
2028,2.398874214
2029,2.390413942
2030,2.384794045
2031,2.410821171
2032,2.400286463
2033,2.396976954
2034,2.399394262
2035,2.405344814
2036,2.408468253
2037,2.4137803
2038,2.399140595
2039,2.403299644
2040,2.392329339
2041,2.387619577
2042,2.413465353
2043,2.389458599
2044,2.409544961
2045,2.392289907
2046,2.392730163
2047,2.409183003
2048,2.427878081
2049,2.400803119
2050,2.395635776
2051,2.384502508
2052,2.403796192
2053,2.395593585
2054,2.411463161
2055,2.392832086
2056,2.41320034
2057,2.398618194
2058,2.409948582
2059,2.397948276
2060,2.39496291
2061,2.405587574
2062,2.399804663
2063,2.392410801
2064,2.400086109
2065,2.41260859
2066,2.407464546
2067,2.405617291
2068,2.388916857
2069,2.395265785
2070,2.37171997
2071,2.386092448
2072,2.406789065
2073,2.398072958
2074,2.393677491
2075,2.404687481
2076,2.412183872
2077,2.384902294
2078,2.403615388
2079,2.387908811
2080,2.40799985
2081,2.414553052
2082,2.393295125
2083,2.419575301
2084,2.410445093
2085,2.39997951
2086,2.399914654
2087,2.409903852
2088,2.389008235
2089,2.403837708
2090,2.393978973
2091,2.412955891
2092,2.405702828
2093,2.408099935
2094,2.40078376
2095,2.39092872
2096,2.397332657
2097,2.390518055
2098,2.408942141
2099,2.39644473
2100,2.404797449
2101,2.387609858
2102,2.407371612
2103,2.4029031
2104,2.397501381
2105,2.397822808
2106,2.399199016
2107,2.414085298
2108,2.404591876
2109,2.384472286
2110,2.370544461
2111,2.385237591
2112,2.410791212
2113,2.396940693
2114,2.383343313
2115,2.408873794
2116,2.405839708
2117,2.394155077
2118,2.386879202
2119,2.39677287
2120,2.391880337
2121,2.398709908
2122,2.406157018
2123,2.392247568
2124,2.411773491
2125,2.378713384
2126,2.39326279
2127,2.39845424
2128,2.405352802
2129,2.386560685
2130,2.414564413
2131,2.398191597
2132,2.414065329
2133,2.403523498
2134,2.400128641
2135,2.411946963
2136,2.410764121
2137,2.397584381
2138,2.393996148
2139,2.397747715
2140,2.424765235
2141,2.39861852
2142,2.402487035
2143,2.383984349
2144,2.391066184
2145,2.395459553
2146,2.409740794
2147,2.409692879
2148,2.414905915
2149,2.383905912
2150,2.390317587
2151,2.390016987
2152,2.386400019
2153,2.389563573
2154,2.391757768
2155,2.416535476
2156,2.392452247
2157,2.419078046
2158,2.401811555
2159,2.386241503
2160,2.399959569
2161,2.382180049
2162,2.392528783
2163,2.377479641
2164,2.39523294
2165,2.397232112
2166,2.402566022
2167,2.398711727
2168,2.393984077
2169,2.404891956
2170,2.394955524
2171,2.385908915
2172,2.411707673
2173,2.405163751
2174,2.413386467
2175,2.392965138
2176,2.394990657
2177,2.417416255
2178,2.392278178
2179,2.391569943
2180,2.411643685
2181,2.41750026
2182,2.393760781
2183,2.400995454
2184,2.39189191
2185,2.405096397
2186,2.41125441
2187,2.401058851
2188,2.395981559
2189,2.407405596
2190,2.384249102
2191,2.412317404
2192,2.410274847
2193,2.390289418
2194,2.425554456
2195,2.382646835
2196,2.397064697
2197,2.403319997
2198,2.389281391
2199,2.406350655
2200,2.391538993
2201,2.39674098
2202,2.388758822
2203,2.398042466
2204,2.390340668
2205,2.411053083
2206,2.404445296
2207,2.411833897
2208,2.416757273
2209,2.401294526
2210,2.392810719
2211,2.401727884
2212,2.404938001
2213,2.403293934
2214,2.411135794
2215,2.401777802
2216,2.401579106
2217,2.411652222
2218,2.405569312
2219,2.400924136
2220,2.37480821
2221,2.400209049
2222,2.400597011
2223,2.384737082
2224,2.410574856
2225,2.400656133
2226,2.410715888
2227,2.394017191
2228,2.400520602
2229,2.408594807
2230,2.39748232
2231,2.397116929
2232,2.389437093
2233,2.409600436
2234,2.399671037
2235,2.402993108
2236,2.405242841
2237,2.411490934
2238,2.388045825
2239,2.394197343
2240,2.411586905
2241,2.390258725
2242,2.390190522
2243,2.412596449
2244,2.413134018
2245,2.381180274
2246,2.400133943
2247,2.381825685
2248,2.400359797
2249,2.397703711
2250,2.399945696
2251,2.413712641
2252,2.392296105
2253,2.387505308
2254,2.394960101
2255,2.402894187
2256,2.411431185
2257,2.392020629
2258,2.397482543
2259,2.400906324
2260,2.408067974
2261,2.402800021
2262,2.402133132
2263,2.421542134
2264,2.414901844
2265,2.400195426
2266,2.400906553
2267,2.389710613
2268,2.397206026
2269,2.403488481
2270,2.393666245
2271,2.406982918
2272,2.388397216
2273,2.381787894
2274,2.398329725
2275,2.421363364
2276,2.404651232
2277,2.400945574
2278,2.397107626
2279,2.387174985
2280,2.398988659
2281,2.400049467
2282,2.391944651
2283,2.403153024
2284,2.388860528
2285,2.388684049
2286,2.402682596
2287,2.397526124
2288,2.398659934
2289,2.417067153
2290,2.416268569
2291,2.399133052
2292,2.401264652
2293,2.395437657
2294,2.407651991
2295,2.4102128
2296,2.414196966
2297,2.412896502
2298,2.391418386
2299,2.379431198
2300,2.402424687
2301,2.41794486
2302,2.400209191
2303,2.401037764
2304,2.399227574
2305,2.398146104
2306,2.403874021
2307,2.391097939
2308,2.412799005
2309,2.398645127
2310,2.411563008
2311,2.396587719
2312,2.39442638
2313,2.396406853
2314,2.397239707
2315,2.417065596
2316,2.399642134
2317,2.40760559
2318,2.398149205
2319,2.413795341
2320,2.405251491
2321,2.396565955
2322,2.397613123
2323,2.399000329
2324,2.396583111
2325,2.410549108
2326,2.384131602
2327,2.405382907
2328,2.416318752
2329,2.393671042
2330,2.399148466
2331,2.419915087
2332,2.415428469
2333,2.404223292
2334,2.388038726
2335,2.404240583
2336,2.385066342
2337,2.395177114
2338,2.401241338
2339,2.388474985
2340,2.40838373
2341,2.397564772
2342,2.397848104
2343,2.387128537
2344,2.405521847
2345,2.402869267
2346,2.405865728
2347,2.411482643
2348,2.413654805
2349,2.399442168
2350,2.390657607
2351,2.409719313
2352,2.381305485
2353,2.406583718
2354,2.392146858
2355,2.391023897
2356,2.395550455
2357,2.406865885
2358,2.400390301
2359,2.384520458
2360,2.400750929
2361,2.411560953
2362,2.389333682
2363,2.390454037
2364,2.409672001
2365,2.393018769
2366,2.414915169
2367,2.370855623
2368,2.411763063
2369,2.408705519
2370,2.401404092
2371,2.401377621
2372,2.404222955
2373,2.38415203
2374,2.406866358
2375,2.406482021
2376,2.409076131
2377,2.418941321
2378,2.385528694
2379,2.391108311
2380,2.38924055
2381,2.385047808
2382,2.407559437
2383,2.405453629
2384,2.412158287
2385,2.383303184
2386,2.413882963
2387,2.410058215
2388,2.395636832
2389,2.393271315
2390,2.412879315
2391,2.384456815
2392,2.404746932
2393,2.395777962
2394,2.420780463
2395,2.398289473
2396,2.395562081
2397,2.379905404
2398,2.38301605
2399,2.397150954
2400,2.398925089
2401,2.384328056
2402,2.403801536
2403,2.412153392
2404,2.397922678
2405,2.397347139
2406,2.378294476
2407,2.400317684
2408,2.384424768
2409,2.402629507
2410,2.400286725
2411,2.382226224
2412,2.400647963
2413,2.389379096
2414,2.38647586
2415,2.3822552
2416,2.392340404
2417,2.424189858
2418,2.394120894
2419,2.405229817
2420,2.401709451
2421,2.405554936
2422,2.40056823
2423,2.422143666
2424,2.381036333
2425,2.403059848
2426,2.404377816
2427,2.403897781
2428,2.396996389
2429,2.396866961
2430,2.376891757
2431,2.394557917
2432,2.383441668
2433,2.381248802
2434,2.394785817
2435,2.405365526
2436,2.401472704
2437,2.41086192
2438,2.388904836
2439,2.403848989
2440,2.40623148
2441,2.404316473
2442,2.400954516
2443,2.409650463
2444,2.406501785
2445,2.415293635
2446,2.393864957
2447,2.394710302
2448,2.412010412
2449,2.409235481
2450,2.39845931
2451,2.406148707
2452,2.401691838
2453,2.382197574
2454,2.41023072
2455,2.399119939
2456,2.405771036
2457,2.395108159
2458,2.397495441
2459,2.419871355
2460,2.370644163
2461,2.405468301
2462,2.386707391
2463,2.390716844
2464,2.395735404
2465,2.392875322
2466,2.399776118
2467,2.429219494
2468,2.413509837
2469,2.408941062
2470,2.401781784
2471,2.416241224
2472,2.402523876
2473,2.406387409
2474,2.405990649
2475,2.407716881
2476,2.413151806
2477,2.405642056
2478,2.410666369
2479,2.388342347
2480,2.388563255
2481,2.402572673
2482,2.398746098
2483,2.397789675
2484,2.40599993
2485,2.392538304
2486,2.396292846
2487,2.389080521
2488,2.40194337
2489,2.398653686
2490,2.414648417
2491,2.39823412
2492,2.395764436
2493,2.407193167
2494,2.418973584
2495,2.379821606
2496,2.407288296
2497,2.393547813
2498,2.389592906
2499,2.386398844
2500,2.391380291
2501,2.392301198
2502,2.402715933
2503,2.39973347
2504,2.405552583
2505,2.407159914
2506,2.40683242
2507,2.402422384
2508,2.400692106
2509,2.385289744
2510,2.404089872
2511,2.400446721
2512,2.397850252
2513,2.403037806
2514,2.395012542
2515,2.396389356
2516,2.390186193
2517,2.399835139
2518,2.399143424
2519,2.418982939
2520,2.395773604
2521,2.406025849
2522,2.384068153
2523,2.39910426
2524,2.406074323
2525,2.408026585
2526,2.402270224
2527,2.400496707
2528,2.396337519
2529,2.390922041
2530,2.382098842
2531,2.388432887
2532,2.401114636
2533,2.405807593
2534,2.38691531
2535,2.402371526
2536,2.397978359
2537,2.38876992
2538,2.396697389
2539,2.386806596
2540,2.39827537
2541,2.407901653
2542,2.369296891
2543,2.401166199
2544,2.390246989
2545,2.389706714
2546,2.40911963
2547,2.39311585
2548,2.413041262
2549,2.385282634
2550,2.409986987
2551,2.389650848
2552,2.392507176
2553,2.41569201
2554,2.400203447
2555,2.401877425
2556,2.383348932
2557,2.396351715
2558,2.404174565
2559,2.417515647
2560,2.400620314
2561,2.405264811
2562,2.385689141
2563,2.405256168
2564,2.406595564
2565,2.399732591
2566,2.395114048
2567,2.410344835
2568,2.395602338
2569,2.385616202
2570,2.392480586
2571,2.400158972
2572,2.407043081
2573,2.396284264
2574,2.39050409
2575,2.394657708
2576,2.4135132
2577,2.414305105
2578,2.404491444
2579,2.398826837
2580,2.409719899
2581,2.416463917
2582,2.41400625
2583,2.402273413
2584,2.383960955
2585,2.392876408
2586,2.412092201
2587,2.405046056
2588,2.391729247
2589,2.406709147
2590,2.387188541
2591,2.414130548
2592,2.396950319
2593,2.406287483
2594,2.402215747
2595,2.393153928
2596,2.41145653
2597,2.400029755
2598,2.413478999
2599,2.383214521
2600,2.39547431
2601,2.406544531
2602,2.390991254
2603,2.405535321
2604,2.385585622
2605,2.391746227
2606,2.371686504
2607,2.383873593
2608,2.429906306
2609,2.406987848
2610,2.385747213
2611,2.397215836
2612,2.415545522
2613,2.402277782
2614,2.401412019
2615,2.412509502
2616,2.413541058
2617,2.390378391
2618,2.405140312
2619,2.393182689
2620,2.395201056
2621,2.399260347
2622,2.406429098
2623,2.396853422
2624,2.385723889
2625,2.391869168
2626,2.390821656
2627,2.408811966
2628,2.399007417
2629,2.420463277
2630,2.390579775
2631,2.395998926
2632,2.390614221
2633,2.410086827
2634,2.384103381
2635,2.391899628
2636,2.390854549
2637,2.403477605
2638,2.390170929
2639,2.404471748
2640,2.399532899
2641,2.397979715
2642,2.419185903
2643,2.403770893
2644,2.405015734
2645,2.382121676
2646,2.395433429
2647,2.413085783
2648,2.396412198
2649,2.403185051
2650,2.398398602
2651,2.391029583
2652,2.412677898
2653,2.397817002
2654,2.405099007
2655,2.40146621
2656,2.404339752
2657,2.393588556
2658,2.406102136
2659,2.399155875
2660,2.39983217
2661,2.408434325
2662,2.402682248
2663,2.40627271
2664,2.418386167
2665,2.40661364
2666,2.391086876
2667,2.41044406
2668,2.41194802
2669,2.397730961
2670,2.406227142
2671,2.388676405
2672,2.403612655
2673,2.40605412
2674,2.407922055
2675,2.390628
2676,2.409315924
2677,2.402198627
2678,2.406227436
2679,2.393333312
2680,2.404351577
2681,2.404897595
2682,2.401104938
2683,2.416122743
2684,2.397313415
2685,2.396691561
2686,2.395386959
2687,2.385238118
2688,2.395904222
2689,2.392987429
2690,2.395822849
2691,2.402244347
2692,2.390541218
2693,2.40083427
2694,2.395777375
2695,2.387921738
2696,2.391801324
2697,2.398625726
2698,2.393974629
2699,2.393013403
2700,2.398353565
2701,2.398388122
2702,2.392577647
2703,2.404741841
2704,2.423636788
2705,2.395656106
2706,2.409126688
2707,2.404093082
2708,2.394763428
2709,2.390324205
2710,2.387849747
2711,2.39826644
2712,2.404968404
2713,2.404095798
2714,2.398668209
2715,2.396459114
2716,2.386046906
2717,2.397978971
2718,2.406565948
2719,2.378845701
2720,2.399872401
2721,2.411216338
2722,2.387857797
2723,2.381448514
2724,2.408369743
2725,2.404578885
2726,2.380158853
2727,2.386036222
2728,2.396165474
2729,2.401930939
2730,2.404148905
2731,2.417758288
2732,2.41163387
2733,2.402148586
2734,2.397167353
2735,2.389623719
2736,2.376086997
2737,2.414212638
2738,2.388697484
2739,2.402024668
2740,2.414967929
2741,2.413616006
2742,2.39507493
2743,2.40909003
2744,2.395971418
2745,2.398851494
2746,2.396575476
2747,2.409903851
2748,2.40011259
2749,2.38887513
2750,2.400866874
2751,2.386354371
2752,2.407702431
2753,2.39146663
2754,2.393283104
2755,2.405157503
2756,2.39668879
2757,2.403531824
2758,2.397952477
2759,2.399066703
2760,2.40063385
2761,2.40281057
2762,2.400236881
2763,2.410112546
2764,2.392588875
2765,2.394503499
2766,2.400301963
2767,2.407918622
2768,2.406496905
2769,2.39675636
2770,2.395546035
2771,2.391797053
2772,2.393936369
2773,2.399456906
2774,2.401369457
2775,2.408226396
2776,2.405491549
2777,2.416860715
2778,2.384160636
2779,2.396365071
2780,2.400189901
2781,2.415733948
2782,2.393016504
2783,2.393179508
2784,2.419940749
2785,2.379031872
2786,2.395277677
2787,2.406542652
2788,2.416686711
2789,2.424156747
2790,2.416051562
2791,2.388828389
2792,2.393309795
2793,2.405852001
2794,2.397052878
2795,2.397512533
2796,2.393457033
2797,2.401751928
2798,2.402788647
2799,2.387327947
2800,2.403089387
2801,2.391979568
2802,2.406410408
2803,2.390750523
2804,2.403480658
2805,2.384324867
2806,2.412864301
2807,2.395044845
2808,2.396240097
2809,2.40638296
2810,2.401026978
2811,2.388340696
2812,2.398290853
2813,2.405085692
2814,2.412522391
2815,2.398942268
2816,2.397134484
2817,2.398568371
2818,2.399106133
2819,2.414608667
2820,2.394036181
2821,2.412296407
2822,2.396017486
2823,2.373970904
2824,2.407638492
2825,2.390966592
2826,2.391089535
2827,2.39522642
2828,2.389795609
2829,2.395393669
2830,2.405428729
2831,2.395721724
2832,2.41126362
2833,2.399490314
2834,2.391790664
2835,2.383788493
2836,2.414148938
2837,2.402607196
2838,2.397671369
2839,2.416094973
2840,2.3941552
2841,2.392222351
2842,2.390610379
2843,2.38212949
2844,2.404046042
2845,2.395023575
2846,2.405571432
2847,2.401533377
2848,2.400352898
2849,2.384111166
2850,2.39955971
2851,2.402213824
2852,2.403918602
2853,2.410436476
2854,2.394925013
2855,2.399340566
2856,2.395677509
2857,2.410944263
2858,2.396070659
2859,2.386235729
2860,2.3960298
2861,2.404558132
2862,2.385865845
2863,2.400997943
2864,2.413100871
2865,2.399260959
2866,2.376874162
2867,2.400393427
2868,2.425934155
2869,2.405288483
2870,2.419943708
2871,2.413392595
2872,2.389055427
2873,2.391347573
2874,2.410760708
2875,2.425622308
2876,2.392383648
2877,2.400163506
2878,2.401464754
2879,2.394409365
2880,2.390533891
2881,2.397970458
2882,2.403422023
2883,2.387581424
2884,2.388978503
2885,2.404124778
2886,2.397141494
2887,2.386373035
2888,2.402820867
2889,2.395916361
2890,2.409642593
2891,2.410351784
2892,2.392454756
2893,2.414019363
2894,2.389880155
2895,2.419089398
2896,2.398566104
2897,2.399965256
2898,2.3975402
2899,2.411342398
2900,2.39581843
2901,2.394216813
2902,2.38701689
2903,2.400726006
2904,2.411104499
2905,2.413953281
2906,2.402440905
2907,2.39206325
2908,2.393008042
2909,2.384648642
2910,2.382438015
2911,2.370196799
2912,2.406592774
2913,2.414487979
2914,2.391914801
2915,2.408968514
2916,2.398037724
2917,2.397020395
2918,2.403597614
2919,2.384207072
2920,2.414828217
2921,2.389300308
2922,2.404906166
2923,2.401139011
2924,2.390591957
2925,2.39579448
2926,2.403405679
2927,2.391938543
2928,2.406533681
2929,2.394416553
2930,2.389335598
2931,2.395254633
2932,2.391425346
2933,2.402350668
2934,2.379256494
2935,2.407359359
2936,2.413887941
2937,2.407143389
2938,2.403378362
2939,2.411088549
2940,2.401930547
2941,2.399473383
2942,2.397453534
2943,2.409447338
2944,2.407946202
2945,2.405179603
2946,2.386069705
2947,2.399043243
2948,2.399722595
2949,2.39127879
2950,2.403159076
2951,2.412151977
2952,2.392392985
2953,2.408640377
2954,2.411782312
2955,2.397171008
2956,2.408841198
2957,2.395400281
2958,2.407745943
2959,2.392248428
2960,2.412272658
2961,2.396024288
2962,2.422321599
2963,2.407223067
2964,2.396398453
2965,2.391072218
2966,2.388257883
2967,2.39705648
2968,2.41188516
2969,2.408871659
2970,2.392339195
2971,2.408072391
2972,2.396558065
2973,2.401934881
2974,2.422205898
2975,2.398083005
2976,2.387586723
2977,2.395643339
2978,2.39451977
2979,2.408623004
2980,2.398500368
2981,2.392537271
2982,2.387025128
2983,2.397137642
2984,2.41605192
2985,2.391179586
2986,2.398814782
2987,2.383862167
2988,2.402855679
2989,2.397881944
2990,2.376127907
2991,2.395955246
2992,2.4085223
2993,2.396608913
2994,2.394784753
2995,2.412726448
2996,2.396293925
2997,2.384274474
2998,2.391637331
2999,2.390988221
3000,2.414839266
3001,2.402651976
3002,2.402995136
3003,2.396513696
3004,2.390661147
3005,2.399127749
3006,2.397480121
3007,2.416818588
3008,2.419801464
3009,2.402173109
3010,2.396668696
3011,2.41607721
3012,2.404083605
3013,2.394974581
3014,2.403492384
3015,2.406067604
3016,2.39449351
3017,2.386320325
3018,2.39549598
3019,2.400856815
3020,2.403852802
3021,2.40391592
3022,2.395526505
3023,2.385253977
3024,2.402786435
3025,2.408380507
3026,2.390814421
3027,2.386348358
3028,2.390528719
3029,2.411655956
3030,2.3855115
3031,2.407750585
3032,2.393521282
3033,2.390503695
3034,2.405579403
3035,2.409528284
3036,2.411680462
3037,2.408560429
3038,2.414338804
3039,2.382106838
3040,2.400682102
3041,2.405961026
3042,2.394090009
3043,2.414237149
3044,2.414628489
3045,2.402406515
3046,2.386454504
3047,2.395085652
3048,2.391565563
3049,2.405920079
3050,2.406847309
3051,2.408384528
3052,2.4181983
3053,2.376638454
3054,2.391605
3055,2.403466379
3056,2.406048978
3057,2.409225357
3058,2.406555175
3059,2.40097323
3060,2.394129037
3061,2.385055512
3062,2.396965777
3063,2.407284996
3064,2.395595534
3065,2.377571198
3066,2.403564606
3067,2.386958413
3068,2.397222132
3069,2.401941339
3070,2.420506908
3071,2.392735571
3072,2.409012418
3073,2.380024749
3074,2.389200848
3075,2.397477735
3076,2.40254488
3077,2.400569727
3078,2.389864665
3079,2.379017502
3080,2.393937487
3081,2.405568769
3082,2.397557782
3083,2.393832296
3084,2.423512739
3085,2.399690365
3086,2.405939671
3087,2.416306277
3088,2.402034853
3089,2.417400242
3090,2.396776015
3091,2.413112703
3092,2.407596734
3093,2.389211897
3094,2.40553333
3095,2.403809429
3096,2.408713103
3097,2.41529059
3098,2.400730715
3099,2.400259195
3100,2.403205778
3101,2.408221773
3102,2.403248147
3103,2.392369133
3104,2.39492512
3105,2.395531036
3106,2.405933721
3107,2.406441186
3108,2.408439635
3109,2.410640558
3110,2.386110544
3111,2.390034788
3112,2.386853215
3113,2.407218438
3114,2.414328297
3115,2.394705647
3116,2.412102515
3117,2.414479343
3118,2.407886717
3119,2.387733501
3120,2.41682571
3121,2.412082149
3122,2.398050345
3123,2.400479807
3124,2.409730506
3125,2.394246168
3126,2.411292605
3127,2.415039788
3128,2.400429478
3129,2.398260142
3130,2.399918683
3131,2.415136828
3132,2.40310678
3133,2.404701597
3134,2.397153336
3135,2.394583243
3136,2.396483266
3137,2.403340493
3138,2.377762056
3139,2.400152386
3140,2.392973687
3141,2.387546019
3142,2.41524791
3143,2.42026747
3144,2.392746073
3145,2.405152407
3146,2.419448314
3147,2.409234216
3148,2.419538602
3149,2.41055205
3150,2.384689418
3151,2.411160708
3152,2.416242595
3153,2.414130862
3154,2.399422431
3155,2.393439534
3156,2.40083484
3157,2.40662928
3158,2.404535777
3159,2.397590148
3160,2.402019718
3161,2.398949142
3162,2.404431962
3163,2.403709886
3164,2.416609784
3165,2.414933713
3166,2.379467073
3167,2.391787088
3168,2.401674025
3169,2.403237545
3170,2.39070495
3171,2.395830425
3172,2.402419605
3173,2.403901672
3174,2.417414988
3175,2.421372941
3176,2.39924544
3177,2.412752703
3178,2.396648541
3179,2.40223124
3180,2.38566241
3181,2.4120913
3182,2.409841918
3183,2.415120243
3184,2.403237378
3185,2.399406352
3186,2.400133728
3187,2.423805438
3188,2.416432865
3189,2.397979076
3190,2.414132282
3191,2.413151771
3192,2.41835648
3193,2.413838007
3194,2.413381637
3195,2.405986182
3196,2.420512363
3197,2.418873234
3198,2.406110602
3199,2.417614343
3200,2.424370942
3201,2.430419071
3202,2.413626684
3203,2.429990043
3204,2.439093248
3205,2.435708398
3206,2.434695235
3207,2.421825332
3208,2.415462361
3209,2.421015999
3210,2.415767348
3211,2.436845702
3212,2.441179131
3213,2.422375485
3214,2.440464133
3215,2.453300962
3216,2.462802327
3217,2.416124727
3218,2.447856909
3219,2.435978115
3220,2.448111485
3221,2.443979211
3222,2.434982525
3223,2.471782017
3224,2.454573205
3225,2.458391195
3226,2.473522584
3227,2.442503962
3228,2.484120949
3229,2.482810573
3230,2.456659375
3231,2.477801891
3232,2.475366139
3233,2.483104034
3234,2.48484174
3235,2.483380887
3236,2.50411349
3237,2.487374485
3238,2.485858722
3239,2.496049496
3240,2.490565262
3241,2.496812308
3242,2.505922842
3243,2.499727808
3244,2.521258685
3245,2.516052893
3246,2.533059084
3247,2.541005481
3248,2.522790329
3249,2.526099584
3250,2.545166583
3251,2.534285533
3252,2.537993008
3253,2.555179351
3254,2.553184989
3255,2.565477993
3256,2.570381015
3257,2.571388318
3258,2.561108731
3259,2.571753062
3260,2.582133737
3261,2.597932105
3262,2.58730495
3263,2.61868952
3264,2.606580575
3265,2.621086221
3266,2.620636756
3267,2.618927996
3268,2.638454162
3269,2.649130763
3270,2.6401963
3271,2.663116262
3272,2.65344488
3273,2.666648749
3274,2.662481195
3275,2.667737654
3276,2.669084102
3277,2.695713052
3278,2.70536203
3279,2.694245521
3280,2.716072179
3281,2.724078418
3282,2.71069292
3283,2.732189326
3284,2.735460384
3285,2.735853151
3286,2.747796333
3287,2.771347965
3288,2.764474146
3289,2.774923051
3290,2.794191751
3291,2.798953677
3292,2.801238333
3293,2.803176041
3294,2.826799366
3295,2.821218966
3296,2.834806731
3297,2.833741329
3298,2.861940806
3299,2.874639528
3300,2.868051698
3301,2.883441825
3302,2.884037658
3303,2.883652426
3304,2.907638828
3305,2.915041865
3306,2.916675634
3307,2.901879231
3308,2.941722985
3309,2.930354602
3310,2.968538244
3311,2.97512433
3312,2.975706131
3313,2.97927331
3314,2.981764382
3315,3.001547745
3316,2.98108181
3317,3.012943834
3318,3.004162725
3319,3.034870371
3320,3.039179265
3321,3.032448622
3322,3.047735662
3323,3.046092919
3324,3.072886324
3325,3.063700863
3326,3.079934735
3327,3.083110874
3328,3.09094439
3329,3.096211569
3330,3.102660402
3331,3.108288942
3332,3.12093384
3333,3.122461743
3334,3.131908524
3335,3.139426841
3336,3.154783038
3337,3.148028037
3338,3.147789622
3339,3.156708401
3340,3.173484956
3341,3.159558597
3342,3.188366211
3343,3.195364827
3344,3.205391802
3345,3.199427043
3346,3.207719094
3347,3.233703111
3348,3.226418084
3349,3.216007513
3350,3.209809562
3351,3.2442365
3352,3.244811578
3353,3.243354955
3354,3.243880753
3355,3.209548285
3356,3.260826915
3357,3.241695776
3358,3.253443562
3359,3.251430214
3360,3.248656937
3361,3.260430396
3362,3.267398886
3363,3.272389473
3364,3.290641914
3365,3.290162717
3366,3.275923468
3367,3.264330067
3368,3.275048869
3369,3.290957594
3370,3.297373249
3371,3.298982589
3372,3.296820647
3373,3.274908742
3374,3.318050522
3375,3.29749512
3376,3.300569165
3377,3.297901503
3378,3.293858668
3379,3.314526024
3380,3.3078735
3381,3.312970878
3382,3.315354202
3383,3.301520175
3384,3.29106478
3385,3.302683618
3386,3.289916439
3387,3.303645178
3388,3.310469832
3389,3.318551498
3390,3.303560754
3391,3.294846975
3392,3.311758419
3393,3.28348546
3394,3.307774027
3395,3.312093778
3396,3.322417933
3397,3.315739682
3398,3.319853522
3399,3.30524965
3400,3.330255537
3401,3.318617601
3402,3.318212773
3403,3.30772928
3404,3.330319443
3405,3.324915294
3406,3.296899792
3407,3.307539666
3408,3.325795643
3409,3.317136212
3410,3.3143033
3411,3.303083016
3412,3.33850444
3413,3.321522209
3414,3.313122389
3415,3.311079043
3416,3.302444377
3417,3.292073687
3418,3.312562399
3419,3.324797599
3420,3.33063287
3421,3.335102744
3422,3.324942116
3423,3.332521429
3424,3.324519306
3425,3.313162644
3426,3.31244645
3427,3.333453463
3428,3.34438466
3429,3.314778064
3430,3.337199889
3431,3.349513794
3432,3.329330462
3433,3.330816225
3434,3.345570911
3435,3.335794909
3436,3.377550447
3437,3.347082375
3438,3.367745115
3439,3.36807725
3440,3.359301684
3441,3.364375672
3442,3.364195913
3443,3.371401531
3444,3.378989333
3445,3.374590272
3446,3.39042867
3447,3.360093069
3448,3.374024079
3449,3.380932938
3450,3.383274237
3451,3.382162329
3452,3.410834853
3453,3.405742101
3454,3.398439795
3455,3.414865816
3456,3.409393359
3457,3.400817816
3458,3.410875241
3459,3.416379804
3460,3.415838625
3461,3.422950681
3462,3.435424185
3463,3.41539798
3464,3.424086156
3465,3.428882573
3466,3.441926332
3467,3.432639415
3468,3.439924843
3469,3.442600362
3470,3.445542546
3471,3.451000036
3472,3.470517218
3473,3.440611098
3474,3.454943523
3475,3.453608101
3476,3.437519668
3477,3.453437542
3478,3.473091042
3479,3.468066093
3480,3.44573686
3481,3.458381423
3482,3.464194028
3483,3.454304511
3484,3.461178168
3485,3.462424293
3486,3.482864817
3487,3.472743324
3488,3.471998179
3489,3.463913679
3490,3.463256314
3491,3.473946556
3492,3.479016488
3493,3.478291903
3494,3.471559758
3495,3.459604009
3496,3.481759357
3497,3.450422767
3498,3.44902179
3499,3.460628488
3500,3.444820582
3501,3.444029053
3502,3.475366261
3503,3.457499218
3504,3.453563076
3505,3.451905369
3506,3.449332094
3507,3.430022889
3508,3.439898313
3509,3.427132855
3510,3.430500263
3511,3.425450818
3512,3.41039952
3513,3.393962238
3514,3.406650215
3515,3.382735055
3516,3.371916113
3517,3.369273404
3518,3.387340303
3519,3.371711868
3520,3.369090253
3521,3.377352345
3522,3.3440765
3523,3.341636801
3524,3.340492699
3525,3.336513496
3526,3.331343955
3527,3.332960285
3528,3.311719236
3529,3.302069937
3530,3.293107922
3531,3.295503567
3532,3.290279856
3533,3.285512564
3534,3.275518212
3535,3.26103897
3536,3.259955776
3537,3.250677988
3538,3.244132428
3539,3.237734943
3540,3.201751907
3541,3.199520037
3542,3.200038929
3543,3.184874874
3544,3.16658427
3545,3.166121735
3546,3.150043385
3547,3.15576224
3548,3.119970815
3549,3.128319571
3550,3.113546144
3551,3.100241541
3552,3.101058311
3553,3.064097261
3554,3.045272947
3555,3.051141366
3556,3.037737513
3557,3.047154325
3558,3.03737178
3559,3.006787763
3560,3.021746419
3561,2.997533061
3562,3.009971387
3563,2.970094947
3564,2.973673925
3565,2.951256917
3566,2.928227396
3567,2.933444885
3568,2.946296908
3569,2.899297183
3570,2.910077657
3571,2.888711265
3572,2.895092785
3573,2.894418557
3574,2.86068
3575,2.861752731
3576,2.867259476
3577,2.839098812
3578,2.83999928
3579,2.826348995
3580,2.803956058
3581,2.825707691
3582,2.80874524
3583,2.790052837
3584,2.781929342
3585,2.774014724
3586,2.754388016
3587,2.746500766
3588,2.742669499
3589,2.732724781
3590,2.723620118
3591,2.697922148
3592,2.700969914
3593,2.70935629
3594,2.701777328
3595,2.684645454
3596,2.710068182
3597,2.681216884
3598,2.676347439
3599,2.676332292
3600,2.654772484
3601,2.631074961
3602,2.643867056
3603,2.619679047
3604,2.605901683
3605,2.611337606
3606,2.610820291
3607,2.608082384
3608,2.617201228
3609,2.600006017
3610,2.57750796
3611,2.589876483
3612,2.580101458
3613,2.562185765
3614,2.550916487
3615,2.56152324
3616,2.540405132
3617,2.542130457
3618,2.549151568
3619,2.539123169
3620,2.51711725
3621,2.5303005
3622,2.520692282
3623,2.520458072
3624,2.522028825
3625,2.525809819
3626,2.518198321
3627,2.506442569
3628,2.500804787
3629,2.494993319
3630,2.498873401
3631,2.481828699
3632,2.488133032
3633,2.504002846
3634,2.468074938
3635,2.492189516
3636,2.474477244
3637,2.456761998
3638,2.479306349
3639,2.465995008
3640,2.46839513
3641,2.468875429
3642,2.460619637
3643,2.44783503
3644,2.47058652
3645,2.450346727
3646,2.447005436
3647,2.446827544
3648,2.45681681
3649,2.430260219
3650,2.43028536
3651,2.449353651
3652,2.443261066
3653,2.437418004
3654,2.446820661
3655,2.411238201
3656,2.424477889
3657,2.429839119
3658,2.43565172
3659,2.433828095
3660,2.45119002
3661,2.438554042
3662,2.437222
3663,2.419929129
3664,2.411255104
3665,2.443757512
3666,2.426919515
3667,2.425644245
3668,2.432808519
3669,2.429819745
3670,2.431481806
3671,2.425198808
3672,2.404538176
3673,2.421857589
3674,2.403548866
3675,2.419554304
3676,2.402973075
3677,2.418203661
3678,2.395969425
3679,2.408448362
3680,2.409928872
3681,2.406976944
3682,2.421654884
3683,2.400794488
3684,2.411909657
3685,2.409689559
3686,2.396366008
3687,2.396113859
3688,2.399246972
3689,2.42513121
3690,2.405170881
3691,2.374616462
3692,2.396078026
3693,2.399089375
3694,2.390445909
3695,2.3901829
3696,2.405640436
3697,2.390502833
3698,2.401481065
3699,2.410602094
3700,2.398250715
3701,2.40323494
3702,2.402159915
3703,2.407302779
3704,2.403173907
3705,2.399543325
3706,2.403872664
3707,2.412958184
3708,2.396353136
3709,2.409350463
3710,2.404159787
3711,2.412512641
3712,2.421396115
3713,2.397952399
3714,2.407348753
3715,2.425320659
3716,2.40453519
3717,2.400444202
3718,2.383463167
3719,2.393933053
3720,2.418409019
3721,2.406883207
3722,2.384584408
3723,2.402502919
3724,2.403832547
3725,2.39212592
3726,2.390282851
3727,2.397296271
3728,2.399016538
3729,2.398267404
3730,2.400790489
3731,2.395877003
3732,2.397180409
3733,2.394233537
3734,2.398646782
3735,2.411991082
3736,2.388603018
3737,2.405734054
3738,2.407021174
3739,2.406244684
3740,2.412936928
3741,2.397620689
3742,2.39436246
3743,2.405069061
3744,2.404466432
3745,2.400443958
3746,2.398863684
3747,2.404534743
3748,2.413974349
3749,2.404330824
3750,2.413592061
3751,2.395575783
3752,2.400137859
3753,2.399767677
3754,2.406168997
3755,2.400103874
3756,2.402387583
3757,2.413234432
3758,2.386901095
3759,2.398976578
3760,2.392718781
3761,2.410066714
3762,2.412141672
3763,2.418886393
3764,2.393977682
3765,2.391738165
3766,2.388299974
3767,2.405239347
3768,2.396115943
3769,2.404717883
3770,2.396625172
3771,2.390250443
3772,2.392819204
3773,2.38806019
3774,2.372006981
3775,2.386338461
3776,2.390345619
3777,2.378679086
3778,2.399472399
3779,2.406847049
3780,2.388811421
3781,2.396576412
3782,2.384315761
3783,2.410735465
3784,2.403680507
3785,2.412665685
3786,2.404586761
3787,2.400342744
3788,2.393862781
3789,2.395609389
3790,2.387788663
3791,2.376526621
3792,2.38128761
3793,2.420868636
3794,2.403390703
3795,2.41830351
3796,2.401144205
3797,2.399697856
3798,2.390623655
3799,2.426933472
3800,2.402089008
3801,2.391457969
3802,2.402631365
3803,2.426082378
3804,2.399133037
3805,2.399684623
3806,2.417662466
3807,2.416113341
3808,2.393846149
3809,2.385954137
3810,2.388388771
3811,2.39326782
3812,2.404616476
3813,2.398465379
3814,2.392546421
3815,2.414014416
3816,2.397586395
3817,2.398673341
3818,2.39014407
3819,2.410977473
3820,2.381270907
3821,2.38199974
3822,2.407388879
3823,2.39124719
3824,2.389018461
3825,2.401020916
3826,2.392662466
3827,2.399146828
3828,2.381832025
3829,2.401219261
3830,2.392372786
3831,2.392041452
3832,2.39854902
3833,2.414325298
3834,2.405944268
3835,2.38830606
3836,2.391583675
3837,2.402217698
3838,2.397859231
3839,2.39811436
3840,2.402990564
3841,2.395852161
3842,2.411211703
3843,2.392055572
3844,2.383689426
3845,2.404874871
3846,2.405056967
3847,2.398683338
3848,2.393195445
3849,2.41501509
3850,2.390563071
3851,2.407312965
3852,2.389973014
3853,2.391653441
3854,2.382564199
3855,2.391851637
3856,2.399725484
3857,2.404903498
3858,2.395929832
3859,2.419129488
3860,2.397311953
3861,2.393180264
3862,2.399389516
3863,2.392503491
3864,2.401243003
3865,2.387366217
3866,2.407170589
3867,2.400011693
3868,2.38561202
3869,2.399617641
3870,2.384124145
3871,2.403157554
3872,2.397150544
3873,2.396760276
3874,2.39097
3875,2.40326136
3876,2.38988768
3877,2.386910267
3878,2.388647035
3879,2.406312
3880,2.388800472
3881,2.40002617
3882,2.40929341
3883,2.399483974
3884,2.408355352
3885,2.384969429
3886,2.391393277
3887,2.399869898
3888,2.412964889
3889,2.418269865
3890,2.401299171
3891,2.40026976
3892,2.412487866
3893,2.40154003
3894,2.380622672
3895,2.401142261
3896,2.400381894
3897,2.381606961
3898,2.40228289
3899,2.402369174
3900,2.404123152
3901,2.401204316
3902,2.399699403
3903,2.410633779
3904,2.404498919
3905,2.397323802
3906,2.396782395
3907,2.391829521
3908,2.392031933
3909,2.411544852
3910,2.395016862
3911,2.402312961
3912,2.39972724
3913,2.400756878
3914,2.39676929
3915,2.39719602
3916,2.407131495
3917,2.410567614
3918,2.404368526
3919,2.407678132
3920,2.414591909
3921,2.389572389
3922,2.411092464
3923,2.391622382
3924,2.389142685
3925,2.399984706
3926,2.374362849
3927,2.402484687
3928,2.393128126
3929,2.406232653
3930,2.406341067
3931,2.394889434
3932,2.417198828
3933,2.406084542
3934,2.409454047
3935,2.39775186
3936,2.392856211
3937,2.407409928
3938,2.407301411
3939,2.39037196
3940,2.386679017
3941,2.42034646
3942,2.405547352
3943,2.391613676
3944,2.400211618
3945,2.401114066
3946,2.382218378
3947,2.408333844
3948,2.403047905
3949,2.404206816
3950,2.399556704
3951,2.409290904
3952,2.38972054
3953,2.388620092
3954,2.400176161
3955,2.396073909
3956,2.409647986
3957,2.393896303
3958,2.39934593
3959,2.384053467
3960,2.417597163
3961,2.406830631
3962,2.400644739
3963,2.398673832
3964,2.391849923
3965,2.393157891
3966,2.379325429
3967,2.401639787
3968,2.41268433
3969,2.399968746
3970,2.399595507
3971,2.391236835
3972,2.397804336
3973,2.398766328
3974,2.385123875
3975,2.403657672
3976,2.412048414
3977,2.399265413
3978,2.394086856
3979,2.407818611
3980,2.393910459
3981,2.399104959
3982,2.404712361
3983,2.394010955
3984,2.393883323
3985,2.396780902
3986,2.412165446
3987,2.408357133
3988,2.394843929
3989,2.402272292
3990,2.390982272
3991,2.401499037
3992,2.40380063
3993,2.40179961
3994,2.398096054
3995,2.379368745
3996,2.399449665
3997,2.380165079
3998,2.411826671
3999,2.398930715
4000,2.400727729
