Raman Shift,Intensity
135.083,832.0
136.47,821.0
137.857,833.0
139.243,843.0
140.63,832.0
142.016,833.0
143.401,845.0
144.787,832.0
146.172,825.0
147.557,822.0
148.942,841.0
150.327,846.0
151.711,858.0
153.096,869.0
154.48,851.0
155.863,849.0
157.247,874.0
158.63,900.0
160.013,909.0
161.396,933.887
162.779,958.08
164.161,978.0
165.544,1008.0
166.926,1045.0
168.308,1065.0
169.689,1064.0
171.07,1114.0
172.452,1153.0
173.833,1216.0
175.213,1276.0
176.594,1330.0
177.974,1439.0
179.354,1481.0
180.734,1590.0
182.114,1728.0
183.493,1839.0
184.872,1957.0
186.251,2141.0
187.63,2188.0
189.008,2238.0
190.387,2186.0
191.765,2095.0
193.143,1947.0
194.52,1740.0
195.898,1595.0
197.275,1379.0
198.652,1245.0
200.029,1148.0
201.405,1048.0
202.782,976.0
204.158,924.0
205.534,888.0
206.909,890.0
208.285,866.0
209.66,832.0
211.035,769.0
212.41,730.0
213.784,703.0
215.159,722.0
216.533,710.0
217.907,692.0
219.281,699.0
220.654,670.0
222.027,695.0
223.4,692.0
224.773,686.0
226.146,694.0
227.518,714.0
228.891,709.0
230.263,719.0
231.634,707.0
233.006,701.0
234.377,707.0
235.748,711.0
237.119,722.0
238.49,721.0
239.86,718.0
241.231,731.0
242.601,745.0
243.97,757.0
245.34,739.0
246.709,763.0
248.079,753.0
249.448,779.0
250.816,795.0
252.185,798.0
253.553,817.0
254.921,810.0
256.289,820.0
257.657,836.0
259.024,851.0
260.391,867.0
261.758,890.0
263.125,909.0
264.492,918.0
265.858,994.0
267.224,973.0
268.59,1008.0
269.956,1105.0
271.321,1142.0
272.687,1201.0
274.052,1265.0
275.416,1359.0
276.781,1520.0
278.146,1596.0
279.51,1817.0
280.874,1977.0
282.237,2263.0
283.601,2606.0
284.964,2944.0
286.327,3273.0
287.69,3653.0
289.053,4079.0
290.416,4338.0
291.778,4487.0
293.14,4629.0
294.502,4464.0
295.863,4373.0
297.225,4008.0
298.586,3673.0
299.947,3276.0
301.308,2973.0
302.668,2654.0
304.029,2329.0
305.389,2053.0
306.749,1856.0
308.108,1692.0
309.468,1527.0
310.827,1396.0
312.186,1301.0
313.545,1211.511
314.903,1177.0
316.262,1105.0
317.62,1083.0
318.978,1060.0
320.336,1009.0
321.693,975.0
323.051,938.0
324.408,960.0
325.765,884.0
327.121,907.0
328.478,858.0
329.834,883.0
331.19,841.0
332.546,844.0
333.902,818.0
335.257,806.0
336.612,802.583
337.967,816.0
339.322,795.0
340.677,795.0
342.031,797.0
343.385,792.0
344.739,796.0
346.093,780.0
347.446,768.0
348.799,766.616
350.153,757.0
351.505,753.0
352.858,750.089
354.21,755.0
355.563,747.0
356.915,738.0
358.267,741.0
359.618,724.0
360.969,731.0
362.321,710.0
363.672,702.0
365.022,725.0
366.373,706.0
367.723,723.0
369.073,710.0
370.423,698.0
371.773,703.0
373.122,713.0
374.471,704.0
375.821,716.0
377.169,692.0
378.518,687.0
379.866,695.0
381.215,662.0
382.563,686.0
383.91,707.0
385.258,686.0
386.605,682.0
387.952,698.0
389.299,686.0
390.646,705.0
391.992,692.0
393.339,679.0
394.685,679.0
396.031,677.0
397.376,671.0
398.722,643.0
400.067,633.0
401.412,650.0
402.757,663.0
404.101,649.0
405.446,653.0
406.79,665.0
408.134,642.0
409.478,668.0
410.821,655.0
412.165,654.0
413.508,651.0
414.851,657.0
416.193,652.0
417.536,655.0
418.878,683.0
420.22,641.0
421.562,657.0
422.904,698.0
424.245,655.0
425.586,679.0
426.927,670.0
428.268,673.0
429.609,679.0
430.949,670.0
432.289,678.622
433.629,663.0
434.969,683.0
436.309,679.0
437.648,671.0
438.987,659.0
440.326,683.0
441.665,663.0
443.003,690.0
444.342,679.0
445.68,695.0
447.018,695.0
448.355,677.0
449.693,685.0
451.03,709.0
452.367,715.0
453.704,719.0
455.041,711.0
456.377,713.0
457.713,724.0
459.049,709.0
460.385,719.0
461.721,734.0
463.056,742.0
464.391,739.0
465.726,721.0
467.061,732.0
468.395,761.0
469.73,713.0
471.064,766.0
472.398,806.0
473.731,778.0
475.065,771.0
476.398,780.0
477.731,803.0
479.064,797.0
480.397,814.0
481.729,802.0
483.062,823.0
484.394,805.0
485.725,838.0
487.057,839.0
488.389,852.0
489.72,851.0
491.051,865.0
492.382,862.0
493.712,870.0
495.043,880.0
496.373,880.0
497.703,893.0
499.032,876.0
500.362,881.0
501.691,907.0
503.02,884.0
504.349,896.0
505.678,897.0
507.007,910.0
508.335,898.0
509.663,911.0
510.991,918.0
512.319,917.0
513.646,928.0
514.973,910.0
516.3,910.0
517.627,890.0
518.954,912.0
520.28,913.0
521.607,896.0
522.933,907.0
524.259,886.0
525.584,863.0
526.91,885.0
528.235,876.0
529.56,889.0
530.885,872.0
532.209,856.0
533.534,841.0
534.858,853.0
536.182,838.0
537.506,850.0
538.829,827.0
540.152,807.0
541.476,812.0
542.799,813.0
544.121,802.0
545.444,816.0
546.766,786.0
548.088,822.0
549.41,781.0
550.732,763.0
552.053,779.0
553.375,758.0
554.696,774.0
556.017,739.0
557.337,754.0
558.658,760.0
559.978,744.0
561.298,719.0
562.618,750.0
563.938,734.0
565.257,717.0
566.576,745.0
567.895,717.0
569.214,721.0
570.533,705.0
571.851,718.0
573.17,689.0
574.488,687.0
575.805,724.0
577.123,706.0
578.44,673.0
579.758,690.0
581.075,670.0
582.391,690.0
583.708,675.0
585.024,686.0
586.341,673.0
587.657,693.0
588.972,679.0
590.288,660.0
591.603,677.0
592.918,644.0
594.233,649.0
595.548,661.0
596.863,647.0
598.177,641.0
599.491,641.0
600.805,645.0
602.119,650.0
603.432,655.0
604.746,641.0
606.059,633.0
607.372,652.0
608.685,638.0
609.997,648.0
611.309,652.0
612.621,631.0
613.933,642.0
615.245,648.0
616.557,621.0
617.868,614.0
619.179,652.0
620.49,634.0
621.801,647.0
623.111,621.0
624.421,632.0
625.731,653.0
627.041,643.0
628.351,651.102
629.66,642.0
630.97,645.0
632.279,643.0
633.588,634.0
634.896,635.175
636.205,634.0
637.513,631.0
638.821,623.0
640.129,623.0
641.437,618.0
642.744,619.303
644.051,610.0
645.358,625.0
646.665,636.0
647.972,642.0
649.278,631.0
650.584,634.0
651.89,626.746
653.196,642.0
654.502,620.0
655.807,621.0
657.113,635.0
658.418,646.0
659.722,627.0
661.027,625.0
662.331,625.0
663.636,638.0
664.94,638.0
666.244,620.0
667.547,643.0
668.851,623.0
670.154,629.0
671.457,631.0
672.76,639.0
674.062,638.608
675.365,637.011
676.667,643.0
677.969,634.0
679.271,644.0
680.572,654.0
681.874,649.0
683.175,658.933
684.476,646.0
685.777,671.0
687.077,661.0
688.378,672.926
689.678,671.449
690.978,676.0
692.278,661.0
693.577,665.0
694.877,655.0
696.176,678.0
697.475,671.0
698.774,682.0
700.072,702.0
701.371,686.0
702.669,675.0
703.967,686.0
705.265,686.0
706.562,691.0
707.86,703.525
709.157,710.728
710.454,730.0
711.751,739.0
713.047,756.0
714.344,780.0
715.64,793.0
716.936,841.0
718.232,888.0
719.527,923.0
720.823,1002.0
722.118,1010.0
723.413,1103.0
724.708,1131.0
726.002,1217.0
727.297,1234.0
728.591,1288.0
729.885,1306.0
731.179,1352.0
732.472,1376.0
733.766,1313.0
735.059,1308.0
736.352,1309.0
737.645,1227.0
738.937,1220.0
740.23,1202.0
741.522,1166.0
742.814,1168.0
744.106,1160.0
745.397,1083.0
746.689,1044.0
747.98,1035.0
749.271,961.0
750.562,909.0
751.853,881.0
753.143,858.0
754.433,850.0
755.723,816.0
757.013,809.0
758.303,776.0
759.592,761.0
760.881,750.0
762.17,735.0
763.459,710.0
764.748,719.0
766.036,729.0
767.325,679.0
768.613,693.0
769.901,695.0
771.188,708.0
772.476,710.0
773.763,710.0
775.05,708.0
776.337,694.0
777.624,693.0
778.91,686.0
780.196,698.0
781.482,700.0
782.768,703.0
784.054,687.0
785.339,689.0
786.625,683.0
787.91,687.0
789.195,681.0
790.479,687.0
791.764,685.277
793.048,684.0
794.332,679.0
795.616,682.0
796.9,666.0
798.183,684.0
799.467,679.0
800.75,673.0
802.033,684.0
803.316,683.0
804.598,679.0
805.88,697.0
807.163,679.0
808.445,695.0
809.726,693.0
811.008,675.0
812.289,677.0
813.57,683.0
814.851,700.0
816.132,695.0
817.413,701.005
818.693,706.0
819.973,699.0
821.253,704.097
822.533,701.705
823.813,702.0
825.092,702.0
826.371,695.0
827.65,701.0
828.929,706.0
830.208,702.0
831.486,691.0
832.764,710.0
834.042,695.0
835.32,689.0
836.598,695.0
837.875,689.0
839.152,691.484
840.429,704.0
841.706,694.0
842.983,698.0
844.259,698.0
845.536,699.808
846.812,703.0
848.088,710.0
849.363,718.0
850.639,725.0
851.914,706.0
853.189,719.0
854.464,703.0
855.739,710.0
857.013,714.0
858.288,740.0
859.562,730.0
860.836,747.0
862.11,740.0
863.383,773.0
864.656,772.0
865.93,760.0
867.203,771.0
868.475,811.0
869.748,801.0
871.02,785.0
872.292,797.0
873.564,766.0
874.836,763.0
876.108,742.0
877.379,733.0
878.65,724.0
879.922,738.0
881.192,732.0
882.463,748.0
883.733,721.0
885.004,743.0
886.274,703.0
887.544,750.0
888.813,723.0
890.083,732.0
891.352,753.0
892.621,746.0
893.89,727.0
895.159,752.0
896.427,747.0
897.695,752.0
898.964,748.0
900.232,761.0
901.499,759.063
902.767,738.0
904.034,760.0
905.301,755.0
906.568,750.0
907.835,760.0
909.102,751.106
910.368,749.0
911.634,753.0
912.9,744.0
914.166,765.0
915.432,734.0
916.697,781.0
917.962,750.0
919.227,761.0
920.492,759.0
921.757,773.0
923.021,768.0
924.285,770.0
925.55,779.0
926.813,779.0
928.077,782.0
929.341,753.0
930.604,776.0
931.867,770.0
933.13,796.0
934.393,808.0
935.655,761.0
936.918,763.0
938.18,771.0
939.442,796.0
940.703,792.0
941.965,771.0
943.226,796.0
944.488,794.0
945.749,820.0
947.009,789.0
948.27,814.0
949.53,812.0
950.791,807.0
952.051,811.0
953.311,822.0
954.57,801.0
955.83,813.0
957.089,804.0
958.348,833.0
959.607,836.0
960.866,812.0
962.124,808.0
963.383,803.0
964.641,821.0
965.899,857.0
967.156,838.0
968.414,856.0
969.671,842.0
970.928,843.0
972.185,839.0
973.442,854.0
974.699,850.0
975.955,867.0
977.211,862.0
978.468,864.876
979.723,858.0
980.979,864.0
982.234,865.0
983.49,863.0
984.745,879.0
986.0,875.236
987.254,879.485
988.509,881.0
989.763,882.0
991.017,890.0
992.271,891.0
993.525,899.0
994.779,880.0
996.032,903.0
997.285,918.0
998.538,902.0
999.791,914.0
1001.044,929.0
1002.296,925.0
1003.548,913.0
1004.8,918.0
1006.052,907.0
1007.304,931.0
1008.555,914.0
1009.807,942.0
1011.058,922.0
1012.309,939.0
1013.559,938.0
1014.81,951.0
1016.06,935.0
1017.31,948.0
1018.56,980.0
1019.81,1008.0
1021.06,958.0
1022.309,1015.0
1023.558,1006.0
1024.807,1010.0
1026.056,1030.0
1027.305,1032.949
1028.553,1036.0
1029.801,1065.0
1031.049,1070.0
1032.297,1098.0
1033.545,1107.0
1034.793,1106.0
1036.04,1148.0
1037.287,1155.0
1038.534,1190.0
1039.781,1219.0
1041.027,1213.0
1042.274,1281.0
1043.52,1320.0
1044.766,1294.0
1046.012,1372.0
1047.257,1432.0
1048.503,1427.0
1049.748,1485.0
1050.993,1524.0
1052.238,1578.0
1053.483,1655.0
1054.727,1697.0
1055.971,1769.0
1057.216,1851.5
1058.459,1906.0
1059.703,2013.0
1060.947,2127.0
1062.19,2183.0
1063.433,2329.0
1064.676,2477.0
1065.919,2612.0
1067.162,2745.0
1068.404,2904.0
1069.646,3139.0
1070.888,3248.0
1072.13,3567.0
1073.372,3891.0
1074.613,4228.0
1075.855,4663.0
1077.096,5287.0
1078.337,5846.0
1079.578,6902.0
1080.818,8114.0
1082.059,9850.0
1083.299,12235.0
1084.539,15129.0
1085.779,19241.0
1087.018,23279.0
1088.258,26581.0
1089.497,28003.0
1090.736,26306.0
1091.975,22521.0
1093.213,18350.0
1094.452,14111.0
1095.69,11056.0
1096.928,8744.0
1098.166,6818.0
1099.404,5465.0
1100.642,4510.0
1101.879,3862.0
1103.116,3323.0
1104.353,2909.0
1105.59,2569.0
1106.827,2342.0
1108.063,2119.0
1109.299,2020.0
1110.536,1817.0
1111.771,1765.0
1113.007,1640.0
1114.243,1537.0
1115.478,1486.0
1116.713,1462.0
1117.948,1418.0
1119.183,1368.0
1120.418,1361.345
1121.652,1349.087
1122.886,1322.0
1124.12,1342.0
1125.354,1287.0
1126.588,1235.0
1127.821,1179.0
1129.055,1176.0
1130.288,1144.0
1131.521,1152.0
1132.753,1120.0
1133.986,1186.0
1135.218,1141.11
1136.45,1135.805
1137.682,1107.0
1138.914,1096.0
1140.146,1108.0
1141.377,1103.0
1142.609,1033.0
1143.84,1084.0
1145.071,1043.0
1146.301,1028.0
1147.532,1049.0
1148.762,1056.0
1149.992,1058.0
1151.222,1035.0
1152.452,1019.0
1153.682,1032.0
1154.911,1032.0
1156.14,1049.0
1157.369,1009.0
1158.598,1066.0
1159.827,1042.0
1161.055,1024.0
1162.284,1042.0
1163.512,1051.0
1164.74,1033.0
1165.967,1046.0
1167.195,1032.0
1168.422,1050.0
1169.65,1036.0
1170.877,1032.0
1172.103,1033.0
1173.33,1042.0
1174.557,1048.0
1175.783,1003.0
1177.009,1024.0
1178.235,1062.0
1179.461,1012.0
1180.686,1019.0
1181.912,1052.0
1183.137,1040.0
1184.362,1019.0
1185.587,1058.0
1186.811,1052.0
1188.036,1033.0
1189.26,1046.0
1190.484,1024.0
1191.708,1050.0
1192.932,1046.0
1194.155,1040.0
1195.378,1041.0
1196.602,1034.0
1197.825,1068.0
1199.047,1032.0
1200.27,1020.0
1201.492,1054.0
1202.715,1039.0
1203.937,1048.0
1205.159,1020.0
1206.38,1056.0
1207.602,1059.0
1208.823,1068.0
1210.044,1046.0
1211.265,1048.0
1212.486,1054.0
1213.707,1044.0
1214.927,1046.0
1216.147,1046.757
1217.367,1060.0
1218.587,1052.0
1219.807,1058.0
1221.027,1067.0
1222.246,1032.0
1223.465,1092.0
1224.684,1067.0
1225.903,1062.0
1227.121,1095.0
1228.34,1079.0
1229.558,1069.0
1230.776,1092.0
1231.994,1048.0
1233.212,1057.0
1234.429,1056.0
1235.646,1071.0
1236.864,1088.0
1238.081,1088.0
1239.297,1068.0
1240.514,1098.0
1241.73,1062.0
1242.947,1088.0
1244.163,1077.0
1245.378,1081.0
1246.594,1095.0
1247.81,1086.0
1249.025,1061.0
1250.24,1084.0
1251.455,1065.0
1252.67,1073.0
1253.885,1062.0
1255.099,1063.0
1256.313,1094.0
1257.527,1072.0
1258.741,1059.0
1259.955,1110.0
1261.168,1067.0
1262.382,1100.0
1263.595,1075.0
1264.808,1104.0
1266.021,1097.0
1267.233,1113.0
1268.446,1075.0
1269.658,1114.0
1270.87,1094.0
1272.082,1084.0
1273.294,1104.0
1274.505,1086.0
1275.716,1099.0
1276.928,1104.0
1278.139,1084.0
1279.349,1088.0
1280.56,1085.706
1281.77,1099.0
1282.981,1088.0
1284.191,1101.0
1285.401,1106.0
1286.61,1114.0
1287.82,1092.0
1289.029,1130.0
1290.239,1096.0
1291.448,1108.0
1292.656,1108.0
1293.865,1101.0
1295.073,1106.0
1296.282,1081.0
1297.49,1115.0
1298.698,1116.0
1299.906,1130.0
1301.113,1102.0
1302.32,1091.0
1303.528,1111.0
1304.735,1113.0
1305.942,1123.0
1307.148,1107.0
1308.355,1113.0
1309.561,1119.0
1310.767,1122.0
1311.973,1118.089
1313.179,1108.0
1314.384,1108.0
1315.59,1099.0
1316.795,1099.0
1318.0,1099.0
1319.205,1122.0
1320.41,1133.0
1321.614,1136.0
1322.819,1136.73
1324.023,1110.0
1325.227,1124.0
1326.431,1109.0
1327.634,1107.0
1328.838,1103.0
1330.041,1105.0
1331.244,1102.0
1332.447,1093.299
1333.65,1108.0
1334.852,1089.0
1336.055,1102.0
1337.257,1135.0
1338.459,1119.0
1339.661,1152.0
1340.862,1128.0
1342.064,1111.0
1343.265,1121.0
1344.466,1124.0
1345.667,1114.0
1346.868,1107.0
1348.068,1121.0
1349.269,1112.0
1350.469,1114.0
1351.669,1131.0
1352.869,1115.0
1354.069,1131.0
1355.268,1100.0
1356.468,1146.0
1357.667,1106.0
1358.866,1114.0
1360.065,1138.0
1361.263,1119.0
1362.462,1102.0
1363.66,1113.0
1364.858,1126.0
1366.056,1122.0
1367.254,1109.0
1368.451,1127.0
1369.649,1105.0
1370.846,1113.0
1372.043,1103.0
1373.24,1113.0
1374.436,1126.0
1375.633,1127.0
1376.829,1123.0
1378.025,1110.0
1379.221,1110.0
1380.417,1107.517
1381.613,1126.0
1382.808,1111.0
1384.003,1097.0
1385.199,1102.141
1386.393,1131.0
1387.588,1124.0
1388.783,1123.0
1389.977,1144.0
1391.171,1127.0
1392.365,1139.0
1393.559,1167.0
1394.753,1172.0
1395.946,1178.404
1397.14,1179.822
1398.333,1182.0
1399.526,1166.0
1400.719,1172.0
1401.911,1163.0
1403.104,1162.0
1404.296,1172.0
1405.488,1168.0
1406.68,1188.0
1407.872,1185.0
1409.063,1182.0
1410.255,1205.0
1411.446,1178.0
1412.637,1238.0
1413.828,1222.0
1415.018,1230.0
1416.209,1243.0
1417.399,1244.0
1418.589,1272.0
1419.779,1251.0
1420.969,1267.0
1422.159,1255.0
1423.348,1283.0
1424.537,1323.0
1425.726,1284.0
1426.915,1295.0
1428.104,1334.0
1429.293,1311.0
1430.481,1336.0
1431.669,1338.0
1432.857,1325.0
1434.045,1359.0
1435.233,1373.0
1436.42,1327.0
1437.608,1386.0
1438.795,1389.0
1439.982,1372.0
1441.169,1353.0
1442.355,1363.0
1443.542,1356.0
1444.728,1361.0
1445.914,1368.401
1447.1,1369.0
1448.286,1385.0
1449.472,1386.0
1450.657,1395.0
1451.842,1374.0
1453.027,1398.0
1454.212,1378.0
1455.397,1374.0
1456.581,1422.0
1457.766,1402.0
1458.95,1411.0
1460.134,1404.0
1461.318,1396.0
1462.501,1432.0
1463.685,1364.0
1464.868,1411.0
1466.051,1374.0
1467.234,1375.0
1468.417,1394.0
1469.6,1410.0
1470.782,1394.0
1471.965,1426.0
1473.147,1390.0
1474.329,1379.0
1475.51,1386.0
1476.692,1381.0
1477.873,1403.0
1479.055,1388.0
1480.236,1399.0
1481.416,1352.0
1482.597,1387.0
1483.778,1359.0
1484.958,1366.0
1486.138,1396.0
1487.318,1376.0
1488.498,1374.0
1489.678,1360.0
1490.857,1338.0
1492.037,1354.0
1493.216,1337.0
1494.395,1355.0
1495.574,1331.0
1496.752,1342.0
1497.931,1316.0
1499.109,1319.0
1500.287,1338.0
1501.465,1333.0
1502.643,1312.0
1503.82,1318.0
1504.998,1330.0
1506.175,1294.0
1507.352,1336.0
1508.529,1312.0
1509.706,1348.0
1510.882,1313.0
1512.059,1332.0
1513.235,1334.0
1514.411,1332.0
1515.587,1324.0
1516.762,1319.0
1517.938,1307.0
1519.113,1304.0
1520.288,1328.0
1521.463,1318.0
1522.638,1329.0
1523.813,1339.0
1524.987,1323.0
1526.162,1305.0
1527.336,1307.0
