Raman Shift,Intensity 
400,11.98063556
401,12.03533468
402,11.99214534
403,11.93825334
404,12.01689067
405,11.93378472
406,12.04857379
407,11.99054296
408,12.02813952
409,11.88457949
410,12.03166567
411,12.03176068
412,12.04470861
413,12.01232712
414,12.07072502
415,11.89064509
416,11.94359713
417,12.00619578
418,12.01973641
419,11.99113576
420,12.04466645
421,12.0030028
422,12.02999271
423,12.09759379
424,11.93911797
425,11.98434628
426,12.009608
427,11.98299643
428,11.97729995
429,11.9822505
430,11.91908014
431,12.01858068
432,12.02211989
433,12.01699601
434,12.02572747
435,11.94464593
436,12.03001183
437,12.01292622
438,12.04415932
439,11.98197385
440,12.04932378
441,12.06061825
442,11.96453045
443,12.00710822
444,11.90660874
445,12.00278959
446,12.03430475
447,11.97657795
448,11.97640276
449,11.97698709
450,11.95055183
451,11.94305396
452,11.98385426
453,11.94498781
454,11.98141789
455,12.02788274
456,11.93335886
457,11.9649394
458,11.97879181
459,11.97653855
460,12.0687891
461,12.01570024
462,11.95138535
463,11.96217719
464,12.00997127
465,12.00091006
466,11.99609443
467,11.94566075
468,11.94751755
469,11.97806659
470,11.97465311
471,12.02686962
472,11.98519007
473,11.99850782
474,11.91830019
475,12.05628154
476,12.01236863
477,12.0705449
478,11.98846653
479,11.93950376
480,12.02398983
481,12.02703426
482,12.01802509
483,12.04239483
484,12.01142564
485,11.9839836
486,11.90899628
487,11.96483861
488,12.01352048
489,11.96890588
490,11.96418228
491,12.04778227
492,12.00347845
493,11.99051631
494,12.0048711
495,11.99055462
496,12.02784606
497,11.94850371
498,12.02609829
499,11.96081738
500,12.09946395
501,12.01737207
502,11.98393883
503,12.01088008
504,11.95617702
505,11.97018709
506,11.98315992
507,11.99140107
508,12.04030477
509,12.00283843
510,12.0207277
511,12.02732712
512,12.00684273
513,12.01806
514,11.99560132
515,11.98385552
516,12.00993599
517,11.97209349
518,11.94592721
519,12.05336476
520,12.01186113
521,12.01189171
522,12.02131177
523,11.91840386
524,11.94076936
525,11.96056235
526,11.99689009
527,11.96218324
528,12.04185874
529,11.97661123
530,11.97254627
531,11.98831726
532,12.0018585
533,11.94333505
534,12.05494424
535,11.97179363
536,12.0025295
537,12.0706514
538,12.05581959
539,12.0095169
540,12.0230512
541,11.97953917
542,12.02578354
543,12.01930604
544,12.07197194
545,11.92625777
546,11.95843929
547,11.98875753
548,12.00322705
549,12.02207579
550,12.1278346
551,12.02585408
552,11.95861626
553,12.00911112
554,11.94890656
555,11.99319806
556,12.00492579
557,12.0175501
558,11.97548274
559,11.98858867
560,12.03634179
561,12.05363958
562,11.97701144
563,12.00393236
564,11.99487113
565,11.9679347
566,11.99792696
567,11.93184985
568,12.03039006
569,12.01121231
570,11.98214845
571,11.93627524
572,12.01610001
573,11.95993008
574,12.00570579
575,11.91343108
576,12.05557863
577,12.04538167
578,12.00129241
579,11.95402534
580,12.02284005
581,12.06517474
582,12.06120076
583,12.02562836
584,12.01027738
585,12.04526516
586,11.97314253
587,11.98129497
588,11.96116357
589,11.97636781
590,12.01199014
591,11.99820033
592,12.03211574
593,11.9944693
594,12.01723264
595,11.96769043
596,12.02813687
597,12.05489088
598,12.00745518
599,12.03377536
600,12.04792153
601,11.95797551
602,12.02203756
603,12.02185346
604,11.98705102
605,11.99590312
606,12.00140684
607,12.03030308
608,11.9779083
609,11.95987686
610,12.01000077
611,11.9650185
612,12.05674733
613,11.95792394
614,12.01558252
615,12.00092916
616,12.01838394
617,11.99981255
618,11.9256461
619,12.08628551
620,12.03007249
621,12.02330188
622,12.06185606
623,12.05926394
624,11.92773822
625,12.02885944
626,11.99641707
627,12.04068373
628,11.95826361
629,11.93339584
630,11.99763445
631,11.95058182
632,11.99770131
633,12.05129302
634,11.94440257
635,12.02628224
636,11.98343314
637,12.00591779
638,11.94845058
639,12.0381172
640,12.01044303
641,12.00180906
642,11.98102606
643,11.9453373
644,12.08932626
645,12.00148514
646,12.00521462
647,12.01004449
648,11.99671404
649,12.00545335
650,12.05196596
651,12.00497074
652,12.05451735
653,11.93101981
654,12.01834151
655,12.01889693
656,11.9993761
657,11.93582642
658,12.02711004
659,11.99384896
660,11.99407246
661,12.00806425
662,11.99993727
663,12.02438573
664,11.92668596
665,12.02934444
666,12.01517848
667,12.08194249
668,12.01008455
669,12.03133925
670,11.99214265
671,11.98154637
672,12.01566789
673,11.95945868
674,12.00991274
675,11.97894748
676,11.96347438
677,12.01995952
678,11.94281935
679,11.94837611
680,11.94411946
681,12.02383126
682,12.04108721
683,12.01404471
684,12.03270301
685,12.04072699
686,12.03842282
687,11.96823784
688,11.98288532
689,12.05772948
690,12.03977019
691,12.02410266
692,12.01730468
693,12.00224175
694,12.02090061
695,12.00444602
696,12.01968159
697,11.9788648
698,12.00643519
699,12.03598166
700,12.02454979
701,12.02311094
702,11.95932288
703,12.08833868
704,11.97424859
705,11.99718653
706,12.05985384
707,12.0108551
708,11.95927879
709,12.00157085
710,12.01923312
711,11.98534876
712,11.99726215
713,12.02264227
714,11.98696929
715,12.01497712
716,11.98572956
717,12.03189965
718,11.97545778
719,12.03005643
720,12.07873991
721,11.99391927
722,12.0189759
723,11.9040184
724,12.01452665
725,11.99267077
726,11.95450532
727,11.98264465
728,12.03097977
729,12.00004527
730,12.01109836
731,12.04230166
732,11.92681606
733,12.01170471
734,11.98207012
735,12.07376984
736,12.04527133
737,11.99475672
738,12.0270986
739,12.04410583
740,11.94662269
741,12.04070868
742,11.96382508
743,12.08892582
744,11.99781341
745,11.9906317
746,11.9557104
747,11.97969353
748,11.99100988
749,12.0163861
750,12.00620274
751,11.99397232
752,11.97980472
753,11.97350689
754,12.05070572
755,11.96692436
756,11.96762891
757,11.98208078
758,12.03759784
759,11.97785575
760,12.05307186
761,12.00356064
762,12.03384559
763,11.98329324
764,12.03168143
765,12.038813
766,11.96537704
767,11.96566758
768,12.02939091
769,11.97313956
770,11.99404207
771,12.04365713
772,12.06831307
773,12.0184568
774,12.01795239
775,11.96522442
776,11.98172461
777,12.02987236
778,11.93635423
779,11.94789979
780,11.9309033
781,12.02548933
782,12.02065269
783,11.93671071
784,11.99419402
785,11.97362836
786,11.97447942
787,11.98201323
788,11.95157063
789,11.99882656
790,12.01243733
791,11.98460292
792,12.03053786
793,12.00260606
794,12.06690466
795,11.96978016
796,11.95014352
797,11.99887315
798,12.01627955
799,12.04966682
800,11.96905814
801,12.08652427
802,11.97111351
803,11.94961705
804,11.92600395
805,12.03791963
806,12.03770285
807,11.86901196
808,12.03140081
809,11.97948015
810,11.98639649
811,12.00530247
812,12.00683516
813,11.99515027
814,11.94490615
815,12.01724108
816,12.00248845
817,11.99268412
818,11.95266294
819,11.98205251
820,11.9898742
821,11.90938276
822,12.0060337
823,11.98213408
824,12.00416202
825,12.1034301
826,11.98035456
827,12.03662529
828,11.98171524
829,12.00783787
830,11.97692966
831,11.96637787
832,12.03344915
833,12.00784129
834,12.03172097
835,12.04754341
836,11.92747444
837,12.0058736
838,12.05567291
839,11.96814559
840,11.98809643
841,12.02060743
842,12.0567777
843,12.02426544
844,12.00475973
845,12.10242065
846,12.05247932
847,11.96327771
848,11.99669441
849,11.96996054
850,12.00228627
851,12.05399464
852,12.06877884
853,11.96805327
854,12.07299922
855,12.01132216
856,11.97002152
857,12.07622438
858,12.06616433
859,12.03713059
860,12.0386369
861,12.01073431
862,12.00052952
863,12.03974704
864,11.96867294
865,12.07589735
866,12.02772405
867,11.93639133
868,12.06677446
869,12.04194512
870,11.99700733
871,11.96657522
872,12.08010236
873,12.02919535
874,12.01124546
875,12.025809
876,12.00575518
877,11.98301155
878,12.0630327
879,12.05697777
880,12.04921027
881,11.99772996
882,12.03664704
883,11.96562983
884,11.99577952
885,12.06265296
886,12.00062386
887,12.02253495
888,12.06565197
889,12.01022165
890,12.05038823
891,12.01492195
892,12.10315386
893,11.98337564
894,12.08807563
895,12.0372313
896,12.01170722
897,12.0554678
898,12.04392379
899,12.00366803
900,12.06402843
901,12.08218869
902,12.01486522
903,12.11896505
904,12.07647399
905,12.05620969
906,12.17666795
907,12.0766196
908,12.03661627
909,12.06584979
910,11.996463
911,12.05393836
912,12.06822522
913,12.04829864
914,12.119643
915,12.09606199
916,11.99928278
917,12.13305136
918,12.00258905
919,12.12341165
920,12.07898593
921,12.12352079
922,12.09958359
923,12.1524339
924,12.16337651
925,12.09695016
926,12.04753678
927,12.06664576
928,12.00471594
929,12.06858834
930,12.13233554
931,12.08395744
932,12.12757935
933,12.15496885
934,12.10025966
935,12.08899059
936,12.15558532
937,12.10143449
938,12.0974885
939,12.13397152
940,12.12549324
941,12.06520368
942,12.19553904
943,12.17894175
944,12.11346821
945,12.19845725
946,12.20434344
947,12.17334543
948,12.19910586
949,12.19561398
950,12.16062705
951,12.18044802
952,12.2525839
953,12.17032755
954,12.2131204
955,12.13191579
956,12.11130783
957,12.203124
958,12.26639137
959,12.20620472
960,12.16748801
961,12.26765126
962,12.14166313
963,12.20698674
964,12.25931616
965,12.18279372
966,12.30362763
967,12.23274697
968,12.27035984
969,12.19629712
970,12.2128205
971,12.25437736
972,12.22300775
973,12.21345955
974,12.24387251
975,12.28858522
976,12.24222075
977,12.1994353
978,12.24241252
979,12.25152766
980,12.35054343
981,12.3328658
982,12.28431308
983,12.23294854
984,12.30706923
985,12.24108058
986,12.29813174
987,12.21138104
988,12.30946878
989,12.25526618
990,12.27092333
991,12.24687519
992,12.25232156
993,12.23755812
994,12.27368239
995,12.22628845
996,12.32295595
997,12.38340799
998,12.3123777
999,12.31672511
1000,12.2485452
1001,12.3079862
1002,12.25931286
1003,12.26550721
1004,12.20255662
1005,12.21683932
1006,12.27278551
1007,12.36442397
1008,12.32349361
1009,12.29021057
1010,12.31266319
1011,12.32192481
1012,12.29286536
1013,12.32629953
1014,12.28131952
1015,12.23511718
1016,12.29052298
1017,12.23790342
1018,12.26980159
1019,12.2951545
1020,12.3162268
1021,12.37123193
1022,12.29879813
1023,12.27873907
1024,12.32451968
1025,12.31941538
1026,12.2448974
1027,12.323419
1028,12.28305158
1029,12.28243241
1030,12.2699036
1031,12.30229321
1032,12.28495156
1033,12.30052443
1034,12.22637074
1035,12.21985494
1036,12.28854259
1037,12.33432252
1038,12.30928736
1039,12.30718863
1040,12.35097786
1041,12.2985835
1042,12.21072491
1043,12.29154496
1044,12.22901099
1045,12.27200215
1046,12.25213417
1047,12.23151128
1048,12.23430577
1049,12.19930665
1050,12.21870083
1051,12.23823215
1052,12.23201392
1053,12.27839949
1054,12.34205396
1055,12.20441029
1056,12.16718983
1057,12.21827744
1058,12.21154054
1059,12.23183807
1060,12.22873086
1061,12.20566008
1062,12.27531902
1063,12.20676647
1064,12.1694682
1065,12.17565675
1066,12.23808713
1067,12.22990952
1068,12.16450039
1069,12.29017112
1070,12.16621641
1071,12.22861242
1072,12.16431167
1073,12.21132444
1074,12.23466428
1075,12.18276578
1076,12.22086974
1077,12.23624796
1078,12.1376711
1079,12.21243086
1080,12.15787358
1081,12.21985331
1082,12.17757914
1083,12.14895046
1084,12.16066378
1085,12.14584662
1086,12.09893614
1087,12.09789063
1088,12.07214463
1089,12.18458266
1090,12.03114122
1091,12.15730282
1092,12.09239717
1093,12.13982019
1094,12.11660147
1095,12.09028269
1096,12.16272853
1097,12.06177744
1098,12.07003502
1099,12.1184198
1100,12.08794248
1101,12.06506523
1102,12.10761001
1103,12.09729906
1104,12.1025573
1105,12.0044707
1106,12.01086324
1107,12.08558242
1108,12.1125437
1109,12.01070411
1110,12.05546908
1111,12.12477859
1112,12.0848167
1113,12.10717534
1114,12.07898507
1115,12.11587387
1116,12.00489483
1117,12.07743511
1118,12.03556634
1119,12.03048865
1120,12.01086102
1121,12.04073065
1122,12.08060848
1123,12.02488448
1124,12.09073481
1125,12.01142144
1126,12.06170862
1127,12.05977767
1128,12.00408653
1129,12.14725318
1130,11.92811127
1131,12.04622227
1132,12.03559326
1133,12.07926583
1134,12.09385066
1135,12.03718143
1136,12.03825235
1137,12.05696277
1138,12.04028552
1139,11.96308468
1140,11.91424638
1141,11.9716759
1142,12.05465141
1143,11.99489255
1144,12.03615829
1145,11.98338371
1146,11.98852401
1147,11.97090363
1148,11.9838978
1149,12.0808901
1150,12.05194394
1151,12.04861813
1152,12.0646419
1153,12.09342233
1154,12.09315489
1155,11.98025877
1156,11.99545704
1157,12.0437216
1158,12.03986326
1159,12.0444393
1160,11.92460589
1161,12.03627857
1162,11.96357595
1163,12.04566432
1164,12.04551385
1165,11.99914647
1166,12.03433791
1167,12.07279836
1168,12.00157988
1169,12.04403521
1170,11.96950657
1171,12.05040801
1172,12.05975954
1173,12.0410671
1174,12.03287434
1175,12.01127719
1176,12.05356176
1177,11.99483481
1178,11.9956614
1179,11.91735561
1180,12.05551033
1181,12.0313744
1182,12.02703453
1183,12.02553021
1184,11.97653429
1185,11.95366093
1186,11.95213185
1187,11.96145398
1188,12.03755548
1189,11.98358224
1190,12.03351881
1191,11.95193909
1192,12.06861005
1193,11.97455997
1194,12.0220898
1195,12.03053293
1196,12.0445892
1197,11.99398064
1198,12.01921296
1199,11.98489061
1200,11.98007037
1201,11.9834992
1202,11.875145
1203,11.96699898
1204,12.02463925
1205,12.05359753
1206,12.0057459
1207,11.98236699
1208,11.96942827
1209,12.01564724
1210,11.98678584
1211,12.02574721
1212,11.95025739
1213,12.08941749
1214,12.0187248
1215,12.03280032
1216,11.96098879
1217,12.00939618
1218,12.00808934
1219,11.98105903
1220,11.89228129
1221,11.95705803
1222,11.99952545
1223,11.97983656
1224,11.99044483
1225,12.0100797
1226,12.04077687
1227,12.02421153
1228,11.97662516
1229,12.02319183
1230,12.06184812
1231,11.93729372
1232,11.96257754
1233,12.01202171
1234,12.01996539
1235,12.00438439
1236,12.0702571
1237,11.93351742
1238,12.01375185
1239,11.95075367
1240,12.05333368
1241,12.01584962
1242,12.02909872
1243,11.96335939
1244,12.08580615
1245,11.9816545
1246,11.95753931
1247,12.00105753
1248,12.02465655
1249,12.04782304
1250,12.03827941
1251,12.00089634
1252,11.99517402
1253,11.92252297
1254,11.96029519
1255,11.95559589
1256,12.05965648
1257,11.99350565
1258,11.91776894
1259,11.99983494
1260,12.04816156
1261,12.01906094
1262,12.00142285
1263,11.99165833
1264,12.04386541
1265,12.0343587
1266,12.04925809
1267,11.96914077
1268,11.99172923
1269,11.97272428
1270,11.98055785
1271,12.02419582
1272,12.00427672
1273,11.88286212
1274,12.00259047
1275,11.88237108
1276,11.94696868
1277,11.89554978
1278,12.02256487
1279,12.00286037
1280,11.99606052
1281,12.00491529
1282,11.94129194
1283,12.01170929
1284,12.0031999
1285,12.02596099
1286,11.93483971
1287,11.98460018
1288,12.02595636
1289,11.99132156
1290,12.03493593
1291,12.01717065
1292,11.98101004
1293,12.04840706
1294,12.00479039
1295,12.0094391
1296,12.05065934
1297,11.96812134
1298,12.06016541
1299,11.95275768
1300,12.02517692
1301,11.93254715
1302,12.00432161
1303,11.98587574
1304,11.96994524
1305,11.96729204
1306,11.92315447
1307,12.05202224
1308,11.99924436
1309,12.03480293
1310,12.02213937
1311,11.99029271
1312,11.96720837
1313,12.00564934
1314,12.00554495
1315,11.9836954
1316,11.97196306
1317,12.04450197
1318,11.91621626
1319,11.96860981
1320,12.01422827
1321,11.97115486
1322,12.01553045
1323,11.93406449
1324,11.98298156
1325,12.03998929
1326,11.97773032
1327,12.00093385
1328,11.97027193
1329,11.96472935
1330,12.00852798
1331,11.9330951
1332,12.00901358
1333,11.97807739
1334,12.0123954
1335,12.00792046
1336,11.97658025
1337,12.01781045
1338,11.98409743
1339,11.97051281
1340,11.97858795
1341,12.02735675
1342,12.01390549
1343,12.00453261
1344,11.96387196
1345,11.94683928
1346,12.06944353
1347,12.02460841
1348,11.99461046
1349,12.0400742
1350,11.98953503
1351,12.03661781
1352,11.94504443
1353,11.98275002
1354,12.00551493
1355,12.03058266
1356,11.97500641
1357,12.00470453
1358,12.01616239
1359,11.95842503
1360,11.96050742
1361,12.00309324
1362,11.95757166
1363,12.02800324
1364,11.91274878
1365,12.0298265
1366,12.0097517
1367,11.99576126
1368,11.990335
1369,12.06609371
1370,11.99939227
1371,11.93800805
1372,11.94404251
1373,11.9413711
1374,11.97761397
1375,12.030222
1376,12.00493951
1377,12.05937399
1378,12.03568693
1379,11.98126604
1380,12.03222127
1381,12.03844145
1382,11.98369381
1383,12.01480251
1384,12.07255873
1385,12.02963241
1386,11.95643458
1387,12.01102496
1388,12.03574836
1389,11.95424824
1390,12.0703132
1391,12.03330429
1392,11.96957918
1393,11.90840216
1394,11.98755095
1395,11.97503985
1396,12.09907406
1397,12.00656117
1398,11.92599857
1399,12.00274232
1400,12.07093681
1401,11.98115281
1402,11.92311385
1403,12.00868972
1404,12.03556165
1405,11.94748715
1406,12.01828139
1407,11.99211522
1408,12.02661332
1409,11.99166618
1410,11.98879515
1411,11.99762721
1412,12.00301063
1413,12.02199664
1414,11.97966454
1415,12.01783605
1416,12.01953207
1417,11.98429069
1418,12.05568992
1419,11.98567839
1420,11.93785772
1421,12.00032755
1422,11.95196731
1423,11.95238728
1424,11.97389676
1425,11.96024623
1426,11.98077737
1427,11.90812102
1428,11.93490303
1429,12.03149617
1430,12.00750236
1431,12.01971685
1432,11.96611284
1433,11.97872733
1434,12.04114649
1435,12.00747213
1436,11.94552014
1437,12.01984925
1438,12.06411293
1439,12.01728601
1440,12.03284141
1441,12.06121268
1442,12.00156896
1443,11.96907113
1444,11.93508163
1445,12.0292606
1446,12.04233029
1447,12.03811425
1448,12.0604321
1449,12.0245374
1450,12.00366521
1451,12.04365613
1452,11.97305812
1453,11.99245584
1454,12.0087156
1455,11.983882
1456,12.04261954
1457,12.00041657
1458,12.05385343
1459,11.9976353
1460,11.97740424
1461,12.01639891
1462,12.03380339
1463,12.04042396
1464,12.05822923
1465,11.97787446
1466,11.95278342
1467,11.96748487
1468,11.94593116
1469,11.96165754
1470,12.04620958
1471,12.01423173
1472,11.9853604
1473,11.98510663
1474,12.01087388
1475,11.98653695
1476,12.0771599
1477,12.03370564
1478,12.0823171
1479,11.98199913
1480,12.06411506
1481,11.95566437
1482,11.97256623
1483,11.98288226
1484,12.02818926
1485,11.97828324
1486,11.93635839
1487,11.98253816
1488,12.02472353
1489,11.95978781
1490,12.03764834
1491,12.03510376
1492,11.99607074
1493,12.01114344
1494,11.97329737
1495,11.99369546
1496,12.05588926
1497,12.09351583
1498,11.99476461
1499,12.0192483
1500,11.94301583
1501,12.03783455
1502,12.00729124
1503,12.01724801
1504,12.01576028
1505,11.97425171
1506,12.03871735
1507,11.99094854
1508,11.92729916
1509,12.03228866
1510,12.07109226
1511,11.99840693
1512,11.90410088
1513,12.02102577
1514,12.01418246
1515,11.95227414
1516,12.00257571
1517,11.99442986
1518,11.92314194
1519,11.9980807
1520,12.05195027
1521,11.95348749
1522,11.9845576
1523,12.02720645
1524,12.01363097
1525,12.07040923
1526,11.99462607
1527,12.03155362
1528,12.07034719
1529,11.99204802
1530,11.96120356
1531,12.00762791
1532,11.99109996
1533,11.96762017
1534,11.98373379
1535,12.06113758
1536,12.02091233
1537,12.05411913
1538,12.01833112
1539,12.03466744
1540,11.97723827
1541,11.99767865
1542,11.94357274
1543,11.99030813
1544,11.9815987
1545,11.93720036
1546,12.03826275
1547,11.97352045
1548,12.03783001
1549,12.01095214
1550,12.00116393
1551,11.97561711
1552,11.99682567
1553,11.99420718
1554,11.93917327
1555,11.98347583
1556,12.00382447
1557,12.02324362
1558,12.01007054
1559,12.01353725
1560,12.03744386
1561,11.9123782
1562,12.0586322
1563,11.97784294
1564,11.98152582
1565,11.97825451
1566,11.98542165
1567,11.94159433
1568,12.08467348
1569,11.97903011
1570,12.01541178
1571,11.96683397
1572,12.00241108
1573,12.04901574
1574,12.00296914
1575,12.06674694
1576,12.05745723
1577,12.05242725
1578,12.02636767
1579,12.0158987
1580,12.00719787
1581,12.00364814
1582,11.95709301
1583,12.02527245
1584,12.03241657
1585,11.93023909
1586,11.89405622
1587,12.01262436
1588,11.97028201
1589,11.96100202
1590,12.03363284
1591,11.97901933
1592,12.11670178
1593,11.97826878
1594,12.0157389
1595,12.0320716
1596,11.97949559
1597,11.99398375
1598,11.99440665
1599,11.99509416
1600,12.04734246
1601,12.02953279
1602,12.02758657
1603,11.98806935
1604,12.04321726
1605,12.01000699
1606,12.02326954
1607,11.95380274
1608,12.02347603
1609,12.05303514
1610,11.95639538
1611,11.9403594
1612,11.9561299
1613,11.96673201
1614,12.03296139
1615,11.98688345
1616,12.02274585
1617,11.95650896
1618,11.99042017
1619,12.03790001
1620,11.96171595
1621,12.00035254
1622,11.97690908
1623,11.98737527
1624,12.05488827
1625,11.95516915
1626,12.01740942
1627,12.04549002
1628,11.99105483
1629,12.06893665
1630,11.98001011
1631,12.08248146
1632,11.98678813
1633,11.96061954
1634,11.93206715
1635,11.93117569
1636,12.03162356
1637,12.00203579
1638,12.03598491
1639,12.02204537
1640,12.01944629
1641,12.04562251
1642,12.03165311
1643,11.99283946
1644,11.96443382
1645,11.93273395
1646,12.0687093
1647,12.03222465
1648,11.97079326
1649,11.94535972
1650,11.97480075
1651,12.0270626
1652,12.0388289
1653,12.00432816
1654,11.98576956
1655,12.08699156
1656,12.0653935
1657,11.99511037
1658,11.99869046
1659,12.01634752
1660,11.99857749
1661,12.03736165
1662,11.97746499
1663,11.9938558
1664,11.89824737
1665,11.97824797
1666,11.99034011
1667,12.05011091
1668,12.0540027
1669,11.96528239
1670,11.91916298
1671,12.03243945
1672,11.94823182
1673,12.02941556
1674,12.0209264
1675,12.04908185
1676,11.93576122
1677,12.02255557
1678,11.9994285
1679,12.02325832
1680,12.0107321
1681,11.99938102
1682,11.97886842
1683,12.00459612
1684,12.02079887
1685,12.02671735
1686,12.01390554
1687,11.96767855
1688,12.10065702
1689,12.0656292
1690,11.98735122
1691,11.98382314
1692,12.02890142
1693,11.95749517
1694,12.02016452
1695,12.02435653
1696,11.93832106
1697,12.05465207
1698,12.04112558
1699,11.96251517
1700,12.08250857
1701,12.02776616
1702,11.97212637
1703,12.02547003
1704,11.9462989
1705,12.02726569
1706,12.05813634
1707,11.91723435
1708,11.93187066
1709,11.96193542
1710,12.01095442
1711,12.03478009
1712,11.96478012
1713,11.99826092
1714,12.02961612
1715,11.96455493
1716,12.03172081
1717,11.90679728
1718,11.99037236
1719,11.98185205
1720,11.99848257
1721,11.97239549
1722,12.01760778
1723,12.05048205
1724,12.00245065
1725,12.06473685
1726,12.01048016
1727,12.00775355
1728,11.99824922
1729,11.9780008
1730,11.9722796
1731,11.97187119
1732,11.94084895
1733,11.99013589
1734,11.94545509
1735,11.99802483
1736,12.03110912
1737,12.01588246
1738,12.09135563
1739,12.03244235
1740,11.97135607
1741,12.03027606
1742,12.07067549
1743,12.01061988
1744,11.95711035
1745,11.97232251
1746,11.95031207
1747,12.02337526
1748,11.96562524
1749,11.98519937
1750,11.99661848
1751,11.9619801
1752,11.9560181
1753,11.97666172
1754,12.01115198
1755,12.03800445
1756,12.03191973
1757,11.98302228
1758,12.0206871
1759,12.05543154
1760,12.00176233
1761,12.08371009
1762,12.04686969
1763,12.00548741
1764,12.07793775
1765,11.95117307
1766,11.98089092
1767,12.06662396
1768,11.95175184
1769,12.05034363
1770,12.05965485
1771,12.01800955
1772,11.99623764
1773,12.04754834
1774,12.02271944
1775,12.04380162
1776,12.03147855
1777,12.04519311
1778,12.01260454
1779,11.95166777
1780,11.97758791
1781,12.08430485
1782,12.02623588
1783,11.98325773
1784,12.02129931
1785,12.00096788
1786,11.98479216
1787,11.93548537
1788,11.92026816
1789,11.97531501
1790,12.02527188
1791,11.96452191
1792,11.94551939
1793,11.94035971
1794,11.96933494
1795,12.02543834
1796,11.99781162
1797,12.0210951
1798,12.02917861
1799,11.95264788
1800,11.99167052
1801,12.00716482
1802,11.97657571
1803,11.9139092
1804,12.00362419
1805,11.99558074
1806,11.93951069
1807,11.99964786
1808,11.95367596
1809,11.90297961
1810,11.94741884
1811,11.98629139
1812,11.98417073
1813,11.91939952
1814,11.98008043
1815,11.98490701
1816,12.02332255
1817,11.93498483
1818,12.10798013
1819,12.01741099
1820,12.00037095
1821,11.9536819
1822,11.94348869
1823,11.93028848
1824,12.03241437
1825,12.00742118
1826,12.0228824
1827,12.07168924
1828,12.02180022
1829,11.99178656
1830,12.00987807
1831,11.99984889
1832,11.93899833
1833,12.05830797
1834,11.90902376
1835,12.04862834
1836,12.05906448
1837,12.07594099
1838,11.96830695
1839,12.0261864
1840,12.04489952
1841,11.99516411
1842,12.007951
1843,12.02704726
1844,12.00515485
1845,12.06005738
1846,12.0008126
1847,12.03393193
1848,11.9816282
1849,12.04494817
1850,12.00997929
1851,12.04761552
1852,11.94413609
1853,12.0028605
1854,11.95617129
1855,12.00613166
1856,12.06840972
1857,11.94589637
1858,12.04079239
1859,12.00590833
1860,12.04506745
1861,12.01514149
1862,12.03341767
1863,11.93443956
1864,12.0272219
1865,12.00236778
1866,11.92037736
1867,12.02377409
1868,12.0318392
1869,12.00938729
1870,12.02615968
1871,12.0440897
1872,11.98720089
1873,12.00812289
1874,11.97315198
1875,11.9293304
1876,11.98961068
1877,11.98032425
1878,12.06237375
1879,12.06691784
1880,11.96105276
1881,12.0064234
1882,12.01532984
1883,12.02084579
1884,11.96740561
1885,11.98630685
1886,11.98326284
1887,11.96735069
1888,12.00554531
1889,11.98574364
1890,12.02681996
1891,12.06804645
1892,11.87704878
1893,12.01150464
1894,12.04213687
1895,11.95130639
1896,11.98904173
1897,11.95214415
1898,11.88322734
1899,12.02897326
1900,11.96326512
1901,12.01482484
1902,12.03997514
1903,12.06707028
1904,11.97599741
1905,11.94225998
1906,11.95818675
1907,11.96052366
1908,12.03433512
1909,11.97201339
1910,12.03764338
1911,12.07671938
1912,12.0264375
1913,12.00763397
1914,12.03097344
1915,12.03190674
1916,11.97270684
1917,12.0332469
1918,11.91663219
1919,12.0275698
1920,11.98265034
1921,12.02857931
1922,12.03293942
1923,12.06606313
1924,11.97345124
1925,11.98971953
1926,12.01479239
1927,11.91758129
1928,12.02975704
1929,11.96502573
1930,11.91096962
1931,11.99752199
1932,11.95400778
1933,12.02301584
1934,12.03699935
1935,11.99776514
1936,11.99852303
1937,12.09957753
1938,11.99183326
1939,11.97947561
1940,12.00849634
1941,12.04175409
1942,12.04488778
1943,12.01037893
1944,12.08889794
1945,12.03222642
1946,11.92684954
1947,11.92277859
1948,12.00554554
1949,12.03126638
1950,12.05643502
1951,12.06888991
1952,12.01220302
1953,12.0198561
1954,11.97182639
1955,12.03415699
1956,11.98569269
1957,12.0021436
1958,11.94971745
1959,11.94599975
1960,11.95995051
1961,11.93020424
1962,12.04920793
1963,11.99447025
1964,12.01738793
1965,12.02677348
1966,12.00313776
1967,12.05917319
1968,11.96480358
1969,12.03648866
1970,11.97595433
1971,12.05696941
1972,11.9604596
1973,11.98158939
1974,11.95480144
1975,12.00490504
1976,12.00937807
1977,11.97415284
1978,11.97402633
1979,11.94066157
1980,12.0344204
1981,11.96489686
1982,11.97768718
1983,11.97009988
1984,11.93405922
1985,11.99421774
1986,12.0111678
1987,11.94239505
1988,11.95519362
1989,11.99696385
1990,11.98242458
1991,12.0033452
1992,12.07882455
1993,12.04030048
1994,11.89358056
1995,12.07298236
1996,11.98370061
1997,11.95134403
1998,12.0157028
1999,12.02062244
2000,12.00019049
2001,12.03749872
2002,12.00886133
2003,11.99630742
2004,11.96457676
2005,11.91884383
2006,12.01472719
2007,11.95102455
2008,11.98166845
2009,11.96684243
2010,11.958772
2011,11.98033826
2012,12.0090358
2013,11.92100932
2014,11.99584034
2015,12.02841015
2016,11.9506503
2017,12.01240212
2018,11.9425264
2019,11.94157338
2020,12.04890545
2021,11.93924301
2022,12.04242446
2023,12.01645618
2024,12.0273442
2025,12.02758155
2026,11.94101731
2027,11.98304222
2028,12.05392124
2029,11.94366138
2030,11.99495152
2031,11.99966763
2032,12.01713202
2033,11.92453591
2034,12.00788736
2035,11.94990249
2036,12.04880376
2037,11.97075699
2038,12.07543087
2039,11.98095196
2040,12.00770313
2041,12.07011076
2042,11.94133589
2043,11.98553278
2044,11.99752857
2045,12.03779668
2046,11.99655246
2047,12.03897776
2048,12.07622489
2049,11.95504989
2050,12.00266887
2051,11.96859469
2052,12.00078019
2053,12.02447673
2054,11.96632291
2055,12.00645835
2056,11.96919831
2057,11.95249072
2058,12.00019675
2059,12.01376868
2060,12.15695394
2061,11.93239507
2062,11.98683076
2063,11.98664986
2064,12.07367517
2065,11.93283288
2066,11.93123786
2067,11.95269023
2068,12.0032478
2069,11.99660311
2070,12.01077404
2071,12.03479463
2072,12.0488338
2073,12.10781536
2074,12.02102293
2075,12.00407369
2076,11.96264484
2077,11.97932814
2078,11.9987969
2079,11.98668893
2080,11.95275308
2081,12.0298268
2082,11.98784421
2083,11.99395224
2084,12.00248724
2085,12.01856805
2086,11.95772515
2087,11.98633548
2088,11.94252381
2089,12.0129284
2090,12.02508752
2091,12.05152401
2092,11.99695461
2093,11.99678477
2094,12.00953306
2095,12.04864588
2096,11.95586721
2097,12.0303943
2098,12.00980509
2099,11.98370219
2100,11.9808795
2101,11.97467569
2102,11.99351298
2103,11.99733787
2104,11.97010487
2105,12.06208256
2106,12.02153472
2107,12.04747533
2108,12.06006136
2109,12.0384271
2110,11.98133735
2111,11.96662615
2112,12.05715044
2113,12.02102829
2114,12.00751027
2115,12.0057188
2116,11.9763006
2117,11.96544552
2118,11.9037818
2119,12.02176961
2120,11.9755682
2121,12.02106921
2122,11.98426461
2123,11.94159413
2124,12.01019786
2125,12.04656361
2126,11.97840979
2127,12.06914484
2128,11.97971791
2129,11.97268723
2130,12.02811968
2131,12.02097631
2132,11.96126528
2133,11.98095434
2134,11.95476044
2135,12.0270552
2136,11.94099623
2137,11.95163993
2138,12.04182501
2139,12.00026491
2140,11.98591559
2141,12.00277363
2142,12.00033172
2143,11.99751142
2144,11.95904218
2145,12.06512779
2146,11.99080689
2147,12.05571946
2148,11.93947236
2149,11.98629072
2150,11.97237115
2151,11.93350645
2152,11.98589277
2153,11.99842547
2154,12.00240726
2155,11.99434013
2156,11.99304254
2157,12.04301068
2158,12.00048677
2159,11.98353906
2160,12.01631531
2161,12.00620141
2162,11.92445858
2163,12.05586992
2164,12.03733411
2165,12.01437863
2166,11.99593058
2167,11.95624879
2168,12.00529733
2169,11.98639152
2170,11.9868438
2171,12.01826862
2172,11.98957457
2173,12.04682664
2174,11.96427502
2175,11.9631314
2176,11.99340843
2177,12.04638039
2178,12.00053865
2179,11.94616843
2180,12.02917509
2181,12.02424976
2182,12.06361662
2183,11.94418471
2184,12.02306449
2185,12.02926348
2186,11.97365684
2187,12.01524223
2188,11.97407156
2189,11.97250363
2190,12.05385357
2191,12.00083642
2192,11.95223458
2193,11.95464115
2194,11.96571456
2195,11.99486949
2196,12.00931661
2197,12.03748337
2198,11.96130467
2199,11.93204105
2200,12.05384984
2201,11.9975823
2202,11.99594718
2203,12.02734489
2204,11.97862138
2205,11.99639551
2206,12.00820239
2207,12.02494161
2208,11.92319964
2209,12.0543804
2210,12.0136256
2211,11.96008057
2212,12.05959093
2213,12.03849232
2214,11.99174473
2215,12.03912804
2216,12.02304992
2217,11.95952166
2218,12.00413089
2219,11.99737602
2220,11.98998592
2221,12.00172937
2222,12.00935515
2223,11.97573755
2224,11.96260133
2225,12.01796848
2226,12.00462303
2227,12.00708153
2228,11.96421452
2229,11.93056363
2230,12.02975245
2231,12.00774842
2232,11.97107753
2233,11.97408947
2234,12.02722202
2235,12.05094398
2236,11.97667178
2237,11.96360624
2238,12.00573577
2239,11.98242235
2240,12.02917556
2241,11.98446424
2242,11.99760574
2243,11.99265415
2244,11.99127141
2245,12.03220667
2246,11.94810186
2247,12.08120322
2248,11.9832022
2249,11.97818467
2250,11.95706616
2251,11.96796121
2252,12.05548344
2253,12.00363294
2254,12.01917793
2255,12.03114493
2256,11.919508
2257,12.00446991
2258,12.03307901
2259,11.97889065
2260,11.98507634
2261,12.06082133
2262,11.99276329
2263,11.97238505
2264,12.0255626
2265,12.04181808
2266,11.93304982
2267,11.95831721
2268,12.01897003
2269,11.96659165
2270,12.01937344
2271,11.96689546
2272,11.91913254
2273,12.0707963
2274,12.09279477
2275,11.94290328
2276,11.97092171
2277,12.00839768
2278,12.01918749
2279,11.95804008
2280,12.04316385
2281,11.92211006
2282,11.93552696
2283,11.94680862
2284,12.01588503
2285,11.98748315
2286,12.0471049
2287,11.97888269
2288,11.95066548
2289,11.90307485
2290,11.94783666
2291,11.96727011
2292,11.96227133
2293,12.05168003
2294,12.0318081
2295,12.02992625
2296,12.04001403
2297,12.04604136
2298,12.0501575
2299,12.01567624
2300,11.99078242
2301,11.99769655
2302,12.00047151
2303,11.94519097
2304,12.02424918
2305,12.02847983
2306,11.98871419
2307,12.016307
2308,11.96990012
2309,12.07247894
2310,11.98755501
2311,11.97425153
2312,11.94627214
2313,11.99634822
2314,11.98180125
2315,12.0020701
2316,12.01660982
2317,12.00367599
2318,12.00370023
2319,12.00872721
2320,12.02338154
2321,11.96417257
2322,11.94187562
2323,12.05051968
2324,11.9706143
2325,12.01254913
2326,12.02771246
2327,11.98036899
2328,11.97093148
2329,11.89948427
2330,12.04125228
2331,11.96775804
2332,12.07249585
2333,12.06274405
2334,11.98340368
2335,11.9848064
2336,12.01386858
2337,12.0262857
2338,11.99877112
2339,11.97638709
2340,11.99000306
2341,12.04136416
2342,12.00174577
2343,12.04017482
2344,11.99640337
2345,11.92630435
2346,11.93753918
2347,11.93307817
2348,11.94564954
2349,12.00661843
2350,12.06372644
2351,12.02221671
2352,12.05092852
2353,12.04287968
2354,12.00825265
2355,12.01806773
2356,11.97616971
2357,11.99406341
2358,11.96814146
2359,11.98381976
2360,11.9533998
2361,11.98654385
2362,11.95408362
2363,12.02571397
2364,12.01073816
2365,12.09602423
2366,12.02692546
2367,12.02415077
2368,12.06260696
2369,12.07220026
2370,12.03475491
2371,12.02424867
2372,12.01613619
2373,11.98707148
2374,12.032812
2375,11.97445489
2376,11.90943634
2377,11.99557739
2378,11.96687374
2379,12.00272577
2380,12.02444069
2381,12.02523478
2382,11.90448624
2383,11.95364173
2384,12.00795631
2385,12.01308948
2386,12.03483353
2387,11.98082943
2388,12.04544444
2389,12.03456837
2390,11.96666164
2391,12.01279333
2392,12.02180822
2393,11.96565796
2394,11.97119692
2395,12.07335928
2396,12.03495514
2397,11.96590212
2398,11.97943028
2399,12.01167107
2400,11.91964592
2401,11.96970335
2402,12.05001459
2403,11.9991292
2404,12.03068803
2405,12.05101375
2406,12.03574179
2407,12.06198325
2408,12.04115723
2409,12.05745392
2410,12.01902351
2411,11.97358953
2412,11.98454634
2413,12.03712388
2414,11.97636794
2415,12.03656435
2416,12.05522375
2417,12.00857337
2418,12.02697129
2419,11.96898834
2420,11.98730781
2421,12.02484345
2422,11.98864185
2423,12.03271165
2424,12.01554981
2425,12.01763659
2426,12.00853594
2427,12.00143834
2428,11.90531534
2429,12.00534491
2430,11.97717477
2431,11.92141813
2432,11.97266239
2433,12.05575739
2434,11.93830626
2435,12.04603374
2436,11.95486586
2437,11.94796863
2438,12.01182725
2439,11.95277509
2440,12.00642432
2441,11.95035902
2442,11.98743953
2443,12.00816597
2444,12.03778513
2445,12.0386227
2446,11.99336195
2447,12.02992293
2448,12.02380154
2449,12.02378932
2450,11.9789035
2451,12.08577126
2452,11.99025191
2453,11.92894841
2454,11.97607709
2455,12.01348249
2456,11.99342248
2457,11.92559856
2458,12.02003443
2459,11.92162585
2460,12.02046549
2461,11.96965817
2462,11.97156508
2463,12.04573041
2464,12.01596963
2465,12.04364369
2466,12.00097968
2467,11.95729669
2468,12.00612846
2469,12.02120146
2470,12.05486881
2471,12.05152014
2472,12.04362269
2473,11.95915701
2474,12.02588932
2475,11.98757633
2476,11.98557148
2477,12.00679507
2478,12.03912245
2479,11.97922591
2480,12.07269198
2481,12.01941192
2482,12.05773472
2483,12.02553214
2484,12.01442726
2485,11.97941234
2486,11.95749263
2487,12.07720841
2488,12.03879955
2489,11.92905914
2490,11.93072935
2491,11.96757735
2492,12.02370899
2493,12.04855345
2494,11.96812171
2495,12.0381354
2496,11.96140659
2497,12.04273621
2498,12.09501506
2499,12.06729463
2500,12.04407698
2501,12.00697163
2502,11.9253549
2503,12.00932631
2504,11.91591482
2505,11.99910015
2506,12.09138453
2507,12.0139947
2508,12.00622231
2509,12.0396706
2510,12.00927214
2511,12.0341172
2512,12.01696243
2513,12.01526751
2514,12.02285209
2515,12.09129985
2516,12.06423414
2517,12.02491501
2518,11.99563942
2519,11.97608075
2520,11.98064177
2521,12.04892201
2522,11.99628683
2523,12.01797135
2524,12.1043515
2525,11.94386024
2526,12.05999354
2527,11.99055187
2528,11.97828417
2529,11.92122386
2530,11.99137139
2531,11.9484668
2532,12.02629604
2533,11.99718994
2534,12.06166557
2535,11.99995473
2536,11.98665769
2537,11.9535168
2538,11.97893289
2539,12.04459445
2540,11.94095231
2541,12.01255006
2542,12.06174948
2543,11.99908013
2544,12.00136885
2545,11.93755946
2546,11.95995878
2547,12.01646941
2548,11.97114134
2549,11.98832133
2550,12.03305429
2551,11.97765591
2552,11.99280778
2553,11.98447415
2554,11.90412523
2555,11.99042992
2556,11.97100857
2557,11.91087086
2558,12.07421549
2559,12.01202715
2560,12.02094668
2561,12.08597887
2562,11.90555661
2563,11.93715843
2564,11.93056612
2565,12.02655565
2566,12.05424516
2567,12.01999792
2568,11.96633215
2569,11.98239207
2570,11.94843598
2571,12.03430052
2572,11.99138939
2573,11.95837299
2574,11.9938897
2575,11.99600333
2576,11.97759952
2577,11.96673192
2578,11.9930265
2579,11.99372122
2580,12.00199611
2581,11.96783021
2582,12.01700032
2583,11.98172256
2584,11.95017837
2585,12.07082771
2586,11.96359942
2587,11.96205887
2588,12.02763386
2589,12.07440275
2590,12.00581007
2591,12.01829228
2592,12.00049
2593,11.97771699
2594,11.96601506
2595,11.96723167
2596,12.05359262
2597,12.00305606
2598,12.01742768
2599,12.02346233
2600,11.96132467
2601,11.9825732
2602,11.93433283
2603,11.98346194
2604,12.02098571
2605,11.97568192
2606,11.98063253
2607,12.03676283
2608,12.02117564
2609,12.01696581
2610,12.06642724
2611,12.00903313
2612,11.98821438
2613,12.01628158
2614,11.99870187
2615,11.96419454
2616,11.96375619
2617,12.01996036
2618,11.94296935
2619,11.97810672
2620,12.04727674
2621,12.01439634
2622,11.94612275
2623,12.00829758
2624,12.02265489
2625,11.97164758
2626,11.96672052
2627,12.00460008
2628,12.0600584
2629,11.95367738
2630,12.04591088
2631,11.99581741
2632,11.97620037
2633,11.97420432
2634,11.98555985
2635,12.06479415
2636,11.93473542
2637,12.04867347
2638,12.01848222
2639,11.99530129
2640,12.04481232
2641,12.01005819
2642,12.04124941
2643,11.94359606
2644,12.06469048
2645,12.04571049
2646,11.92564838
2647,12.05814373
2648,12.02719527
2649,12.03060539
2650,11.97725196
2651,12.05747222
2652,11.99226876
2653,11.94083568
2654,12.03378405
2655,11.93373762
2656,12.06329346
2657,11.99394581
2658,11.89938313
2659,11.94661144
2660,11.97439781
2661,12.0087403
2662,11.9999779
2663,11.97464431
2664,11.98206437
2665,12.02090818
2666,12.03559091
2667,12.07978099
2668,11.96273188
2669,11.93515834
2670,11.99593377
2671,11.97080417
2672,12.0045957
2673,12.05734324
2674,12.06644271
2675,11.98556727
2676,11.97100191
2677,12.02437281
2678,11.96879311
2679,11.94508083
2680,12.028574
2681,12.05842216
2682,12.00689143
2683,12.00906258
2684,12.01872024
2685,11.9883011
2686,11.9864453
2687,11.96598284
2688,12.04200089
2689,12.02865346
2690,12.00311816
2691,11.95631733
2692,11.96837205
2693,12.02268396
2694,12.01203754
2695,12.03286819
2696,11.97653222
2697,12.0414928
2698,11.99825891
2699,11.97214661
2700,12.0143734
2701,11.9689955
2702,12.02272521
2703,12.01440325
2704,12.0132185
2705,11.98031857
2706,11.9835482
2707,11.95897293
2708,11.97908161
2709,12.00394054
2710,12.03105496
2711,11.95892051
2712,12.00184553
2713,12.04485856
2714,11.98341023
2715,11.98161517
2716,12.01598637
2717,12.05375679
2718,12.05969681
2719,12.01142378
2720,11.96119789
2721,12.00198746
2722,11.99789767
2723,11.91924274
2724,11.98406806
2725,11.95517585
2726,11.9803205
2727,12.0480966
2728,12.02460066
2729,12.02686185
2730,11.96456884
2731,11.97052298
2732,11.97461522
2733,12.00096588
2734,12.0039259
2735,12.03702457
2736,12.00305968
2737,11.98112472
2738,11.98522619
2739,12.05235023
2740,12.0244246
2741,12.03541778
2742,11.99501558
2743,11.9942294
2744,12.02562156
2745,12.05952814
2746,12.05339176
2747,11.99503775
2748,12.00192639
2749,12.05163572
2750,11.98955886
2751,11.95974294
2752,12.02933517
2753,11.96870948
2754,12.04121508
2755,11.97009908
2756,12.11093813
2757,11.99515923
2758,12.05794104
2759,11.99112907
2760,12.10798602
2761,12.01956479
2762,12.00760119
2763,11.97229551
2764,11.98629322
2765,12.00575184
2766,11.93328203
2767,12.01940631
2768,11.94192116
2769,12.00793384
2770,11.95214314
2771,11.96612731
2772,12.05940015
2773,12.00444998
2774,11.94917175
2775,11.99368497
2776,12.00587731
2777,11.96175166
2778,11.99680568
2779,11.98344858
2780,11.98409093
2781,12.03234701
2782,12.03438503
2783,12.06859956
2784,12.00480935
2785,12.01071282
2786,12.00173664
2787,12.03105663
2788,12.02993569
2789,11.95484154
2790,12.05704452
2791,12.01473263
2792,12.04447171
2793,12.06356062
2794,12.02393448
2795,12.05281864
2796,12.03848885
2797,11.97600663
2798,12.0552762
2799,11.96390729
2800,11.99813873
2801,12.05752188
2802,11.97751869
2803,12.04455076
2804,12.03205209
2805,12.05472755
2806,11.996481
2807,11.98630806
2808,11.96512455
2809,12.05593484
2810,11.9497283
2811,12.02412033
2812,11.99762948
2813,12.00800119
2814,12.02439058
2815,12.02619764
2816,11.97239721
2817,12.05167906
2818,12.07280368
2819,11.95998776
2820,12.03362674
2821,12.0023355
2822,12.01978275
2823,11.98939004
2824,12.01903238
2825,12.01260163
2826,12.01829502
2827,11.98273598
2828,11.95362165
2829,12.04006588
2830,12.05562723
2831,11.96901606
2832,11.96868526
2833,11.97724605
2834,11.91760696
2835,11.95407042
2836,12.01007157
2837,11.99420597
2838,11.91896148
2839,11.94579525
2840,12.03876384
2841,11.94748931
2842,12.02086941
2843,11.99156527
2844,11.9555557
2845,11.97955677
2846,12.0026444
2847,12.00027511
2848,11.98283592
2849,12.06245472
2850,11.98498295
2851,12.01020278
2852,11.96303968
2853,11.96034703
2854,11.95299038
2855,12.03272274
2856,12.03516769
2857,11.99534035
2858,12.05803972
2859,11.98945866
2860,11.98296273
2861,11.91792372
2862,11.98833153
2863,12.01521065
2864,12.03922066
2865,11.95223243
2866,12.00482408
2867,12.04621785
2868,11.99570371
2869,11.97255886
2870,12.00928505
2871,12.0032706
2872,12.06265663
2873,11.9737017
2874,12.00652445
2875,12.03614727
2876,12.04242663
2877,12.03560064
2878,12.06245602
2879,11.96943804
2880,12.01742537
2881,11.93937711
2882,11.94560146
2883,11.93203126
2884,12.01478952
2885,12.03284957
2886,12.03010513
2887,11.9663514
2888,11.99289816
2889,11.9933129
2890,12.02958773
2891,12.01302744
2892,12.08398161
2893,12.02723159
2894,11.94165271
2895,11.95777913
2896,11.96383336
2897,11.94966874
2898,11.99221225
2899,12.0010598
2900,12.02788087
2901,11.96752091
2902,12.00211183
2903,11.95701604
2904,11.97927843
2905,12.02013787
2906,12.05537413
2907,12.01100171
2908,12.02705753
2909,11.87380695
2910,11.96393019
2911,12.03234803
2912,11.97316596
2913,11.95719667
2914,11.9864803
2915,12.04231338
2916,11.96943193
2917,11.9821564
2918,11.99946692
2919,12.03729046
2920,12.04488274
2921,12.0234211
2922,12.0018552
2923,12.04021945
2924,12.07510829
2925,12.05465827
2926,12.01329503
2927,11.95728082
2928,12.02403981
2929,11.94749908
2930,12.02992081
2931,12.02361393
2932,12.0301812
2933,11.98775893
2934,11.98918676
2935,12.07447773
2936,12.01109959
2937,11.97530154
2938,12.02604391
2939,11.9976369
2940,12.06649412
2941,11.93344888
2942,11.99917546
2943,11.99567353
2944,11.99876148
2945,11.93861165
2946,11.9747653
2947,11.98352315
2948,11.97345866
2949,12.01657612
2950,12.0089027
2951,12.04256161
2952,12.03587073
2953,11.98346723
2954,11.97963903
2955,12.01860764
2956,12.09304387
2957,11.98246251
2958,11.96488857
2959,12.05587919
2960,11.99487516
2961,11.99572946
2962,12.01711759
2963,11.99165043
2964,12.02222641
2965,11.99604974
2966,11.94881762
2967,12.0129326
2968,11.95785633
2969,12.01150036
2970,12.03077013
2971,12.0018229
2972,12.01393861
2973,11.95453213
2974,12.04420634
2975,12.06710812
2976,12.01259281
2977,11.98734697
2978,11.98370719
2979,12.03135485
2980,12.0867883
2981,12.01880383
2982,11.98697014
2983,12.00545302
2984,12.04087374
2985,11.94320219
2986,12.01356857
2987,12.00042028
2988,11.98647979
2989,11.9070436
2990,11.93828636
2991,12.02546949
2992,11.96890146
2993,11.98295495
2994,11.99852744
2995,11.96803
2996,12.03117214
2997,11.9830006
2998,12.01060158
2999,11.94542819
3000,12.01361928
3001,11.9799449
3002,12.06668662
3003,12.00666225
3004,12.07309889
3005,12.03400879
3006,11.99656632
3007,12.04074536
3008,11.97542597
3009,12.03036645
3010,11.97854962
3011,12.0523797
3012,11.98273379
3013,12.04009755
3014,12.02629553
3015,12.0567482
3016,12.04144293
3017,11.98912558
3018,11.92308425
3019,12.01389217
3020,12.04987222
3021,11.99225362
3022,11.97277413
3023,11.96759149
3024,11.98432584
3025,12.03729893
3026,11.99736366
3027,11.95583102
3028,11.93252359
3029,11.94452665
3030,11.97526423
3031,12.00216671
3032,12.10801173
3033,11.99975539
3034,12.03741839
3035,12.01340803
3036,12.00510479
3037,12.03147815
3038,11.97881078
3039,11.9862112
3040,12.10016503
3041,11.91598547
3042,12.06171689
3043,11.99937212
3044,11.91798771
3045,11.98678429
3046,12.01929331
3047,12.07228157
3048,11.99694227
3049,12.01608131
3050,12.02112856
3051,11.9724026
3052,12.07975205
3053,11.96500861
3054,11.98888794
3055,11.99917212
3056,12.0218085
3057,12.02652464
3058,12.01833113
3059,12.00035425
3060,11.99690542
3061,11.96701875
3062,11.92341591
3063,12.01913386
3064,11.94546755
3065,12.00238692
3066,12.03558904
3067,11.98802662
3068,11.96817052
3069,11.9121564
3070,12.00458213
3071,12.066722
3072,12.00553466
3073,12.01179337
3074,11.9838586
3075,12.01722416
3076,12.02173824
3077,12.02525713
3078,11.96944886
3079,11.9871953
3080,12.00587597
3081,12.01092547
3082,11.98100062
3083,12.01063919
3084,12.01901496
3085,11.99213053
3086,11.96132866
3087,11.9481
3088,12.04463937
3089,12.03998938
3090,12.00182165
3091,11.99611835
3092,12.00352639
3093,11.99421645
3094,12.01861945
3095,12.04477965
3096,12.00981755
3097,11.95772583
3098,12.01902897
3099,11.96802614
3100,12.00714414
3101,11.97091864
3102,12.05840468
3103,12.00079559
3104,11.91418258
3105,12.00112711
3106,11.96695818
3107,12.11023441
3108,11.98748505
3109,12.0511651
3110,11.98259284
3111,12.01240608
3112,12.05852282
3113,11.95755701
3114,12.05118369
3115,11.99162788
3116,12.00338385
3117,12.00065446
3118,12.04238147
3119,11.96384106
3120,11.99753936
3121,11.99190821
3122,11.95562945
3123,11.94001257
3124,11.95069888
3125,12.03312414
3126,11.98489382
3127,11.96877198
3128,11.99339036
3129,11.99488459
3130,11.94984968
3131,11.99528312
3132,12.00614608
3133,12.04023794
3134,12.01419822
3135,12.07936741
3136,12.00310766
3137,11.99266212
3138,12.03135947
3139,11.95012743
3140,11.98335078
3141,11.97451836
3142,12.01182821
3143,11.98223439
3144,12.07719132
3145,11.94469557
3146,11.97049166
3147,12.04448353
3148,11.99373978
3149,12.01292932
3150,12.01053761
3151,11.96293068
3152,11.94172159
3153,11.95515213
3154,12.06287318
3155,12.00742824
3156,12.00305597
3157,12.04126806
3158,11.96097126
3159,12.04831404
3160,12.0215438
3161,12.07864516
3162,11.94499064
3163,11.98933774
3164,11.95917532
3165,12.00119202
3166,12.00151123
3167,12.02100232
3168,12.00613726
3169,12.09297938
3170,12.01115911
3171,11.9331259
3172,11.99396907
3173,12.02405772
3174,11.97245151
3175,11.97471852
3176,12.00320777
3177,12.0518219
3178,12.04222858
3179,11.95766184
3180,11.95656703
3181,12.03778475
3182,11.995787
3183,11.97973865
3184,11.95750297
3185,12.03026727
3186,12.03144128
3187,11.99900778
3188,11.99471976
3189,12.04031994
3190,11.97868509
3191,12.03451498
3192,12.04234216
3193,12.0310015
3194,11.97211143
3195,12.03964786
3196,12.0639829
3197,12.06629873
3198,12.0186638
3199,11.94259228
3200,11.89354236
3201,12.05530893
3202,12.11443312
3203,11.9617181
3204,12.0348969
3205,12.01837566
3206,12.00123617
3207,12.12160267
3208,12.02296867
3209,12.02083236
3210,11.96264813
3211,11.9923142
3212,12.01828435
3213,12.00213668
3214,12.01384576
3215,11.98511765
3216,12.01260734
3217,11.92840499
3218,12.04042286
3219,12.03703165
3220,12.04498494
3221,12.00490837
3222,12.02520579
3223,11.98456697
3224,11.90884126
3225,11.96414462
3226,11.99366718
3227,11.96921579
3228,11.9925301
3229,12.02218873
3230,11.99851847
3231,11.97809375
3232,11.97613001
3233,12.01194213
3234,11.93470627
3235,12.06080102
3236,12.00582911
3237,12.03531465
3238,11.99055235
3239,11.97637097
3240,11.97158574
3241,12.04716189
3242,11.96752947
3243,11.91359569
3244,11.96588704
3245,12.03229784
3246,11.93930078
3247,11.99114583
3248,11.96581484
3249,11.88021538
3250,12.06396591
3251,12.08491782
3252,12.06944748
3253,12.01635705
3254,12.01463055
3255,11.96537192
3256,11.98816475
3257,12.05137134
3258,12.03150408
3259,11.95005981
3260,12.00337164
3261,12.07436159
3262,12.02822004
3263,11.92677367
3264,11.94538993
3265,12.03390725
3266,12.08286971
3267,11.99987464
3268,11.94792606
3269,12.03157637
3270,11.92779537
3271,12.03322438
3272,11.9702131
3273,11.93953369
3274,11.99931424
3275,11.9138309
3276,12.03447043
3277,12.04240275
3278,11.99341714
3279,12.07136077
3280,12.06711404
3281,12.04171726
3282,12.01314507
3283,12.05784575
3284,12.04767523
3285,11.96490587
3286,11.97695796
3287,12.06146855
3288,12.02460935
3289,12.05182966
3290,12.02749597
3291,12.03379498
3292,12.03284248
3293,11.98395313
3294,11.9208088
3295,11.93888317
3296,11.99958862
3297,11.989722
3298,12.02075746
3299,11.96081849
3300,12.00920844
3301,12.02729268
3302,11.9440091
3303,12.02717319
3304,11.99406864
3305,12.05974664
3306,12.01633221
3307,12.03593198
3308,11.98311198
3309,11.97458419
3310,11.91986538
3311,12.06381349
3312,12.01266857
3313,12.03011724
3314,12.02839981
3315,12.00783218
3316,12.04188044
3317,11.97704954
3318,12.01071584
3319,12.01620587
3320,12.04832273
3321,11.98087169
3322,11.99142846
3323,11.9708866
3324,11.99860103
3325,11.97209008
3326,11.9444622
3327,12.05409567
3328,11.97955295
3329,12.02430569
3330,11.98557665
3331,12.06389833
3332,11.99899834
3333,11.95892054
3334,12.03080959
3335,12.00801774
3336,11.91861281
3337,11.93238032
3338,11.9734418
3339,11.99982754
3340,12.02536511
3341,11.99484713
3342,11.98055483
3343,12.03339637
3344,12.01548384
3345,11.95570608
3346,12.00098976
3347,11.90197441
3348,11.98679536
3349,11.95319946
3350,12.00293836
3351,11.97949548
3352,12.01183947
3353,11.99581906
3354,12.06107619
3355,12.044494
3356,11.97964117
3357,11.98457621
3358,12.03677424
3359,12.03338363
3360,12.01173384
3361,12.07097188
3362,12.05049416
3363,11.96602674
3364,11.98728226
3365,12.0334634
3366,12.03772977
3367,12.01482528
3368,11.9600095
3369,11.99783542
3370,11.94853854
3371,11.98185257
3372,11.97775579
3373,11.98598046
3374,12.06513613
3375,12.01094876
3376,12.00053455
3377,12.00160681
3378,12.00026073
3379,12.00367778
3380,12.04459791
3381,12.03899543
3382,11.98028195
3383,12.01553899
3384,11.94964051
3385,12.00368884
3386,11.99855605
3387,12.01197418
3388,11.97544776
3389,12.01895439
3390,12.01371559
3391,12.03409849
3392,11.95924058
3393,12.03063992
3394,11.98436529
3395,12.00187025
3396,11.99434273
3397,11.92815993
3398,11.95325477
3399,11.93612115
3400,11.95695622
3401,11.95358289
3402,11.98885556
3403,11.97836238
3404,11.97555984
3405,12.02443927
3406,11.99090367
3407,11.98159181
3408,11.99757171
3409,12.04281145
3410,11.99012158
3411,11.96317714
3412,11.97324771
3413,12.00491844
3414,12.05232684
3415,12.04356443
3416,11.90935873
3417,11.96211927
3418,11.99916485
3419,12.02994638
3420,12.02781631
3421,12.03161512
3422,12.06290479
3423,12.01855873
3424,11.97139809
3425,12.02524628
3426,12.04616712
3427,12.09236097
3428,11.94186211
3429,12.04635292
3430,11.99074483
3431,11.96295404
3432,12.05347858
3433,11.97376786
3434,12.00885722
3435,12.00779208
3436,12.01320772
3437,11.99978493
3438,11.98478447
3439,12.00828294
3440,11.98078789
3441,11.92578151
3442,12.03214861
3443,12.08407267
3444,12.02853691
3445,11.93474958
3446,12.01956391
3447,12.01278419
3448,11.9779605
3449,12.04610044
3450,11.99062125
3451,12.00153516
3452,11.9728847
3453,11.92869853
3454,12.00703704
3455,12.01564857
3456,11.98594949
3457,12.04156156
3458,12.04958586
3459,11.99812194
3460,11.89027435
3461,11.91298371
3462,11.94538872
3463,12.03097438
3464,12.02154516
3465,11.90456478
3466,11.99656972
3467,12.02808177
3468,12.0633524
3469,12.06638221
3470,12.0031358
3471,11.99470004
3472,11.98712705
3473,12.01534465
3474,12.016658
3475,12.00029327
3476,11.97327857
3477,11.98927589
3478,11.9378439
3479,12.03290394
3480,11.94134021
3481,12.04151849
3482,12.01042748
3483,11.98216318
3484,11.9782066
3485,12.00894697
3486,11.97769012
3487,12.03704217
3488,11.96104147
3489,11.995198
3490,11.9693717
3491,11.99092847
3492,12.0674553
3493,12.02221674
3494,11.99043775
3495,11.91241677
3496,12.03118265
3497,11.90095397
3498,11.99537224
3499,12.09021625
3500,12.00987034
3501,11.95610924
3502,12.07368773
3503,12.03223537
3504,12.04082353
3505,12.06949005
3506,11.97123232
3507,11.97892757
3508,12.00087113
3509,11.99129688
3510,12.06027971
3511,11.99114525
3512,11.99868794
3513,12.05194582
3514,11.94180146
3515,11.99057431
3516,11.97903701
3517,12.0004207
3518,11.98900245
3519,11.94705481
3520,11.96793658
3521,12.01450192
3522,12.02416314
3523,11.95023998
3524,11.96774635
3525,12.01250693
3526,11.92600536
3527,12.05541302
3528,11.92192141
3529,12.00477142
3530,12.05413624
3531,12.03762844
3532,11.98883074
3533,12.01323285
3534,12.00703768
3535,12.03283754
3536,12.03725808
3537,12.0080632
3538,11.98453326
3539,11.97853921
3540,11.94465872
3541,11.93367039
3542,11.9607659
3543,12.03878807
3544,12.0050427
3545,12.0114217
3546,11.99793242
3547,11.93711393
3548,11.97193348
3549,12.03016903
3550,11.98127238
3551,11.93955882
3552,12.00475268
3553,11.98317223
3554,11.97078441
3555,11.96720986
3556,12.02056344
3557,12.01918114
3558,11.96058372
3559,12.03364799
3560,12.02054536
3561,11.98338986
3562,11.99529053
3563,12.02361754
3564,11.97977546
3565,12.02904312
3566,12.04985354
3567,12.01622882
3568,12.02776869
3569,11.96960865
3570,12.02559292
3571,11.9923465
3572,12.04511753
3573,12.00965033
3574,12.01428307
3575,12.06016215
3576,11.99185282
3577,11.96507333
3578,12.00212937
3579,12.01395904
3580,12.0434546
3581,12.05725339
3582,11.98455427
3583,11.99114774
3584,11.99170114
3585,11.97684754
3586,11.98820285
3587,11.98764557
3588,11.96554956
3589,12.03500688
3590,12.02028649
3591,12.04704746
3592,11.97468296
3593,11.9938954
3594,11.98962145
3595,12.05694726
3596,12.05823233
3597,12.0073703
3598,12.08707362
3599,12.00736546
3600,11.99879169
3601,11.98334972
3602,11.96510045
3603,12.00423334
3604,12.00777054
3605,11.96853367
3606,12.03238936
3607,12.0740063
3608,11.95542002
3609,11.96562572
3610,11.96456454
3611,11.99979915
3612,12.00171154
3613,11.96242315
3614,12.02857576
3615,12.03363332
3616,12.0320043
3617,12.04138733
3618,12.02539343
3619,11.96215258
3620,12.00956054
3621,11.97525303
3622,12.03658779
3623,11.93759325
3624,12.04727589
3625,12.0523948
3626,11.92070444
3627,12.07044579
3628,11.94684096
3629,12.01907395
3630,11.98762219
3631,12.01613225
3632,12.02668943
3633,11.9243802
3634,11.98891273
3635,12.00262043
3636,11.98362671
3637,11.94464645
3638,11.97514897
3639,12.0484161
3640,12.03067682
3641,11.95723025
3642,11.95535101
3643,11.96721223
3644,11.99516738
3645,11.98226342
3646,11.96492464
3647,12.0110003
3648,12.0177067
3649,12.05932646
3650,12.02658303
3651,12.05764717
3652,11.96826358
3653,12.0470211
3654,12.06014213
3655,11.94548846
3656,11.98601107
3657,12.00675856
3658,12.04858872
3659,11.9955126
3660,11.98575216
3661,12.00561512
3662,12.03757684
3663,11.9613369
3664,12.02342806
3665,11.95298773
3666,12.0369353
3667,12.03175842
3668,11.98530081
3669,11.95352032
3670,11.95238187
3671,12.00631458
3672,11.98546623
3673,11.99659886
3674,11.94852614
3675,11.99983656
3676,12.0482852
3677,11.96756262
3678,12.01529351
3679,12.04718163
3680,12.11640403
3681,12.00862415
3682,12.02808823
3683,11.96511839
3684,11.947649
3685,12.01480146
3686,12.04817576
3687,11.98246728
3688,11.97995131
3689,12.02207665
3690,11.99195564
3691,12.07192944
3692,11.95530623
3693,11.98918737
3694,12.01473256
3695,11.9974371
3696,11.94893937
3697,11.97820821
3698,12.03038728
3699,12.04419374
3700,11.95905822
3701,12.03492173
3702,11.96019155
3703,12.05931074
3704,11.96457393
3705,11.97586509
3706,12.04858169
3707,11.97160841
3708,12.04707771
3709,11.93240619
3710,12.01116203
3711,11.97325872
3712,11.93345638
3713,12.03167782
3714,11.97113496
3715,12.00299888
3716,11.9918008
3717,12.10328497
3718,11.95835388
3719,12.02277105
3720,11.96805363
3721,11.93877659
3722,12.03393331
3723,11.99108177
3724,12.01718313
3725,12.04475371
3726,11.99288206
3727,12.0282504
3728,11.98289397
3729,12.01080903
3730,11.99889495
3731,12.00300117
3732,12.06679056
3733,11.9789903
3734,11.98961028
3735,12.01707713
3736,12.02705643
3737,11.99097149
3738,12.00140493
3739,12.05148504
3740,11.99224623
3741,12.04359896
3742,12.04996992
3743,12.01327401
3744,11.99120823
3745,11.8666414
3746,11.94769707
3747,12.01503842
3748,12.08163866
3749,12.04038708
3750,12.05064329
3751,11.98174981
3752,11.95108163
3753,11.99078245
3754,12.01330266
3755,12.04404233
3756,12.01531621
3757,12.02264366
3758,12.05361523
3759,11.96851927
3760,12.01326639
3761,11.97543425
3762,12.03723845
3763,11.93643649
3764,12.02950161
3765,11.95657321
3766,11.99922319
3767,11.93820968
3768,12.0347607
3769,12.00040855
3770,11.92211758
3771,11.97619464
3772,12.040049
3773,11.98831482
3774,11.9645792
3775,11.93757217
3776,11.96968802
3777,11.97269623
3778,11.97309668
3779,11.94418826
3780,12.06063115
3781,12.06157245
3782,11.97516451
3783,12.01215163
3784,11.99451743
3785,11.95873165
3786,12.0294759
3787,12.04917924
3788,12.01581603
3789,12.06598345
3790,11.95928482
3791,12.02563713
3792,12.06258299
3793,12.02699532
3794,12.01178703
3795,11.96124021
3796,12.01267758
3797,12.052333
3798,12.05552636
3799,11.99597894
3800,12.03801287
3801,11.95878744
3802,11.96600265
3803,11.95565755
3804,11.99236786
3805,12.02503636
3806,12.00055377
3807,12.01828856
3808,11.96973338
3809,12.01138213
3810,12.01072215
3811,12.02893083
3812,11.96926688
3813,11.9751549
3814,11.99776712
3815,12.03638251
3816,11.99143625
3817,11.98866354
3818,12.00637967
3819,11.95336705
3820,12.01667937
3821,12.04297093
3822,11.97476701
3823,11.9943571
3824,11.98718666
3825,11.9969437
3826,11.98042133
3827,11.92082456
3828,12.03698874
3829,12.01156879
3830,11.97701787
3831,11.94708876
3832,12.06124055
3833,12.0352415
3834,12.05410723
3835,11.99216013
3836,11.96315009
3837,12.00430514
3838,11.88559274
3839,11.9849365
3840,11.96409711
3841,12.06520869
3842,12.0117059
3843,12.04241284
3844,11.9968911
3845,11.97832194
3846,11.96140289
3847,11.99265774
3848,11.96373659
3849,12.00775654
3850,11.98137702
3851,12.06528723
3852,11.99094256
3853,12.00036533
3854,12.01473033
3855,11.99160582
3856,12.02413313
3857,11.96774961
3858,12.03440114
3859,12.00477859
3860,12.10552502
3861,12.03763253
3862,11.96773167
3863,12.01220834
3864,12.09768465
3865,11.9770121
3866,11.96373286
3867,11.98111641
3868,12.04731034
3869,11.90690839
3870,12.02959066
3871,12.0404563
3872,11.98660692
3873,12.00475562
3874,11.98232462
3875,11.96680255
3876,11.95745474
3877,11.98785879
3878,11.95806913
3879,12.01791497
3880,11.99535905
3881,11.94306507
3882,12.0289688
3883,12.01527304
3884,11.95443691
3885,11.97330327
3886,11.97459801
3887,11.9338685
3888,11.92430481
3889,11.99710673
3890,12.014736
3891,11.96848992
3892,11.9537844
3893,11.90614233
3894,11.9806336
3895,11.99598389
3896,12.04920112
3897,11.96798061
3898,12.00888091
3899,11.95954105
3900,11.95363643
3901,11.91524513
3902,12.00979261
3903,12.03096123
3904,11.9712882
3905,12.08410534
3906,11.99061583
3907,11.94159801
3908,11.96135265
3909,11.99046995
3910,11.9589985
3911,11.98333638
3912,12.06346638
3913,12.040018
3914,12.05446431
3915,11.96713282
3916,12.02122937
3917,12.04959717
3918,12.04132287
3919,12.0335765
3920,11.9675637
3921,12.00019903
3922,12.00651734
3923,12.08732275
3924,11.97664838
3925,11.92722548
3926,11.95741542
3927,11.92532318
3928,12.04189996
3929,12.01497132
3930,12.0344581
3931,11.99298908
3932,12.06253417
3933,12.03526565
3934,12.07251338
3935,12.06379214
3936,11.99283612
3937,11.96391131
3938,12.02848061
3939,11.99936657
3940,12.02071086
3941,12.01281468
3942,12.0157492
3943,12.05222273
3944,12.02318598
3945,12.09835055
3946,11.96501589
3947,11.9454468
3948,11.99985119
3949,11.96886712
3950,12.01012465
3951,11.96469217
3952,12.03507876
3953,11.99131024
3954,12.03123918
3955,11.94872588
3956,11.93223127
3957,11.98728289
3958,12.05383468
3959,11.9951831
3960,11.9817005
3961,12.01138633
3962,12.00530972
3963,11.87872694
3964,11.96791431
3965,12.0046965
3966,12.06362512
3967,12.00168056
3968,11.93555737
3969,12.00329427
3970,11.95322752
3971,11.96431747
3972,12.08014183
3973,11.96008383
3974,11.98433267
3975,12.01482848
3976,12.00017741
3977,12.01003756
3978,11.96102829
3979,11.99649249
3980,12.03789442
3981,11.95620551
3982,11.97963954
3983,12.01111838
3984,11.99949642
3985,12.05001994
3986,12.01189334
3987,11.91360393
3988,11.9729209
3989,12.00796111
3990,12.00263327
3991,12.01064498
3992,11.98938827
3993,11.96356527
3994,12.01991331
3995,12.01454731
3996,11.92245014
3997,12.02096735
3998,12.06250679
3999,12.03562673
4000,12.0715052
