Wavenumber (cm⁻¹),Intensity
200.0,8.876000000000001
201.00097751710655,8.007151515151516
202.0019550342131,7.138303030303033
203.00293255131965,6.269454545454549
204.0039100684262,5.400606060606064
205.00488758553274,4.53175757575758
206.0058651026393,3.6629090909090958
207.00684261974584,2.7940606060606115
208.0078201368524,1.9252121212121276
209.00879765395894,1.0563636363636433
210.00977517106548,0.2090889540566841
211.01075268817203,1.554419354838692
212.01173020527858,3.3597917888562883
213.01270772238513,4.962023460410539
214.01368523949168,6.461061583577694
215.01466275659823,8.002108504398805
216.01564027370478,9.580274682306918
217.01661779081132,11.173758553274679
218.01759530791787,11.33675366568915
219.01857282502445,11.331004887585538
220.019550342131,11.770891495601182
221.02052785923755,12.639369501466286
222.0215053763441,13.705301075268837
223.02248289345064,15.860630498533741
224.0234604105572,18.033791788856323
225.02443792766374,20.546151515151532
226.0254154447703,23.239969696969716
227.02639296187684,26.942586510263954
228.02737047898339,32.16142130987294
229.02834799608993,37.4655640273705
230.02932551319648,44.794692082111446
231.03030303030303,52.14763636363637
232.03128054740958,60.30876246334311
233.03225806451613,68.83064516129032
234.03323558162268,74.78099315738027
235.03421309872923,74.50979667644184
236.03519061583577,73.98399413489739
237.03616813294232,66.39091300097756
238.03714565004887,58.04323362658852
239.03812316715542,48.554099706744935
240.03910068426197,38.15348973607045
241.04007820136852,28.356417399804556
242.04105571847506,20.90053079178892
243.0420332355816,13.653358748778135
244.0430107526882,10.463806451612863
245.04398826979474,8.203384164222845
246.0449657869013,6.495564027370456
247.04594330400784,5.059095796676419
248.04692082111438,3.616061583577703
249.04789833822093,2.9135190615835684
250.04887585532748,2.229133919843593
251.04985337243403,1.8486392961876803
252.05083088954058,1.5965923753665696
253.05180840664713,1.6754633431085102
254.05278592375367,2.2638797653958997
255.05376344086022,2.8271935483870982
256.05474095796677,2.998524926686218
257.0557184750733,3.1417712609970647
258.05669599217987,2.7440703812316682
259.0576735092864,2.074647116324533
260.05865102639297,1.4089384164222851
261.0596285434995,0.7424066471163229
262.06060606060606,0.1266666666666669
263.0615835777126,0.2725777126099708
264.06256109481916,0.47671456500488757
265.0635386119257,0.9312033235581617
266.06451612903226,1.5755806451612884
267.0654936461388,2.693207233626582
268.06647116324535,5.0195454545454465
269.0674486803519,7.347020527859227
270.06842619745845,9.67743304007819
271.069403714565,11.913378299120229
272.07038123167155,12.774516129032259
273.0713587487781,12.536532746823074
274.07233626588464,11.992857282502458
275.0733137829912,10.496542521994149
276.07429130009774,8.921477028348024
277.0752688172043,6.3265806451613225
278.07624633431084,3.587736070381261
279.0772238514174,1.3551779081134046
280.07820136852393,0.6131720430107293
281.0791788856305,2.140152492668619
282.08015640273703,2.34419159335288
283.0811339198436,2.546145650048872
284.08211143695013,2.7452580645161255
285.0830889540567,2.8928504398827055
286.0840664711632,2.4245356793744106
287.0850439882698,1.335302052785946
288.0860215053764,0.37369892473119753
289.0869990224829,0.8481769305963233
290.0879765395895,1.9733343108504882
291.088954056696,3.418743890518134
292.0899315738026,4.946415444770333
293.0909090909091,6.476090909090956
294.09188660801567,8.021828934506404
295.0928641251222,9.813783968719534
296.09384164222877,12.635727272727353
297.0948191593353,15.173415444770278
298.09579667644186,14.897137829911996
299.0967741935484,13.919774193548376
300.09775171065496,13.531731182795705
301.0987292277615,13.765726295210168
302.09970674486806,13.67262756598237
303.1006842619746,12.213403714564972
304.10166177908116,10.926772238514179
305.1026392961877,11.19902639296189
306.10361681329425,11.872015640273714
307.1045943304008,12.350135874877815
308.10557184750735,12.630589442815255
309.1065493646139,13.08661388074293
310.10752688172045,14.220043010752708
311.108504398827,15.504043988269833
312.10948191593354,18.0436803519062
313.1104594330401,20.896507331378334
314.11143695014664,23.70146920821118
315.1124144672532,26.528444770283514
316.11339198435974,29.64190713587492
317.1143695014663,33.74442815249271
318.11534701857283,37.6764750733138
319.1163245356794,40.35136461388076
320.11730205278593,42.74705571847509
321.1182795698925,45.14575268817206
322.119257086999,47.58192082111439
323.1202346041056,50.44856891495603
324.1212121212121,54.5828484848485
325.1221896383187,58.94212805474097
326.1231671554252,64.94809090909092
327.12414467253177,71.444880742913
328.1251221896383,79.51688856304985
329.12609970674487,89.0470175953079
330.1270772238514,100.76900391006839
331.12805474095796,117.87771163245351
332.1290322580645,135.77970967741928
333.13000977517106,159.1422746823068
334.1309872922776,183.7257233626587
335.13196480938416,212.39126392961856
336.1329423264907,243.4715532746821
337.13391984359725,271.48836265884637
338.1348973607038,293.3838797653957
339.13587487781035,312.18408211143696
340.1368523949169,311.07918670576737
341.13782991202345,306.66222287390053
342.13880742913,287.8487448680355
343.13978494623655,261.1336236559144
344.1407624633431,233.13373313783035
345.14173998044964,203.09348582600242
346.1427174975562,173.949345063539
347.14369501466274,149.9720733137834
348.1446725317693,126.86760019550375
349.14565004887584,109.30582600195532
350.1466275659824,94.307126099707
351.14760508308893,81.68792082111457
352.1485826001955,72.06141055718496
353.14956011730203,63.42151026392973
354.1505376344086,58.50586021505388
355.1515151515151,53.59121212121224
356.1524926686217,48.677565982404815
357.1534701857282,43.89030694037156
358.1544477028348,39.9380918866081
359.1554252199413,36.785838709677506
360.15640273704787,33.8712737047899
361.1573802541544,31.569182795698993
362.15835777126097,29.208234604105655
363.1593352883675,26.520377321603213
364.16031280547406,23.901855327468297
365.1612903225806,21.994677419354886
366.16226783968716,20.621426197458494
367.1632453567937,19.695084066471168
368.16422287390026,19.57329325513197
369.1652003910068,19.522725317693048
370.16617790811335,19.826844574780047
371.1671554252199,20.291082111436904
372.16813294232645,21.556552297165137
373.169110459433,23.103124144672485
374.17008797653955,24.106938416422274
375.1710654936461,24.447360703812297
376.1720430107527,25.07894623655916
377.17302052785925,26.713715542522017
378.1739980449658,28.171660801564038
379.17497556207235,28.73539198435973
380.1759530791789,28.875970674486794
381.17693059628544,27.93950146627564
382.177908113392,26.117648093841627
383.17888563049854,24.564049853372428
384.1798631476051,23.58545356793743
385.18084066471164,22.75208699902248
386.1818181818182,22.584454545454545
387.18279569892474,22.48052688172043
388.1837732160313,22.357023460410556
389.18475073313783,22.341554252199415
390.1857282502444,23.352248289345066
391.18670576735093,25.78458748778104
392.1876832844575,28.11498826979472
393.188660801564,30.102887585532745
394.1896383186706,32.24286803519061
395.1906158357771,35.00798533724339
396.1915933528837,37.936564027370466
397.1925708699902,40.65916715542521
398.19354838709677,43.11632258064515
399.1945259042033,44.893500488758555
400.19550342130987,45.24103519061583
401.1964809384164,45.35713489736071
402.19745845552296,44.49980938416423
403.1984359726295,43.60624633431085
404.19941348973606,42.96969501466276
405.2003910068426,42.49766471163246
406.20136852394916,42.209924731182795
407.2023460410557,42.16175073313783
408.20332355816225,42.22449951124145
409.20430107526886,42.612000000000016
410.2052785923754,42.981489736070394
411.20625610948196,43.34334604105573
412.2072336265885,43.537175953079156
413.20821114369505,42.8541260997067
414.2091886608016,41.47413587487776
415.21016617790815,40.07255718475068
416.2111436950147,38.67039882697942
417.21212121212125,36.907999999999895
418.2130987292278,33.79082111436939
419.21407624633434,30.824612903225734
420.2150537634409,28.665301075268758
421.21603128054744,26.783320625610887
422.217008797654,24.700219941348905
423.21798631476054,22.462242424242362
424.2189638318671,20.628232649071332
425.21994134897363,19.669736070381205
426.2209188660802,18.798739002932535
427.22189638318673,18.24294525904202
428.2228739002933,17.788841642228732
429.2238514173998,17.583882697947214
430.2248289345064,17.615683284457486
431.2258064516129,18.200935483870996
432.2267839687195,19.47216911045946
433.227761485826,20.985954056696034
434.22873900293257,23.126043988269835
435.2297165200391,25.515835777126156
436.23069403714567,28.799816226784028
437.2316715542522,31.98571260997071
438.23264907135876,33.99867253176933
439.2336265884653,35.106278592375375
440.23460410557186,35.34989149560116
441.2355816226784,34.38005767350927
442.23655913978496,32.84676344086017
443.2375366568915,29.680909090909054
444.23851417399806,26.351720430107488
445.2394916911046,22.450058651026357
446.24046920821115,18.725782991202323
447.2414467253177,16.355147605083076
448.24242424242425,14.963999999999992
449.2434017595308,13.585164222873892
450.24437927663735,12.249217008797649
451.2453567937439,11.392109481915936
452.24633431085044,11.847894428152495
453.247311827957,12.20520430107527
454.24828934506354,12.289738025415446
455.2492668621701,12.298489736070382
456.25024437927664,12.314755620723362
457.2512218963832,12.316926686217009
458.25219941348973,12.181712609970676
459.2531769305963,11.828679374389052
460.25415444770283,11.708906158357768
461.2551319648094,12.225862170087975
462.2561094819159,12.653148582600194
463.2570869990225,12.81382404692082
464.258064516129,12.833483870967743
465.2590420332356,12.611569892473122
466.2600195503421,12.282437927663736
467.26099706744867,12.434460410557175
468.2619745845552,13.314131964809375
469.26295210166177,13.712347018572837
470.2639296187683,12.790073313783003
471.26490713587486,12.039183773216035
472.2658846529814,11.843289345063539
473.26686217008796,11.634395894428163
474.2678396871945,10.755541544477051
475.26881720430106,9.493989247311845
476.2697947214076,8.763381231671556
477.27077223851416,8.751959921798633
478.2717497556207,8.604190615835787
479.27272727272725,8.132181818181827
480.2737047898338,7.961507331378286
481.27468230694035,8.654862170087956
482.2756598240469,9.418129032258054
483.27663734115345,9.686764418377322
484.27761485826,9.6128054740958
485.27859237536654,9.356832844574793
486.2795698924731,8.885075268817216
487.28054740957964,8.545936461388076
488.2815249266862,8.502049853372435
489.2825024437928,8.665621700879784
490.28347996089934,9.404540566959943
491.2844574780059,9.946850439882692
492.28543499511244,9.51769305962852
493.286412512219,8.616452590420314
494.28739002932554,7.913879765395883
495.2883675464321,7.431541544477019
496.28934506353863,7.101954056695991
497.2903225806452,7.0499032258064505
498.29130009775173,6.7636471163245195
499.2922776148583,5.879920821114352
500.2932551319648,4.930700879765379
501.2942326490714,3.9807732160312645
502.2952101661779,3.089001955034201
503.2961876832845,2.410906158357764
504.297165200391,1.9098230694037077
505.29814271749757,1.4073323558162203
506.2991202346041,0.9057390029325452
507.30009775171067,0.4065513196480882
508.3010752688172,0.17421505376344487
509.30205278592376,0.49353665689149717
510.3030303030303,0.6246666666666671
511.30400782013686,0.6800244379276642
512.3049853372434,0.735469208211141
513.3059628543499,0.7898279569892445
514.3069403714564,0.845802541544474
515.307917888563,0.892466275659823
516.3088954056695,0.7877663734115554
517.3098729227761,0.4010791788856516
518.3108504398826,0.25771847507329176
519.3118279569892,0.6929032258064226
520.3128054740957,0.9344516129032466
521.3137829912023,0.5171260997067759
522.3147605083088,0.2900684261974322
523.3157380254154,0.5738455522971692
524.3167155425219,0.5368680351906142
525.3176930596285,0.6776764418377086
526.318670576735,1.0610508308895166
527.3196480938416,1.4444252199413248
528.3206256109481,1.8274789833821847
529.3216031280547,2.096004887585531
530.3225806451612,2.0920967741935534
531.3235581622678,2.3546158357770617
532.3245356793743,3.567393939393822
533.3255131964809,5.357824046920691
534.3264907135874,7.353014662756445
535.327468230694,9.458376344085885
536.3284457478005,10.877809384164195
537.3294232649071,11.258180840664684
538.3304007820136,11.63822189638316
539.3313782991202,12.01759237536654
540.3323558162267,11.959582600195574
541.3333333333333,10.856000000000108
542.3343108504398,9.420598240469317
543.3352883675464,7.984861192570981
544.3362658846529,6.6910351906159145
545.3372434017595,5.994369501466282
546.338220918866,5.918295210166184
547.3391984359725,5.8418817204301146
548.3401759530791,5.765146627565989
549.3411534701856,5.68839002932552
550.3421309872922,5.6106559139785
551.3431085043987,5.3153636363636965
552.3440860215054,4.507387096774166
553.345063538612,3.5194222873900025
554.3460410557185,2.5311114369501206
555.347018572825,1.5417986314760257
556.3479960899316,0.6165591397849265
557.3489736070381,0.39276832844576814
558.3499511241447,0.8218181818181733
559.3509286412512,0.4501564027370397
560.3519061583578,0.22372434017595388
561.3528836754643,0.27970087976539765
562.3538611925709,0.3671397849462383
563.3548387096774,0.4559354838709694
564.355816226784,0.6278611925708756
565.3567937438905,1.0298797653959035
566.3577712609971,1.4792404692082153
567.3587487781036,1.5235679374388997
568.3597262952102,1.1846432062561052
569.3607038123167,1.0267917888563063
570.3616813294233,1.129614858260021
571.3626588465298,1.0817624633431049
572.3636363636364,0.7544545454545419
573.3646138807429,0.4064789833822059
574.3655913978495,0.17612903225806428
575.366568914956,0.2854662756598267
576.3675464320626,0.6300684261974607
577.3685239491691,0.91370283479961
578.3695014662757,0.9851378299120229
579.3704789833822,0.8690244379276633
580.3714565004888,0.7517966764418373
581.3724340175953,0.6326803519061581
582.3734115347019,0.513190615835777
583.3743890518084,0.3923245356793743
584.375366568915,0.4053372434017595
585.3763440860215,0.6793225806451609
586.377321603128,0.8032346041055723
587.3782991202346,0.44369501466275835
588.3792766373411,0.0777243401759531
589.3802541544477,0.3728797653958907
590.3812316715542,1.0753958944281492
591.3822091886608,1.374548387096775
592.3831867057673,1.251999022482894
593.3841642228739,1.3104692082111409
594.3851417399804,1.6344007820136823
595.386119257087,1.9569442815249234
596.3870967741935,2.2782580645161254
597.3880742913001,2.5991837732160277
598.3890518084066,2.9191075268817164
599.3900293255132,3.1444222873900283
600.3910068426197,3.1364770283479984
601.3919843597263,3.0558797653958942
602.3929618768328,3.1891759530791735
603.3939393939394,3.4735757575757535
604.3949169110459,3.558342130987295
605.3958944281525,3.411407624633434
606.396871945259,3.445030303030297
607.3978494623656,3.7557311827956927
608.3988269794721,3.9150821114369516
609.3998044965787,3.8122297165200427
610.4007820136852,3.779914956011727
611.4017595307918,3.991340175953072
612.4027370478983,4.119422287390033
613.4037145650049,3.7879081133920005
614.4046920821114,3.344322580645166
615.405669599218,3.5433372434017385
616.4066471163245,4.251341153470168
617.4076246334312,4.5496656891495455
618.4086021505377,4.372043010752673
619.4095796676443,4.190046920821099
620.4105571847508,4.005225806451597
621.4115347018574,4.1238132942326935
622.4125122189639,4.750483870967799
623.4134897360705,5.3539736070381565
624.414467253177,5.723537634408625
625.4154447702836,6.0160488758553505
626.4164222873901,6.31068035190618
627.4173998044967,6.644377321603159
628.4183773216032,7.185925708699957
629.4193548387098,7.93396774193554
630.4203323558163,8.698133919843652
631.4213098729228,9.462459433040133
632.4222873900294,10.03068621700882
633.423264907136,10.32928641251224
634.4242424242425,10.954787878787952
635.425219941349,12.09076832844583
636.4261974584556,13.043456500488798
637.4271749755621,13.507589442815268
638.4281524926687,14.113571847507398
639.4291300097752,15.422371456500597
640.4301075268818,17.115892473118386
641.4310850439883,18.830501466275766
642.4320625610949,20.733404692082242
643.4330400782014,23.483953079179102
644.434017595308,27.064821114369714
645.4349951124145,30.842375366569154
646.4359726295211,34.86112218963856
647.4369501466276,39.061000000000256
648.4379276637342,43.51760215053789
649.4389051808407,49.39250244379319
650.4398826979473,57.509900293255605
651.4408602150538,66.84315053763495
652.4418377321604,77.38465591397907
653.4428152492669,89.56818768328516
654.4437927663735,104.51961094819244
655.44477028348,121.8141182795708
656.4457478005866,141.36478885630603
657.4467253176931,162.44708308895505
658.4477028347997,181.97617399804582
659.4486803519062,199.89222873900377
660.4496578690128,212.3572766373414
661.4506353861193,218.28697165200418
662.4516129032259,217.6063225806448
663.4525904203324,207.87499706744822
664.453567937439,195.211583577712
665.4545454545455,179.80736363636296
666.455522971652,165.0006168132937
667.4565004887586,152.82849462365547
668.4574780058651,143.1636422287387
669.4584555229717,136.73949462365573
670.4594330400782,133.51191104594324
671.4604105571848,134.58405865102657
672.4613880742913,139.66003910068446
673.4623655913979,148.93384946236603
674.4633431085044,162.2878885630503
675.464320625611,179.79234310850512
676.4652981427175,201.92492961876903
677.4662756598241,225.6364340175961
678.4672531769306,251.32597067448756
679.4682306940372,275.39490127077283
680.4692082111437,296.82826979472196
681.4701857282503,311.53473313783013
682.4711632453568,315.76999217986315
683.4721407624634,311.24307624633406
684.4731182795699,296.62366666666617
685.4740957966765,274.77363636363583
686.475073313783,247.5907448680345
687.4760508308896,217.0039501466269
688.4770283479961,187.31581720430046
689.4780058651027,158.76577126099653
690.4789833822092,134.06690322580607
691.4799608993158,113.08805962854312
692.4809384164223,95.41731085043963
693.4819159335289,81.40947702834777
694.4828934506354,69.41469696969682
695.483870967742,59.812580645161155
696.4848484848485,51.54818181818172
697.485826001955,44.729142717497474
698.4868035190616,39.155457478005815
699.4877810361681,35.005109481915895
700.4887585532747,31.429688172042972
701.4897360703812,27.85364222873897
702.4907135874878,24.609421309872896
703.4916911045943,22.308434017595296
704.4926686217009,20.57609384164222
705.4936461388074,18.609154447702824
706.494623655914,16.535709677419344
707.4956011730205,15.164237536656888
708.4965786901271,14.426028347996088
709.4975562072336,13.451459433040075
710.4985337243402,12.237780058651024
711.4995112414467,11.230390029325513
712.5004887585533,10.460137829912023
713.5014662756598,9.537384164222875
714.5024437927664,8.376525904203326
715.5034213098729,7.311376344086024
716.5043988269795,6.481214076246337
717.505376344086,6.112010752688172
718.5063538611926,6.4517507331378265
719.5073313782991,6.8241085043988265
720.5083088954057,6.4863098729227815
721.5092864125122,5.737016617790818
722.5102639296188,4.981730205278599
723.5112414467253,4.318569892473124
724.5122189638319,4.137858260019549
725.5131964809384,4.310005865102638
726.514173998045,4.2369462365591435
727.5151515151515,3.950151515151519
728.516129032258,3.8997741935483847
729.5171065493646,4.07969892473118
730.5180840664711,3.8430889540567064
731.5190615835777,3.1455513196481073
732.5200391006842,2.574024437927671
733.5210166177908,2.2339892473118335
734.5219941348973,2.109527859237536
735.5229716520039,2.218272727272723
736.5239491691104,2.266131964809386
737.524926686217,2.07572140762464
738.5259042033235,1.8949276637341173
739.5268817204301,1.952892473118275
740.5278592375366,2.1340146627565937
741.5288367546432,2.313661779081129
742.5298142717497,2.4308484848484833
