Raman Shift,Intensity
214.3785040343428,-7.788
224.78145843945092,207.692
235.01908334044856,571.152
245.41130867789616,1020.285
255.63837774522108,-2.596
265.8602158678186,207.692
276.23642015571386,-288.172
286.44772684514464,-124.615
296.8132434111685,381.633
307.0140349346475,5119.598
317.209615658554,620.479
327.399989574551,90.865
337.7442627077253,466.28
347.9241537664129,466.28
358.09885002992814,466.28
368.2683554736213,466.28
378.5914504125685,466.28
388.7505051753542,466.28
398.90438108190574,466.28
409.0530820913264,466.28
419.196612158652,466.28
429.3349752349313,466.28
439.626465572117,466.28
449.75442592354375,466.28
459.8772311743669,466.28
469.994885259468,466.28
480.1073921097559,466.28
490.2147556521086,466.28
500.31697980943136,466.28
510.41406850063504,466.28
520.5060256406359,466.28
530.5928551403995,466.28
540.6745609068894,466.28
550.7511468431039,466.28
560.8226168481124,466.28
570.888974816975,466.28
580.9502246408374,466.28
590.8492821665859,466.28
600.9004070215597,466.28
610.9464353206786,466.28
620.9873709393651,466.28
631.0232177491416,466.28
641.0539796175653,466.28
650.9230482019848,466.28
660.9437310766662,466.28
670.9593405290361,466.28
680.9698804110958,466.28
690.8190579752118,466.28
700.8195493193562,466.28
710.8149825658329,466.28
720.805361551138,466.28
730.6347081696804,466.28
740.6150689503047,466.28
750.4345613154874,466.28
760.404918953056,2115.858
770.3702413346182,-929.42
780.174941402227,-228.461
790.1302832356378,-607.498
799.925166080895,80.481
809.8705423523497,379.037
819.6556227125038,416.744
829.5910483782136,338.238
839.3663409610526,186.785
849.2918309472952,5.647
859.0573504311833,-161.922
868.972919634427,-272.655
878.7286806683987,-283.294
888.6343439553166,-150.576
898.3803611591502,5.192
908.12155022542,-192.115
918.0124213310264,311.537
927.743888384779,-33.75
937.4705381077074,-155.769
947.3466501411676,184.326
957.0635996041163,-127.211
966.7757425107702,-298.557
976.6371284824854,238.845
986.3395928168538,-454.325
996.0372613373548,109.038
1005.7301375988682,-238.845
1015.5719657306544,449.133
1025.255192198514,194.711
1034.9336371072422,430.96
1044.6073039976543,186.922
1054.2761964070742,106.442
1063.9403178693246,31.154
1073.5996719147442,-212.884
1083.4074711432768,59.711
1093.057225399156,-7.788
1102.70222286418,-303.749
1112.3424670547538,-244.038
1121.9779614837898,501.056
1131.6087096607444,155.769
1141.2347150916105,96.057
1150.855981278939,690.575
1160.4725117218331,-5.192
1170.0843099159465,231.057
1179.6913793534914,-145.384
1189.293723523253,119.423
1198.739039559725,254.422
1208.3320185130287,-85.673
1217.9202825891407,2.596
1227.5038352631818,163.557
1237.0826800068826,-80.481
1246.6568202885535,-674.998
1256.226259573108,129.807
1265.639216696829,158.365
1275.1993388504195,150.576
1284.7547703264208,70.096
1294.3055145761757,-379.037
1303.7000868433097,31.154
1313.241541245312,-269.999
1322.778318700337,64.904
1332.310422646282,545.191
1341.686663866676,246.634
1351.2095051416618,503.652
1360.727683146746,10.385
1370.0902294598782,-75.288
1379.5991650801443,477.691
1388.9526223370776,433.556
1398.4523290278594,244.038
1407.7967104575073,179.134
1417.287201648047,-77.884
1426.7730533080105,238.845
1436.1038095471376,25.961
1445.5804658554116,342.691
1454.9021792800197,4506.908
1464.369653600741,527.017
1473.6823373500883,171.346
1482.9905472474493,-25.961
1492.444310209452,417.979
1501.7435100404182,-319.326
1511.1881242589734,-158.365
1520.4783270994303,-59.711
1529.764072276041,-282.98
1539.1950247490097,140.192
1548.4717924494323,-28.558
1557.7441121511074,-280.384
1567.1614324998736,571.152
1576.4247941832873,-96.057
1585.6837175051332,360.864
1594.9382056544855,327.114
1604.3374199708342,620.479
1613.5829759239496,168.749
1622.8241063047317,-10.385
1632.0608142900164,-519.229
1641.2931030535765,285.576
1650.6697762525291,259.615
1659.8931649322622,259.615
1669.1121439444323,-288.172
1678.3267164506542,-282.98
1687.53688560953,-75.288
1696.7426545766284,251.826
1705.9440265045123,192.115
1715.1410045427183,-160.961
1724.3335918377925,-155.769
1733.5217915332687,-116.827
1742.705606769683,119.423
1751.8850406845886,88.269
1761.0600964125188,384.229
1770.230777085024,168.749
1779.397085830693,168.749
1788.55902577511,-41.538
1797.7166000408906,215.48
1806.8698117476447,142.788
1816.0186640120735,314.134
1825.163159947857,-524.421
1834.1559155330324,-15.577
1843.29177827917,135.0
1852.4232939699289,389.422
1861.550465707216,443.941
1870.673296589972,-386.826
1879.644751645923,98.654
1888.758979994156,150.576
1897.8688767172423,-57.115
1906.974444902422,272.595
1915.9289277003045,397.21
1925.025917750907,2175.57
1934.118588458099,5807.577
1943.060390766601,1002.112
1952.144501554074,2170.377
1961.2243021666216,2432.588
1970.153450902042,202.499
1979.224709758193,10.385
1988.1454604369865,103.846
1997.208189584475,-384.229
2006.120554048888,-124.615
2015.1747655127983,-173.942
2024.0787555828572,122.019
2033.12446136566,119.423
2042.0200888391555,-96.057
2051.057300920809,38.942
2059.9445775734057,-85.673
2068.9733079113576,-70.096
2077.852245496608,488.075
2086.8725060258803,-332.307
2095.743116275291,-399.806
2104.6096010526526,18.173
2113.6172135316083,-145.384
2122.4753884816528,111.634
2131.329446630596,83.077
2140.324437642892,-147.98
2149.170203423979,-207.692
2158.011861050589,277.788
2166.994257105456,-7.788
2175.8276397748195,-228.461
2184.656922912145,-62.307
2193.48210937062,124.615
2202.303202000803,-628.267
2211.2647105948345,-703.555
2220.077557114586,-394.614
2228.886318388424,-254.422
2237.6909972563008,-244.038
2246.4915965555265,324.518
2255.2881191208,-12.981
2264.0805677841927,316.73
2272.8689453751285,-184.326
2281.6532547204406,254.422
2290.5774032157133,-2.596
2299.353517963282,-49.327
2308.125572976198,202.499
2316.893571070781,-469.902
2325.6575150607823,1303.265
2334.273835606975,179.134
2343.029746164546,-407.595
2351.781610997117,-10.385
2360.5294329081007,-220.672
2369.273214698267,0.0
2378.0129591658333,70.096
2386.7486691064114,236.249
2395.48034731306,132.403
2404.2079965762314,828.17
2412.788641914361,-373.845
2421.5083075861257,-168.749
2430.2239526247795,189.519
2438.9355798105607,-83.077
2447.64319192111,-353.076
2456.204142101211,392.018
2464.9037980916983,-116.827
2473.5994472792227,-163.557
2482.148638712344,-176.538
2490.836348166158,-171.346
2499.5200590665554,-223.268
2508.0575159626023,-129.807
2516.7333034706826,54.519
2525.405100652257,358.268
2533.930847154741,-163.557
2542.5947372405863,-290.768
2551.112711590584,-228.324
2559.768705390503,-66.849
2568.2789182109263,131.616
2576.927026515033,305.028
2585.5711635713087,391.343
2594.069721988235,328.521
2602.5644435408976,54.519
2611.196813145194,-371.249
2619.683804921093,-493.268
2628.3083212822166,-93.461
2636.7875938271245,-314.134
2645.404267656864,371.249
2653.875831497382,-282.98
2662.343576738021,51.923
2670.948539131641,-51.923
2679.408591378582,-75.288
2687.8648328054915,-202.499
2696.4581076233444,360.864
2704.906671724595,680.19
2713.351432764532,-70.096
2721.792393310454,-127.211
2730.370143142005,-602.306
2738.8034471581705,-33.75
2747.232958411034,-54.519
2755.658679458633,308.941
2764.220946338093,680.19
2772.639031576786,-44.134
2781.053334313052,7.788
2789.463857095703,-739.901
2797.8706024712737,488.075
2806.2735729839987,-379.037
2814.672771175843,-233.653
2823.0681995864725,-607.498
2831.459860753297,519.229
2839.847757211428,98.654
2848.231891493713,85.673
2856.612266130724,-88.269
2864.988883650767,15.577
2873.3617465798743,-70.096
2881.7308574418275,64.904
2890.096218758139,90.865
2898.457833048058,-207.692
2906.815702828586,54.519
2915.169830614461,197.307
2923.5202189181878,-438.749
2931.8668702499926,-132.403
2940.209787117892,-267.403
2948.41001618022,288.172
2956.7455337723804,-272.595
2965.077324369493,420.576
2973.405390470638,103.846
2981.7297345726547,111.634
2989.9117125592966,85.673
2998.2286820744484,-127.211
3006.5419370261297,-257.018
3014.8514799023105,552.979
3023.0189130185245,-25.961
3031.3211009634906,-215.48
3039.619584242202,-687.978
3047.776149306213,-72.692
3056.067292329164,205.095
3064.2166442633534,-111.634
3072.500456765243,93.461
3080.780576892153,267.403
3088.919096831967,225.865
3097.1919010483834,-142.788
3105.3232317767324,-158.365
3113.588729774354,-160.961
3121.712880813,581.537
3129.9710822664056,-132.403
3138.0880631202745,368.653
3146.338977686973,59.711
3154.448797844241,210.288
3162.692435164703,-340.095
3170.7951040967964,127.211
3178.894230970407,-171.346
3187.127000956163,-5.192
3195.218990740796,111.634
3203.3074454664093,-127.211
3211.5293695924192,-337.499
3219.610701328027,-843.747
3227.688504985643,111.634
3235.899604670318,-207.692
3243.9702993997853,-477.691
3252.03747301393,264.807
3260.1011278165533,-267.403
3268.297848330192,-46.731
3276.354412870096,-355.672
3284.407465536773,23.365
3292.4570086259846,129.807
3300.5030444314834,-189.519
3308.545575245,-636.056
3316.720827896272,220.672
3324.756296283769,137.596
3332.788266581294,38.942
3340.816741072602,181.73
3348.8417220394404,223.268
3356.8632117615925,-173.942
3364.8812125168406,171.346
3372.895726580995,96.057
3380.906756227865,207.692
3388.91430372934,207.692
3396.918371355256,674.998
3404.9189613735507,80.481
3412.9160760501472,-36.346
3420.909717649003,-12.981
3428.8998884321263,158.365
3436.886590659553,-316.73
3444.734546370892,-932.016
3452.714376952972,96.057
3460.690745709508,-394.614
3468.663654892749,163.557
3476.633106752961,-225.865
3484.5991035384795,-334.903
3492.4267178764712,147.98
3500.385869715596,20.769
3508.341573175334,-85.673
3516.293830496281,181.73
3524.1079469444667,-145.384
3532.0533770164475,316.73
3539.9953676218797,-85.673
3547.7993978646555,-223.268
3555.734574435446,-360.864
3563.666318194715,-228.461
3571.460281747888,231.057
3579.385224652753,392.018
3587.30674138396,-186.922
3595.090657713052,233.653
3603.00538673612,46.731
3610.782634691175,-90.865
3618.6905847266535,-59.711
3626.461172873067,-397.21
3634.362352626544,-67.5
3642.1262895150494,-347.883
3650.020707677235,-337.499
3657.778001843908,-119.423
3665.665667090652,57.115
3673.416327056992,168.749
3681.163701429177,54.519
3689.041282322214,-464.71
3696.782035212709,-28.558
3704.6528847781447,77.884
3712.3870246721344,282.98
3720.117889469839,15.577
3727.845481251112,347.883
3735.702951367959,-238.845
3743.4239470074463,397.21
3751.141675895298,33.75
3758.989119491133,127.211
3766.700264858686,-456.922
3774.408149723422,-1080.874
3782.1127761528696,-1521.377
3789.814146212797,-1783.846
3797.644959575024,-1873.698
3805.339767031168,-1796.351
3813.03132434014,-1557.223
3820.7196335607214,-1161.728
3828.404696749953,-615.286
3836.086515963114,-166.153
3843.76509325378,-423.172
3851.4404306737633,205.095
3859.112530273167,-280.384
3866.7813941003615,293.364
3874.4470242019815,-160.961
3882.109422622947,-703.781
3889.7685914064414,-1010.923
3897.4245325939337,-1124.121
3905.0772482251705,-1085.1
3912.7267403381848,-935.594
3920.373010969284,-717.328
3928.016062153074,-472.034
3935.655895922435,-241.442
3943.292514308545,-77.884
3950.925919340858,2.596
3958.424585178429,288.172
3966.051624900327,-267.403
3973.675457311714,41.538
3981.296084435249,-49.327
3988.913508291902,267.403
3996.396478310664,38.942
4004.007556831755,-298.557
4011.615438103967,171.346
4019.220124141517,10.385
4026.690583777876,119.423
4034.288940385857,15.577
4041.8841077570687,-194.711
4049.3452186808136,80.481
4056.934068499933,347.883
4064.519735065173,153.173
4071.971514814119,-127.211
4079.550875675057,264.807
4086.996462302253,376.441
4094.5695253181984,111.634
4102.008926541021,-33.75
4109.575699558212,166.153
4117.008923081237,7.788
4124.569413932906,397.21
4131.996467447912,-5.192
4139.550683954272,277.788
4146.971575140262,-275.191
4154.519525108568,59.711
4161.93426163181,-220.672
4169.475952856366,-368.653
4228.011654085007,532.21
4235.396210255021,441.345
4242.907210725418,-163.557
4250.415076793586,246.634
4257.7904449892885,38.942
4265.292102093408,4075.948
4272.790630641473,2668.837
4280.156827999919,522.137
4287.649159161061,-754.173
4295.138367597785,-1334.883
4302.4954112134365,-1394.784
4309.978433811593,-1108.668
4317.329402006981,-651.326
4324.8062464273535,-197.544
4332.151146724958,77.884
4339.621820615692,106.442
4346.960660525576,114.23
4354.425171522191,-88.269
4361.757958542046,-542.594
4369.216314267462,-72.692
4376.543055882612,-236.249
4383.9952639471885,-25.961
4391.315967630617,2.596
4398.762035632179,-464.71
4406.07670884455,-202.499
4413.516644368407,332.307
4420.825294558097,392.018
4428.130962180556,220.672
4435.561739780205,550.383
4442.861395497304,-599.71
4450.1580741507205,2.596
4457.579710724684,340.095
4464.870388562711,88.269
4472.158094827057,407.595
4479.570607232323,516.633
4486.852323743988,-368.653
4494.131074158497,129.807
4501.534479210626,578.94
4508.807250907994,-28.558
4516.077061971264,-384.229
4523.3439142079005,-314.134
4530.735219799091,-212.884
4537.996107969229,-223.268
4545.254042757973,18.173
4552.509025966887,-20.769
4559.888261734326,-36.346
4567.13729547953,-119.423
4574.383383072374,-57.115
4581.626526308552,-350.48
4588.866726982291,332.307
4596.103986886381,140.192
4603.338307812148,459.518
4610.69653172473,-350.48
4617.92492857972,547.787
4625.150391852971,-262.211
4632.372923329975,-111.634
4639.592524794789,194.711
4646.809198030001,-83.077
4654.022944816745,168.749
4661.233766934747,-215.48
4668.441666162253,288.172
4675.646644276094,-44.134
4682.8487030516335,-228.461
4690.047844262837,-101.25
4697.244069682201,67.5
4704.437381080781,119.423
4711.627780228235,475.095
4718.815268892759,462.114
4725.999848841122,54.519
4733.181521838655,57.115
4740.3602896492885,394.614
4747.536154035501,-1009.901
4754.583300303697,96.057
4761.753413983191,223.268
4768.9206294863325,90.865
4776.084948569973,-321.922
4783.246372989488,402.403
4790.404904498872,33.75
4797.435032206777,-651.632
4804.5878338284165,18.173
4811.73774776268,394.614
4818.884775757928,508.844
4826.028919561082,337.499
4833.044920461813,327.114
4840.183351639585,-64.904
4847.3189038270575,-90.865
4854.451578765569,-177.53
4861.456318765864,-409.892
4868.58329482688,-703.511
4875.707398824052,-973.944
4882.703723295803,-1136.75
4889.822138682386,-1107.49
4896.937687177771,-801.721
4903.925611277555,-135.0
4911.035481404608,508.844
4918.142489800703,-147.98
4925.122028648751,64.904
4932.223368894192,127.211
4939.197342363797,-36.346
4946.293021236786,5.192
4953.385846941688,122.019
4960.35146024984,-150.576
4967.43863475923,-147.98
4974.398699333346,122.019
4981.480229398396,-168.749
4988.43475186592,-57.115
4995.510644227063,420.576
5002.459631204903,-179.134
5009.529892591847,122.019
5016.473350686378,389.422
5023.537987818112,277.788
5030.475923625207,202.499
5037.534943210041,-44.134
5044.467363315067,-158.365
5051.397052412052,77.884
5058.447683028528,672.402
5065.371866252855,-103.846
5072.416896017057,-295.961
5079.335579928018,-142.788
5086.251540943114,72.692
5093.288206657562,160.961
5100.198678149784,-277.788
5107.106431592307,0.0
5114.134748143202,-49.327
5121.037021830118,334.903
5127.93658230202,67.5
5134.833431158368,212.884
5141.85065500065,-207.692
5148.742037069234,-176.538
5155.630712341699,179.134
5162.516682412504,350.48
5169.522839786696,96.057
5176.403355996677,-147.98
5183.281171809234,610.094
5190.156288813778,-31.154
5197.028708598496,295.961
5204.021081907653,132.403
5210.888063918697,475.095
5217.752353495271,-101.25
5224.613952220541,1157.881
5231.472861676462,-88.269
5238.329083443728,-28.558
5245.182619101804,-28.558
5252.033470228904,-399.806
5258.881638402017,153.173
5265.727125196914,168.749
5272.569932188097,111.634
5279.532181775125,410.191
5286.369586094326,15.577
5293.204315354014,662.017
5300.036371123795,285.576
5306.865754971979,129.807
5313.692468465706,298.557
5320.516513170878,-272.595
5327.216103720151,220.672
5334.034863128356,171.346
5340.850958410447,-589.325
5347.664391127459,140.192
5354.475162839211,4257.678
5361.283275104273,1290.284
5368.088729480027,62.307
5374.891527522632,-721.728
5381.6916707870405,238.845
5388.489160826968,212.884
5395.162686039381,158.365
5401.954921596684,241.442
5408.744508555763,-103.846
5415.531448465517,272.595
5422.31574287366,236.249
5428.976315601984,659.421
5435.7553708175255,-85.673
5442.531785139763,-176.538
5449.305560111599,719.132
5456.076697274744,-98.654
5462.724355191152,672.402
5469.490268392445,1490.075
5476.253548375513,1857.121
5482.893493883399,1877.913
5489.651558992991,1656.831
5496.406995464167,1298.257
5503.039241977291,906.564
5509.789472642318,586.135
5516.5370792381145,441.345
5523.161640139158,404.999
5529.904049975114,44.134
5536.643840300443,36.346
5543.260728941095,-109.038
5549.995331531944,10.385
5556.607128017575,1139.708
5563.336548861262,109.038
5569.943259067753,404.999
5576.667504142417,493.268
5583.269133936614,-189.519
5589.988209211173,106.442
5596.58476445092,564.826
5603.298675885118,855.508
5609.890162419251,1003.202
5616.598915963696,1032.617
5623.185339632037,968.463
5629.888941228186,835.453
5636.470307861637,658.292
5643.16876344182,461.696
5649.745078862296,270.376
5656.438394349752,109.038
5663.009664370256,57.115
5669.578436568787,145.384
5676.264076103718,-166.153
5682.827811578958,93.461
5689.3890535265455,166.153
5696.067030305661,-111.634
5702.623244186747,85.673
5709.176968824671,620.479
5715.847296014435,856.728
5722.39600122282,394.614
5728.942221462719,-371.249
5735.4859581482815,319.326
5742.146121627004,-259.615
5748.684850350968,181.73
5755.221099782248,-2217.108
5761.754871330697,-537.402
5768.404894310675,690.575
5774.933669330552,363.46
5781.459970716278,436.152
5787.983799873429,116.827
5794.505158206499,467.306
5801.142549523138,129.807
5807.658925557145,210.288
5814.172834999641,-23.365
5820.684279250832,181.73
5827.193259709879,340.095
5833.699777774898,-85.673
5840.203834842934,-197.307
5846.7054323099655,36.346
5853.204571570954,129.807
5859.701254019747,233.653
5866.195481049195,114.23
5872.687254051074,586.729
5879.176574416102,-142.788
5885.663443533944,18.173
5892.14786279323,36.346
5898.629833581537,430.96
5905.109357285379,-67.5
5911.586435290243,-75.288
5918.061068980562,158.365
5924.533259739736,147.98
5931.003008950094,-173.942
5937.470317992949,171.346
5943.935188248557,293.364
5950.397621096134,469.603
5956.857617913869,701.245
5963.315180078898,920.394
5969.7703089673305,1059.152
5976.105705888956,1049.624
5982.556016527509,823.918
5989.003897986593,314.134
5995.449351638199,-249.23
6001.8923788532775,31.154
6008.215900781644,244.038
6014.654123287393,617.883
6021.089923438405,231.057
6027.523302601519,254.422
6033.954262142564,-257.018
6040.265942433929,636.056
6046.692110755517,430.96
6053.115863521547,290.768
6059.420472023492,18.173
6065.839441620141,-106.442
6072.255999718647,633.459
6078.553548309683,150.576
6084.965331270854,301.153
6091.374706782226,-186.922
6097.665207314269,51.923
6104.06981570238,228.461
6110.472020679961,-259.615
6116.755484978421,-116.827
6123.152930828903,-147.98
6129.431725134898,-379.037
6135.824417162912,181.73
6142.098546680769,327.114
6148.486490183052,218.076
6154.872039648391,36.346
6161.139160374798,33.75
6167.519969269015,-57.115
6173.782438208022,244.038
6180.158511808193,7.788
6186.416334137088,18.173
6192.787677712448,615.286
6199.040858600842,12.981
6205.291741972564,404.999
6211.656022022646,674.998
6217.902271670246,166.153
6224.261834810408,223.268
6230.503455884398,163.557
6236.742785809074,62.307
6243.095304999864,67.5
6249.330014038809,430.96
6255.677829386121,-179.134
6261.907922670827,-142.788
6268.1357311500615,311.537
6274.476522051649,-28.558
6280.699722436162,10.385
6286.920641805642,332.307
6293.139281413962,-327.114
6299.470738832184,158.365
6305.684780516531,186.922
6311.896546218988,-282.98
6318.106037189755,321.922
6324.428181717434,210.288
6330.633084905065,114.23
6336.835717129172,-153.173
6343.036079636258,275.191
6349.234173671932,77.884
6355.544716640681,-231.057
6361.738235515753,-36.346
6367.929489673777,-449.133
6374.118480356665,337.499
6380.305208805476,-412.787
6386.489676260331,-70.096
6392.671883960451,-290.768
6398.851833144166,-353.076
6405.143905470883,280.384
6411.319299566196,-51.923
6417.492438877496,607.498
6423.663324639478,145.384
6429.831958085924,119.423
6435.998340449718,332.307
6442.162472962846,244.038
6448.324356856407,373.845
6454.483993360576,-350.48
6460.641383704664,70.096
6466.79652911704,2.596
6472.949430825232,179.134
6479.100090055821,-51.923
6485.248508034543,630.863
6491.280888225534,-140.192
6497.424868822251,2.596
6503.5666118162335,238.845
6509.706118429633,332.307
6515.843389883739,-15.577
6521.978427398899,612.69
6528.111232194642,-264.807
6534.241805489546,122.019
6540.256680928833,288.172
6546.382836142315,83.077
6552.506763482961,628.267
6558.628464165849,-205.095
6564.747939405184,-379.037
6570.751928194237,-72.692
6576.866997341494,329.71
6582.979844660076,1643.36
6589.090471360658,181.73
6595.0857801617385,-402.403
6601.192010321647,459.518
6607.296023467985,220.672
6613.39782080795,168.749
6619.384468430493,524.421
6625.481878753591,251.826
6631.577076864334,-290.768
6637.5572509579,-7.788
6643.64806916556,345.287
6649.623946782151,848.939
6655.71038980603,-12.981
6661.794626582923,786.632
6667.764048126817,327.114
6673.843916808139,116.827
6679.809053455574,-72.692
6685.884558743659,215.48
6691.957863728712,51.923
6697.916561697035,-54.519
6703.985510351609,-62.307
6709.939934962422,72.692
6716.004531971987,-7.788
6721.954687820689,210.288
6728.014937863976,-417.979
6733.960829539363,72.692
6739.904610751524,332.307
6745.95836937274,-238.845
6751.897893261092,-2.596
6757.947316561804,-321.922
6763.8825876987685,454.325
6769.927680334353,-179.134
6775.858703285812,-124.615
6781.787623684751,166.153
6787.826249230238,467.306
6793.750928258974,153.173
6799.673508107371,459.518
6805.705676935038,179.134
6811.624022213946,-295.961
6817.540271677499,-85.673
6823.5659941374615,568.556
6829.478015817709,316.73
6835.387945040406,262.211
6841.407231460638,186.922
6847.312939671727,-38.942
6853.216558775894,-23.365
6859.118089881435,472.498
6865.017534095896,-231.057
6871.026143398485,288.172
6876.921377827312,420.576
6882.814528703813,867.113
6888.705597132364,4088.929
6894.594584216582,794.42
6900.592544785228,-38.942
6906.477333270021,-275.191
6912.360043737404,210.288
6918.240677287846,443.941
6924.119235021055,-33.75
6929.995718035963,425.768
6935.870127430717,166.153
6941.742464302697,-197.307
6947.6127297485,900.862
6953.480924863958,493.268
6959.347050744116,173.942
6965.21110848328,519.229
6971.073099174937,-70.096
6976.93302391185,545.191
6982.79088378598,695.767
6988.64667988853,668.531
6994.500413309928,628.591
7000.35208513985,578.172
7006.201696467178,519.494
7012.049248380063,454.78
7017.894741965851,386.249
7023.738178311156,316.127
7029.579558501813,246.634
7035.418883622879,138.237
7041.2561547586665,8.687
7047.091372992727,-109.944
7052.924539407839,-185.583
7058.645653010426,-186.161
7064.474757695687,-79.605
7070.301813785409,166.153
7076.126822359336,376.441
7081.949784496486,2.596
7087.660891581778,101.25
7093.479802640664,-155.769
7099.296670474898,820.382
7105.111496160462,-184.326
7110.814624476749,-202.499
7116.625407570507,249.23
7122.434151718757,-90.865
7128.2408579944895,700.959
7133.936024250346,25.961
7139.73869639702,77.884
7145.53933386541,-96.057
7151.22854892195,324.518
7157.025158582874,218.076
7162.819736753059,218.076
7168.503009933542,612.69
7174.293566604632,179.134
7180.082094965896,669.805
7185.759435574095,-355.672
7191.54394873148,360.864
7197.2173519438,314.134
7202.997854073568,781.44
7208.667323984642,179.134
7214.443819257263,451.729
7220.109359956041,36.346
7225.881852536215,106.442
7231.54346810597,342.691
7237.311962152613,-527.017
7242.969656670975,480.287
7248.734156337254,-516.633
7254.387933876205,218.076
7260.148443309525,114.23
7265.798307935409,550.383
7271.554831277448,-57.115
7277.20078705097,397.21
7282.953328437674,1103.894
7288.59537941395,1808.498
7294.235498085545,2395.339
7299.982093204053,2748.726
7305.618313131272,2752.978
7311.252603748333,2292.412
7316.993261813666,1251.342
7322.623659726734,23.365
7328.252131317968,142.788
7333.9868615261075,67.5
7339.611446441268,111.634
7345.234108016753,511.441
7350.962919544712,189.519
7356.581700459581,155.769
7362.198561010817,578.94
7367.813502182726,207.692
7373.426524958988,332.307
7379.145517410223,420.576
7384.7546694986595,-20.769
7390.361906157261,-140.192
7395.967228366993,173.942
7401.570637108154,674.901
7407.279835705631,1223.574
7412.879383697611,1733.439
7418.477021176703,2117.977
7424.072749120482,2290.662
7429.666568505905,2164.975
7435.258480309247,1654.397
7440.848485506111,672.402
7446.436585071431,-321.922
7452.022779979503,189.519
7457.607071203925,-223.268
7463.296794702215,38.942
7468.877244915177,-147.98
7474.455794380043,145.384
7480.032444067743,301.153
7485.607194948596,924.228
7491.18004799222,282.98
7496.751004167574,519.229
7502.2129850032,568.556
7507.7801867781745,-503.652
7513.345494569261,46.731
7518.908909342786,-88.269
7524.470432064445,550.383
7530.03006369928,389.422
7535.587805211653,311.537
7541.1436575652915,646.44
7546.697621723266,36.346
7552.249698647978,150.576
7557.693172648,160.961
7563.241514237732,262.211
7568.787971459049,-493.268
7574.332545271769,308.941
7579.87523663506,487.992
7585.416046507413,-298.891
7590.848475703144,-1597.985
7596.385561603231,-2955.561
7601.920768865631,-3917.89
7607.454098446255,-4031.25
7612.879194899509,-2841.914
7618.4088080453,103.846
7623.936546354853,4488.735
7629.462410781522,6648.728
7634.880189328982,1098.169
7640.402344837916,641.248
7645.9226293018255,75.288
7651.334937948188,589.325
7656.851519109852,438.749
7662.260197498763,456.922
7667.773079083498,641.248
7673.284094334183,236.249
7678.687316594296,506.248
7684.194637864675,132.403
7689.7000956236625,267.403
7695.097870006797,-83.077
7700.599639370841,423.172
7705.993798107356,241.442
7711.491882781789,321.922
7716.882429503323,360.864
7722.376833188511,-2.596
7727.763771521855,220.672
7733.254497913214,703.555
7738.637831480286,290.768
7744.124884268305,-501.056
7749.504616686187,272.595
7754.987999556393,345.287
7760.364134437317,168.749
7765.738489349154,-31.154
7771.216392021717,765.863
7776.587154788423,77.884
7782.061396717661,420.576
7787.428570939446,90.865
7792.793969640064,490.671
7798.262745065967,617.883
7803.624560595526,503.652
7808.984603262106,607.498
7814.447920368751,163.557
7819.804385227417,-135.0
7825.159079875983,514.037
7830.616946831127,122.019
7835.968069024231,454.325
7841.317423654822,573.748
7846.665011598543,275.191
7852.115636126822,784.036
7857.459658723532,685.382
7862.801917273948,991.727
7868.142412651388,693.171
7873.481145728587,-77.884
7878.922746278997,186.922
7884.257922859626,524.421
7889.59133977185,129.807
7894.922997886111,303.749
7900.252898072242,329.71
7905.581041199541,700.959
7910.907428136696,77.884
7916.336446752692,617.883
7921.65928952102,797.017
7926.980378718883,-392.018
7932.29971521271,85.673
7937.617299868325,-366.056
7942.933133550996,633.459
7948.247217125423,664.613
7953.559551455743,140.192
7958.870137405502,493.268
7964.178975837705,23.365
7969.486067614758,-31.154
7974.791413598527,264.807
7980.0950146503055,205.095
7985.396871630804,-179.134
7990.696985400187,638.652
7995.995356818043,153.173
8001.291986743403,373.845
8006.586876034729,301.153
8011.880025549901,436.152
8017.067699705829,399.806
8022.357406311574,-293.364
8027.645375694708,358.268
8032.931608710882,690.575
8038.216106215201,345.287
8043.498869062179,360.864
8048.779898105804,254.422
8053.955695240969,238.845
8059.233293192043,-127.211
8064.509159881611,-363.46
8069.783296161415,207.692
8074.952338977277,145.384
8080.223050878609,558.171
8085.492034905405,301.153
8090.759291907168,62.307
8095.921593616502,495.864
8101.185432936367,277.788
8106.447547759821,308.941
8111.604810570996,176.538
8116.863512715307,236.249
8122.120492886879,207.692
8127.272724173963,472.498
8132.526296659391,799.613
8137.778149690843,306.345
8142.925356813517,173.942
8148.173807142077,417.979
8153.4205405305,277.788
8158.562730834117,529.614
8163.806066493191,820.382
8168.944927307508,210.288
8174.184868536668,594.517
8179.32040309432,436.152
8184.55695318873,667.209
8189.689164718173,607.498
8194.922326968728,293.364
8200.051218694258,-132.403
8205.280996387602,272.595
8210.406571529322,-163.557
8215.632967947844,-373.845
8220.7552297217,-116.827
8225.978248143558,46.731
8231.097199761349,231.057
8236.316843460441,-241.442
8241.43248812982,241.442
8246.546496881761,456.922
8251.76110130029,192.115
8256.871807891675,602.306
8261.98088093357,389.422
8267.190453365733,-10.385
8272.296229025691,597.113
8277.400373499535,438.749
8282.604921225458,558.171
8287.705773086778,285.576
8292.804996120794,-181.73
8298.004526406577,153.173
8303.100461588281,1253.938
8308.194770296956,934.612
8313.28745331115,-342.691
8318.48031600209,519.229
8323.569717486189,729.517
8328.657495624051,186.922
8333.743651192239,514.037
8338.828184966831,324.518
8344.012739449463,739.901
8349.093999566121,83.077
8354.17364022991,-189.519
8359.251662214898,347.883
8364.328066294685,555.575
8369.402853242376,251.826
8374.476023830553,882.689
8379.547578831349,669.805
8384.718901354245,729.517
8389.787195221597,791.824
8394.853875830348,218.076
8399.91894395064,12.981
8404.98240035212,379.037
8410.044245803958,937.208
8415.104481074803,965.766
8420.163106932847,1178.65
8425.220124145773,4543.254
8430.275533480788,752.882
8435.32933570461,581.537
8440.381531583458,285.576
8445.432121883085,404.999
8450.48110736873,677.594
8455.528488805172,527.017
8460.473367100913,314.134
8465.51757477424,70.096
8470.560180674485,314.134
8475.601185564497,350.48
8480.64059020661,664.613
8485.67839536271,555.575
8490.714601794163,563.364
8495.749210261878,-49.327
8500.681576948675,-153.173
8505.713023691114,189.519
8510.742874734438,218.076
8515.771130837642,578.94
8520.797792759218,269.999
8525.722375497866,586.729
8530.745883175656,186.922
8535.7677989293,67.5
8540.788123515384,573.748
8545.706498587671,433.556
8550.723674892208,428.364
8555.739262280982,693.171
8560.652997083213,192.115
8565.665440644778,617.883
8570.676297538128,-220.672
8575.585398634048,249.23
8580.593116146138,277.788
8585.599249233324,-269.999
8590.503723174297,111.634
8595.506721317797,215.48
8600.508137275468,508.844
8605.40799060051,173.942
8610.406276043708,129.807
8615.303062904772,649.036
8620.298220771765,7.788
8625.191944046568,392.018
8630.18397727198,919.035
8635.074639834631,-44.134
8640.063551349394,244.038
8644.951156070434,752.882
8649.936948801806,537.402
8654.821498548154,166.153
8659.804175419777,506.248
8664.685673054784,739.901
8669.665236986599,192.115
8674.543685370048,98.654
8679.520139278378,539.998
8684.395541266465,-70.096
8689.2694364983,565.96
8694.241246509358,955.381
8699.112099609058,59.711
8703.981448060618,563.364
8708.948620671701,812.593
8713.81493124642,591.921
8718.779005433622,630.863
8723.642280973501,257.018
8728.504055374753,285.576
8733.364329332315,197.307
8738.32224658698,739.901
8743.179491154478,10.385
8748.035237374625,350.48
8752.889485940628,-38.942
8757.8412577103,54.519
8762.692482517024,991.727
8767.542211760752,-15.577
8772.39044613298,394.614
8777.336083836857,246.634
8782.18130006664,420.576
8787.02502351089,633.459
8791.867254859393,636.056
8796.707994801498,332.307
8801.547244026118,4989.791
8806.385003221756,132.403
8811.319956958603,527.017
8816.154707786565,267.403
8820.987970662514,31.154
8825.819746273257,835.959
8830.650035305174,101.25
8835.478838444196,319.326
8840.306156375878,70.096
8845.131989785303,-59.711
8849.956339357173,-231.057
8854.779205775758,285.576
8859.60058972489,-163.557
8864.420491888006,446.537
8869.238912948098,101.25
8874.055853587757,713.94
8878.871314489159,-581.537
8883.685296334032,41.538
8888.497799803714,241.442
8893.308825579123,986.535
8898.118374340735,67.5
8902.926446768637,-33.75
8907.634964476681,389.422
8912.440116370435,711.344
8917.243793954342,994.324
8922.045997906822,5703.731
8926.846728905857,2144.416
8931.645987629043,454.325
8936.443774753548,451.729
8941.142221650607,251.826
8945.937097605834,225.865
8950.73050397759,389.422
8955.522441441404,353.076
8960.215160665939,695.767
8965.004192282166,412.787
8969.791757000756,181.73
8974.577855495572,664.613
8979.26485751475,212.884
8984.048055470721,734.709
8988.829789208343,929.42
8993.51251749025,547.787
8998.291354655303,482.883
9003.068729603765,1181.246
9007.747189991118,-306.345
9012.521672326067,251.826
9017.294694442531,667.209
9021.968892767374,-153.173
9026.739026222178,420.576
9031.41039612206,-1739.417
9036.17764353675,259.615
9040.943434050514,726.921
9045.610551571128,347.883
9050.373459984672,685.382
9055.037755503963,-36.346
9059.797784430888,319.326
9064.45926050758,62.307
9069.216412558366,659.421
9073.87507174812,332.307
9078.629349530078,153.173
9083.285194385431,433.556
9088.036600502714,179.134
9092.689633573158,98.654
9097.438170626783,353.076
9102.088394458704,669.805
9106.73722909284,462.114
9111.481482183284,-158.365
9116.12751137963,446.537
9120.868901881862,282.98
9125.512128179163,721.728
9130.153968412898,386.826
9134.891084617178,246.634
9139.53012574118,1012.497
9144.167782675046,-706.152
9148.9006303586,342.691
9153.535491965213,194.711
9158.168971251744,456.922
9162.801068836525,-90.865
9167.528243916331,332.307
9172.157551197888,215.48
9176.785478643267,711.344
9181.412026869286,828.17
9186.13353953768,-205.095
9190.757302472506,758.074
9195.37968804908,249.23
9200.000696882766,700.959
9204.620329588544,539.998
9209.334785850184,275.191
9213.951639506451,46.941
9218.567118890363,-114.002
9223.181224615444,-204.298
9227.79395729483,-220.617
9232.40531754132,-159.616
9237.015305967328,-17.958
9241.623923184923,207.692
9246.23116980579,454.325
9250.932987640888,459.518
9255.537466379788,158.365
9260.140576367572,799.613
9264.742318214474,443.941
9269.342692530376,386.826
9273.941699924766,760.671
9278.539341006806,-516.633
9283.135616385269,15.577
9287.730526668583,674.998
9292.324072464791,773.651
9296.91625438162,552.979
9301.411444872112,197.307
9306.00092923447,225.865
9310.589051525738,114.23
9315.175812352172,417.979
9319.761212319692,-124.615
9324.345252033823,147.98
9328.927932099774,238.845
9333.509253122353,550.383
9338.08921570604,114.23
9342.572446701386,464.71
9347.149722488744,430.96
9351.7256416359,-485.479
9356.300204745894,122.019
9360.873412421412,527.017
9365.350032145325,527.017
9369.920558965528,-192.115
9374.489732144635,856.728
9379.05755228394,560.767
9383.528899030936,778.844
9388.09404305015,-197.307
9392.657835818722,233.653
9397.125240831178,334.903
9401.6863610176,124.615
9406.246131739394,145.384
9410.80455359534,199.903
9415.266701898625,410.191
9419.822455888205,-293.364
9424.281993052333,550.383
9428.835081516963,347.883
9433.38682407955,607.498
9437.84243511156,547.787
9442.391515668474,288.172
9446.84452129656,563.364
9451.390942182352,150.576
9455.93602012123,-264.97
9460.385108237591,-470.422
9464.927530014324,-506.079
9469.374018445214,-412.257
9473.913786387537,-229.258
9478.35767741084,2.609
9482.894793843763,243.041
9487.33608973474,451.729
9491.87055698055,612.69
9496.30926001177,765.863
9500.74668109923,809.997
9505.277192831463,726.921
9509.71202445114,586.729
9514.23989277796,290.768
9518.672137195834,498.46
9523.103102466685,612.69
9527.62702390948,31.154
9532.05540536064,716.536
9536.57668916292,381.633
9541.002489053764,379.037
9545.42701258622,1609.61
9549.850260312329,404.999
9554.36630345335,495.864
9558.78697410632,895.67
9563.206370618926,360.864
9567.718482324255,1170.862
9572.13530512818,859.324
9576.550855454823,127.211
9580.965133854,797.017
9585.47202083257,607.498
9589.883729992052,581.537
9594.294168883298,488.075
9598.703338054846,490.671
9603.111238054931,1292.88
9607.611613766734,999.516
9612.016950092931,41.538
9616.421018902103,555.575
9620.823820741218,194.711
9625.225356156909,604.902
9629.625625695517,436.152
9634.02462990307,282.98
9638.422369325252,700.959
9642.81884450748,695.767
9647.21405599481,381.633
9651.701478874824,-75.288
9656.094137748323,519.229
9660.485534571855,311.537
9664.875669889248,12.981
9669.264544244,597.113
9673.65215817932,534.806
9678.03851223808,482.883
9682.423606962846,41.538
9686.807442895892,96.057
9691.19002057915,259.615
9695.478134071804,477.691
9699.858223622705,334.903
9704.23705653629,371.249
9708.614633353289,560.767
9712.990954614088,397.21
9717.36602085878,109.038
9721.739832627154,482.883
9726.112390458671,171.346
9730.483694892511,841.151
9734.760779687776,-15.577
9739.129605581998,319.326
9743.497179682729,477.691
9747.863502527893,703.555
9752.228574655115,384.229
9756.499562339395,1181.246
9760.862161224974,799.613
9765.223510992222,724.325
9769.583612177565,350.48
9773.849736751828,132.403
9778.207368918504,-129.807
9782.563754099236,59.711
9786.918892829211,594.517
9791.18016259473,329.71
9795.532836519418,1202.015
9799.884265585692,677.594
9804.14190615754,508.844
9808.490873566669,186.922
9812.83859770701,259.615
9817.09261371952,443.941
9821.437879345483,706.152
9825.689490172908,298.557
9830.032299369228,67.5
9834.373867936378,166.153
9838.621861899856,514.037
9842.960977171238,843.747
9847.206571054325,488.075
9851.543235108787,345.287
9855.786430944943,482.883
9860.12064585897,-77.884
9864.361445679362,293.364
9868.693213527116,674.998
9872.931619360628,576.344
9877.26094221391,116.827
9881.49695608711,394.614
9885.823836015392,410.191
9890.057459952584,511.441
9894.289902518456,745.094
9898.613135046206,327.114
9902.843190697367,674.998
9907.163985452502,428.364
9911.391656207565,251.826
9915.61814808206,-153.173
9919.935303126713,366.056
9924.15941311792,698.363
9928.38234571751,908.651
9932.695865648708,246.634
9936.91641937277,916.439
9941.135797191648,-173.942
9945.445686598703,680.19
9949.662688544726,454.325
9953.878516069532,467.306
9958.09316966365,223.268
9962.398234183594,371.249
9966.61051589339,778.844
9970.821625153134,934.612
9975.031562452265,490.671
9979.240328279942,919.035
9983.53937957713,784.036
9987.745778488254,677.594
9991.95100740443,677.594
9996.155066813732,848.939
10000.357957203963,703.555
10004.55967906266,703.555
10008.760232877092,402.403
10013.050897176752,33.75
10017.249090997648,363.46
10021.446118245014,597.113
10025.641979405023,-36.346
10029.83667496358,677.594
10034.03020540632,402.403
10038.222571218605,560.767
10042.413772885537,129.807
10046.603810891938,996.92
10050.79268572236,669.805
10054.980397861098,1079.996
10059.16694779218,594.517
10063.352335999334,534.806
10067.536562966066,551.144
10071.719629175575,567.718
10075.90153511081,577.185
10080.082281254454,572.209
10084.26186808891,545.448
10088.440296096323,489.56
10092.52676786215,397.21
10096.702904826674,371.249
10100.877884398516,589.325
10105.051707058765,-124.615
10109.224373288234,295.961
10113.395883567471,181.73
10117.475590772649,75.288
10121.64481569536,682.786
10125.812886097472,-20.769
10129.979802458443,521.825
10134.145565257517,2.596
10138.219652237512,859.324
10142.383134400929,93.461
10146.545464428116,441.345
10150.706642797257,85.673
10154.776246850048,192.115
10158.935148346747,106.442
10163.092899607942,760.671
10167.159152430871,695.767
10171.314629631466,651.632
10175.468958016776,1464.226
10179.531863747628,5989.307
10183.683920879565,9389.731
10187.834830614069,10636.018
10191.894393383842,10226.927
10196.043034667582,8661.218
10200.190529969435,6437.654
10204.246753902304,4054.99
10208.391983551395,2011.983
10212.44599199288,807.401
10216.588957845182,545.191
10220.640752609928,181.73
10224.781456519388,5.192
10228.831039420063,64.904
10232.969483238625,794.42
10237.016856085897,-90.865
10241.15304166346,135.0
10245.19820626604,760.671
10249.332135450502,345.287
10253.375093615126,215.48
10257.506768252357,290.768
10261.547521783785,119.423
10265.58718577827,568.556
10269.715494418666,150.576
10273.752956473523,218.076
10277.87901516247,236.249
10281.91427707755,2437.78
10285.948451675904,6975.842
10290.0711512271,869.709
10294.10312837192,399.806
10298.13401952729,542.594
10302.253364041218,877.497
10306.282060424935,-132.403
10310.309672144327,589.325
10314.425665714796,51.923
10318.451085340042,-176.538
10322.475421623927,872.305
10326.498675003731,306.345
10330.610215200984,251.826
10334.631280043344,173.942
10338.651263301725,280.384
10342.670165412448,529.614
10346.687986811625,1085.189
10350.704727935088,397.21
10354.80961387438,88.269
10358.824171771252,425.768
10362.837650708272,602.306
10366.850051120337,-306.345
10370.86137344214,140.192
10374.871618108127,1059.227
10378.880785552512,532.21
10382.888876209276,321.922
10386.984923052532,314.134
10390.990837530662,516.633
10394.995676531347,417.979
10398.999440487634,-75.288
10403.00212983234,636.056
10407.003744998048,1370.765
10411.004286417105,477.691
10415.003754521616,-41.538
10419.002149743475,251.826
10422.999472514348,-225.865
10426.995723265634,552.979
10430.990902428544,373.845
10434.985010434026,179.134
10438.889325180557,519.229
10442.881315942828,353.076
10446.872236829608,238.845
10450.86208827093,334.903
10454.85087069661,776.247
10458.838584536235,498.46
10462.82523021915,646.44
10466.810808174472,18.173
10470.706785742112,368.653
10474.690253232264,469.902
10478.672654271297,275.191
10482.653989287404,67.5
10486.634258708573,109.038
10490.525047770485,168.749
10494.50321094102,755.478
10498.480309789697,267.403
10502.45634474356,228.461
10506.342995080442,-438.749
10510.316927143493,-449.133
10514.2897965821,682.786
10518.261603822417,488.075
10522.144122034457,171.346
10526.113829736623,293.364
10530.082476508169,745.094
10533.961905709137,124.615
10537.92845544769,7.788
10541.89394552126,293.364
10545.770289396216,257.018
10549.733684937964,-12.981
10553.607981637546,485.479
10557.569284306495,695.767
10561.52952941227,1105.958
10565.400746905443,280.384
10569.35890163298,633.459
10573.22807600992,275.191
10577.184142013864,59.711
10581.05127489159,441.345
10585.005253824836,171.346
10588.87034681866,202.499
10592.822240332363,153.173
10596.685295055897,228.461
10600.635104799476,-33.75
10604.496122864624,334.903
10608.443850485746,900.862
10612.302833502728,5132.579
10616.160811022752,1079.996
10620.10543022464,301.153
10623.9613750996,101.25
10627.903916281392,132.403
10631.757830117263,23.365
10635.61074043666,168.749
10639.550179321655,376.477
10643.401060998756,558.978
10647.250940343372,695.67
10651.187280591832,765.964
10655.035133687184,749.273
10658.881985632182,625.015
10662.815230898605,372.599
10666.660058983602,-28.558
10670.50388709854,-246.634
10674.346715633475,565.96
10678.275847672114,33.75
10682.116655520924,225.865
10685.956464967534,438.749
10689.795276401208,539.998
10693.633090210977,485.479
10697.557095575656,197.307
10701.39289265285,667.209
10705.227693280882,-101.25
10709.061497847986,135.0
10712.894306742182,137.596
10716.726120351308,132.403
10720.55693906298,456.922
10724.386763264632,153.173
10728.302600658342,482.883
10732.130414421008,-77.884
10735.957234843503,381.633
10739.783062312445,321.922
10743.60789721425,511.441
10747.431739935131,75.288
10751.254590861114,-272.595
10755.076450378,438.749
10758.897318871408,-275.191
10762.717196726757,160.961
10766.536084329256,467.306
10770.353982063916,311.537
10774.170890315563,72.692
10777.98680946881,607.498
10781.801739908076,192.115
10785.615682017564,-246.634
10789.341989100834,527.017
10793.153978142976,28.558
10796.964979998098,7.788
10800.774995049622,124.615
10804.58402368077,238.845
10808.392066274577,244.038
10812.199123213884,-67.5
10816.005194881312,244.038
10819.723813349112,506.248
10823.52793799081,545.191
10827.331078498672,-482.883
10831.133235254529,215.48
10834.848029253728,462.114
10838.64824198676,332.307
10842.447472103491,306.345
10846.24571998498,-215.48
10849.956695412544,314.134
10853.753002267928,-155.769
10857.548328021428,446.537
10861.342673053316,327.114
10865.049835794096,955.381
10868.842242790466,18.173
10872.63367019626,197.307
10876.337982712816,59.711
10880.12747431772,394.614
10883.82989575329,51.923
10887.617453039476,493.268
10891.404032613404,88.269
10895.103609289945,-454.325
10898.88825677408,-488.075
10902.585945994537,192.115
10906.368662867266,545.191
10910.150403901262,192.115
10913.845253813895,-353.076
10917.62506645972,-15.577
10921.318032531915,329.71
10925.095918264182,103.846
10928.787001936307,64.904
10932.562962228116,282.98
10936.252164939066,111.634
10939.940438510435,-85.673
10943.713524449233,641.248
10947.399919206764,41.538
10951.171083372872,-186.922
10954.855600751816,-25.961
10958.62484461311,-459.518
10962.307486047235,-462.114
10965.989200819247,-15.577
10969.755577991731,602.306
10973.435418958636,173.942
10977.114334320191,225.865
10980.877848072992,54.519
10984.554891765896,-392.018
10988.231010908596,171.346
10991.991664505884,-116.827
10995.665914113146,303.749
10999.33924022374,-386.826
11003.011643185791,142.788
11006.768495629847,-241.442
11010.439031890255,-127.211
11014.108646053544,898.266
11017.777338467138,2.596
11021.530395518184,373.845
11025.197224058184,228.461
11028.863131897786,534.806
11032.528119383707,-353.076
11036.192186862492,101.25
11039.855334680517,153.173
11043.602720353196,-560.767
11047.264008520897,137.596
11050.924378073953,397.21
11054.58382935806,-441.345
11058.242362718707,59.711
11061.899978501227,153.173
11065.556677050785,410.191
11069.21245871235,225.865
11072.867323830738,46.731
11076.521272750586,436.152
11080.174305816368,269.999
11083.826423372368,347.883
11087.477625762698,57.115
11091.127913331318,20.769
11094.777286422,-176.538
11098.425745378345,119.423
11102.073290543767,301.153
11105.719922261547,254.422
11109.36564087477,-85.673
11113.010446726335,72.692
11116.654340159006,451.729
11120.29732151534,-739.901
11123.93939113774,7.788
11127.580549368427,127.211
11131.22079654947,-623.075
11134.77550763161,698.363
11138.413954906267,430.96
11142.051492148485,-36.346
11145.688119699626,18.173
11149.323837900913,-93.461
11152.958647093375,259.615
11156.508048620988,-360.864
11160.141061938251,560.767
11163.773167260852,-72.692
11167.40436492916,-75.288
11170.950240228543,93.461
11174.579644697213,88.269
11178.208142523734,290.768
11181.751381744987,137.596
11185.378088371155,-264.807
11189.003889365817,150.576
11192.628785068173,184.326
11196.16850723805,0.0
11199.79161440632,989.131
11203.413817290922,441.345
11206.950910239968,-194.939
11210.571326582844,-468.516
11214.10667518314,-471.354
11217.725306305692,-295.426
11221.343034819707,-32.701
11224.875759069631,224.847
11228.49170435076,385.25
11232.022687482247,356.534
11235.636850848638,46.731
11239.166094148528,-342.691
11242.778476917028,25.961
11246.305981670925,373.845
11249.91658515709,345.287
11253.442352649325,155.769
11257.05117816741,-59.711
11260.575209681025,527.017
11264.182258544,316.73
11267.704555360804,2.596
11271.309828880325,-122.019
11274.83039228086,122.019
11278.350099642112,220.672
11281.952723030843,116.827
11285.470698886753,-480.287
11288.987819646914,-223.268
11292.587795825824,-337.499
11296.103186988752,301.153
11299.70139304264,495.864
11303.215055883851,-290.768
11306.727865201254,846.343
11310.23982130582,77.884
11313.834511810855,54.519
11317.34474212601,475.095
11320.8541201677,-547.787
11324.446172200132,147.98
11327.953826352135,-158.365
11331.460629168672,218.076
11334.96658095964,-539.998
11338.471682034791,449.133
11342.059356881087,54.519
11345.562737216636,111.634
11349.06526777208,-410.191
11352.566948856567,142.788
11356.067780779093,-49.327
11359.56776384851,-199.903
11363.1502007606,199.903
11366.648466857394,693.171
11370.145885034064,228.461
11373.642455598843,392.018
11377.138178859836,-501.056
11380.633055125,-103.846
11384.1270847021,23.365
11387.620267898808,124.615
11391.112605022612,210.288
11394.60409638087,-410.191
11398.094742280777,368.653
11401.584543029392,-93.461
11405.073498933603,145.384
11408.561610300185,430.96
11412.048877435727,147.98
11415.5353006467,-194.711
11419.020880239405,-332.307
11422.505616520008,137.596
11425.989509794525,643.844
11429.472560368817,-80.481
11432.954768548592,-109.038
11436.43613463944,142.788
11439.916658946764,49.327
11443.313501961433,643.844
11446.79236364179,140.192
11450.270384446749,-158.365
11453.74756468115,-142.788
11457.22390464968,101.25
11460.699404656869,-127.211
11464.091344754375,-277.788
11467.565185732994,93.461
11471.038187655771,-267.403
11474.51035082668,293.364
11477.981675549512,36.346
11481.369541233144,-228.461
11484.839209915755,-267.403
11488.30804105362,602.306
11491.693473394258,-246.634
11495.16065027576,-124.615
11498.626990514544,-116.827
11502.092494413417,-153.173
11505.474679896604,-329.71
11508.938531918346,-106.442
11512.401548500471,46.731
11515.78130675673,301.153
11519.242673239612,41.538
11522.620821260369,558.171
11526.080538823127,713.94
11529.5394224415,770.271
11532.915147579475,839.837
11536.372384051368,902.41
11539.74650183491,937.764
11543.202092336618,925.666
11546.574603913472,845.894
11550.028549620163,678.215
11553.399456136987,402.403
11556.85175822272,88.269
11560.221060825072,2.596
11563.67172046279,-150.576
11567.039420295116,537.402
11570.488438656655,103.846
11573.854536862347,-88.269
11577.301915118398,433.556
11580.666412839755,64.904
11584.030120381583,659.421
11587.475050538147,-122.019
11590.837159300165,109.038
11594.280452266124,433.556
11597.64096338792,111.634
11601.000685734118,-363.46
11604.441534950183,-1067.016
11607.79966135666,-145.384
11611.156999826935,41.538
11614.59540789372,215.48
11617.951152122365,186.922
11621.306109253032,-10.385
11624.66027956261,586.729
11628.09544335218,-184.326
11631.44802167594,-399.806
11634.799814015252,-316.73
11638.15082064648,275.191
11641.58274474832,-46.731
11644.932161645294,347.883
11648.280793669244,137.596
11651.62864109602,-25.961
11654.975704201344,192.115
11658.403590030808,173.942
11661.749066206958,-589.325
11665.093758894744,607.498
11668.43766836938,181.73
11671.780794905935,-269.999
11675.12313877933,-184.326
11678.4647002644,111.634
11681.805479635816,20.769
11685.145477168146,223.268
11688.484693135812,249.23
11691.904543291126,-181.73
11695.24217790648,-33.75
11698.579031786354,75.288
11701.915105204676,218.076
11705.25039843522,363.46
11708.584911751648,-212.884
11711.918645427471,293.364
11715.251599736104,111.634
11718.502511651865,-192.115
11721.83392703817,293.364
11725.164563870054,28.558
11728.4944224204,116.827
11731.823502961994,-83.077
11735.15180576744,321.922
11738.479331109273,293.364
11741.806079259855,-423.172
11745.132050491462,345.287
11748.457245076206,-90.865
11751.70058915004,485.479
11755.024250183047,54.519
11758.34713537819,210.288
11761.669245007088,-70.096
11764.990579341233,-235.855
11768.230158619372,-234.338
11771.549962071174,-137.435
11774.86899103535,-17.029
11778.187245782876,54.995
11781.423821624776,6.747
11784.740547618409,-233.653
11788.05650020102,-511.441
11791.371679643096,-166.153
11794.605256223578,85.673
11797.91890903626,-659.421
11801.231789512534,-129.807
11804.46312397414,-101.25
11807.774479408556,303.749
11811.085063309589,38.942
11814.314157983485,275.191
11817.623218427994,423.172
11820.850827315822,314.134
11824.158365355152,-233.653
11827.4651331948,249.23
11830.690506166697,407.595
11833.995753182851,199.903
11837.219642936305,-129.807
11840.52337017791,85.673
11843.745777735792,85.673
11847.047986250807,-49.327
11850.26891263506,51.923
11853.569603470474,371.249
11856.789049702087,-137.596
11860.088223903953,46.731
11863.30619100298,83.077
11866.603849616356,-20.769
11869.820338601929,285.576
11873.11648267094,4130.467
11876.331494561222,1388.938
11879.545777396996,212.884
11882.839660941268,407.595
11886.052468201013,-44.134
11889.26454715598,-122.019
11892.55617250015,-301.153
11895.766777396242,-337.499
11899.056892350098,293.364
11902.26602420178,-59.711
11905.474428998024,207.692
11908.682106985869,-31.154
11911.969222890988,594.517
11915.17542984806,-44.134
11918.380910743392,62.307
11921.66577540321,46.731
11924.869786778698,347.883
11928.07307283808,0.0
11931.27563382762,20.769
11934.477469993468,-150.576
11937.758600089848,-223.268
11940.95896924119,417.979
11944.158614312782,197.307
11947.35753555032,319.326
11950.55573319941,430.96
11953.753207505528,-482.883
11957.029868231695,-345.287
11960.225878519712,15.577
11963.42116620667,-96.057
11966.615731537608,-199.903
11969.809574757444,-25.961
11973.002696111003,1269.515
11976.195095842992,-77.884
11979.386774197992,-129.807
11982.577731420495,-114.23
11985.767967754866,-347.883
11988.957483445382,-404.999
11992.146278736183,46.731
11995.334353871312,375.079
11998.521709094712,499.932
12001.708344650193,479.199
12004.894260781464,370.792
12008.079457732136,232.625
12011.2639357457,122.608
12014.44769506553,98.654
12017.630735934905,88.269
12020.81305859698,-181.73
12023.994663294816,168.749
12027.175550271351,-181.73
12030.27622427429,-96.057
12033.455694464548,-228.461
12036.634447655608,-41.538
12039.812484089987,-83.077
12042.989804010074,-57.115
12046.166407658158,368.653
12049.26290681064,-469.902
12052.4380965329,67.5
12055.612570703324,-233.653
12058.786329563762,423.172
12061.880055974125,-534.806
12065.052402807443,129.807
12068.224035049663,-225.865
12071.394952942192,12.981
12074.485910333004,194.711
12077.655418093736,-475.095
12080.824212222367,-12.981
12083.913099633974,-160.961
12087.080485047096,-179.134
12090.247157544738,-231.057
12093.333977055809,7.788
