Raman Shift,Intensity
91.55994,541.2828
92.04205,545.8157
92.52417,552.0067
93.00629,558.0598
93.4884,560.5817
93.97052,556.4982
94.45264,545.4792
94.93475,535.102
95.41687,525.2756
95.89898,516.1797
96.3811,507.9511
96.86321,500.865
97.34533,494.6878
97.82745,488.1273
98.30956,481.491
98.79168,474.4102
99.2738,467.8522
99.75591,462.3378
100.238,457.4485
100.7201,452.0956
101.2023,445.208
101.6844,437.4397
102.1665,431.3331
102.6486,427.6441
103.1307,424.9515
103.6128,422.0309
104.095,418.7886
104.5771,415.6034
105.0592,412.4738
105.5413,409.454
106.0234,406.727
106.5055,404.3255
106.9877,402.2383
107.4698,400.5748
107.9519,400.2643
108.434,399.1084
108.9161,396.0993
109.3982,391.5482
109.8804,386.2767
110.3625,380.7178
110.8446,374.5932
111.3267,369.783
111.8088,367.1173
112.2909,364.939
112.7731,362.4828
113.2552,359.6555
113.7373,356.8308
114.2194,354.5754
114.7015,353.151
115.1836,351.8932
115.6658,351.336
116.1479,350.7008
116.63,349.1018
117.1121,346.1848
117.5942,342.5045
118.0763,339.3799
118.5584,337.0231
119.0406,334.619
119.5227,331.629
120.0048,328.3624
120.4869,325.6906
120.969,324.1614
121.4511,323.4123
121.9333,322.5088
122.4154,321.3504
122.8975,320.2027
123.3796,319.4286
123.8617,319.0979
124.3438,318.5138
124.826,317.0511
125.3081,315.261
125.7902,313.6359
126.2723,312.4389
126.7544,311.4014
127.2365,309.8415
127.7187,307.1657
128.2008,304.9819
128.6829,304.0433
129.165,303.7414
129.6471,303.2605
130.1292,302.0495
130.6114,300.1748
131.0935,298.5981
131.5756,297.7395
132.0577,296.7856
132.5398,295.4283
133.0219,293.79
133.5041,292.2502
133.9862,291.1957
134.4683,290.7989
134.9504,289.6125
135.4325,286.916
135.9146,284.161
136.3968,282.0767
136.8789,280.7682
137.361,280.073
137.8431,279.9762
138.3252,280.6749
138.8073,280.8876
139.2895,280.2293
139.7716,279.1725
140.2537,278.3575
140.7358,278.0143
141.2179,277.57
141.7,276.0576
142.1821,273.5811
142.6643,271.2828
143.1464,269.7676
143.6285,268.8403
144.1106,267.7475
144.5927,266.131
145.0748,264.5453
145.557,263.4809
146.0391,262.9435
146.5212,262.5722
147.0033,262.1151
147.4854,261.5744
147.9675,260.9147
148.4497,260.1044
148.9318,259.1709
149.4139,258.0219
149.896,256.6638
150.3781,255.3186
150.8602,254.3511
151.3424,253.9304
151.8245,253.5258
152.3066,253.0476
152.7887,252.5784
153.2708,252.2196
153.7529,252.0048
154.2351,251.8329
154.7172,251.4466
155.1993,250.5315
155.6814,249.7705
156.1635,249.5132
156.6456,249.3345
157.1278,248.5996
157.6099,246.9487
158.092,244.7219
158.5741,243.408
159.0562,243.7278
159.5383,244.0006
160.0205,243.6841
160.5026,243.0085
160.9847,242.5706
161.4668,242.8076
161.9489,243.4861
162.431,243.5724
162.9131,242.7295
163.3953,241.6799
163.8774,240.7565
164.3595,239.9575
164.8416,239.284
165.3237,238.7347
165.8058,238.3315
166.288,238.1114
166.7701,238.3155
167.2522,238.5164
167.7343,238.1102
168.2164,236.9485
168.6985,235.8882
169.1807,235.5384
169.6628,235.5658
170.1449,235.6051
170.627,235.537
171.1091,235.3889
171.5912,235.2503
172.0734,235.228
172.5555,234.9968
173.0376,234.2703
173.5197,233.3218
174.0018,232.5649
174.4839,232.3232
174.9661,232.4654
175.4482,232.1616
175.9303,230.7461
176.4124,229.6278
176.8945,229.3207
177.3766,229.5646
177.8588,229.8972
178.3409,229.9964
178.823,229.8609
179.3051,229.641
179.7872,229.0413
180.2693,228.6431
180.7515,228.8144
181.2336,229.3707
181.7157,229.827
182.1978,229.7429
182.6799,229.0362
183.162,228.5802
183.6441,228.5212
184.1263,228.5184
184.6084,228.4235
185.0905,228.2275
185.5726,227.9842
186.0547,227.7349
186.5368,227.4769
187.019,227.2633
187.5011,227.0716
187.9832,226.939
188.4653,226.9688
188.9474,227.1589
189.4296,227.2742
189.9117,227.0431
190.3938,226.4725
190.8759,225.948
191.358,225.4036
191.8401,224.976
192.3223,224.9255
192.8044,225.3566
193.2865,225.7676
193.7686,225.5164
194.2507,224.8062
194.7328,224.2425
195.215,224.073
195.6971,224.1612
196.1792,224.2526
196.6613,224.3389
197.1434,224.4001
197.6255,224.4227
198.1077,224.4115
198.5898,224.3737
199.0719,224.2375
199.554,224.0577
200.0361,224.0996
200.5182,224.5474
201.0004,224.9727
201.4825,225.1628
201.9646,225.1563
202.4467,225.0469
202.9288,224.829
203.4109,224.5191
203.893,224.4186
204.3752,224.7765
204.8573,225.0987
205.3394,225.1557
205.8215,225.0197
206.3036,224.8845
206.7857,224.9074
207.2679,225.0957
207.75,225.3053
208.2321,225.6109
208.7142,225.8692
209.1963,226.0146
209.6784,226.0665
210.1606,226.0932
210.6427,226.1673
211.1248,226.3102
211.6069,226.2941
212.089,225.8635
212.5711,225.5238
213.0533,225.5251
213.5354,225.817
214.0175,226.1855
214.4996,226.445
214.9817,226.5893
215.4638,226.6488
215.946,226.3904
216.4281,226.2682
216.9102,226.5914
217.3923,227.3035
217.8744,228.0802
218.3565,228.6107
218.8387,228.849
219.3208,229.2827
219.8029,230.3017
220.285,231.1823
220.7671,231.313
221.2492,230.7567
221.7314,230.2301
222.2135,230.4252
222.6956,231.3906
223.1777,231.8294
223.6598,231.1931
224.1419,230.438
224.624,230.2751
225.1062,230.7358
225.5883,231.4682
226.0704,232.3603
226.5525,233.3215
227.0346,233.8201
227.5167,233.452
227.9989,232.8373
228.481,232.5022
228.9631,232.4737
229.4452,232.6269
229.9273,232.9447
230.4094,233.3823
230.8916,233.8148
231.3737,234.2382
231.8558,234.6374
232.3379,235.022
232.82,235.4054
233.3021,235.6749
233.7843,235.6015
234.2664,235.3933
234.7485,235.3799
235.2306,235.7172
235.7127,236.2225
236.1948,236.6178
236.677,236.8488
237.1591,237.2077
237.6412,238.0639
238.1233,239.0683
238.6054,239.7955
239.0875,239.9892
239.5697,240.034
240.0518,240.6538
240.5339,242.1179
241.016,243.2939
241.4981,243.5677
241.9802,243.429
242.4624,243.2908
242.9445,243.2859
243.4266,243.3559
243.9087,243.3644
244.3908,243.2121
244.8729,243.2793
245.355,243.7722
245.8372,244.4532
246.3193,245.1455
246.8014,245.7922
247.2835,246.4073
247.7656,247.0762
248.2477,247.9599
248.7299,248.4773
249.212,248.2088
249.6941,247.7707
250.1762,247.5669
250.6583,247.7315
251.1404,248.2483
251.6226,249.2195
252.1047,251.1177
252.5868,252.3554
253.0689,252.5386
253.551,252.2995
254.0331,251.9719
254.5153,251.6804
254.9974,251.4948
255.4795,251.4863
255.9616,251.5203
256.4437,252.0835
256.9258,253.6589
257.408,255.3186
257.8901,256.4575
258.3722,256.9688
258.8543,257.1583
259.3364,257.4177
259.8185,257.7553
260.3007,258.1525
260.7828,258.5966
261.2649,259.0979
261.747,259.636
262.2291,260.225
262.7112,260.9335
263.1934,261.901
263.6755,263.3525
264.1576,264.1901
264.6397,263.8274
265.1218,263.4615
265.6039,263.734
266.0861,264.6623
266.5682,265.9373
267.0503,267.3195
267.5324,268.8875
268.0145,269.9696
268.4966,270.2706
268.9788,270.4622
269.4609,270.8658
269.943,271.4629
270.4251,272.069
270.9072,272.5432
271.3893,272.8806
271.8715,273.1122
272.3536,272.8214
272.8357,272.847
273.3178,273.7611
273.7999,275.3199
274.282,276.8189
274.7642,277.7597
275.2463,278.2067
275.7284,278.946
276.2105,280.2972
276.6926,281.5248
277.1747,282.3015
277.6568,282.7697
278.1389,283.2432
278.6211,283.8843
279.1032,284.6705
279.5853,285.5262
280.0674,286.4748
280.5495,287.4522
281.0316,288.4686
281.5138,289.5016
281.9959,290.5342
282.478,291.5726
282.9601,292.5655
283.4422,293.3357
283.9243,293.7946
284.4065,294.2505
284.8886,294.6003
285.3707,295.0273
285.8528,295.8818
286.3349,297.3179
286.817,298.9828
287.2992,300.2994
287.7813,301.2136
288.2634,301.9963
288.7455,302.391
289.2276,302.788
289.7097,303.7979
290.1919,305.582
290.674,307.4847
291.1561,308.6568
291.6382,308.9736
292.1203,309.4897
292.6024,310.5844
293.0846,311.7667
293.5667,312.4909
294.0488,312.6971
294.5309,312.8095
295.013,313.1727
295.4951,313.8117
295.9773,314.6485
296.4594,315.9294
296.9415,317.2262
297.4236,318.2425
297.9057,318.9596
298.3878,319.4208
298.87,319.5295
299.3521,319.3922
299.8342,319.6488
300.3163,320.6606
300.7984,321.7243
301.2805,322.3896
301.7627,322.7334
302.2448,323.141
302.7269,323.8354
303.209,324.7211
303.6911,325.533
304.1732,326.4683
304.6554,327.0525
305.1375,326.6638
305.6196,325.7357
306.1017,325.4898
306.5838,326.5486
307.0659,328.2034
307.5481,329.002
308.0302,328.745
308.5123,328.6522
308.9944,329.3216
309.4765,330.3675
309.9586,331.1294
310.4408,331.4288
310.9229,331.4535
311.405,331.3443
311.8871,331.0819
312.3692,331.0114
312.8513,331.3921
313.3335,331.9095
313.8156,332.1359
314.2977,331.9975
314.7798,331.8568
315.2619,332.0822
315.744,332.6508
316.2262,333.1245
316.7083,333.4873
317.1904,333.7274
317.6725,333.8091
318.1546,333.7395
318.6367,333.5945
319.1188,333.3837
319.601,333.1442
320.0831,333.0257
320.5652,333.0247
321.0473,333.1419
321.5294,333.4406
322.0115,333.8744
322.4937,334.3093
322.9758,334.73
323.4579,335.0522
323.94,335.0256
324.4221,334.4842
324.9042,334.0231
325.3864,333.9607
325.8685,334.1071
326.3506,334.1069
326.8327,333.8474
327.3148,333.4144
327.7969,332.8081
328.2791,331.8931
328.7612,331.5322
329.2433,332.358
329.7254,333.6051
330.2075,334.4793
330.6896,334.8442
331.1718,334.7224
331.6539,333.9159
332.136,332.3621
332.6181,331.5716
333.1002,332.4311
333.5823,333.4354
334.0645,333.3241
334.5466,332.1814
335.0287,331.0495
335.5108,330.6079
335.9929,330.8211
336.475,331.2408
336.9572,332.3663
337.4393,333.1595
337.9214,332.9713
338.4035,332.1094
338.8856,331.3106
339.3677,330.9214
339.8499,330.7879
340.332,330.4873
340.8141,329.8286
341.2962,329.3672
341.7783,329.3925
342.2604,329.6063
342.7426,329.6303
343.2247,329.3573
343.7068,328.9005
344.1889,328.3842
344.671,327.7233
345.1531,327.3007
345.6353,327.3116
346.1174,327.4335
346.5995,327.5311
347.0816,327.5406
347.5637,327.2613
348.0458,326.4328
348.528,325.0074
349.0101,324.1416
349.4922,324.2562
349.9743,324.4065
350.4564,324.3221
350.9385,323.9622
351.4207,323.2415
351.9028,322.0683
352.3849,320.5965
352.867,319.4807
353.3491,318.8541
353.8312,318.4183
354.3134,318.3795
354.7955,318.4207
355.2776,318.1701
355.7597,317.4992
356.2418,316.5471
356.7239,315.5102
357.2061,314.1497
357.6882,313.2326
358.1703,313.3038
358.6524,313.3673
359.1345,312.5285
359.6166,310.8581
360.0987,309.2651
360.5808,308.7012
361.063,309.3285
361.5451,309.398
362.0272,308.4616
362.5093,307.4724
362.9914,306.7983
363.4735,306.2981
363.9557,305.6726
364.4378,304.7357
364.9199,303.5443
365.402,302.3195
365.8841,300.7776
366.3662,299.6284
366.8484,299.2091
367.3305,299.0735
367.8126,298.876
368.2947,298.4838
368.7768,297.8291
369.2589,296.6837
369.7411,294.6662
370.2232,293.2216
370.7053,292.8953
371.1874,292.6927
371.6695,292.072
372.1516,291.0511
372.6338,289.9857
373.1159,289.2656
373.598,288.8692
374.0801,287.9759
374.5622,285.8983
375.0443,284.1715
375.5265,283.4891
376.0086,283.4186
376.4907,283.3251
376.9728,282.925
377.4549,282.2638
377.937,281.4284
378.4192,280.3997
378.9013,279.2461
379.3834,277.6573
379.8655,276.1504
380.3476,275.2695
380.8297,275.1123
381.3119,275.0156
381.794,274.1585
382.2761,272.5634
382.7582,271.4676
383.2403,271.4414
383.7224,271.4649
384.2046,270.7773
384.6867,269.5403
385.1688,268.3389
385.6509,267.5583
386.133,267.0269
386.6151,266.3036
387.0973,265.3035
387.5794,264.4225
388.0615,263.9956
388.5436,263.7994
389.0257,263.5399
389.5078,263.1767
389.99,262.7092
390.4721,262.0917
390.9542,261.3414
391.4363,260.639
391.9184,260.1163
392.4005,259.5698
392.8827,258.6729
393.3648,257.4013
393.8469,256.1902
394.329,255.135
394.8111,254.2731
395.2932,253.7709
395.7754,253.6828
396.2575,253.5843
396.7396,253.0314
397.2217,252.0783
397.7038,251.3919
398.1859,251.175
398.6681,251.074
399.1501,250.9443
399.6323,250.7511
400.1144,250.3694
400.5965,249.6968
401.0786,248.8589
401.5607,248.2385
402.0428,247.9372
402.525,247.6313
403.0071,247.3518
403.4892,246.9974
403.9713,246.3904
404.4534,245.5098
404.9355,244.5854
405.4177,243.8974
405.8998,243.5171
406.3819,243.0439
406.864,242.4547
407.3461,241.8111
407.8282,240.9776
408.3104,240.1064
408.7925,239.6214
409.2746,239.8429
409.7567,240.5112
410.2388,240.4175
410.7209,238.6515
411.2031,237.2764
411.6852,236.6815
412.1673,236.4234
412.6494,236.0956
413.1315,235.5842
413.6136,235.0101
414.0958,234.5439
414.5779,234.2261
415.06,233.8455
415.5421,233.5042
416.0242,233.0027
416.5063,232.2054
416.9885,231.1758
417.4706,230.0558
417.9527,228.8654
418.4348,227.7073
418.9169,226.9908
419.399,227.0187
419.8812,226.8215
420.3633,226.0115
420.8454,224.9086
421.3275,223.7432
421.8096,222.5659
422.2917,221.4587
422.7739,220.5498
423.256,219.8283
423.7381,219.0418
424.2202,218.1256
424.7023,217.1714
425.1844,216.273
425.6666,215.4028
426.1487,214.45
426.6308,213.3336
427.1129,212.1211
427.595,210.9019
428.0771,209.667
428.5593,208.47
429.0414,207.3687
429.5235,206.3157
430.0056,205.225
430.4877,204.1318
430.9698,202.922
431.452,201.3461
431.9341,199.6499
432.4162,198.3727
432.8983,197.6863
433.3804,197.2062
433.8625,196.5183
434.3447,195.5973
434.8268,194.5993
435.3089,193.543
435.791,192.3985
436.2731,190.9966
436.7552,189.4632
437.2374,188.234
437.7195,187.606
438.2016,187.3838
438.6837,186.8334
439.1658,185.8198
439.6479,184.6374
440.1301,183.1632
440.6122,181.6129
441.0943,180.1805
441.5764,178.9169
442.0585,177.7612
442.5406,176.6484
443.0227,175.563
443.5049,174.621
443.987,174.1062
444.4691,173.4442
444.9512,172.3441
445.4333,171.0045
445.9154,169.7408
446.3976,168.7242
446.8797,167.8714
447.3618,167.013
447.8439,166.1579
448.326,165.2693
448.8081,164.3201
449.2903,163.3428
449.7724,162.3578
450.2545,161.3643
450.7366,160.3416
451.2187,159.2608
451.7008,158.1345
452.183,157.0423
452.6651,155.9902
453.1472,154.9719
453.6293,153.966
454.1114,152.9959
454.5935,152.1196
455.0757,151.4126
455.5578,150.6844
456.0399,149.7253
456.522,148.5948
457.0041,147.5311
457.4862,146.5952
457.9684,145.7612
458.4505,145.0642
458.9326,144.5114
459.4147,143.7886
459.8968,142.7007
460.3789,141.5245
460.8611,140.5108
461.3432,139.6478
461.8253,138.7757
462.3074,137.7825
462.7895,136.7129
463.2716,135.7283
463.7538,134.8988
464.2359,134.0563
464.718,133.2023
465.2001,132.3066
465.6822,131.2557
466.1643,130.0659
466.6465,129.0039
467.1286,128.4062
467.6107,128.3437
468.0928,128.0059
468.5749,127.1559
469.057,126.2756
469.5392,125.4203
470.0213,124.6355
470.5034,124.0105
470.9855,123.5909
471.4676,123.2361
471.9497,122.7298
472.4319,122.0929
472.914,121.2119
473.3961,119.6583
473.8782,118.2158
474.3603,117.3775
474.8424,117.0755
475.3246,116.9083
475.8067,116.7364
476.2888,116.5099
476.7709,116.1059
477.253,115.5124
477.7351,114.8238
478.2173,114.0153
478.6994,113.1718
479.1815,112.4112
479.6636,111.7249
480.1457,111.1738
480.6278,110.9231
481.11,110.7948
481.592,110.4414
482.0742,109.7954
482.5563,109.0653
483.0384,108.4223
483.5205,107.868
484.0026,107.3014
484.4847,106.649
484.9669,106.0648
485.449,105.8102
485.9311,105.621
486.4132,104.9399
486.8953,103.563
487.3774,101.9751
487.8596,101.0247
488.3417,101.1034
488.8238,100.7245
489.3059,99.62666
489.788,98.40469
490.2701,97.30759
490.7523,96.32589
491.2344,95.35632
491.7165,94.32887
492.1986,93.30774
492.6807,92.5061
493.1628,92.05027
493.645,91.4706
494.1271,90.50452
494.6092,89.50547
495.0913,88.76797
495.5734,88.2774
496.0555,87.70627
496.5377,86.71092
497.0198,85.47768
497.5019,84.5554
497.984,84.0116
498.4661,83.50719
498.9482,82.86359
499.4304,82.13039
499.9125,81.40813
500.3946,80.69686
500.8767,80.00338
501.3588,79.29542
501.8409,78.61238
502.3231,78.01923
502.8052,77.53138
503.2873,77.11744
503.7694,76.77953
504.2515,76.51904
504.7336,76.08725
505.2158,75.3088
505.6979,74.57572
506.18,74.00115
506.6621,73.56843
507.1442,73.29588
507.6263,73.17928
508.1085,73.07925
508.5906,72.76208
509.0727,72.13374
509.5548,71.62638
510.0369,71.28755
510.519,71.02386
511.0012,70.91125
511.4833,70.83211
511.9654,70.55092
512.4475,69.9126
512.9296,69.14
513.4117,68.6359
513.8939,68.42491
514.376,68.29263
514.8581,68.31319
515.3402,68.27258
515.8223,67.94348
516.3044,67.37179
516.7866,66.86766
517.2687,66.63147
517.7508,66.49113
518.2329,66.22152
518.715,65.82752
519.1971,65.42144
519.6793,65.04859
520.1614,64.70344
520.6435,64.37284
521.1256,64.02236
521.6077,63.77152
522.0898,63.75928
522.572,63.77277
523.0541,63.55354
523.5362,63.14643
524.0183,62.87516
524.5004,63.01025
524.9825,63.42546
525.4647,63.44117
525.9468,62.42006
526.4289,61.92428
526.911,62.70944
527.3931,63.61481
527.8752,63.59783
528.3574,62.61638
528.8395,61.44263
529.3216,60.71938
529.8037,60.38874
530.2858,60.09059
530.7679,59.80255
531.2501,59.60218
531.7322,59.74417
532.2143,59.88473
532.6964,59.5554
533.1785,58.60303
533.6606,57.77544
534.1428,57.69884
534.6249,58.06694
535.107,58.2327
535.5891,58.10868
536.0712,57.84634
536.5533,57.50401
537.0355,57.11643
537.5176,56.89043
537.9997,57.06739
538.4818,57.0959
538.9639,56.65525
539.446,56.05587
539.9282,55.70496
540.4103,55.6747
540.8924,55.73244
541.3745,55.63097
541.8566,55.36344
542.3387,55.17126
542.8209,54.90884
543.3029,54.9162
543.785,55.41957
544.2672,56.15046
544.7493,57.00555
545.2314,57.91193
545.7135,58.32278
546.1956,57.23096
546.6777,54.82003
547.1599,53.3999
547.642,53.42072
548.1241,53.73657
548.6062,53.70881
549.0883,53.49213
549.5704,53.32607
550.0526,53.2747
550.5347,53.2262
551.0168,53.0718
551.4989,52.87627
551.981,52.80379
552.4631,52.89193
552.9453,52.9784
553.4274,52.91662
553.9095,52.70476
554.3916,52.43145
554.8737,52.06226
555.3558,51.68268
555.838,51.25437
556.3201,50.85405
556.8022,50.59149
557.2843,50.48637
557.7664,50.45915
558.2485,50.43209
558.7307,50.4073
559.2128,50.33107
559.6949,50.20756
560.177,50.02163
560.6591,49.66595
561.1412,49.29841
561.6234,49.15757
562.1055,49.32645
562.5876,49.47277
563.0697,49.24546
563.5518,48.75795
564.0339,48.40152
564.5161,48.23882
564.9982,48.10891
565.4803,47.89095
565.9624,47.61161
566.4445,47.39141
566.9266,47.25664
567.4088,47.14275
567.8909,47.0131
568.373,46.89929
568.8551,46.86717
569.3372,46.91434
569.8193,46.93877
570.3015,46.83717
570.7836,46.6182
571.2657,46.45819
571.7478,46.3993
572.2299,46.34505
572.712,46.34394
573.1942,46.30114
573.6763,46.07296
574.1584,45.66576
574.6405,45.30348
575.1226,45.22961
575.6047,45.36855
576.0869,45.40826
576.569,45.33809
577.0511,45.20501
577.5332,44.94227
578.0153,44.68424
578.4974,44.67993
578.9796,45.01284
579.4617,45.23812
579.9438,45.15223
580.4259,44.8928
580.908,44.58384
581.3901,44.24939
581.8723,43.89368
582.3544,43.49883
582.8365,43.12538
583.3186,42.98284
583.8007,43.31112
584.2828,43.50972
584.765,43.57967
585.2471,43.5177
585.7292,43.23351
586.2113,42.80766
586.6934,42.46014
587.1755,42.34083
587.6577,42.36249
588.1398,42.34072
588.6219,42.27491
589.104,42.16818
589.5861,42.01905
590.0682,41.82801
590.5504,41.52729
591.0325,41.15452
591.5146,40.97179
591.9967,41.28501
592.4788,41.62913
592.9609,41.51305
593.4431,41.09234
593.9252,40.8841
594.4073,41.09168
594.8894,41.40281
595.3715,41.36229
595.8536,40.85513
596.3358,40.51494
596.8179,40.41345
597.3,40.37282
597.7821,40.39044
598.2642,40.40765
598.7463,40.35186
599.2285,40.19816
599.7106,39.97718
600.1927,39.66371
600.6748,39.26681
601.1569,39.11033
601.639,39.33117
602.1212,39.53102
602.6033,39.4554
603.0854,39.22068
603.5675,38.97447
604.0496,38.69725
604.5317,38.51588
605.0139,38.55763
605.496,38.70572
605.9781,38.81098
606.4602,38.84935
606.9423,38.81114
607.4244,38.67272
607.9066,38.46997
608.3887,38.36767
608.8708,38.55341
609.3529,38.56792
609.835,38.22128
610.3171,37.8447
610.7993,37.65988
611.2814,37.66313
611.7635,37.7597
612.2456,37.93353
612.7277,38.09159
613.2098,37.98637
613.692,37.58581
614.1741,37.29755
614.6562,37.257
615.1383,37.31187
615.6204,37.29604
616.1025,37.22895
616.5847,37.24348
617.0668,37.51308
617.5489,37.72715
618.031,37.61662
618.5131,37.31868
618.9952,37.13255
619.4774,37.14363
619.9595,37.18119
620.4416,37.03006
620.9237,36.66977
621.4058,36.42774
621.8879,36.45204
622.3701,36.41448
622.8522,36.14536
623.3343,35.84102
623.8164,35.69835
624.2985,35.75648
624.7806,35.93531
625.2628,36.28571
625.7448,36.69136
626.2269,36.7858
626.709,36.53481
627.1912,36.30015
627.6733,36.25403
628.1554,36.31165
628.6375,36.31974
629.1196,36.2778
629.6017,36.20674
630.0839,36.05275
630.566,35.92074
631.0481,35.92705
631.5302,36.01109
632.0123,36.003
632.4944,35.82462
