Wavenumber (cm⁻¹),Intensity
200.0,69.854
201.00097751710655,99.31143369175624
202.0019550342131,128.7688673835125
203.00293255131965,158.2279560117301
204.0039100684262,188.25027468230684
205.00488758553274,218.250716520039
206.0058651026393,243.7926598240468
207.00684261974584,269.3346031280546
208.0078201368524,294.59804398826986
209.00879765395894,284.4916744868036
210.00977517106548,275.1142215705436
211.01075268817203,339.6489103942646
212.01173020527858,404.1835992179856
213.01270772238513,468.2193320299769
214.01368523949168,493.45163962202645
215.01466275659823,518.6839472140759
216.01564027370478,542.551348973608
217.01661779081132,480.4296832844584
218.01759530791787,419.9119941348969
219.01857282502445,449.03877158683645
220.019550342131,478.16554903877517
221.02052785923755,506.4260747800585
222.0215053763441,493.3127688172042
223.02248289345064,480.2997178233952
224.0234604105572,471.6499374389051
225.02443792766374,463.00015705441507
226.0254154447703,454.235367546432
227.02639296187684,441.05599706744863
228.02737047898339,427.0806884978819
229.02834799608993,384.7927249918539
230.02932551319648,342.50476148582595
231.03030303030303,301.08575757575755
232.03128054740958,287.5014916911046
233.03225806451613,275.1205698924731
234.03323558162268,298.87643564679047
235.03421309872923,322.6323014011078
236.03519061583577,343.3022961876835
237.03616813294232,279.28227663734145
238.03714565004887,215.0745910720108
239.03812316715542,145.99746627566026
240.03910068426197,76.92034147930974
241.04007820136852,11.599232160312607
242.04105571847506,36.33088416422265
243.0420332355816,61.01671293580948
244.0430107526882,84.65713261648787
245.04398826979474,108.2975522971656
246.0449657869013,127.96498240469106
247.04594330400784,63.16319941348877
248.04692082111438,1.8255102639297476
249.04789833822093,10.924395894428272
250.04887585532748,20.023281524926798
251.04985337243403,28.946134897360768
252.05083088954058,34.51056891495607
253.05180840664713,39.237986314760406
254.05278592375367,28.63062756598231
255.05376344086022,18.023268817204215
256.05474095796677,8.435898338220976
257.0557184750733,16.479753665689202
258.05669599217987,26.312084066471375
259.0576735092864,65.93177517106567
260.05865102639297,105.55146627565996
261.0596285434995,138.83750293255116
262.06060606060606,72.13486363636352
263.0615835777126,12.95546920821119
264.06256109481916,68.53541316389703
265.0635386119257,124.11535711958287
266.06451612903226,171.80512903225818
267.0654936461388,104.96785826001974
268.06647116324535,41.82374747474752
269.0674486803519,30.601121212121264
270.06842619745845,19.37849494949501
271.069403714565,11.235149560117094
272.07038123167155,44.42356011730181
273.0713587487781,74.44516454871302
274.07233626588464,63.2115275333986
275.0733137829912,51.97789051808418
276.07429130009774,44.05379472140727
277.0752688172043,77.41187096774155
278.07624633431084,109.64047214076223
279.0772238514174,128.17056793743865
280.07820136852393,146.70066373411507
281.0791788856305,166.40862463343058
282.08015640273703,199.82926197458403
283.0811339198436,229.64525448028692
284.08211143695013,218.59412903225825
285.0830889540567,207.54300358422958
286.0840664711632,196.39615444770305
287.0850439882698,184.2052492668624
288.0860215053764,172.01434408602108
289.0869990224829,158.69662756598154
290.0879765395895,133.54106158357686
291.088954056696,112.64642456826402
292.0899315738026,135.4380153144354
293.0909090909091,158.22960606060678
294.09188660801567,182.05149071358852
295.0928641251222,216.06670869990324
296.09384164222877,248.65953763440913
297.0948191593353,267.50260573476754
298.09579667644186,286.345673835126
299.0967741935484,311.5553548387119
300.09775171065496,396.25106549364824
301.0987292277615,474.88332062561153
302.09970674486806,498.1039970674492
303.1006842619746,521.324673509287
304.10166177908116,545.7438914956019
305.1026392961877,580.7655923753673
306.10361681329425,614.5931958292608
307.1045943304008,638.0794649723041
308.10557184750735,661.5657341153475
309.1065493646139,686.3405757575764
310.10752688172045,721.932333333334
311.108504398827,756.253106549365
312.10948191593354,780.1197471489088
313.1104594330401,803.9863877484527
314.11143695014664,824.1216920821114
315.1124144672532,814.4717683284456
316.11339198435974,804.8696014988594
317.1143695014663,795.6412561094818
318.11534701857283,786.4129107201042
319.1163245356794,776.6937145650047
320.11730205278593,763.2415777126099
321.1182795698925,746.3922544802865
322.119257086999,704.1903750407297
323.1202346041056,661.9884956011729
324.1212121212121,623.3160909090909
325.1221896383187,610.2608416422287
326.1231671554252,593.657495601173
327.12414467253177,551.7669201694363
328.1251221896383,509.8763447376996
329.12609970674487,467.06412756598246
330.1270772238514,417.8575742913002
331.12805474095796,378.1786565656565
332.1290322580645,403.4476666666666
333.13000977517106,428.71667676767663
334.1309872922776,442.56073509286443
335.13196480938416,380.5226510263933
336.1329423264907,321.2625962854353
337.13391984359725,280.1414389051812
338.1348973607038,239.02028152492704
339.13587487781035,201.9204090909092
340.1368523949169,190.42368181818193
341.13782991202345,174.87225122189685
342.13880742913,133.92860052134296
343.13978494623655,92.98494982078908
344.1407624633431,56.22795014662773
345.14173998044964,45.056040078201534
346.1427174975562,39.602106549364144
347.14369501466274,68.53436070381181
348.1446725317693,97.46661485825949
349.14565004887584,127.86709433040004
350.1466275659824,166.88970234604028
351.14760508308893,191.37697360703933
352.1485826001955,131.82882111437078
353.14956011730203,72.28066862170219
354.1505376344086,24.2709999999996
355.1515151515151,41.446272727272316
356.1524926686217,59.96243890518019
357.1534701857282,85.93947376995698
358.1544477028348,111.91650863473376
359.1554252199413,132.71990420332378
360.15640273704787,125.37740045617487
361.1573802541544,118.03489670902596
362.15835777126097,110.12196187683318
363.1593352883675,99.17377028348031
364.16031280547406,88.81651840990574
365.1612903225806,81.55809677419379
366.16226783968716,74.29967513848183
367.1632453567937,67.01649462365617
368.16422287390026,59.60625806451639
369.1652003910068,51.758130335614574
370.16617790811335,41.6946360377977
371.1671554252199,31.631141739980833
372.16813294232645,29.710774193546882
373.169110459433,68.12729032257911
374.17008797653955,104.37212316715438
375.1710654936461,130.00815835777018
376.1720430107527,155.64419354838745
377.17302052785925,174.85026686216992
378.1739980449658,163.28697458455508
379.17497556207235,146.56849397197738
380.1759530791789,105.51406842619704
381.17693059628544,64.45964288041668
382.177908113392,28.66317302052776
383.17888563049854,17.191970674486715
384.1798631476051,8.22074617139135
385.18084066471164,10.66246399478659
386.1818181818182,13.104181818181832
387.18279569892474,19.35301612903236
388.1837732160313,42.64225953079187
389.18475073313783,60.206293255131946
390.1857282502444,52.476411208862814
391.18670576735093,44.746529162593674
392.1876832844575,35.478739002932556
393.188660801564,19.546680351906176
394.1896383186706,11.505124470511518
395.1906158357771,37.221905180840594
396.1915933528837,62.93868589116967
397.1925708699902,81.51567693059634
398.19354838709677,70.12004838709683
399.1945259042033,65.9587409579666
400.19550342130987,91.78896578690109
401.1964809384164,117.61919061583558
402.19745845552296,155.88850830889461
403.1984359726295,244.77631280547322
404.19941348973606,327.7739745845546
405.2003910068426,387.09557249918475
406.20136852394916,446.4171704138148
407.2023460410557,509.09848826979373
408.20332355816225,585.0401500488747
409.20430107526886,664.4321505376382
410.2052785923754,757.2788211143733
411.20625610948196,850.1254916911083
412.2072336265885,942.2513000977552
413.20821114369505,1031.6160703812352
414.2091886608016,1121.74852818508
415.21016617790815,1214.7867191267549
416.2111436950147,1307.8249100684295
417.21212121212125,1400.1459545454575
418.2130987292278,1489.8000073313813
419.21407624633434,1566.0503538611933
420.2150537634409,1593.031369175628
421.21603128054744,1620.0123844900627
422.217008797654,1638.9654486803515
423.21798631476054,1628.916635386119
424.2189638318671,1619.3143623330072
425.21994134897363,1611.3068758553272
426.2209188660802,1603.2993893776472
427.22189638318673,1573.4931720430081
428.2228739002933,1467.1513225806425
429.2238514173998,1360.809473118277
430.2248289345064,1242.5567487781
431.2258064516129,1083.1856129032224
432.2267839687195,943.4544600847166
433.227761485826,870.7701459758864
434.22873900293257,798.0858318670563
435.2297165200391,705.6496490713558
436.23069403714567,546.8976177908086
437.2316715542522,423.63457966764406
438.23264907135876,418.2189576409253
439.2336265884653,412.8033356142065
440.23460410557186,406.78051906158345
441.2355816226784,398.77420039100673
442.23655913978496,383.5303154121859
443.2375366568915,344.89892277614814
444.23851417399806,306.2675301401104
445.2394916911046,251.06371163245257
446.24046920821115,143.16634310850347
447.2414467253177,68.17430009775194
448.24242424242425,96.6941515151517
449.2434017595308,125.21400293255148
450.24437927663735,132.79592668621672
451.2453567937439,75.55402639296163
452.24633431085044,39.44087683284467
453.247311827957,68.05548745519721
454.24828934506354,96.67009807754974
455.2492668621701,116.39718181818182
456.25024437927664,109.32227272727273
457.2512218963832,96.15205050505054
458.25219941348973,64.79075757575764
459.2531769305963,33.42946464646474
460.25415444770283,19.67107820136838
461.2551319648094,57.638155425219765
462.2561094819159,79.33630465949835
463.2570869990225,53.71795340501809
464.258064516129,28.099602150537827
465.2590420332356,17.864548387096498
466.2600195503421,51.68958064516097
467.26099706744867,75.44995698924735
468.2619745845552,70.67496057347675
469.26295210166177,65.89996415770615
470.2639296187683,73.67292961876778
471.26490713587486,116.48724046920763
472.2658846529814,156.43775203649352
473.26686217008796,188.4707008797649
474.2678396871945,220.5036497230363
475.26881720430106,244.74072043010747
476.2697947214076,247.74465395894424
477.27077223851416,248.56480938416433
478.2717497556207,243.49585923753676
479.27272727272725,238.4269090909092
480.2737047898338,218.93221114369626
481.27468230694035,161.10624046920952
482.2756598240469,126.93284750733072
483.27663734115345,154.9942512218957
484.27761485826,183.05565493646066
485.27859237536654,201.04065102639316
486.2795698924731,192.8976989247314
487.28054740957964,185.47668882372125
488.2815249266862,179.90958553274697
489.2825024437928,174.34248224177242
490.28347996089934,153.75311436949994
491.2844574780059,95.14187683284308
492.28543499511244,61.08994200065236
493.286412512219,88.6044783317048
494.28739002932554,116.11901466275722
495.2883675464321,147.5341065493655
496.28934506353863,188.5881984359735
497.2903225806452,196.86835483870823
498.29130009775173,124.92409677419217
499.2922776148583,52.9798387096761
500.2932551319648,4.024143695014777
501.2942326490714,10.547514173998152
502.2952101661779,17.07088465298153
503.2961876832845,26.32169941348997
504.297165200391,42.062571358749
505.29814271749757,60.89831378299154
506.2991202346041,87.02983284457508
507.30009775171067,113.16135190615864
508.3010752688172,128.1116881720429
509.30205278592376,117.069404692082
510.3030303030303,99.6417171717169
511.30400782013686,67.50700228087301
512.3049853372434,35.372287390030934
513.3059628543499,16.66041788856245
514.3069403714564,28.439420821113757
515.307917888563,47.0159677419337
516.3088954056695,80.89238351254299
517.3098729227761,114.76879928315228
518.3108504398826,118.60732258064864
519.3118279569892,55.757946236562674
520.3128054740957,20.285096448353098
521.3137829912023,45.04060508308751
522.3147605083088,69.79611371782192
523.3157380254154,82.63808993157457
524.3167155425219,69.62438123167234
525.3176930596285,68.55995568588965
526.318670576735,93.19568067774365
527.3196480938416,117.83140566959764
528.3206256109481,194.48617790810138
529.3216031280547,381.52283088952834
530.3225806451612,505.44744086021564
531.3235581622678,496.6455118931254
532.3245356793743,487.84358292603514
533.3255131964809,477.60218035190707
534.3264907135874,464.3737619745855
535.327468230694,452.5864767025096
536.3284457478005,443.76319354838773
537.3294232649071,434.9399103942659
538.3304007820136,439.53690127076993
539.3313782991202,471.37148973606804
540.3323558162267,487.6114447702846
541.3333333333333,472.47866666666783
542.3343108504398,457.345888563051
543.3352883675464,426.1789501466324
544.3362658846529,363.17742521994626
545.3372434017595,318.56151124144736
546.338220918866,310.1306112740313
547.3391984359725,301.6997113066152
548.3401759530791,274.8769149560169
549.3411534701856,212.3273313783043
550.3421309872922,167.13331150211894
551.3431085043987,155.3611485826012
552.3440860215054,143.5889856630821
553.345063538612,128.09122922776086
554.3460410557185,105.5116788856299
555.347018572825,88.01404203323538
556.3479960899316,80.09330694037126
557.3489736070381,72.17257184750714
558.3499511241447,63.13916715542497
559.3509286412512,52.03582404692058
560.3519061583578,65.76034017595433
561.3528836754643,125.2784633431097
562.3538611925709,184.79658651026506
563.3548387096774,254.96856451613067
564.355816226784,344.5405371456516
565.3567937438905,411.6493108504403
566.3577712609971,438.20124046920864
567.3587487781036,464.7531700879769
568.3597262952102,496.18928347996143
569.3607038123167,536.331985337244
570.3616813294233,571.720446399479
571.3626588465298,598.705465623982
572.3636363636364,625.6904848484851
573.3646138807429,640.6047184750732
574.3655913978495,634.4517096774193
575.366568914956,628.2987008797653
576.3675464320626,621.1452306940371
577.3685239491691,612.2675610948191
578.3695014662757,592.2962258064515
579.3704789833822,553.3658745519712
580.3714565004888,514.4355232974909
581.3724340175953,487.1408797653959
582.3734115347019,479.4834017595308
583.3743890518084,461.6542724014337
584.375366568915,426.80156989247314
585.3763440860215,391.9488673835126
586.377321603128,348.75666568914966
587.3782991202346,291.7805249266864
588.3792766373411,242.08440957966778
589.3802541544477,204.32153176930612
590.3812316715542,166.5586539589445
591.3822091886608,140.894416911046
592.3831867057673,134.81698191593358
593.3841642228739,129.69144183773219
594.3851417399804,126.09426230042362
595.386119257087,122.49708276311506
596.3870967741935,143.4897096774187
597.3880742913001,203.47829227761417
598.3890518084066,225.92687683284504
599.3900293255132,189.33013782991253
600.3910068426197,152.73339882698
601.3919843597263,109.05977419354923
602.3929618768328,54.39138709677508
603.3939393939394,33.21362626262574
604.3949169110459,63.64300912349244
605.3958944281525,94.07239198435914
606.396871945259,110.77390811339207
607.3978494623656,106.57931182795707
608.3988269794721,103.08552101661785
609.3998044965787,100.64980905832525
610.4007820136852,98.21409710003265
611.4017595307918,95.37354545454554
612.4027370478983,91.9291818181819
613.4037145650049,89.00897425871625
614.4046920821114,86.86421309872928
615.405669599218,84.71945193874232
616.4066471163245,82.19108699902257
617.4076246334312,79.10207038123141
618.4086021505377,76.5334767025088
619.4095796676443,74.71937178233938
620.4105571847508,72.90526686216994
621.4115347018574,63.82030400781857
622.4125122189639,44.32126197458301
623.4134897360705,36.96792961876911
624.414467253177,46.871267513848935
625.4154447702836,56.77460540892875
626.4164222873901,61.32018475073291
627.4173998044967,58.344779081133694
628.4183773216032,55.79353828608653
629.4193548387098,53.832956989247165
630.4203323558163,51.87237569240781
631.4213098729228,70.63356940371794
632.4222873900294,117.90523313783325
633.423264907136,133.30427337894884
634.4242424242425,105.20049494949302
635.425219941349,77.09671652003719
636.4261974584556,54.48847018572723
637.4271749755621,39.29162952101561
638.4281524926687,43.6192561094839
639.4291300097752,74.06865852069274
640.4301075268818,104.51806093190157
641.4310850439883,120.58014369501447
642.4320625610949,117.62225513196464
643.4330400782014,114.66436656891477
644.434017595308,111.1496334310848
645.4349951124145,106.90749071358724
646.4359726295211,106.22288465298166
647.4369501466276,110.14871847507354
648.4379276637342,114.07455229716543
649.4389051808407,114.71825317693039
650.4398826979473,111.15877712609951
651.4408602150538,108.40063799283145
652.4418377321604,106.66060540892789
653.4428152492669,104.92057282502435
654.4437927663735,101.60455816226757
655.44477028348,96.30988758553248
656.4457478005866,91.49833333333314
657.4467253176931,87.28855555555535
658.4477028347997,83.07877777777757
659.4486803519062,77.75365542521963
660.4496578690128,71.05561436950117
661.4506353861193,63.874717497555864
662.4516129032259,56.104129032257724
663.4525904203324,48.33354056695959
664.453567937439,68.04327272727497
665.4545454545455,120.91890909091127
666.455522971652,148.03031801889853
667.4565004887586,144.29099967416082
668.4574780058651,140.55168132942313
669.4584555229717,134.9006798631473
670.4594330400782,126.98745210166149
671.4604105571848,135.71215738025518
672.4613880742913,163.97142098403486
673.4623655913979,192.23068458781458
674.4633431085044,196.16991788856222
675.464320625611,171.88970674486723
676.4652981427175,156.03627761485805
677.4662756598241,149.8842697947212
678.4672531769306,143.73226197458436
679.4682306940372,135.69468914955982
680.4692082111437,125.5117448680349
681.4701857282503,116.78339850114024
682.4711632453568,109.69714499837062
683.4721407624634,102.61089149560098
684.4731182795699,80.89219354838616
685.4740957966765,42.84804105571758
686.475073313783,27.60788269794744
687.4760508308896,37.61165200391029
688.4770283479961,47.61542130987313
689.4780058651027,46.708706744867776
690.4789833822092,33.86516422287366
691.4799608993158,38.86528804170784
692.4809384164223,63.235420332356234
693.4819159335289,87.60555262300463
694.4828934506354,117.81998338220976
695.483870967742,154.30461290322634
696.4848484848485,168.53712121212106
697.485826001955,159.08188758553263
698.4868035190616,149.62665395894416
699.4877810361681,137.76568426197443
700.4887585532747,123.37362952101647
701.4897360703812,99.46518670576702
702.4907135874878,65.622470511567
703.4916911045943,31.779754317366965
704.4926686217009,24.794703812316854
705.4936461388074,45.51994330400794
706.494623655914,67.40507526881731
707.4956011730205,90.47760703812327
708.4965786901271,113.55013880742919
709.4975562072336,118.02974144672528
710.4985337243402,103.69724486803517
711.4995112414467,107.49925415444771
712.5004887585533,129.50674584555227
713.5014662756598,151.51423753665685
714.5024437927664,156.68366536331055
715.5034213098729,145.1460648419681
716.5043988269795,133.60846432062564
717.505376344086,144.01169354838694
718.5063538611926,175.93136510263912
719.5073313782991,185.70830498533732
720.5083088954057,173.93981231671563
721.5092864125122,162.17131964809394
722.5102639296188,175.88821407624596
723.5112414467253,214.1140439882694
724.5122189638319,239.10712381883334
725.5131964809384,251.47353372434003
726.514173998045,263.8399436298467
727.5151515151515,257.92062121212155
728.516129032258,234.75650000000033
729.5171065493646,250.34873900293175
730.5180840664711,302.2063812316707
731.5190615835777,354.06402346040966
732.5200391006842,375.03628347996107
733.5210166177908,367.44537047898353
734.5219941348973,375.538380254154
735.5229716520039,398.023004561746
736.5239491691104,420.5076288693381
737.524926686217,403.2911730205291
738.5259042033235,350.07019941349097
739.5268817204301,333.2061720430104
740.5278592375366,349.05665102639256
741.5288367546432,364.90713000977473
742.5298142717497,367.5305307917891
743.5307917888563,358.3911055718478
744.5317693059628,362.3194679048546
745.5327468230694,377.7782310198757
