Raman Shift,Intensity
91.19958,224.6687
91.6817,226.3258
92.16382,226.2788
92.64594,224.0942
93.12805,220.6525
93.61017,216.8159
94.09229,212.6013
94.5744,207.6438
95.05651,202.9051
95.53863,198.2588
96.02074,194.02
96.50286,190.5563
96.98498,187.8963
97.46709,185.4514
97.94921,182.9368
98.43133,180.4057
98.91344,177.8144
99.39556,174.9309
99.87768,171.8791
100.3598,169.0835
100.8419,166.7703
101.324,164.936
101.8061,163.3098
102.2883,161.7811
102.7704,160.487
103.2525,159.6152
103.7346,159.201
104.2167,158.9421
104.6988,158.7397
105.181,158.504
105.6631,158.0822
106.1452,157.4186
106.6273,156.5137
107.1094,155.3357
107.5915,153.5731
108.0737,151.8996
108.5558,150.6025
109.0379,149.6112
109.52,148.7445
110.0021,147.8213
110.4842,146.7951
110.9664,145.9824
111.4485,145.3588
111.9306,144.9381
112.4127,144.8171
112.8948,144.9663
113.3769,145.2222
113.8591,145.3719
114.3412,145.5686
114.8233,145.2927
115.3054,144.093
115.7875,142.6448
116.2696,141.6725
116.7517,141.4513
117.2339,141.6078
117.716,141.2218
118.1981,140.0206
118.6802,138.9648
119.1623,138.2515
119.6444,137.8804
120.1266,137.9183
120.6087,138.6136
121.0908,139.5743
121.5729,140.0405
122.055,139.9277
122.5371,139.4692
123.0193,138.7666
123.5014,137.785
123.9835,136.8418
124.4656,136.0593
124.9477,135.4105
125.4298,134.9117
125.912,134.6124
126.3941,134.4211
126.8762,134.0894
127.3583,133.3547
127.8404,132.9543
128.3225,133.4369
128.8047,134.2648
129.2868,134.7065
129.7689,134.2563
130.251,132.983
130.7331,131.882
131.2152,130.8707
131.6974,130.1216
132.1795,129.8041
132.6616,129.8124
133.1437,129.9125
133.6258,129.9043
134.1079,129.7684
134.5901,129.6374
135.0722,129.4447
135.5543,129.306
136.0364,129.3019
136.5185,129.4339
137.0006,129.6425
137.4828,129.8958
137.9649,130.232
138.447,130.3515
138.9291,130.0459
139.4112,129.5908
139.8933,129.2978
140.3755,129.2398
140.8576,129.3329
141.3397,129.5337
141.8218,129.8331
142.3039,130.0741
142.786,130.1742
143.2681,130.1592
143.7503,130.0974
144.2324,129.8831
144.7145,129.7805
145.1966,130.0596
145.6787,130.7179
146.1608,131.4074
146.643,131.8483
147.1251,132.027
147.6072,132.0896
148.0893,131.795
148.5714,131.5613
149.0535,131.7105
149.5357,132.2896
150.0178,132.9795
150.4999,133.2687
150.982,132.9041
151.4641,132.6871
151.9462,132.7098
152.4284,132.8686
152.9105,133.0871
153.3926,133.3353
153.8747,133.6316
154.3568,134.0276
154.8389,134.7704
155.3211,135.3057
155.8032,135.4187
156.2853,135.3679
156.7674,135.447
157.2495,135.8014
157.7316,136.3932
158.2138,137.0816
158.6959,138.0848
159.178,138.9309
159.6601,139.4426
160.1422,139.7038
160.6243,139.9174
161.1065,140.2114
161.5886,140.5303
162.0707,140.651
162.5528,140.4087
163.0349,140.1442
163.517,140.1424
163.9991,140.3649
164.4813,140.4273
164.9634,140.0754
165.4455,139.3754
165.9276,138.5273
166.4097,137.4605
166.8918,136.3194
167.374,135.2684
167.8561,134.3221
168.3382,133.404
168.8203,132.3094
169.3024,131.2539
169.7845,130.5725
170.2667,130.5914
170.7488,130.9476
171.2309,130.7264
171.713,129.5005
172.1951,128.4834
172.6772,128.1924
173.1594,128.3559
173.6415,128.5927
174.1236,128.6701
174.6057,128.6394
175.0878,128.8228
175.5699,129.4687
176.0521,130.0646
176.5342,130.5172
177.0163,130.8224
177.4984,130.9542
177.9805,130.8491
178.4626,130.5029
178.9448,130.5342
179.4269,131.4251
179.909,132.2177
180.3911,132.5087
180.8732,132.4357
181.3553,132.4037
181.8375,132.7736
182.3196,133.602
182.8017,134.2776
183.2838,134.7343
183.7659,135.1338
184.248,135.5475
184.7301,135.9773
185.2123,136.371
185.6944,136.6366
186.1765,136.7388
186.6586,137.1968
187.1407,138.2082
187.6228,139.4115
188.105,140.6443
188.5871,141.8674
189.0692,142.9174
189.5513,143.5226
190.0334,143.7
190.5155,144.1339
190.9977,145.048
191.4798,146.1821
191.9619,147.2187
192.444,148.0937
192.9261,149.0366
193.4082,150.3414
193.8904,151.913
194.3725,153.5023
194.8546,155.1787
195.3367,156.8047
195.8188,158.0006
196.3009,158.4746
196.7831,159.1053
197.2652,160.7608
197.7473,163.1056
198.2294,165.2614
198.7115,166.4919
199.1936,167.0975
199.6758,168.3796
200.1579,170.6558
200.64,173.2797
201.1221,175.7814
201.6042,178.2801
202.0863,181.0631
202.5685,184.5084
203.0506,188.5603
203.5327,192.1329
204.0148,194.7144
204.4969,197.2975
204.979,200.1677
205.4612,203.3199
205.9433,206.7033
206.4254,210.2951
206.9075,214.1062
207.3896,217.9044
207.8717,221.7187
208.3539,225.4955
208.836,229.0105
209.3181,232.427
209.8002,236.1568
210.2823,240.6423
210.7644,245.9808
211.2466,250.9683
211.7287,255.5877
212.2108,259.9079
212.6929,263.6219
213.175,266.9754
213.6571,270.6855
214.1393,275.451
214.6214,281.4656
215.1035,287.2827
215.5856,293.0717
216.0677,298.5876
216.5498,303.6383
217.032,308.2693
217.5141,312.763
217.9962,317.2936
218.4783,321.8387
218.9604,326.8573
219.4425,333.109
219.9247,339.1869
220.4068,344.301
220.8889,348.4111
221.371,351.8454
221.8531,354.8344
222.3352,357.3142
222.8174,359.4649
223.2995,361.8985
223.7816,363.5814
224.2637,363.6646
224.7458,362.1298
225.2279,359.6287
225.71,356.7301
226.1922,353.2504
226.6743,348.4493
227.1564,341.7487
227.6385,334.0399
228.1206,326.1777
228.6027,318.226
229.0849,309.8248
229.567,300.6848
230.0491,290.9075
230.5312,280.7205
231.0133,269.6763
231.4954,258.5366
231.9776,248.1638
232.4597,238.6098
232.9418,229.472
233.4239,220.395
233.906,211.571
234.3881,203.354
234.8703,195.8749
235.3524,189.0094
235.8345,182.579
236.3166,176.5639
236.7987,170.9229
237.2808,165.5398
237.763,160.5235
238.2451,156.0639
238.7272,152.3164
239.2093,149.0078
239.6914,145.7137
240.1735,142.345
240.6557,139.2442
241.1378,136.5167
241.6199,134.1142
242.102,132.0808
242.5841,130.4883
243.0662,129.119
243.5484,127.5588
244.0305,125.659
244.5126,123.9925
244.9947,122.9263
245.4768,122.037
245.9589,120.938
246.441,119.4863
246.9232,117.9156
247.4053,116.6367
247.8874,115.8173
248.3695,114.8978
248.8516,113.449
249.3337,112.0643
249.8159,111.2939
250.298,111.2898
250.7801,111.639
251.2622,111.6644
251.7443,111.2686
252.2264,110.7434
252.7086,110.0249
253.1907,109.2698
253.6728,108.6344
254.1549,108.1408
254.637,107.6245
255.1191,106.7158
255.6013,104.8157
256.0834,103.8908
256.5655,104.8019
257.0476,105.9137
257.5297,106.0776
258.0118,105.131
258.494,103.7821
258.9761,102.9993
259.4582,103.0901
259.9403,102.9866
260.4224,102.6686
260.9045,102.2179
261.3867,101.5791
261.8688,100.8054
262.3509,100.1199
262.833,99.80336
263.3151,100.0156
263.7972,100.0173
264.2794,99.72847
264.7615,99.34287
265.2436,98.94241
265.7257,98.54472
266.2078,98.13724
266.6899,97.69804
267.1721,97.20741
267.6542,96.83349
268.1363,96.68626
268.6184,96.53106
269.1005,96.20196
269.5826,95.74409
270.0648,95.36683
270.5469,95.28036
271.029,95.50729
271.5111,95.32231
271.9932,94.31329
272.4753,93.38902
272.9575,92.97163
273.4396,92.96729
273.9217,93.07301
274.4038,93.10041
274.8859,93.05238
275.368,92.9576
275.8501,92.80937
276.3322,92.63485
276.8144,92.39577
277.2965,92.13518
277.7786,91.95027
278.2607,91.89927
278.7428,91.955
279.2249,92.0056
279.7071,92.09692
280.1892,92.13301
280.6713,92.10171
281.1534,91.99813
281.6355,91.77036
282.1176,91.36857
282.5998,90.91936
283.0819,90.7933
283.564,91.22497
284.0461,91.48672
284.5282,91.2992
285.0103,90.88836
285.4925,90.59074
285.9746,90.52209
286.4567,90.55917
286.9388,90.48508
287.4209,90.2512
287.903,90.08269
288.3852,89.97147
288.8673,89.96223
289.3494,90.16779
289.8315,90.62222
290.3136,91.11337
290.7957,91.3868
291.2779,91.419
291.76,91.38041
292.2421,91.22156
292.7242,91.0351
293.2063,90.88862
293.6884,90.79222
294.1706,90.78884
294.6527,90.98415
295.1348,91.37074
295.6169,91.50272
296.099,90.97119
296.5811,90.46464
297.0633,90.67941
297.5454,91.5697
298.0275,92.34866
298.5096,92.4071
298.9917,91.8565
299.4738,91.58515
299.956,91.64942
300.4381,91.93306
300.9202,92.51435
301.4023,93.31206
301.8844,93.9663
302.3665,94.26922
302.8487,94.30928
303.3308,94.37035
303.8129,94.38551
304.295,94.51919
304.7771,94.92419
305.2592,95.5093
305.7414,96.03008
306.2235,96.3783
306.7056,96.64965
307.1877,97.08135
307.6698,97.78345
308.1519,98.23254
308.6341,97.95122
309.1162,97.36924
309.5983,97.26527
310.0804,97.87865
310.5625,98.81702
311.0446,99.61433
311.5268,100.2793
312.0089,100.8608
312.491,101.4037
312.9731,101.8501
313.4552,102.0537
313.9373,101.9805
314.4195,101.9575
314.9016,102.3401
315.3837,103.1021
315.8658,103.7384
316.3479,104.0563
316.83,104.3419
317.3121,104.891
317.7943,105.6903
318.2764,106.4116
318.7585,106.7931
319.2406,106.9176
319.7227,107.2255
320.2048,107.7176
320.687,108.3845
321.1691,109.4597
321.6512,110.7655
322.1333,111.6405
322.6154,111.6749
323.0975,111.2
323.5797,111.0709
324.0618,111.422
324.5439,111.7559
325.026,111.7401
325.5081,111.6092
325.9902,111.9241
326.4724,112.9584
326.9545,114.1219
327.4366,114.3832
327.9187,113.595
328.4008,112.9826
328.8829,112.8561
329.3651,112.981
329.8472,113.1435
330.3293,113.3065
330.8114,113.3892
331.2935,113.3065
331.7756,113.0404
332.2578,112.6954
332.7399,112.17
333.222,111.6476
333.7041,111.2382
334.1862,110.9527
334.6683,110.8081
335.1505,110.894
335.6326,111.1288
336.1147,110.9643
336.5968,110.0659
337.0789,109.1699
337.561,108.5736
338.0432,108.214
338.5253,107.9648
339.0074,107.7899
339.4895,107.6386
339.9716,107.3573
340.4537,106.8284
340.9359,106.4028
341.418,106.0547
341.9001,105.8789
342.3822,106.113
342.8643,106.8251
343.3464,107.6252
343.8286,107.9549
344.3107,107.5879
344.7928,107.3618
345.2749,107.2732
345.757,107.3329
346.2391,107.572
346.7213,107.9798
347.2034,108.504
347.6855,109.1052
348.1676,109.7904
348.6497,110.4724
349.1318,111.2337
349.614,111.9124
350.0961,112.3369
350.5782,112.6161
351.0603,113.0178
351.5424,113.7089
352.0245,114.6102
352.5067,115.3883
352.9888,115.8476
353.4709,116.4245
353.953,117.1767
354.4351,118.0695
354.9172,119.1337
355.3994,120.3681
355.8815,121.5957
356.3636,122.494
356.8457,122.6783
357.3278,123.3384
357.8099,124.7949
358.292,126.44
358.7741,127.905
359.2563,129.1383
359.7384,130.2226
360.2205,131.2211
360.7026,132.109
361.1847,133.1577
361.6668,134.2747
362.149,135.6302
362.6311,137.5912
363.1132,139.817
363.5953,141.6748
364.0774,142.7847
364.5595,143.2411
365.0417,143.4189
365.5238,142.9359
366.0059,142.7009
366.488,143.2239
366.9701,143.8298
367.4522,143.9022
367.9344,143.2352
368.4165,141.9799
368.8986,140.3145
369.3807,138.1372
369.8628,135.8144
370.3449,133.3692
370.8271,130.7816
371.3092,127.9298
371.7913,124.8833
372.2734,121.8197
372.7555,118.8778
373.2376,116.0649
373.7198,113.4485
374.2019,111.038
374.684,108.8384
375.1661,106.9564
375.6482,105.2432
376.1303,103.4593
376.6125,101.4318
377.0946,99.37324
377.5767,97.78783
378.0588,96.82755
378.5409,95.91438
379.023,94.90847
379.5052,93.8735
379.9873,92.80653
380.4694,91.71068
380.9515,90.73668
381.4336,90.11327
381.9157,89.83031
382.3979,89.44289
382.88,88.82124
383.3621,88.16636
383.8442,87.60745
384.3263,87.13198
384.8084,86.67435
385.2906,86.15496
385.7727,85.64156
386.2548,85.32211
386.7369,85.25587
387.219,85.17325
387.7011,84.90526
388.1833,84.52663
388.6654,84.12489
389.1475,83.69068
389.6296,83.2841
390.1117,82.91921
390.5938,82.60818
391.076,82.48437
391.5581,82.68638
392.0402,82.97911
392.5223,83.06123
393.0044,82.93941
393.4865,82.66577
393.9687,82.08029
394.4508,81.41325
394.9329,81.07235
395.415,81.13236
395.8971,81.30245
396.3792,81.31213
396.8614,81.18803
397.3435,81.22411
397.8256,81.75204
398.3077,82.16398
398.7898,81.90962
399.2719,81.16077
399.754,80.54787
400.2361,80.38318
400.7183,80.56152
401.2004,80.81622
401.6825,81.27652
402.1646,81.57864
402.6467,81.52319
403.1288,81.33945
403.611,81.35036
404.0931,81.61233
404.5752,81.8316
405.0573,81.62844
405.5394,80.86729
406.0215,80.37328
406.5037,80.15608
406.9858,80.158
407.4679,80.53098
407.95,81.1066
408.4321,81.48341
408.9142,81.39031
409.3964,80.9576
409.8785,80.78871
410.3606,81.13481
410.8427,81.43549
411.3248,81.72707
411.8069,81.90913
412.2891,81.82412
412.7712,81.45937
413.2533,81.03159
413.7354,80.84415
414.2175,80.97001
414.6996,81.04044
415.1818,81.09045
415.6639,81.04883
416.146,80.82247
416.6281,80.4766
417.1102,80.147
417.5923,79.88552
418.0745,79.73288
418.5566,79.87783
419.0387,80.51273
419.5208,81.01474
420.0029,81.12064
420.485,81.05379
420.9672,81.02452
421.4493,81.08614
421.9314,81.0961
422.4135,80.84665
422.8956,80.356
423.3777,79.9845
423.8599,79.76081
424.342,79.71447
424.8241,79.93887
425.3062,80.35909
425.7883,80.7035
426.2704,80.86682
426.7526,80.88609
427.2347,80.76024
427.7168,80.47702
428.1989,80.26275
428.681,80.25267
429.1631,80.3886
429.6453,80.51924
430.1274,80.64505
430.6095,80.7635
431.0916,80.94397
431.5737,81.105
432.0558,81.04862
432.538,80.70759
433.0201,80.27308
433.5022,79.96435
433.9843,79.80246
434.4664,79.60817
434.9485,79.16651
435.4307,78.86744
435.9128,79.09043
436.3949,79.7086
436.877,80.27787
437.3591,80.54231
437.8412,80.56033
438.3234,80.54722
438.8055,80.50222
439.2876,80.42619
439.7697,80.18571
440.2518,79.99041
440.7339,80.15215
441.216,80.67345
441.6982,81.15991
442.1803,81.12817
442.6624,80.48843
443.1445,79.98895
443.6266,79.57109
444.1087,79.36147
444.5909,79.55879
445.073,79.96427
445.5551,80.2549
446.0372,80.25489
446.5193,80.09645
447.0014,80.08726
447.4836,80.30186
447.9657,80.44277
448.4478,80.4347
448.9299,80.35004
449.412,80.20211
449.8941,80.00495
450.3763,79.81539
450.8584,79.66262
451.3405,79.55037
451.8226,79.49922
452.3047,79.50977
452.7868,79.58077
453.269,79.87017
453.7511,80.18077
454.2332,80.17315
454.7153,79.62511
455.1974,79.03981
455.6795,78.86091
456.1617,79.01015
456.6438,79.14565
457.1259,79.17099
457.608,79.15201
458.0901,79.21644
458.5722,79.37275
459.0544,79.34586
459.5365,78.95322
460.0186,78.45418
460.5007,78.00957
460.9828,77.65158
461.4649,77.47106
461.9471,77.5629
462.4292,77.8348
462.9113,77.89992
463.3934,77.66729
463.8755,77.36398
464.3576,76.89426
464.8398,76.428
465.3219,76.12032
465.804,76.00816
466.2861,76.07539
466.7682,76.33146
467.2503,76.81105
467.7325,77.15868
468.2146,77.4145
468.6967,77.4876
469.1788,77.23913
469.6609,76.81913
470.143,76.42362
470.6252,76.13546
471.1073,75.95092
471.5894,75.926
472.0715,76.1516
472.5536,76.13235
473.0357,75.40718
473.5179,74.75541
474.0,74.68958
474.4821,75.12212
474.9642,75.59731
475.4463,75.86404
475.9284,75.98483
476.4106,76.15697
476.8927,76.4304
477.3748,76.40837
477.8569,75.58068
478.339,74.52448
478.8211,74.22698
479.3033,74.96184
479.7854,75.5897
480.2675,75.33436
480.7496,74.6386
481.2317,74.3424
481.7138,74.60371
482.1959,74.9999
482.678,75.18552
483.1602,75.15276
483.6423,75.04797
484.1244,74.8524
484.6065,74.61095
485.0886,74.21472
485.5707,73.81079
486.0529,73.7037
486.535,74.00304
487.0171,74.45418
487.4992,74.63297
487.9813,74.43038
488.4634,74.24849
488.9456,74.06779
489.4277,73.92284
489.9098,73.86828
490.3919,73.86264
490.874,73.80075
491.3561,73.60406
491.8383,73.35471
492.3204,73.28372
492.8025,73.4334
493.2846,73.6454
493.7667,74.04438
494.2488,74.37929
494.731,74.46201
495.2131,74.29276
495.6952,74.02261
496.1773,73.62646
496.6594,73.21951
497.1415,73.19707
497.6237,73.6596
498.1058,74.06516
498.5879,74.0884
499.07,73.87093
499.5521,73.67593
500.0342,73.47353
500.5164,73.39784
500.9985,73.70006
501.4806,74.12492
501.9627,74.14706
502.4448,73.65431
502.9269,73.09512
503.4091,72.90943
503.8912,73.11331
504.3733,73.18645
504.8554,73.02921
505.3375,72.86885
505.8196,72.74911
506.3018,72.68908
506.7839,72.73347
507.266,72.89346
507.7481,73.09234
508.2302,73.18952
508.7123,73.10387
509.1945,73.21107
509.6766,73.81909
510.1587,74.31116
510.6408,74.34157
511.1229,74.09877
511.605,73.98134
512.0872,74.21701
512.5693,74.57448
513.0514,74.6093
513.5335,74.27562
514.0156,73.96632
514.4977,73.71542
514.9799,73.57182
515.462,73.6689
515.9441,73.94882
516.4262,74.03771
516.9083,73.50211
517.3904,72.84864
517.8726,72.80001
518.3547,73.32358
518.8368,73.86244
519.3189,74.18432
519.801,74.32949
520.2831,74.36693
520.7653,74.29764
521.2474,74.15085
521.7295,73.74954
522.2116,73.39908
522.6937,73.43349
523.1758,73.81541
523.658,74.25179
524.1401,74.54614
524.6222,74.69856
525.1043,74.70124
525.5864,74.36357
526.0685,74.14883
526.5507,74.17142
527.0328,74.27341
527.5149,74.32756
527.997,74.32028
528.4791,74.31479
528.9612,74.34789
529.4434,74.42775
529.9255,74.65148
530.4076,75.15506
530.8897,75.48401
531.3718,75.23615
531.8539,74.81145
532.3361,74.62103
532.8182,74.74619
533.3003,74.9625
533.7824,75.19893
534.2645,75.40775
534.7466,75.4455
535.2288,75.27963
535.7109,75.13538
536.193,75.18574
536.6751,75.40678
537.1572,75.62058
537.6393,75.92798
538.1215,76.10771
538.6036,76.02087
539.0857,75.80749
539.5678,75.55991
540.0499,75.3343
540.532,75.31595
541.0142,75.75404
541.4963,76.67068
541.9784,77.27547
542.4604,77.27931
542.9426,77.29556
543.4247,77.55241
543.9068,77.83299
544.3889,77.8287
544.871,77.47292
545.3531,77.08572
545.8353,77.07171
546.3174,77.39055
546.7995,77.53373
547.2816,77.36643
547.7637,77.25192
548.2458,77.49847
548.728,77.93079
549.2101,78.28275
549.6922,78.50936
550.1743,78.65121
550.6564,78.75076
551.1385,78.78177
551.6207,78.64925
552.1028,78.32944
552.5849,77.99624
553.067,77.79445
553.5491,77.72539
554.0313,77.81046
554.5134,78.10731
554.9955,78.46424
555.4776,78.87194
555.9597,79.30437
556.4418,79.75631
556.924,80.21569
557.4061,80.61144
557.8882,80.86681
558.3703,80.97922
558.8524,80.95988
559.3345,80.51212
559.8167,80.37501
560.2988,81.12402
560.7809,82.13485
561.263,82.56554
561.7451,82.15501
562.2272,81.69372
562.7094,81.99178
563.1915,82.80289
563.6736,83.29212
564.1557,83.33614
564.6378,83.18832
565.1199,82.89549
565.6021,82.56592
566.0842,82.6258
566.5663,83.45412
567.0484,84.1301
567.5305,84.21532
568.0126,84.03549
568.4948,83.94815
568.9769,84.03853
569.459,84.30333
569.9411,84.77253
570.4232,85.42739
570.9053,85.86937
571.3875,86.01003
571.8696,86.04227
572.3517,85.82906
572.8338,85.62999
573.3159,85.71516
573.798,86.10802
574.2802,86.5808
574.7623,86.97451
575.2444,87.28856
575.7265,87.50304
576.2086,87.59505
576.6907,87.68066
577.1729,87.79457
577.655,87.94605
578.1371,88.18308
578.6192,88.56084
579.1013,88.77684
579.5834,88.46801
580.0656,88.08489
580.5477,88.159
581.0298,88.69821
581.5119,89.43035
581.994,90.20712
582.4761,91.00634
582.9583,91.76392
583.4404,92.65025
583.9225,93.21706
584.4046,93.25089
584.8867,93.1577
585.3688,93.1652
585.851,93.28751
586.3331,93.44233
586.8152,93.55264
587.2973,93.71008
587.7794,94.23046
588.2615,95.21597
588.7437,95.8433
589.2258,95.71264
589.7079,95.37705
590.19,95.35399
590.6721,95.60023
591.1542,95.84304
591.6364,95.92665
592.1185,96.03664
592.6006,96.38267
593.0827,96.88815
593.5648,97.33524
594.0469,97.647
594.5291,97.84157
595.0112,97.91242
595.4933,97.77534
595.9754,97.91394
596.4575,98.67712
596.9396,99.28817
597.4218,99.26795
597.9039,99.00181
598.386,99.12415
598.8681,99.83653
599.3502,100.6329
599.8323,100.7611
600.3145,100.2607
600.7966,100.281
601.2787,101.0474
601.7608,101.9555
602.2429,102.763
602.725,103.4606
603.2072,103.9846
603.6893,104.2741
604.1714,104.5548
604.6535,104.979
605.1356,105.4494
605.6177,105.7873
606.0999,105.9888
606.582,106.2347
607.0641,106.6565
607.5462,107.2223
608.0283,107.7971
608.5104,108.4869
608.9926,109.0239
609.4747,109.209
609.9568,109.3977
610.4389,109.896
610.921,110.6413
611.4031,111.3253
611.8853,111.7161
612.3674,111.9908
612.8495,112.5496
613.3316,113.4207
613.8137,114.2983
614.2958,115.1789
614.778,115.9533
615.2601,116.403
615.7422,116.6031
616.2243,117.0303
616.7064,118.0147
617.1885,119.0221
617.6707,119.676
618.1528,120.11
618.6349,120.5542
619.117,121.0858
619.5991,121.7925
620.0812,122.8028
620.5634,124.1456
621.0455,125.4112
621.5276,126.6596
622.0097,127.7463
622.4918,128.5693
622.9739,129.2558
623.4561,129.8686
623.9382,130.4398
624.4203,131.1261
624.9023,132.1039
625.3845,133.2835
625.8666,134.4391
626.3487,135.5704
626.8308,136.6283
627.3129,137.5252
627.795,138.4034
628.2772,139.6033
628.7593,141.2075
629.2414,142.6571
629.7235,143.7569
630.2056,144.7827
630.6877,145.7705
631.1699,146.8584
631.652,148.3605
632.1341,150.4148
632.6162,152.7602
633.0983,155.0224
633.5804,157.2741
634.0626,159.0753
634.5447,159.8705
635.0268,160.9318
635.5089,163.0789
635.991,165.7272
636.4731,167.9279
636.9553,169.3434
637.4374,170.7873
637.9195,172.8816
638.4016,175.3733
638.8837,177.8269
639.3658,180.1827
639.848,182.5775
640.3301,185.0957
640.8122,187.717
641.2943,190.3981
641.7764,192.9695
642.2585,195.8574
642.7407,199.4807
643.2228,203.0383
643.7049,205.9263
644.187,208.3298
644.6691,210.8019
645.1512,213.6019
645.6334,216.682
646.1155,219.9158
646.5976,223.306
647.0797,227.1624
647.5618,231.6385
648.0439,236.3371
648.5261,241.0818
649.0082,245.8117
649.4903,250.1696
649.9724,253.7579
650.4545,257.5448
650.9366,261.9533
651.4188,266.7266
651.9009,271.5102
652.383,276.2862
652.8651,281.254
653.3472,286.5445
653.8293,292.1638
654.3115,298.2379
654.7936,304.9213
655.2757,311.6391
655.7578,318.5188
656.2399,325.2364
656.722,331.4722
657.2042,337.3931
657.6863,343.4398
658.1684,349.7322
658.6505,356.3281
659.1326,363.5111
659.6147,371.0233
660.0969,378.1403
660.579,384.6739
661.0611,391.2592
661.5432,398.4885
662.0253,406.3218
662.5074,414.1558
662.9896,422.5099
663.4717,430.1607
663.9538,435.9784
664.4359,441.8781
664.918,449.7471
665.4001,459.2435
665.8823,468.4736
666.3644,476.3135
666.8465,483.2484
667.3286,490.2444
667.8107,497.2903
668.2928,503.9321
668.775,509.9267
669.2571,515.7556
669.7392,521.8283
670.2213,528.1168
670.7034,534.1051
671.1855,539.7997
671.6677,545.1653
672.1498,550.1777
672.6319,554.7999
673.114,559.2601
673.5961,563.3922
674.0782,566.4367
674.5604,567.6957
675.0425,567.6687
675.5246,568.0204
676.0067,568.9
676.4888,569.5525
676.9709,570.2614
677.4531,570.1869
677.9352,568.4605
678.4173,565.4362
678.8994,562.3649
679.3815,559.8591
679.8636,556.9577
680.3458,552.8672
680.8279,548.1094
681.31,543.5703
681.7921,539.3588
682.2742,534.7774
682.7563,529.2256
683.2385,522.8631
683.7206,516.4094
684.2027,509.8266
684.6848,503.2564
685.1669,497.0742
685.649,490.6301
686.1312,483.4258
686.6133,475.6444
687.0954,467.7441
687.5775,459.6484
688.0596,451.9778
688.5417,445.8639
689.0239,440.534
689.506,434.0915
689.9881,426.1756
690.4702,417.9695
690.9523,410.3007
691.4344,403.1192
691.9166,396.0115
692.3987,388.8292
692.8808,381.9665
693.3629,375.6168
693.845,369.4471
694.3271,363.1331
694.8093,356.8063
695.2914,350.9584
695.7735,345.9725
696.2556,340.9973
696.7377,334.6678
697.2198,327.5185
697.702,321.4288
698.1841,316.7607
698.6662,312.5562
699.1483,308.2852
699.6304,303.8827
700.1125,299.1526
700.5947,293.6178
701.0768,288.5252
701.5589,283.9354
702.041,279.7535
702.5231,276.2213
703.0052,273.0121
703.4874,269.4027
703.9695,265.0783
704.4516,260.56
704.9337,256.4549
705.4158,252.7501
705.8979,249.4435
706.3801,246.6156
706.8622,243.6607
707.3442,240.1262
707.8264,236.2795
708.3085,232.766
708.7906,229.547
709.2727,226.7259
709.7548,224.4527
710.2369,222.4172
710.7191,220.7378
711.2012,219.0868
711.6833,216.8655
712.1654,213.8558
712.6475,210.6454
713.1296,207.8909
713.6118,205.5235
714.0939,203.0412
714.576,200.388
715.0581,197.9888
715.5402,196.1274
716.0223,194.5703
716.5045,193.0067
716.9866,191.5233
717.4687,189.5773
717.9508,186.3855
718.4329,183.5151
718.915,182.0959
719.3972,181.3466
719.8793,180.0435
720.3614,177.9116
720.8435,175.6679
721.3256,174.0562
721.8077,172.8867
722.2899,171.383
722.772,169.479
723.2541,167.6976
723.7362,166.1791
724.2183,164.8985
724.7004,163.9792
725.1826,163.4005
725.6647,162.4452
726.1468,160.8434
726.6289,159.1326
727.111,157.2915
727.5931,155.5678
728.0753,154.3249
728.5574,153.5422
729.0395,152.876
729.5216,152.1096
730.0037,151.235
730.4858,150.2615
730.968,149.1965
731.4501,147.7769
731.9322,145.756
732.4143,143.8238
732.8964,142.5565
733.3785,141.8748
733.8607,141.2632
734.3428,140.9418
734.8249,140.3568
735.307,139.1604
735.7891,137.8431
736.2712,136.791
736.7534,135.9756
737.2355,135.1706
737.7176,134.2491
738.1997,133.3606
738.6818,132.8829
739.1639,132.7284
739.6461,131.8923
740.1282,130.1121
740.6103,128.5272
741.0924,127.8882
741.5745,127.7709
742.0566,127.2224
742.5388,126.1086
743.0209,125.0716
743.503,124.1737
743.9851,123.3535
744.4672,122.5411
744.9493,121.7996
745.4315,121.2969
745.9136,121.0524
746.3957,120.7587
746.8778,120.0534
747.3599,119.0811
747.842,118.3291
748.3242,117.8038
748.8063,117.1178
749.2884,116.0469
749.7705,115.0074
750.2526,114.5572
750.7347,114.7482
751.2169,114.5558
751.699,113.7339
752.1811,112.8836
752.6632,112.0338
753.1453,111.2824
753.6274,110.8113
754.1096,110.5391
754.5917,110.1105
755.0738,109.2565
755.5559,108.2917
756.038,107.74
756.5201,107.4781
757.0023,106.8937
757.4844,105.859
757.9665,104.9477
758.4486,104.59
758.9307,104.6369
759.4128,104.5901
759.895,104.4287
760.3771,104.2053
760.8592,104.0589
761.3413,103.7108
761.8234,102.8316
762.3055,101.7349
762.7877,100.9132
763.2698,100.509
763.7519,100.2516
764.234,100.0304
764.7161,99.78269
765.1982,99.38335
765.6804,98.85114
766.1625,98.32735
766.6446,97.86624
767.1267,97.3982
767.6088,96.79742
768.0909,96.04112
768.5731,95.67103
769.0552,96.08726
769.5373,96.23045
770.0194,95.67225
770.5015,94.9229
770.9836,94.35848
771.4658,93.96968
771.9479,93.57222
772.43,93.08363
772.9121,92.59293
773.3942,92.13737
773.8763,91.7334
774.3585,91.42458
774.8406,91.20361
775.3227,91.00357
775.8048,90.77998
776.2869,90.54664
776.769,90.34743
777.2512,90.19656
777.7333,89.96776
778.2154,89.55904
778.6975,89.25106
779.1796,89.38383
779.6617,89.63149
780.1439,89.35484
780.626,88.35457
781.1081,87.72721
781.5902,88.20982
782.0723,88.67252
782.5544,88.2223
783.0366,87.30709
783.5187,86.76027
784.0008,86.77087
784.4829,86.85176
784.965,86.53566
785.4471,85.95885
785.9293,85.44296
786.4114,84.98496
786.8935,85.0397
787.3756,85.93579
787.8577,86.70267
788.3398,86.30734
788.822,84.93362
789.304,84.15709
789.7861,84.53169
790.2682,84.67478
790.7504,84.32089
791.2325,83.8588
791.7146,83.41519
792.1967,83.08684
792.6788,83.07747
793.1609,83.5028
793.6431,83.88121
794.1252,83.686
794.6073,83.19904
795.0894,82.88655
795.5715,82.78373
796.0536,82.99724
796.5358,83.60833
797.0179,84.14806
797.5,83.89957
797.9821,82.81135
798.4642,82.15915
798.9464,82.1161
799.4285,82.19068
799.9106,82.45498
800.3927,82.64262
800.8748,82.42076
801.3569,81.90359
801.8391,81.6803
802.3212,82.34047
802.8033,82.68945
803.2854,81.66807
803.7675,80.27304
804.2496,79.73734
804.7318,80.00597
805.2139,80.32048
805.696,80.27116
806.1781,80.09138
806.6602,80.23467
807.1423,80.65578
807.6245,80.65738
808.1066,80.12729
808.5887,79.59085
809.0708,79.2198
809.5529,79.04839
810.035,79.20565
810.5172,79.78963
810.9993,80.03518
811.4814,79.73997
811.9635,79.36995
812.4456,78.96982
812.9277,78.60976
813.4099,78.37096
813.892,78.23908
814.3741,78.13088
814.8562,78.02084
815.3383,77.88554
815.8204,77.55553
816.3026,77.22028
816.7847,77.4883
817.2668,78.32571
817.7489,78.82771
818.231,78.45158
818.7131,77.59641
819.1953,76.96265
819.6774,76.50636
820.1595,76.62929
820.6416,77.83558
821.1237,78.66678
821.6058,78.37155
822.088,77.56936
822.5701,76.81756
823.0522,76.13453
823.5343,75.76225
824.0164,75.92618
824.4985,76.20006
824.9807,76.45326
825.4628,76.68425
825.9449,76.98895
826.427,77.28714
826.9091,77.25583
827.3912,76.65579
827.8734,75.9264
828.3555,75.76829
828.8376,76.02615
829.3197,76.00266
829.8018,75.63543
830.2839,75.36093
830.7661,75.42253
831.2482,75.60647
831.7303,75.52602
832.2124,75.09876
832.6945,75.02419
833.1766,75.78584
833.6588,76.1972
834.1409,75.71484
834.623,75.02336
835.1051,74.71278
835.5872,74.7226
836.0693,74.5711
836.5515,73.91579
837.0336,73.38703
837.5157,73.39623
837.9978,73.66977
838.4799,73.99676
838.962,74.28624
839.4442,74.38242
839.9263,74.21111
840.4084,73.92812
840.8905,73.74849
841.3726,73.64822
841.8547,73.46046
842.3369,73.17241
842.819,72.9806
843.3011,72.95558
843.7832,73.06289
844.2653,73.29731
844.7474,73.6531
845.2296,73.87328
845.7117,74.07348
846.1938,73.95346
846.6759,73.03953
847.158,72.23031
847.6401,72.16801
848.1223,72.62893
848.6044,73.1149
849.0865,73.57817
849.5686,73.70738
850.0507,73.06595
850.5328,72.22379
851.015,71.65414
851.4971,71.38258
851.9792,71.46736
852.4613,71.87822
852.9434,72.25861
853.4255,72.26073
853.9077,71.95797
854.3898,71.52187
854.8719,70.95173
855.354,70.44889
855.8361,70.01527
856.3182,69.85168
856.8004,70.20399
857.2825,70.87232
857.7646,71.2162
858.2467,71.13254
858.7288,70.93942
859.2109,70.50556
859.6931,70.11858
860.1752,69.93213
860.6573,69.81657
861.1394,69.56535
861.6215,69.17196
862.1036,68.93713
862.5858,69.14169
863.0679,69.37012
863.55,69.35908
864.0321,69.18488
864.5142,68.91528
864.9963,68.58936
865.4785,68.249
865.9606,67.89823
866.4427,67.69824
866.9248,68.06762
867.4069,68.84627
867.889,69.14879
868.3712,68.91309
868.8533,68.50657
869.3354,68.02277
869.8175,67.64069
870.2996,67.65414
870.7817,68.06896
871.2639,68.16299
871.7459,67.78269
872.228,67.35148
872.7101,66.66482
873.1923,66.20607
873.6744,66.54551
874.1565,67.3047
874.6386,67.51389
875.1207,66.81744
875.6028,66.18436
876.085,66.03647
876.5671,65.99287
877.0492,65.71464
877.5313,65.36324
878.0134,65.30438
878.4955,65.57738
878.9777,65.78393
879.4598,65.54818
879.9419,65.1459
880.424,65.02729
880.9061,65.13448
881.3882,65.30441
881.8704,65.49881
882.3525,65.55265
882.8346,65.33823
883.3167,65.01955
883.7988,64.98969
884.2809,65.32907
884.7631,65.30536
885.2452,64.70741
885.7273,64.28148
886.2094,64.44263
886.6915,64.72348
887.1736,64.53963
887.6558,63.9308
888.1379,63.52353
888.62,63.47555
889.1021,63.43144
889.5842,63.30291
890.0663,63.18427
890.5485,63.17114
891.0306,63.20945
891.5127,63.19369
891.9948,63.09521
892.4769,62.9376
892.959,62.62045
893.4412,62.34855
893.9233,62.41682
894.4054,62.6805
894.8875,62.82397
895.3696,62.79004
895.8517,62.75183
896.3339,62.86414
896.816,62.95872
897.2981,62.60813
897.7802,61.8724
898.2623,61.31321
898.7444,60.97569
899.2266,60.94143
899.7087,61.32875
900.1908,61.81334
900.6729,61.90415
901.155,61.58255
901.6371,61.2715
902.1193,60.90257
902.6014,60.67105
903.0835,60.74502
903.5656,60.83848
904.0477,60.71412
904.5298,60.465
905.012,60.36144
905.4941,60.55097
905.9762,60.54546
906.4583,59.92646
906.9404,59.39874
907.4225,59.48391
907.9047,59.87366
908.3868,60.1885
908.8689,60.33036
909.351,60.2808
909.8331,59.92904
910.3152,59.54
910.7974,59.39808
911.2795,59.40429
911.7616,59.4216
912.2437,59.40904
912.7258,59.25103
913.2079,58.89202
913.6901,58.57762
914.1722,58.7187
914.6543,59.20183
915.1364,59.32913
915.6185,59.08583
916.1006,58.91718
916.5828,58.94837
917.0649,59.00845
917.547,58.94947
918.0291,58.81307
918.5112,58.7517
918.9933,58.78937
919.4755,58.84666
919.9576,59.00213
920.4397,59.06446
920.9218,58.9173
921.4039,58.66583
921.886,58.42023
922.3682,58.18078
922.8503,57.89611
923.3324,57.41209
923.8145,57.08125
924.2966,57.16133
924.7787,57.29047
925.2609,57.06347
925.743,56.6912
926.2251,56.70154
926.7072,57.25958
927.1893,57.80373
927.6714,57.92294
928.1536,57.88382
928.6357,58.02924
929.1178,58.19531
929.5999,57.95296
930.082,57.32412
930.5641,56.84029
931.0463,56.85893
931.5284,57.08301
932.0105,57.04911
932.4926,56.81744
932.9747,56.61681
933.4568,56.46257
933.939,56.40041
934.4211,56.46034
934.9032,56.48348
935.3853,56.2738
935.8674,55.89005
936.3495,55.6951
936.8317,55.74495
937.3138,55.6993
937.7959,55.35299
938.278,55.30755
938.7601,56.14871
939.2422,57.28744
939.7244,57.6256
940.2065,56.99333
940.6886,56.5576
941.1707,56.46614
941.6528,56.35879
942.1349,56.16356
942.6171,55.9333
943.0992,55.59549
943.5813,55.26873
944.0634,55.31059
944.5455,55.95382
945.0276,56.33501
945.5098,55.82113
945.9919,55.29557
946.474,55.43199
946.9561,55.8707
947.4382,56.13305
947.9203,56.1431
948.4025,56.02916
948.8846,55.80563
949.3667,55.62191
949.8488,55.74785
950.3309,55.93172
950.813,55.65671
951.2952,55.07353
951.7773,54.80643
952.2594,55.04491
952.7415,55.35223
953.2236,55.2682
953.7057,55.00859
954.1878,55.18986
954.6699,55.71695
955.152,55.97488
955.6342,55.87704
956.1163,55.47884
956.5984,54.76117
957.0805,54.02887
957.5626,53.80441
958.0447,54.07583
958.5269,54.22319
959.009,54.2123
959.4911,54.22171
959.9732,54.27367
960.4553,54.40686
960.9374,54.74827
961.4196,55.13014
961.9017,55.03591
962.3838,54.18663
962.8659,53.72221
963.348,53.83356
963.8301,54.07692
964.3123,54.55101
964.7944,54.92804
965.2765,54.86938
965.7586,54.45228
966.2407,54.03896
966.7228,53.51595
967.205,53.31805
967.6871,53.94088
968.1692,54.47788
968.6513,54.2445
969.1334,53.70461
969.6155,53.49645
970.0977,53.67971
970.5798,53.90623
971.0619,54.03363
971.544,54.15055
972.0261,54.38154
972.5082,54.57711
972.9904,54.57146
973.4725,54.3953
973.9546,54.11226
974.4367,53.75824
974.9188,53.44448
975.4009,53.23615
975.8831,53.14323
976.3652,53.31724
976.8473,53.57114
977.3294,53.34937
977.8115,52.73782
978.2936,52.54948
978.7758,53.16685
979.2579,53.88163
979.74,53.69759
980.2221,52.94381
980.7042,52.77534
981.1863,53.11648
981.6685,53.36025
982.1506,53.38642
982.6327,53.31776
983.1148,53.22161
983.5969,53.13675
984.079,53.15567
984.5612,53.27979
985.0433,53.33456
985.5254,53.33315
986.0075,53.12441
986.4896,52.55678
986.9717,52.14605
987.4539,52.38786
987.936,53.03548
988.4181,53.2925
988.9002,53.00217
989.3823,52.8898
989.8644,53.13463
990.3466,53.19947
990.8287,52.75928
991.3108,52.247
991.7929,52.10708
992.275,52.27016
992.7571,52.31847
993.2393,52.02901
993.7214,52.02716
994.2035,52.71326
994.6856,53.2205
995.1677,53.01696
995.6498,52.60611
996.132,52.59346
996.6141,52.9312
997.0962,53.04332
997.5783,52.61283
998.0604,52.29827
998.5425,52.32812
999.0247,52.45695
999.5068,52.64541
999.9889,52.77509
1000.471,52.67091
1000.953,52.32982
1001.435,51.94608
1001.917,51.50149
1002.399,51.18335
1002.882,51.11049
1003.364,51.19558
1003.846,51.38966
1004.328,51.66678
1004.81,52.0828
1005.292,52.60872
1005.774,52.89396
1006.256,52.55929
1006.739,52.10759
1007.221,52.06635
1007.703,52.17043
1008.185,51.99854
1008.667,51.62581
1009.149,51.40999
1009.631,51.46369
1010.113,51.5127
1010.595,51.24182
1011.078,50.90969
1011.56,50.94355
1012.042,51.21154
1012.524,51.44016
1013.006,51.58681
1013.488,51.66832
1013.97,51.69184
1014.452,51.6389
1014.935,51.4828
1015.417,51.23986
1015.899,50.79494
1016.381,50.27656
1016.863,50.49107
1017.345,51.46384
1017.827,52.08612
1018.309,51.77408
1018.791,51.09912
1019.274,50.81318
1019.756,50.85565
1020.238,50.96415
1020.72,51.13402
1021.202,51.22613
1021.684,51.21132
1022.166,51.24438
1022.648,51.43757
1023.13,51.61051
1023.613,51.43443
1024.095,50.93906
1024.577,50.62846
1025.059,50.51154
1025.541,50.53881
1026.023,50.74194
1026.505,50.90656
1026.987,50.90034
1027.469,50.76597
1027.952,50.55045
1028.434,50.23942
1028.916,50.2167
1029.398,50.62786
1029.88,50.78947
1030.362,50.46705
1030.844,50.13033
1031.326,50.10902
1031.809,50.2472
1032.291,50.22171
1032.773,50.00664
1033.255,49.85689
1033.737,49.82188
1034.219,49.73399
1034.701,49.45404
1035.183,49.28343
1035.666,49.49104
1036.148,49.90302
1036.63,50.16935
1037.112,50.28716
1037.594,50.26958
1038.076,50.00175
1038.558,49.78023
1039.04,49.61007
1039.522,49.54982
1040.005,49.70146
1040.487,49.97005
1040.969,50.17503
1041.451,50.33297
1041.933,50.34288
1042.415,50.04954
1042.897,49.82399
1043.379,49.76585
1043.861,49.76503
1044.344,49.78701
1044.826,49.80487
1045.308,49.7665
1045.79,49.66248
1046.272,49.55219
1046.754,49.3491
1047.236,49.26991
1047.718,49.50073
1048.201,49.74323
1048.683,49.78301
1049.165,49.69128
1049.647,49.60695
1050.129,49.54364
1050.611,49.5083
1051.093,49.51039
1051.575,49.52876
1052.057,49.63543
1052.54,49.67939
1053.022,49.46213
1053.504,49.13829
1053.986,49.01235
1054.468,49.13157
1054.95,49.22181
1055.432,49.22073
1055.914,49.16608
1056.396,48.9215
1056.879,48.77287
1057.361,49.09369
1057.843,49.5955
1058.325,49.7006
1058.807,49.33372
1059.289,49.15484
1059.771,49.75368
1060.253,50.07053
1060.736,49.40998
1061.218,48.60543
1061.7,48.25492
1062.182,48.22176
1062.664,48.25223
1063.146,48.29014
1063.628,48.26373
1064.11,48.01411
1064.593,47.8843
1065.075,48.05228
1065.557,48.35663
1066.039,48.89993
1066.521,49.38219
1067.003,49.21938
1067.485,48.43356
1067.967,47.91313
1068.449,48.12453
1068.932,48.42162
1069.414,48.503
1069.896,48.57444
1070.378,48.95001
1070.86,49.32567
1071.342,49.1466
1071.824,48.45971
1072.306,47.98394
1072.788,48.04055
1073.271,48.21003
1073.753,48.41604
1074.235,48.54062
1074.717,48.50149
1075.199,48.32728
1075.681,47.93058
1076.163,47.42063
1076.645,47.26218
1077.127,47.7385
1077.61,48.17237
1078.092,48.22515
1078.574,48.1566
1079.056,48.10317
1079.538,48.05805
1080.02,47.99077
1080.502,47.91199
1080.984,47.87317
1081.467,47.90456
1081.949,47.9037
1082.431,47.84229
1082.913,47.71398
1083.395,47.36087
1083.877,47.05805
1084.359,47.22974
1084.841,47.68649
1085.323,47.81842
1085.806,47.42099
1086.288,47.16478
1086.77,47.4737
1087.252,47.81974
1087.734,48.00182
1088.216,48.03292
1088.698,47.83534
1089.18,47.53347
1089.662,47.36357
1090.145,47.37339
1090.627,47.46215
1091.109,47.756
1091.591,47.90332
1092.073,47.61144
1092.555,47.25298
1093.037,47.05198
1093.519,47.02716
1094.002,47.26603
1094.484,47.73886
1094.966,47.97514
1095.448,47.64258
1095.93,47.32351
1096.412,47.18843
1096.894,47.14712
1097.376,47.23022
1097.859,47.31644
1098.341,47.16471
1098.823,46.82869
1099.305,46.76686
1099.787,47.19911
1100.269,47.67072
1100.751,48.34957
1101.233,48.70136
1101.715,48.20018
1102.198,47.4421
1102.68,47.01794
1103.162,46.90739
1103.644,46.87095
1104.126,46.93222
1104.608,46.87836
1105.09,46.454
1105.572,46.1936
1106.054,46.41681
1106.537,46.75209
1107.019,46.86883
1107.501,46.86884
1107.983,47.10057
1108.465,47.70745
1108.947,47.86024
1109.429,47.03098
1109.911,46.3904
1110.394,46.30819
1110.876,46.33596
1111.358,46.13024
1111.84,45.89331
1112.322,46.04585
1112.804,46.62428
1113.286,46.87687
1113.768,46.24683
1114.25,46.23645
1114.733,47.81574
1115.215,48.82744
1115.697,47.9384
1116.179,46.41327
1116.661,45.65807
1117.143,45.58681
1117.625,45.55973
1118.107,45.51052
1118.589,45.68805
1119.072,46.31016
1119.554,46.70957
1120.036,46.55506
1120.518,46.31165
1121.0,46.37716
1121.482,46.66154
1121.964,46.92815
1122.446,47.22161
1122.929,47.16564
1123.411,46.56758
1123.893,46.29649
1124.375,46.60809
1124.857,47.09356
1125.339,47.57544
1125.821,47.89104
1126.303,47.69311
1126.786,47.02515
1127.268,46.71312
1127.75,46.79603
1128.232,46.90625
1128.714,47.00349
1129.196,47.07805
1129.678,47.12809
1130.16,47.13575
1130.642,47.07502
1131.125,46.96394
1131.607,46.83623
1132.089,46.7006
1132.571,46.74439
1133.053,46.97227
1133.535,47.16811
1134.017,47.26572
1134.499,47.2023
1134.981,46.91286
1135.464,46.51873
1135.946,46.17001
1136.428,45.91274
1136.91,46.02418
1137.392,46.4088
1137.874,46.54895
1138.356,46.39486
1138.838,46.40759
1139.321,46.82551
1139.803,47.1333
1140.285,46.54663
1140.767,45.66171
1141.249,45.69724
1141.731,46.23499
1142.213,46.31488
1142.695,45.99578
1143.177,45.83925
1143.66,46.02353
1144.142,46.40767
1144.624,47.03263
1145.106,47.48007
1145.588,47.11639
1146.07,46.48246
1146.552,46.21838
1147.034,46.22791
1147.516,46.29062
1147.999,46.34963
1148.481,46.40258
1148.963,46.45168
1149.445,46.47475
1149.927,46.44051
1150.409,46.39416
1150.891,46.36927
1151.373,46.34837
1151.856,46.3057
1152.338,46.2516
1152.82,46.20127
1153.302,46.15827
1153.784,46.17795
1154.266,46.28796
1154.748,46.45061
1155.23,46.76253
1155.713,47.00372
1156.195,47.00138
1156.677,46.87269
1157.159,46.76137
1157.641,46.67468
1158.123,46.58051
1158.605,46.44736
1159.087,46.3672
1159.569,46.34074
1160.052,46.37851
1160.534,46.62175
1161.016,46.76924
1161.498,46.4804
1161.98,46.00602
1162.462,45.90757
1162.944,46.22197
1163.426,46.52567
1163.908,46.87037
1164.391,47.01508
1164.873,46.81036
1165.355,46.78492
1165.837,47.2934
1166.319,47.80928
1166.801,47.67743
1167.283,47.06663
1167.765,46.62657
1168.247,46.35474
1168.73,46.41235
1169.212,46.81964
1169.694,46.99977
1170.176,46.78925
1170.658,46.63968
1171.14,46.88757
1171.622,47.18105
1172.104,46.81203
1172.587,46.08033
1173.069,46.05205
1173.551,46.55501
1174.033,47.01945
1174.515,47.33458
1174.997,47.41109
1175.479,47.2278
1175.961,46.93129
1176.443,46.55143
1176.926,46.32397
1177.408,46.6897
1177.89,47.28571
1178.372,47.70044
1178.854,47.87605
1179.336,47.71405
1179.818,47.27362
1180.3,46.77179
1180.782,46.26327
1181.265,45.99108
1181.747,46.28343
1182.229,46.64588
1182.711,46.80643
1183.193,46.83776
1183.675,46.70831
1184.157,46.55611
1184.639,46.64956
1185.122,47.01046
1185.604,47.30461
1186.086,47.57483
1186.568,47.58364
1187.05,46.96568
1187.532,46.48423
1188.014,46.54513
1188.496,46.81495
1188.979,47.05914
1189.461,47.24437
1189.943,47.26535
1190.425,47.10701
1190.907,46.81963
1191.389,46.13552
1191.871,46.16698
1192.353,47.39756
1192.835,48.46135
1193.318,48.68679
1193.8,48.36809
1194.282,47.7793
1194.764,47.04451
1195.246,46.63868
1195.728,46.55779
1196.21,46.82586
1196.692,47.41656
1197.174,47.82173
1197.657,47.91493
1198.139,47.82801
1198.621,47.63058
1199.103,47.45946
1199.585,47.50421
1200.067,47.69652
1200.549,48.01434
1201.031,48.32551
1201.514,48.31292
1201.996,48.02187
1202.478,47.57809
1202.96,47.08607
1203.442,46.95483
1203.924,47.57714
1204.406,48.15431
1204.888,47.87463
1205.37,47.52129
1205.853,47.8859
1206.335,48.45149
1206.817,48.53817
1207.299,48.26031
1207.781,48.08221
1208.263,48.09666
1208.745,48.17284
1209.227,48.43562
1209.709,48.52263
1210.192,48.16536
1210.674,47.84426
1211.156,47.74921
1211.638,47.85461
1212.12,48.28232
1212.602,48.8621
1213.084,48.8947
1213.566,48.20522
1214.049,47.84998
1214.531,47.87861
1215.013,48.09276
1215.495,48.52679
1215.977,48.80401
1216.459,48.72694
1216.941,48.35107
1217.423,47.62602
1217.906,46.85317
1218.388,47.22153
1218.87,48.41129
1219.352,48.7214
1219.834,48.23339
1220.316,47.89161
1220.798,47.88472
1221.28,47.78888
1221.762,47.3655
1222.245,47.0223
1222.727,47.21129
1223.209,47.65353
1223.691,48.24816
1224.173,48.73426
1224.655,48.60793
1225.137,48.16508
1225.619,48.08183
1226.101,48.39089
1226.584,48.45318
1227.066,47.84989
1227.548,47.57929
1228.03,48.44326
1228.512,49.103
1228.994,48.77497
1229.476,48.245
1229.958,48.1259
1230.441,48.23677
1230.923,48.20924
1231.405,48.05081
1231.887,48.03219
1232.369,48.19701
1232.851,48.35422
1233.333,48.45527
1233.815,48.71032
1234.297,49.21115
1234.78,49.80033
1235.262,50.4258
1235.744,50.81258
1236.226,50.33667
1236.708,49.29547
1237.19,48.97645
1237.672,49.23171
1238.154,49.46987
1238.636,49.60594
1239.119,49.59011
1239.601,49.42664
1240.083,49.21365
1240.565,48.97708
1241.047,48.90593
1241.529,49.44598
1242.011,49.96267
1242.493,49.64028
1242.975,49.08016
1243.458,49.11641
1243.94,49.5062
1244.422,49.52359
1244.904,49.08867
1245.386,48.87083
1245.868,49.10477
1246.35,49.45343
1246.832,50.0734
1247.315,50.5097
1247.797,50.53677
1248.279,50.41491
1248.761,50.27362
1249.243,50.15153
1249.725,50.13418
1250.207,50.2104
1250.689,50.15629
1251.172,49.93845
1251.654,50.0118
1252.136,50.42668
1252.618,50.62543
1253.1,50.44193
1253.582,50.25073
1254.064,50.31359
1254.546,50.4586
1255.028,50.46059
1255.51,50.37116
1255.993,50.2751
1256.475,50.1665
1256.957,49.96147
1257.439,49.75787
1257.921,49.84628
1258.403,50.22231
1258.885,50.48883
1259.367,50.43048
1259.85,50.42603
1260.332,50.756
1260.814,51.04338
1261.296,51.01991
1261.778,50.9777
1262.26,51.19514
1262.742,51.51337
1263.224,51.68259
1263.707,51.70873
1264.189,51.62417
1264.671,51.32372
1265.153,51.30071
1265.635,51.64159
1266.117,51.88716
1266.599,51.93573
1267.081,51.83513
1267.563,51.58701
1268.046,51.44133
1268.528,51.75943
1269.01,52.27462
1269.492,52.25838
1269.974,51.9936
1270.456,52.31911
1270.938,52.99983
1271.42,53.28776
1271.902,53.13181
1272.385,52.87772
1272.867,52.65704
1273.349,52.62929
1273.831,53.10479
1274.313,53.49652
1274.795,53.4126
1275.277,53.26101
1275.759,53.40123
1276.242,53.55394
1276.724,53.19855
1277.206,52.6083
1277.688,52.77676
1278.17,53.85453
1278.652,54.24453
1279.134,53.6567
1279.616,53.48661
1280.099,53.98429
1280.581,54.30323
1281.063,54.10978
1281.545,53.9435
1282.027,54.26201
1282.509,54.68484
1282.991,54.52766
1283.473,54.00955
1283.955,53.61044
