Wavenumber (cm⁻¹),Intensity
200.0,54.56807655880522
201.00097751710655,53.314508480568165
202.0019550342131,53.43272035187778
203.00293255131965,54.51598936760664
204.0039100684262,55.18073151497105
205.00488758553274,55.57498121206445
206.0058651026393,55.718392676012385
207.00684261974584,56.069698379280275
208.0078201368524,57.3424755273727
209.00879765395894,59.74450593754962
210.00977517106548,60.89426211751576
211.01075268817203,62.29802633645966
212.01173020527858,63.74410576837892
213.01270772238513,64.91347379419584
214.01368523949168,68.53308753703999
215.01466275659823,72.2868526708054
216.01564027370478,76.29723660314316
217.01661779081132,80.57311016740258
218.01759530791787,84.55443815710952
219.01857282502445,90.56288259986103
220.019550342131,97.50803047857991
221.02052785923755,104.8830269469897
222.0215053763441,112.10481902786432
223.02248289345064,116.27086669742575
224.0234604105572,118.50872941219409
225.02443792766374,117.11710179099953
226.0254154447703,111.67373081469617
227.02639296187684,103.886308619365
228.02737047898339,96.74379127503632
229.02834799608993,89.6295360546733
230.02932551319648,83.29148322411534
231.03030303030303,79.22525006612483
232.03128054740958,77.387877824772
233.03225806451613,74.4497598401483
234.03323558162268,71.82078676830332
235.03421309872923,70.52762644912501
236.03519061583577,69.24355214249609
237.03616813294232,68.96182460931657
238.03714565004887,67.02778847771536
239.03812316715542,64.92665257596134
240.03910068426197,64.17890745070797
241.04007820136852,61.33418441737975
242.04105571847506,59.813369852989226
243.0420332355816,59.00076535657075
244.0430107526882,57.906204311736474
245.04398826979474,55.85392274272925
246.0449657869013,52.652772835677546
247.04594330400784,52.114278534752366
248.04692082111438,52.133462020534516
249.04789833822093,50.35277563857656
250.04887585532748,49.49082095128575
251.04985337243403,48.885151279032776
252.05083088954058,49.081309998548235
253.05180840664713,48.77011686429705
254.05278592375367,46.760865544000126
255.05376344086022,46.11370008919692
256.05474095796677,45.54988003426277
257.0557184750733,46.04770502308142
258.05669599217987,47.04815956373383
259.0576735092864,46.311249211864926
260.05865102639297,45.28821670316997
261.0596285434995,46.09072023650156
262.06060606060606,46.41361070845355
263.0615835777126,44.66749149324711
264.06256109481916,44.80941750674349
265.0635386119257,45.44725444675797
266.06451612903226,46.222720790493206
267.0654936461388,46.52811910008609
268.06647116324535,45.17884091276089
269.0674486803519,44.21836007323166
270.06842619745845,43.94611974812459
271.069403714565,45.357991771398545
272.07038123167155,47.685597324133596
273.0713587487781,46.59875628168799
274.07233626588464,44.95162782864278
275.0733137829912,44.570486450590984
276.07429130009774,44.687720754233546
277.0752688172043,44.34105477373855
278.07624633431084,45.19329034937565
279.0772238514174,46.22903643573454
280.07820136852393,46.47053189808437
281.0791788856305,46.54397865115411
282.08015640273703,47.2537064106634
283.0811339198436,47.39482155081132
284.08211143695013,48.457532173701175
285.0830889540567,49.20485562648265
286.0840664711632,49.0642300625907
287.0850439882698,48.95178426276536
288.0860215053764,48.982601669944664
289.0869990224829,49.7650650943626
290.0879765395895,50.74220999552913
291.088954056696,51.20384693615691
292.0899315738026,50.822632308469196
293.0909090909091,51.65280940167079
294.09188660801567,54.14363828919508
295.0928641251222,57.920640939302544
296.09384164222877,62.20504338155226
297.0948191593353,65.92792776573788
298.09579667644186,72.91120363741004
299.0967741935484,81.93917358472018
300.09775171065496,91.19112929043965
301.0987292277615,99.61025224740952
302.09970674486806,104.44138402139716
303.1006842619746,103.93479216528443
304.10166177908116,98.50028458201643
305.1026392961877,90.60866888465706
306.10361681329425,82.5469261981982
307.1045943304008,72.2714863644512
308.10557184750735,67.88284572686158
309.1065493646139,66.02784037405188
310.10752688172045,63.52716126137214
311.108504398827,63.76386849898622
312.10948191593354,65.25078636693125
313.1104594330401,68.81682979194149
314.11143695014664,72.1008974654291
315.1124144672532,72.76451175061533
316.11339198435974,73.03101398063986
317.1143695014663,68.96394954929593
318.11534701857283,62.797304788083935
319.1163245356794,57.56605201171235
320.11730205278593,55.44511333751344
321.1182795698925,50.94491673781594
322.119257086999,50.94432933087424
323.1202346041056,49.85574016906257
324.1212121212121,46.99212979885983
325.1221896383187,49.109520504365186
326.1231671554252,49.33411404482875
327.12414467253177,47.67076062050736
328.1251221896383,45.81691016030183
329.12609970674487,44.98605126943226
330.1270772238514,45.186273011857736
331.12805474095796,45.87986048656464
332.1290322580645,44.15017607604933
333.13000977517106,43.416435215221014
334.1309872922776,44.15786879125886
335.13196480938416,42.80852567323677
336.1329423264907,44.10918105446539
337.13391984359725,43.43842556683526
338.1348973607038,42.840749126676364
339.13587487781035,43.54876980543131
340.1368523949169,42.60523394834388
341.13782991202345,43.12063011301363
342.13880742913,42.99946769121449
343.13978494623655,41.66994198067149
344.1407624633431,40.2649165108418
345.14173998044964,42.02382580190366
346.1427174975562,42.29496689866582
347.14369501466274,41.946357946739624
348.1446725317693,41.39179252386364
349.14565004887584,41.09666192568842
350.1466275659824,43.035502782109766
351.14760508308893,42.81406377942871
352.1485826001955,42.65224937687843
353.14956011730203,43.218561123451224
354.1505376344086,44.114329253646055
355.1515151515151,46.39408396402847
356.1524926686217,45.788064734145195
357.1534701857282,45.70568757103927
358.1544477028348,47.23471617560264
359.1554252199413,48.609451726427814
360.15640273704787,48.71517617264845
361.1573802541544,49.50308780365224
362.15835777126097,51.20083156967225
363.1593352883675,52.514056803920525
364.16031280547406,53.651472591261744
365.1612903225806,57.70304323664585
366.16226783968716,62.13567354688458
367.1632453567937,68.73821122003896
368.16422287390026,77.83541065103071
369.1652003910068,87.71719522106208
370.16617790811335,94.5937740754879
371.1671554252199,98.06446248344687
372.16813294232645,97.35989155129614
373.169110459433,91.13559616119245
374.17008797653955,79.66264958013653
375.1710654936461,68.57359191412931
376.1720430107527,62.78926846440816
377.17302052785925,57.41761107629669
378.1739980449658,52.32666817057902
379.17497556207235,49.35492496375962
380.1759530791789,46.427939172510726
381.17693059628544,47.11405326540597
382.177908113392,46.90001594507377
383.17888563049854,44.52955250243153
384.1798631476051,42.25805739838512
385.18084066471164,42.620968546993105
386.1818181818182,42.23918652787992
387.18279569892474,42.43946331537873
388.1837732160313,41.418810950606506
389.18475073313783,39.21279600300736
390.1857282502444,40.086437948694254
391.18670576735093,38.34207087087021
392.1876832844575,38.756841121942664
393.188660801564,39.591002180323436
394.1896383186706,39.3979333201031
395.1906158357771,41.142325025313866
396.1915933528837,40.17387843771234
397.1925708699902,40.7472464878648
398.19354838709677,40.805270327331364
399.1945259042033,40.65345325846741
400.19550342130987,43.445997888822525
401.1964809384164,44.80706748944776
402.19745845552296,46.43823930930236
403.1984359726295,49.70246113685518
404.19941348973606,53.85786315637045
405.2003910068426,57.8040643638039
406.20136852394916,63.520239444591006
407.2023460410557,67.28036422530087
408.20332355816225,68.95882816188865
409.20430107526886,66.80031033439909
410.2052785923754,59.601417780786576
411.20625610948196,56.42591337080171
412.2072336265885,51.467990404486294
413.20821114369505,48.25387322037441
414.2091886608016,47.637069923203796
415.21016617790815,47.72067313102515
416.2111436950147,46.396828768821116
417.21212121212125,45.954818610309694
418.2130987292278,45.872493915697106
419.21407624633434,47.10002569126653
420.2150537634409,49.43887568915571
421.21603128054744,50.14179499901154
422.217008797654,49.92602294766725
423.21798631476054,52.94132858953691
424.2189638318671,56.33922687927109
425.21994134897363,58.640188089607975
426.2209188660802,62.57750372783937
427.22189638318673,68.20672784463473
428.2228739002933,78.09373944173869
429.2238514173998,86.57999760814018
430.2248289345064,92.24262838652514
431.2258064516129,97.92105804772137
432.2267839687195,98.37907284422606
433.227761485826,94.78826429623723
434.22873900293257,88.89001863429226
435.2297165200391,84.40082394883453
436.23069403714567,81.54525418708825
437.2316715542522,75.4932575531717
438.23264907135876,71.74803941784306
439.2336265884653,66.99142067245693
440.23460410557186,61.96005502746706
441.2355816226784,57.90308127727949
442.23655913978496,54.39458138257136
443.2375366568915,51.207105110388845
444.23851417399806,47.710192871498
445.2394916911046,45.16294997560973
446.24046920821115,43.33367695178902
447.2414467253177,41.37597082512012
448.24242424242425,41.00683847114581
449.2434017595308,39.37561531943885
450.24437927663735,39.26441504922252
451.2453567937439,40.16842527825782
452.24633431085044,39.63385612798601
453.247311827957,36.871782397374375
454.24828934506354,37.19428103067531
455.2492668621701,38.25311593413713
456.25024437927664,38.04261158238341
457.2512218963832,37.035092188492705
458.25219941348973,36.879632188817126
459.2531769305963,35.62745459739821
460.25415444770283,37.81455446211318
461.2551319648094,36.960687811201055
462.2561094819159,34.26166199231614
463.2570869990225,34.94426550717848
464.258064516129,35.06629843793902
465.2590420332356,35.026012879754035
466.2600195503421,35.95094790670214
467.26099706744867,37.099981899231395
468.2619745845552,37.192076368058615
469.26295210166177,36.102480790487135
470.2639296187683,35.522006043573505
471.26490713587486,36.67310517897728
472.2658846529814,36.15597161472811
473.26686217008796,34.749100097634134
474.2678396871945,35.32550718299481
475.26881720430106,34.40670143873243
476.2697947214076,35.276324519826595
477.27077223851416,36.843642561244835
478.2717497556207,36.031967613386186
479.27272727272725,33.74442058531796
480.2737047898338,35.95724964973208
481.27468230694035,37.49504610520971
482.2756598240469,36.217547389354195
483.27663734115345,35.23245717112305
484.27761485826,35.900592473795484
485.27859237536654,36.249827761789966
486.2795698924731,35.93746897899647
487.28054740957964,35.579614533897114
488.2815249266862,35.09335790114246
489.2825024437928,34.36788902615084
490.28347996089934,34.14747534925302
491.2844574780059,34.55660586866648
492.28543499511244,35.48806634402929
493.286412512219,36.49692550993406
494.28739002932554,36.867602851592956
495.2883675464321,36.00857224178059
496.28934506353863,34.647723206174994
497.2903225806452,34.84311196485195
498.29130009775173,33.273254550789225
499.2922776148583,34.165433089371824
500.2932551319648,35.36762612960393
501.2942326490714,34.91749058762748
502.2952101661779,34.40884500841768
503.2961876832845,34.63316954870822
504.297165200391,35.4092512376936
505.29814271749757,36.163901807060306
506.2991202346041,35.73620613256029
507.30009775171067,34.16234601411669
508.3010752688172,33.26567468900621
509.30205278592376,34.76695776288492
510.3030303030303,34.314732259307426
511.30400782013686,34.73807741941163
512.3049853372434,35.3339960543955
513.3059628543499,34.26621697172664
514.3069403714564,35.260780310078246
515.307917888563,34.58035258492758
516.3088954056695,34.28070951816983
517.3098729227761,34.2635964331451
518.3108504398826,34.36853416272036
519.3118279569892,34.858206227927575
520.3128054740957,34.17355349764826
521.3137829912023,34.93936320080583
522.3147605083088,33.56801139508795
523.3157380254154,33.91745408388453
524.3167155425219,36.82223654001512
525.3176930596285,36.37688398861655
526.318670576735,34.82861966530697
527.3196480938416,33.5054653699146
528.3206256109481,33.36332270533989
529.3216031280547,34.183235628528
530.3225806451612,34.926748357187364
531.3235581622678,34.29473106644666
532.3245356793743,34.2284542427466
533.3255131964809,35.05828363567012
534.3264907135874,34.66902419435349
535.327468230694,34.0657303098897
536.3284457478005,35.11607344196118
537.3294232649071,35.25425309638325
538.3304007820136,36.2493546501711
539.3313782991202,36.773734383552885
540.3323558162267,36.516397621441975
541.3333333333333,36.960005480882096
542.3343108504398,39.592396957397355
543.3352883675464,40.29599318119475
544.3362658846529,37.679027226092
545.3372434017595,37.74046399018541
546.338220918866,38.8035110679167
547.3391984359725,38.326577450047
548.3401759530791,37.87875761196891
549.3411534701856,37.86547065283992
550.3421309872922,37.28231344872138
551.3431085043987,36.81012336927095
552.3440860215054,37.25747603390635
553.345063538612,37.92482131606529
554.3460410557185,37.40018620407052
555.347018572825,38.467250531693516
556.3479960899316,36.86836931444464
557.3489736070381,37.65334049074172
558.3499511241447,39.15693209048142
559.3509286412512,39.44882931687544
560.3519061583578,42.167139012306265
561.3528836754643,41.34884456201613
562.3538611925709,41.15349428369
563.3548387096774,41.66852069494349
564.355816226784,42.113926337336075
565.3567937438905,42.32673860427099
566.3577712609971,42.77457629462015
567.3587487781036,45.67437102054128
568.3597262952102,47.93579131611273
569.3607038123167,50.57495363537829
570.3616813294233,52.07321728322223
571.3626588465298,52.13355580648012
572.3636363636364,55.31178034602407
573.3646138807429,57.47980852852556
574.3655913978495,62.08792249100614
575.366568914956,68.94030604176754
576.3675464320626,74.65619518053857
577.3685239491691,78.63347727064298
578.3695014662757,84.57598950608933
579.3704789833822,92.44415517768567
580.3714565004888,100.17401571837775
581.3724340175953,107.28802448093353
582.3734115347019,115.1326563784511
583.3743890518084,124.3289776803911
584.375366568915,133.53637666970198
585.3763440860215,141.52165491006716
586.377321603128,148.8180882111153
587.3782991202346,156.90936461856447
588.3792766373411,163.69259963163697
589.3802541544477,167.35730235184002
590.3812316715542,167.75389940521708
591.3822091886608,161.25311741954954
592.3831867057673,148.34587678627028
593.3841642228739,132.25516356701934
594.3851417399804,115.86355276575328
595.386119257087,101.7138516257829
596.3870967741935,91.62126251159262
597.3880742913001,83.18591121678489
598.3890518084066,76.10295610654592
599.3900293255132,73.6114271700971
600.3910068426197,72.25836953792503
601.3919843597263,70.8693258606236
602.3929618768328,71.22784179847335
603.3939393939394,70.33105106767742
604.3949169110459,70.65305183234476
605.3958944281525,68.96877456951242
606.396871945259,69.37322665321331
607.3978494623656,69.43548543348665
608.3988269794721,65.63681872035686
609.3998044965787,63.73924686983246
610.4007820136852,63.945408927235356
611.4017595307918,61.37868460886152
612.4027370478983,57.7487419197516
613.4037145650049,54.82225441640449
614.4046920821114,52.36934006557207
615.405669599218,49.445788494577016
616.4066471163245,46.83943315045187
617.4076246334312,46.945315206318575
618.4086021505377,45.605932336306324
619.4095796676443,43.834500035116356
620.4105571847508,42.746749372864535
621.4115347018574,41.41081845158732
622.4125122189639,41.454251254632354
623.4134897360705,41.24713518132725
624.414467253177,40.25225311713188
625.4154447702836,40.37592713517543
626.4164222873901,41.07728619559708
627.4173998044967,39.98491042353588
628.4183773216032,38.11592731633535
629.4193548387098,40.204833847080444
630.4203323558163,38.74489873408778
631.4213098729228,37.14821024441366
632.4222873900294,36.1579031157794
633.423264907136,35.9209995131779
634.4242424242425,38.13661812216768
635.425219941349,35.57521659118435
636.4261974584556,36.530599909815955
637.4271749755621,37.14634001914479
638.4281524926687,36.426050260298034
639.4291300097752,35.821697598896094
640.4301075268818,35.891236306392486
641.4310850439883,35.14493809914589
642.4320625610949,35.50598798446194
643.4330400782014,35.622150870578224
644.434017595308,34.715933291203314
645.4349951124145,34.24190727114201
646.4359726295211,34.776428173030496
647.4369501466276,35.185723508787675
648.4379276637342,36.91122760487214
649.4389051808407,35.27318753164247
650.4398826979473,34.95709598586591
651.4408602150538,36.52165747232666
652.4418377321604,37.40129407951278
653.4428152492669,36.43130922117976
654.4437927663735,35.6434375229785
655.44477028348,35.2754195098809
656.4457478005866,35.5560368353629
657.4467253176931,35.05009412484234
658.4477028347997,35.38762678706901
659.4486803519062,36.03881781581799
660.4496578690128,34.53880664222967
661.4506353861193,34.47050800964869
662.4516129032259,35.522959476993925
663.4525904203324,36.15823482217441
664.453567937439,35.52230564108875
665.4545454545455,33.56777859790344
666.455522971652,32.44016024138455
667.4565004887586,34.363084071126636
668.4574780058651,34.79470842970453
669.4584555229717,35.53620829865391
670.4594330400782,34.29696203022245
671.4604105571848,35.31656689683542
672.4613880742913,37.43050364257223
673.4623655913979,36.11951061893191
674.4633431085044,34.56592281358867
675.464320625611,35.83939602577761
676.4652981427175,35.97134852669861
677.4662756598241,36.2717794358078
678.4672531769306,36.3333884384382
679.4682306940372,35.63771481126782
680.4692082111437,34.92949468051855
681.4701857282503,34.80798589391519
682.4711632453568,37.88451878783419
683.4721407624634,37.16832623380354
684.4731182795699,36.16772753959492
685.4740957966765,37.22746080932373
686.475073313783,37.74024372578181
687.4760508308896,36.6526414329172
688.4770283479961,37.25729402659407
689.4780058651027,37.35824901903998
690.4789833822092,36.44197624532249
691.4799608993158,35.297237406538876
692.4809384164223,35.30719968094133
693.4819159335289,36.262123419902686
694.4828934506354,36.31196202010336
695.483870967742,37.590998750627286
696.4848484848485,36.808466095428486
697.485826001955,37.29752995164309
698.4868035190616,37.1148047901319
699.4877810361681,36.518535728384066
700.4887585532747,37.42824388587683
701.4897360703812,38.6814547209514
702.4907135874878,39.12442820509936
703.4916911045943,38.12052095857099
704.4926686217009,38.70093560956739
705.4936461388074,38.57750962421249
706.494623655914,37.54041468004005
707.4956011730205,38.17794021596015
708.4965786901271,39.79877502960434
709.4975562072336,40.30855643147861
710.4985337243402,38.762820411621405
711.4995112414467,38.4980166959922
712.5004887585533,39.91405806623359
713.5014662756598,40.53801558057043
714.5024437927664,39.2436839341059
715.5034213098729,39.04956579413175
716.5043988269795,38.46859743220186
717.505376344086,38.99937502519216
718.5063538611926,40.70309009754685
719.5073313782991,42.62409427219379
720.5083088954057,43.04458046178915
721.5092864125122,42.01565840896268
722.5102639296188,41.454068286528695
723.5112414467253,41.73234905492689
724.5122189638319,43.13611691258086
725.5131964809384,41.53379263872433
726.514173998045,41.26606413326312
727.5151515151515,42.41830286200873
728.516129032258,43.00486045178688
729.5171065493646,43.237125300223056
730.5180840664711,43.067367334131234
731.5190615835777,42.758895788695725
732.5200391006842,42.77830098661505
733.5210166177908,43.33657003815196
734.5219941348973,43.70702397399939
735.5229716520039,44.247818727410966
736.5239491691104,45.15189794628156
737.524926686217,44.49221174458519
738.5259042033235,44.79750792252776
739.5268817204301,45.33783550467616
740.5278592375366,45.848035192458944
741.5288367546432,45.16657707306116
742.5298142717497,44.67840886764752
743.5307917888563,46.1206339864206
744.5317693059628,46.23455831347583
745.5327468230694,44.9404563500959
746.5337243401759,45.77766558557043
747.5347018572825,48.2323892809845
748.535679374389,47.55883512934528
749.5366568914956,46.203777454373906
