Wavenumber (cm⁻¹),Intensity
200.0,1019.5722079012854
201.00097751710655,992.1847147532694
202.0019550342131,941.8486208808887
203.00293255131965,917.3123898214741
204.0039100684262,895.8898824718472
205.00488758553274,862.0955299406735
206.0058651026393,823.6112150335075
207.00684261974584,800.8111654225783
208.0078201368524,774.8901165898507
209.00879765395894,759.3776960626802
210.00977517106548,757.8170890152705
211.01075268817203,763.6134469884221
212.01173020527858,766.9685259359558
213.01270772238513,785.5919941146211
214.01368523949168,806.5001415963637
215.01466275659823,833.2400643342884
216.01564027370478,873.5314907295646
217.01661779081132,896.8451336101439
218.01759530791787,951.1513072917866
219.01857282502445,1032.7312749266366
220.019550342131,1110.034094911822
221.02052785923755,1160.1654100852518
222.0215053763441,1276.3079662453492
223.02248289345064,1352.3268859431587
224.0234604105572,1423.4328427229307
225.02443792766374,1551.2500123865464
226.0254154447703,1659.3284791812805
227.02639296187684,1787.2382598121258
228.02737047898339,1926.8045688936663
229.02834799608993,2088.715243946175
230.02932551319648,2293.3970052410036
231.03030303030303,2520.4805751855856
232.03128054740958,2827.498228008248
233.03225806451613,3195.5157747221465
234.03323558162268,3564.424915973671
235.03421309872923,3871.775828146737
236.03519061583577,4079.521663684235
237.03616813294232,3967.194246610475
238.03714565004887,3596.617810132412
239.03812316715542,3134.3273213415628
240.03910068426197,2708.2437303427523
241.04007820136852,2308.0768515145273
242.04105571847506,1976.775146546669
243.0420332355816,1707.337015466105
244.0430107526882,1478.0824908275356
245.04398826979474,1323.4602524561083
246.0449657869013,1171.667573646413
247.04594330400784,1047.772902059516
248.04692082111438,961.8163818437281
249.04789833822093,891.5521479908576
250.04887585532748,825.4785088490742
251.04985337243403,804.1530010527622
252.05083088954058,775.5635587889849
253.05180840664713,720.9731762884685
254.05278592375367,728.7116456356325
255.05376344086022,727.954202054205
256.05474095796677,716.1195769611522
257.0557184750733,693.7974571422311
258.05669599217987,665.328624778771
259.0576735092864,648.6554326545456
260.05865102639297,646.1154417410754
261.0596285434995,653.1347598150242
262.06060606060606,658.7717603169216
263.0615835777126,650.1145828288502
264.06256109481916,622.5604750357617
265.0635386119257,641.9943079619277
266.06451612903226,637.0646061786147
267.0654936461388,617.9053960109519
268.06647116324535,629.5080432903212
269.0674486803519,634.771962138092
270.06842619745845,642.4011625483841
271.069403714565,636.7639575867069
272.07038123167155,639.6285640942208
273.0713587487781,681.4597269742824
274.07233626588464,668.1866422869927
275.0733137829912,667.100723257851
276.07429130009774,670.5850480318499
277.0752688172043,672.4988803413828
278.07624633431084,699.7086098095999
279.0772238514174,710.0810309737878
280.07820136852393,722.8065857196533
281.0791788856305,743.3928225066168
282.08015640273703,766.3114073133117
283.0811339198436,780.4450924685349
284.08211143695013,808.0540203765785
285.0830889540567,803.5968319368899
286.0840664711632,800.1867884088684
287.0850439882698,831.8819152108221
288.0860215053764,853.3444036473501
289.0869990224829,884.9138393900068
290.0879765395895,933.7177019998661
291.088954056696,983.723139948415
292.0899315738026,1022.2123166303835
293.0909090909091,1061.050600165908
294.09188660801567,1132.9439638592437
295.0928641251222,1202.3723708595705
296.09384164222877,1265.959792698668
297.0948191593353,1334.6456471272766
298.09579667644186,1379.6706406948438
299.0967741935484,1406.436772159859
300.09775171065496,1387.9011272396365
301.0987292277615,1328.6254492144253
302.09970674486806,1262.8245723644427
303.1006842619746,1218.9254938117954
304.10166177908116,1210.2296065772446
305.1026392961877,1224.6303195167043
306.10361681329425,1239.4276505016442
307.1045943304008,1240.8636911264928
308.10557184750735,1234.2083076508504
309.1065493646139,1238.1930019690249
310.10752688172045,1225.5770185278116
311.108504398827,1222.342817460999
312.10948191593354,1255.7762886587138
313.1104594330401,1275.8942228988406
314.11143695014664,1314.3707626257576
315.1124144672532,1396.8341545452345
316.11339198435974,1506.4309019899729
317.1143695014663,1610.282283046251
318.11534701857283,1683.4436706355407
319.1163245356794,1814.395896562395
320.11730205278593,1925.1788804095713
321.1182795698925,1987.9944123202024
322.119257086999,2033.0253831451475
323.1202346041056,2085.2005342772727
324.1212121212121,2175.290600824674
325.1221896383187,2302.069357314735
326.1231671554252,2474.463556987667
327.12414467253177,2697.7416407623614
328.1251221896383,2937.371812356046
329.12609970674487,3191.4721071728613
330.1270772238514,3453.1579296787872
331.12805474095796,3757.0709727132703
332.1290322580645,4143.565384687965
333.13000977517106,4577.526046506988
334.1309872922776,5050.09254393645
335.13196480938416,5621.941409249358
336.1329423264907,6281.997884316407
337.13391984359725,6981.50758210037
338.1348973607038,7685.639807438844
339.13587487781035,8225.954445543806
340.1368523949169,8624.358125012084
341.13782991202345,8685.71218253718
342.13880742913,8296.709176944196
343.13978494623655,7621.89632331668
344.1407624633431,6749.510797368079
345.14173998044964,5850.709881256421
346.1427174975562,5010.340484793945
347.14369501466274,4273.948937422488
348.1446725317693,3682.29556839924
349.14565004887584,3203.517250555821
350.1466275659824,2846.3973080839523
351.14760508308893,2568.469800497928
352.1485826001955,2335.4733134719645
353.14956011730203,2149.2427674841433
354.1505376344086,2040.653904733237
355.1515151515151,1950.6026296945852
356.1524926686217,1864.6026818495127
357.1534701857282,1791.176098652196
358.1544477028348,1738.8691606345906
359.1554252199413,1705.1650822355298
360.15640273704787,1634.3654901128048
361.1573802541544,1560.5132725569542
362.15835777126097,1497.2502206779868
363.1593352883675,1437.835384915458
364.16031280547406,1402.9392482735304
365.1612903225806,1362.303663287634
366.16226783968716,1349.5378175696787
367.1632453567937,1358.2181578618145
368.16422287390026,1370.000350749196
369.1652003910068,1411.1504794483135
370.16617790811335,1443.5098091556506
371.1671554252199,1461.7691859111035
372.16813294232645,1496.9422691921077
373.169110459433,1563.0896112898433
374.17008797653955,1613.942575494643
375.1710654936461,1699.9908469539882
376.1720430107527,1792.3342964093024
377.17302052785925,1865.5652359992268
378.1739980449658,1923.4302988037234
379.17497556207235,1980.2209474079173
380.1759530791789,1999.5394254808425
381.17693059628544,1978.2187519282181
382.177908113392,1921.973904895756
383.17888563049854,1871.7939514249806
384.1798631476051,1879.8590686845164
385.18084066471164,1879.3662094189988
386.1818181818182,1886.8400585129448
387.18279569892474,1932.4258875528903
388.1837732160313,2022.3140566935617
389.18475073313783,2136.951533218852
390.1857282502444,2252.161882138321
391.18670576735093,2389.196978386349
392.1876832844575,2541.326544307315
393.188660801564,2721.1051711476093
394.1896383186706,2919.172547061838
395.1906158357771,3095.6499242628015
396.1915933528837,3254.2216235478404
397.1925708699902,3358.5376694133224
398.19354838709677,3430.5482613364916
399.1945259042033,3451.321392625697
400.19550342130987,3389.4159162570704
401.1964809384164,3316.297892686626
402.19745845552296,3180.8770767439128
403.1984359726295,3055.479430663793
404.19941348973606,2948.1722918810096
405.2003910068426,2820.2594910844387
406.20136852394916,2691.4188554762673
407.2023460410557,2594.048732900601
408.20332355816225,2553.591919913956
409.20430107526886,2507.6939015399826
410.2052785923754,2446.217357549235
411.20625610948196,2412.6832241995594
412.2072336265885,2374.570671003955
413.20821114369505,2378.6656224946946
414.2091886608016,2385.5327615634837
415.21016617790815,2328.2594889819916
416.2111436950147,2225.352300483404
417.21212121212125,2214.531302043458
418.2130987292278,2130.22966597443
419.21407624633434,2042.150648834732
420.2150537634409,1954.8887819686684
421.21603128054744,1824.5392211741362
422.217008797654,1648.8970288613812
423.21798631476054,1488.1677846283649
424.2189638318671,1351.1556897217545
425.21994134897363,1245.3005204904487
426.2209188660802,1152.393040272606
427.22189638318673,1055.8956774732885
428.2228739002933,970.515197288743
429.2238514173998,918.1625137317026
430.2248289345064,895.531967716225
431.2258064516129,886.6050128376523
432.2267839687195,878.5840191508817
433.227761485826,867.871938542297
434.22873900293257,867.7188665866162
435.2297165200391,872.4007907861616
436.23069403714567,888.1947117990438
437.2316715542522,916.0878235731877
438.23264907135876,952.7232520995955
439.2336265884653,995.2839422111203
440.23460410557186,1024.243038954696
441.2355816226784,1041.617773623989
442.23655913978496,1050.6869240576063
443.2375366568915,1027.9003487017008
444.23851417399806,950.3406376152274
445.2394916911046,875.0303764334236
446.24046920821115,806.5221929776325
447.2414467253177,757.5266449949643
448.24242424242425,728.4205111249396
449.2434017595308,715.868917506638
450.24437927663735,716.1527011271756
451.2453567937439,666.6392974853619
452.24633431085044,664.4690278578996
453.247311827957,669.9131645060921
454.24828934506354,665.8666855139915
455.2492668621701,674.8705013093703
456.25024437927664,677.409253197227
457.2512218963832,675.145825595964
458.25219941348973,674.383409762397
459.2531769305963,677.1897603565412
460.25415444770283,679.0494434533422
461.2551319648094,673.8656922140487
462.2561094819159,680.9287419913447
463.2570869990225,664.348990204837
464.258064516129,638.0689088224658
465.2590420332356,660.5617487654919
466.2600195503421,624.44872678997
467.26099706744867,617.4403797471515
468.2619745845552,612.1634062667755
469.26295210166177,608.1169409903886
470.2639296187683,603.1249365055205
471.26490713587486,589.423265375456
472.2658846529814,606.2572476909324
473.26686217008796,615.2815230196156
474.2678396871945,596.0315113060873
475.26881720430106,580.4203750921707
476.2697947214076,585.1311956753832
477.27077223851416,602.126551236982
478.2717497556207,606.6760994857948
479.27272727272725,592.479661002056
480.2737047898338,573.8256440590548
481.27468230694035,576.3013344554602
482.2756598240469,577.830658607595
483.27663734115345,576.4865915027784
484.27761485826,599.3990433358615
485.27859237536654,562.1348478951153
486.2795698924731,559.8352338735324
487.28054740957964,554.5001390178767
488.2815249266862,554.4390128632612
489.2825024437928,577.2886970446582
490.28347996089934,573.6095415170689
491.2844574780059,561.9218332475036
492.28543499511244,554.9858631686111
493.286412512219,556.320252886311
494.28739002932554,561.8199698292724
495.2883675464321,565.2388896209623
496.28934506353863,563.6237830391659
497.2903225806452,554.9346813865413
498.29130009775173,538.1009385144174
499.2922776148583,532.6683729852343
500.2932551319648,535.1101256447689
501.2942326490714,534.9783319377811
502.2952101661779,558.4510914924182
503.2961876832845,582.5224643543249
504.297165200391,593.3307101567292
505.29814271749757,607.0615909513065
506.2991202346041,636.1184510620393
507.30009775171067,672.7355692023922
508.3010752688172,699.5247283747412
509.30205278592376,733.867145072238
510.3030303030303,780.6889438227963
511.30400782013686,827.3527331289093
512.3049853372434,876.5060417433219
513.3059628543499,935.7428632662569
514.3069403714564,983.9205395024745
515.307917888563,1059.2228674408877
516.3088954056695,1155.1560983689872
517.3098729227761,1217.2459047142831
518.3108504398826,1249.1326915164022
519.3118279569892,1289.6446824901964
520.3128054740957,1318.7306527914382
521.3137829912023,1336.9719726690594
522.3147605083088,1319.603845388502
523.3157380254154,1313.3292753208043
524.3167155425219,1327.8127182116848
525.3176930596285,1333.0359107390245
526.318670576735,1322.4429156516917
527.3196480938416,1247.669504751035
528.3206256109481,1178.5904970693803
529.3216031280547,1116.2672917536827
530.3225806451612,1066.9908327880066
531.3235581622678,1042.0282700818348
532.3245356793743,1018.7644081049782
533.3255131964809,1019.4239038973536
534.3264907135874,1072.050457136956
535.327468230694,1127.6768934475917
536.3284457478005,1167.4743034816495
537.3294232649071,1199.2909765280313
538.3304007820136,1209.4344254504817
539.3313782991202,1224.2777210171039
540.3323558162267,1178.5741825146797
541.3333333333333,1147.2946442646762
542.3343108504398,1129.5095206038804
543.3352883675464,1102.6031725541745
544.3362658846529,1106.480838351194
545.3372434017595,1097.7294123305826
546.338220918866,1091.9132043260156
547.3391984359725,1068.6698681720586
548.3401759530791,1057.4033632118653
549.3411534701856,1060.603006907303
550.3421309872922,1020.2741735175007
551.3431085043987,1001.6351627167041
552.3440860215054,933.3010271970913
553.345063538612,854.1369141244589
554.3460410557185,792.1283022250486
555.347018572825,742.6613075582258
556.3479960899316,702.6296266377752
557.3489736070381,674.2505705451046
558.3499511241447,647.0485808342578
559.3509286412512,627.6816368200738
560.3519061583578,604.7238694577302
561.3528836754643,588.4876732718112
562.3538611925709,595.7748255692804
563.3548387096774,585.8452143545375
564.355816226784,587.7500569996694
565.3567937438905,579.8770569308311
566.3577712609971,593.7461814499263
567.3587487781036,607.966386207255
568.3597262952102,585.8951044687444
569.3607038123167,569.670887260343
570.3616813294233,585.64484861482
571.3626588465298,610.5760587257903
572.3636363636364,615.6653323565457
573.3646138807429,619.2266110555347
574.3655913978495,637.8477673369817
575.366568914956,638.7963082786637
576.3675464320626,632.1179939172522
577.3685239491691,629.6007536297265
578.3695014662757,619.0719502623236
579.3704789833822,602.4841696568024
580.3714565004888,586.7786868097421
581.3724340175953,572.8186595140636
582.3734115347019,552.4522308334766
583.3743890518084,537.034312135162
584.375366568915,535.691696198815
585.3763440860215,527.0273720287363
586.377321603128,521.3778892717652
587.3782991202346,518.7004482120925
588.3792766373411,482.89382352456465
589.3802541544477,498.2946189088023
590.3812316715542,498.22830795572406
591.3822091886608,485.7354810847299
592.3831867057673,495.60232356400155
593.3841642228739,510.2676391688124
594.3851417399804,479.61869146819373
595.386119257087,468.3243048695193
596.3870967741935,481.316068718175
597.3880742913001,485.8853461089265
598.3890518084066,477.6275526921869
599.3900293255132,479.0052319989339
600.3910068426197,485.4367937656224
601.3919843597263,462.11039072427366
602.3929618768328,434.1510273760151
603.3939393939394,425.64317294345364
604.3949169110459,437.04143049794527
605.3958944281525,451.5654437744564
606.396871945259,448.2957583895987
607.3978494623656,436.23345258869614
608.3988269794721,462.83455443827415
609.3998044965787,459.52746043016464
610.4007820136852,447.9303414570257
611.4017595307918,446.15788147638534
612.4027370478983,457.90190041361416
613.4037145650049,466.9584122377805
614.4046920821114,455.68136891690307
615.405669599218,452.0260675737239
616.4066471163245,456.76492467189473
617.4076246334312,460.10505533780923
618.4086021505377,452.0064050375475
619.4095796676443,453.4999016212071
620.4105571847508,467.1913792486414
621.4115347018574,463.15203049987275
622.4125122189639,478.38466405817076
623.4134897360705,482.6066707406546
624.414467253177,481.2888964240636
625.4154447702836,484.43894640146647
626.4164222873901,489.97013601351824
627.4173998044967,490.4748460587771
628.4183773216032,490.6668550580784
629.4193548387098,494.6716605999387
630.4203323558163,503.8611378568392
631.4213098729228,509.4868712434177
632.4222873900294,511.09565070504084
633.423264907136,512.7697082135566
634.4242424242425,519.1864479021713
635.425219941349,545.3305637891053
636.4261974584556,557.8403397519166
637.4271749755621,562.5195669506963
638.4281524926687,570.793410942353
639.4291300097752,590.7880935743426
640.4301075268818,621.0455427393169
641.4310850439883,653.9692864166516
642.4320625610949,687.2129117587572
643.4330400782014,724.9194817713266
644.434017595308,749.1144710154339
645.4349951124145,786.8140716801726
646.4359726295211,836.4728515181566
647.4369501466276,895.1141744138104
648.4379276637342,986.1004895849326
649.4389051808407,1087.3183088256799
650.4398826979473,1182.9506274473697
651.4408602150538,1289.1295744848403
652.4418377321604,1426.7101037960242
653.4428152492669,1563.4004755380513
654.4437927663735,1698.2258587213119
655.44477028348,1869.8559627197546
656.4457478005866,2028.7057798196063
657.4467253176931,2234.2343715443117
658.4477028347997,2441.750688904287
659.4486803519062,2628.6105273847893
660.4496578690128,2816.910216678512
661.4506353861193,2943.0215944027873
662.4516129032259,2912.877242567792
663.4525904203324,2821.345359203064
664.453567937439,2675.694648379531
665.4545454545455,2478.984121042406
666.455522971652,2277.238780358662
667.4565004887586,2101.499792023649
668.4574780058651,1960.121280665413
669.4584555229717,1869.4129547244531
670.4594330400782,1843.314980907089
671.4604105571848,1846.0474909045902
672.4613880742913,1865.4518801607867
673.4623655913979,1939.0876966854307
674.4633431085044,2028.848965462688
675.464320625611,2104.8742122211797
676.4652981427175,2219.054429446532
677.4662756598241,2402.0091161633472
678.4672531769306,2552.417135139459
679.4682306940372,2741.283702005309
680.4692082111437,2922.120639849735
681.4701857282503,3068.230263539304
682.4711632453568,3173.721885372992
683.4721407624634,3215.2081875087065
684.4731182795699,3162.590072090515
685.4740957966765,3013.373812879172
686.475073313783,2752.1847375998977
687.4760508308896,2460.910412984035
688.4770283479961,2164.350615729521
689.4780058651027,1871.5052173019237
690.4789833822092,1610.287036694699
691.4799608993158,1406.3583068201292
692.4809384164223,1242.1078982480067
693.4819159335289,1122.5829436933086
694.4828934506354,1016.2893540696306
695.483870967742,936.8386658313361
696.4848484848485,852.7401132017101
697.485826001955,776.2213239167672
698.4868035190616,749.6105457183041
699.4877810361681,700.7022680737555
700.4887585532747,658.0694589936942
701.4897360703812,634.2463543778105
702.4907135874878,615.0187966212701
703.4916911045943,593.1933404611992
704.4926686217009,576.9038992649461
705.4936461388074,565.0237794078855
706.494623655914,538.0259476396949
707.4956011730205,530.3702341323791
708.4965786901271,520.8447190861787
709.4975562072336,514.7672567062723
710.4985337243402,505.92673668213547
711.4995112414467,491.49805117098305
712.5004887585533,481.2981224037514
713.5014662756598,488.2564931236204
714.5024437927664,498.06074642823035
715.5034213098729,481.10783428109147
716.5043988269795,475.9932111999007
717.505376344086,476.14113180284284
718.5063538611926,469.09430050647666
719.5073313782991,457.78609916530894
720.5083088954057,453.82579408668033
721.5092864125122,459.1879650937399
722.5102639296188,449.1648769765832
723.5112414467253,442.0236004199412
724.5122189638319,440.47611198851143
725.5131964809384,446.6696384757299
726.514173998045,456.3654588461646
727.5151515151515,458.02039524177695
728.516129032258,451.31937368903516
729.5171065493646,459.4058621021826
730.5180840664711,471.50719788022144
731.5190615835777,464.1766063015485
732.5200391006842,460.87279225297925
733.5210166177908,474.0362040561982
734.5219941348973,491.94337333714157
735.5229716520039,499.82873524880864
736.5239491691104,499.5930096541623
737.524926686217,516.8415396974734
738.5259042033235,524.7872786105191
739.5268817204301,519.5827941222653
740.5278592375366,523.0776771986069
741.5288367546432,530.9769812600927
742.5298142717497,532.0650204016196
743.5307917888563,540.5666093660972
744.5317693059628,564.4457766222383
745.5327468230694,556.3334222448302
746.5337243401759,569.2136951505538
