Raman shift,Intensity
753.60413,1055.79619
755.67159,1055.79619
757.73905,1055.79619
759.80651,1055.79619
761.87398,1056.50427
763.94144,1057.21234
766.0089,1057.21234
768.07636,1057.92041
770.14383,1057.92041
772.21129,1057.92041
774.27875,1057.92041
776.34621,1057.21234
778.41368,1056.50427
780.48114,1055.79619
782.5486,1055.08812
784.61606,1055.08812
786.68353,1055.08812
788.75099,1055.08812
790.81845,1055.08812
792.88591,1055.08812
794.95338,1054.38005
797.02084,1054.38005
799.0883,1054.38005
801.15576,1054.38005
803.22323,1054.38005
805.29069,1054.38005
807.35815,1054.38005
809.42561,1054.38005
811.49308,1054.38005
813.56054,1054.38005
815.628,1054.38005
817.69546,1054.38005
819.76293,1054.38005
821.83039,1054.38005
823.89785,1054.38005
825.96531,1054.38005
828.03278,1054.38005
830.10024,1054.38005
832.1677,1054.38005
834.23516,1054.38005
836.30262,1054.38005
838.37009,1054.38005
840.43755,1054.38005
842.50501,1054.38005
844.57247,1054.38005
846.63994,1053.67197
848.7074,1053.67197
850.77486,1053.67197
852.84232,1053.67197
854.90979,1053.67197
856.97725,1053.67197
859.04471,1053.67197
861.11217,1053.67197
863.17964,1053.67197
865.2471,1053.67197
867.31456,1053.67197
869.38202,1053.67197
871.44949,1053.67197
873.51695,1053.67197
875.58441,1053.67197
877.65187,1053.67197
879.71934,1053.67197
881.7868,1053.67197
883.85426,1053.67197
885.92172,1053.67197
887.98919,1053.67197
890.05665,1053.67197
892.12411,1053.67197
894.19157,1053.67197
896.25904,1053.67197
898.3265,1054.38005
900.39396,1055.08812
902.46142,1055.79619
904.52889,1056.50427
906.59635,1056.50427
908.66381,1055.79619
910.73127,1055.79619
912.79874,1056.50427
914.8662,1056.50427
916.93366,1056.50427
919.00112,1056.50427
921.06859,1056.50427
923.13605,1056.50427
925.20351,1056.50427
927.27097,1056.50427
929.33844,1056.50427
931.4059,1056.50427
933.47336,1056.50427
935.54082,1056.50427
937.60829,1056.50427
939.67575,1057.21234
941.74321,1057.21234
943.81067,1057.21234
945.87814,1057.21234
947.9456,1057.21234
950.01306,1057.21234
952.08052,1056.50427
954.14799,1057.21234
956.21545,1057.21234
958.28291,1057.21234
960.35037,1057.21234
962.41784,1057.21234
964.4853,1057.21234
966.55276,1057.92041
968.62022,1057.92041
970.68769,1057.21234
972.75515,1057.92041
974.82261,1057.92041
976.89007,1057.92041
978.95754,1057.92041
981.025,1057.92041
983.09246,1058.62849
985.15992,1058.62849
987.22739,1057.92041
989.29485,1057.21234
991.36231,1057.21234
991.36231,1056.50427
993.42977,1057.21234
995.49724,1057.92041
995.49724,1057.21234
997.5647,1057.92041
999.63216,1058.62849
999.63216,1059.33656
999.63216,1060.04463
999.63216,1057.92041
1001.69962,1060.04463
1003.76709,1060.75271
1003.76709,1060.04463
1003.76709,1062.16885
1003.76709,1061.46078
1003.76709,1062.87693
1005.83455,1063.585
1005.83455,1062.87693
1007.90201,1063.585
1009.96947,1063.585
1012.03694,1063.585
1014.1044,1063.585
1016.17186,1064.29307
1016.17186,1063.585
1018.23932,1065.70922
1018.23932,1066.4173
1018.23932,1065.00115
1018.23932,1077.74647
1018.23932,1078.45455
1018.23932,1079.16262
1020.30679,1069.95766
1020.30679,1070.66574
1020.30679,1079.87069
1020.30679,1069.24959
1020.30679,1068.54152
1020.30679,1067.83344
1020.30679,1077.0384
1020.30679,1084.11913
1020.30679,1067.12537
1020.30679,1083.41106
1020.30679,1082.70299
1020.30679,1080.57877
1020.30679,1081.28684
1022.37425,1087.6595
1022.37425,1071.37381
1022.37425,1072.08188
1022.37425,1086.95143
1022.37425,1081.99491
1022.37425,1089.07565
1022.37425,1076.33032
1022.37425,1088.36757
1022.37425,1084.82721
1022.37425,1085.53528
1022.37425,1086.24335
1022.37425,1089.78372
1024.44171,1072.78996
1024.44171,1093.32409
1024.44171,1092.61602
1024.44171,1073.49803
1024.44171,1090.49179
1024.44171,1091.19987
1024.44171,1075.62225
1026.50917,1074.2061
1026.50917,1074.91418
1026.50917,1091.90794
1026.50917,1094.74024
1026.50917,1095.44831
1026.50917,1094.03216
1026.50917,1096.86446
1026.50917,1097.57253
1026.50917,1098.2806
1028.57663,1098.98868
1028.57663,1099.69675
1028.57663,1100.40482
1028.57663,1101.1129
1028.57663,1101.82097
1028.57663,1102.52904
1028.57663,1103.23712
1028.57663,1103.94519
1028.57663,1104.65327
1028.57663,1105.36134
1028.57663,1096.15638
1030.6441,1106.77749
1030.6441,1107.48556
1030.6441,1108.19363
1030.6441,1108.90171
1030.6441,1109.60978
1030.6441,1110.31785
1030.6441,1111.02593
1030.6441,1111.734
1030.6441,1112.44207
1030.6441,1106.06941
1032.71156,1113.15015
1032.71156,1114.56629
1032.71156,1113.85822
1032.71156,1115.98244
1032.71156,1116.69051
1032.71156,1117.39859
1034.77902,1118.10666
1034.77902,1118.81474
1034.77902,1119.52281
1034.77902,1120.23088
1034.77902,1123.77125
1034.77902,1121.64703
1034.77902,1122.3551
1034.77902,1123.06318
1034.77902,1115.27437
1036.84648,1120.93896
1036.84648,1125.1874
1036.84648,1125.89547
1036.84648,1126.60354
1036.84648,1127.31162
1036.84648,1128.01969
1036.84648,1128.72776
1036.84648,1129.43584
1036.84648,1130.14391
1036.84648,1130.85198
1036.84648,1124.47932
1038.91395,1132.26813
1038.91395,1132.97621
1038.91395,1134.39235
1038.91395,1131.56006
1038.91395,1135.10043
1038.91395,1135.8085
1040.98141,1136.51657
1040.98141,1137.22465
1040.98141,1137.93272
1040.98141,1138.64079
1040.98141,1139.34887
1040.98141,1140.05694
1040.98141,1133.68428
1043.04887,1141.47309
1043.04887,1142.18116
1043.04887,1140.76501
1043.04887,1143.59731
1043.04887,1144.30538
1043.04887,1145.01346
1045.11633,1145.72153
1045.11633,1146.4296
1045.11633,1147.13768
1045.11633,1147.84575
1045.11633,1148.55382
1045.11633,1149.2619
1045.11633,1149.96997
1045.11633,1142.88923
1047.1838,1151.38612
1047.1838,1152.09419
1047.1838,1152.80226
1047.1838,1150.67804
1049.25126,1153.51034
1051.31872,1154.21841
1051.31872,1153.51034
1053.38618,1154.92648
1053.38618,1154.21841
1055.45365,1156.34263
1055.45365,1155.63456
1057.52111,1157.0507
1057.52111,1156.34263
1059.58857,1157.0507
1059.58857,1157.75878
1061.65603,1157.75878
1061.65603,1158.46685
1061.65603,1157.0507
1063.7235,1156.34263
1063.7235,1155.63456
1063.7235,1154.92648
1063.7235,1154.21841
1063.7235,1158.46685
1065.79096,1153.51034
1067.85842,1152.80226
1067.85842,1149.96997
1069.92588,1149.2619
1069.92588,1150.67804
1069.92588,1152.09419
1071.99335,1148.55382
1071.99335,1147.84575
1071.99335,1151.38612
1071.99335,1145.01346
1071.99335,1145.72153
1074.06081,1146.4296
1074.06081,1144.30538
1074.06081,1143.59731
1074.06081,1142.88923
1074.06081,1142.18116
1074.06081,1141.47309
1074.06081,1137.93272
1074.06081,1147.13768
1076.12827,1140.05694
1076.12827,1138.64079
1076.12827,1140.76501
1076.12827,1137.22465
1076.12827,1136.51657
1076.12827,1135.8085
1076.12827,1139.34887
1078.19573,1134.39235
1078.19573,1133.68428
1078.19573,1132.97621
1078.19573,1132.26813
1078.19573,1131.56006
1078.19573,1130.85198
1078.19573,1130.14391
1078.19573,1135.10043
1080.2632,1128.72776
1080.2632,1128.01969
1080.2632,1127.31162
1080.2632,1126.60354
1080.2632,1125.89547
1080.2632,1125.1874
1080.2632,1124.47932
1080.2632,1123.77125
1080.2632,1129.43584
1080.2632,1119.52281
1082.33066,1122.3551
1082.33066,1120.93896
1082.33066,1120.23088
1082.33066,1121.64703
1082.33066,1118.81474
1082.33066,1118.10666
1082.33066,1117.39859
1082.33066,1113.85822
1082.33066,1123.06318
1084.39812,1115.27437
1084.39812,1114.56629
1084.39812,1116.69051
1084.39812,1113.15015
1084.39812,1112.44207
1084.39812,1111.734
1084.39812,1115.98244
1086.46558,1110.31785
1086.46558,1109.60978
1086.46558,1108.90171
1086.46558,1108.19363
1086.46558,1107.48556
1086.46558,1106.77749
1086.46558,1106.06941
1086.46558,1102.52904
1086.46558,1111.02593
1088.53305,1104.65327
1088.53305,1103.23712
1088.53305,1105.36134
1088.53305,1101.82097
1088.53305,1101.1129
1088.53305,1103.94519
1088.53305,1100.40482
1090.60051,1098.98868
1090.60051,1098.2806
1090.60051,1097.57253
1090.60051,1099.69675
1090.60051,1096.15638
1090.60051,1095.44831
1092.66797,1094.74024
1092.66797,1094.03216
1092.66797,1096.86446
1092.66797,1092.61602
1092.66797,1093.32409
1092.66797,1091.19987
1092.66797,1090.49179
1092.66797,1086.95143
1094.73543,1089.07565
1094.73543,1088.36757
1094.73543,1087.6595
1094.73543,1089.78372
1094.73543,1086.24335
1094.73543,1085.53528
1094.73543,1084.82721
1094.73543,1084.11913
1094.73543,1083.41106
1094.73543,1082.70299
1094.73543,1091.90794
1094.73543,1079.87069
1096.8029,1080.57877
1096.8029,1081.28684
1096.8029,1079.16262
1096.8029,1081.99491
1098.87036,1065.70922
1098.87036,1078.45455
1098.87036,1075.62225
1098.87036,1065.00115
1100.93782,1074.91418
1100.93782,1065.00115
1100.93782,1076.33032
1100.93782,1077.74647
1100.93782,1072.08188
1100.93782,1077.0384
1100.93782,1064.29307
1100.93782,1066.4173
1103.00528,1069.24959
1103.00528,1070.66574
1103.00528,1064.29307
1103.00528,1071.37381
1103.00528,1069.95766
1103.00528,1072.78996
1103.00528,1073.49803
1103.00528,1074.2061
1103.00528,1062.87693
1103.00528,1063.585
1103.00528,1067.12537
1105.07275,1067.83344
1105.07275,1062.16885
1105.07275,1068.54152
1107.14021,1061.46078
1107.14021,1060.75271
1107.14021,1060.04463
1109.20767,1060.04463
1109.20767,1059.33656
1111.27513,1059.33656
1113.3426,1059.33656
1115.41006,1059.33656
1117.47752,1059.33656
1119.54498,1058.62849
1119.54498,1059.33656
1119.54498,1057.21234
1119.54498,1056.50427
1119.54498,1055.79619
1119.54498,1057.92041
1121.61245,1055.79619
1123.67991,1055.08812
1125.74737,1055.08812
1127.81483,1055.08812
1129.8823,1054.38005
1131.94976,1054.38005
1134.01722,1054.38005
1136.08468,1054.38005
1138.15215,1054.38005
1140.21961,1054.38005
1142.28707,1054.38005
1144.35453,1054.38005
1146.422,1054.38005
1148.48946,1054.38005
1150.55692,1054.38005
1152.62438,1053.67197
1154.69185,1053.67197
1156.75931,1053.67197
1158.82677,1053.67197
1160.89423,1053.67197
1162.9617,1053.67197
1165.02916,1054.38005
1167.09662,1055.08812
1169.16408,1055.79619
1171.23155,1056.50427
1173.29901,1056.50427
1175.36647,1056.50427
1177.43393,1056.50427
1179.5014,1056.50427
1181.56886,1056.50427
1183.63632,1056.50427
1185.70378,1056.50427
1187.77125,1056.50427
1189.83871,1056.50427
1191.90617,1056.50427
1193.97363,1056.50427
1196.0411,1056.50427
1198.10856,1056.50427
1200.17602,1056.50427
1202.24348,1056.50427
1204.31095,1056.50427
1206.37841,1056.50427
1208.44587,1056.50427
1210.51333,1056.50427
1212.5808,1056.50427
1214.64826,1056.50427
1216.71572,1056.50427
1218.78318,1056.50427
1220.85064,1056.50427
1222.91811,1056.50427
1224.98557,1056.50427
1227.05303,1056.50427
1229.12049,1056.50427
1231.18796,1056.50427
1233.25542,1056.50427
1235.32288,1056.50427
1237.39034,1056.50427
1239.45781,1056.50427
1241.52527,1056.50427
1243.59273,1056.50427
1245.66019,1056.50427
1247.72766,1056.50427
1249.79512,1056.50427
1251.86258,1056.50427
1253.93004,1056.50427
1255.99751,1056.50427
1258.06497,1056.50427
1260.13243,1056.50427
1262.19989,1056.50427
1264.26736,1056.50427
1266.33482,1056.50427
1268.40228,1056.50427
1270.46974,1056.50427
1272.53721,1056.50427
1274.60467,1056.50427
1276.67213,1056.50427
1278.73959,1056.50427
1280.80706,1056.50427
1282.87452,1056.50427
1284.94198,1056.50427
1287.00944,1056.50427
1289.07691,1056.50427
1291.14437,1056.50427
1293.21183,1056.50427
1295.27929,1056.50427
1297.34676,1056.50427
1299.41422,1056.50427
1301.48168,1056.50427
1303.54914,1056.50427
1305.61661,1056.50427
1307.68407,1056.50427
1309.75153,1056.50427
1311.81899,1056.50427
1313.88646,1056.50427
1315.95392,1056.50427
1318.02138,1056.50427
1320.08884,1056.50427
1322.15631,1056.50427
1324.22377,1056.50427
1326.29123,1057.21234
1328.35869,1057.21234
1330.42616,1057.21234
1332.49362,1057.21234
1334.56108,1057.21234
1336.62854,1057.21234
1338.69601,1056.50427
1340.76347,1057.21234
1342.83093,1057.21234
1344.89839,1057.21234
1346.96586,1057.21234
1349.03332,1057.21234
1351.10078,1057.21234
1353.16824,1057.21234
1355.23571,1057.92041
1357.30317,1057.92041
1359.37063,1057.92041
1361.43809,1057.21234
1363.50556,1057.92041
1365.57302,1057.92041
1367.64048,1057.92041
1369.70794,1057.92041
1371.77541,1057.92041
1373.84287,1057.92041
1375.91033,1057.21234
1377.97779,1056.50427
1380.04526,1057.21234
1380.04526,1056.50427
1382.11272,1057.21234
1384.18018,1057.21234
1384.18018,1057.92041
1386.24764,1057.92041
1388.31511,1058.62849
1388.31511,1057.92041
1390.38257,1059.33656
1390.38257,1058.62849
1392.45003,1060.04463
1392.45003,1060.75271
1392.45003,1061.46078
1392.45003,1062.16885
1392.45003,1062.87693
1392.45003,1059.33656
1394.51749,1063.585
1394.51749,1062.87693
1396.58496,1064.29307
1396.58496,1063.585
1398.65242,1064.29307
1400.71988,1065.00115
1400.71988,1065.70922
1400.71988,1066.4173
1400.71988,1064.29307
1402.78734,1066.4173
1404.85481,1066.4173
1406.92227,1067.12537
1406.92227,1067.83344
1406.92227,1066.4173
1408.98973,1067.83344
1411.05719,1067.83344
1413.12465,1068.54152
1413.12465,1067.83344
1415.19212,1068.54152
1417.25958,1069.24959
1417.25958,1068.54152
1417.25958,1070.66574
1417.25958,1071.37381
1417.25958,1072.08188
1417.25958,1072.78996
1417.25958,1069.95766
1419.32704,1073.49803
1421.3945,1073.49803
1423.46197,1072.78996
1425.52943,1072.08188
1427.59689,1072.08188
1429.66435,1072.78996
1431.73182,1073.49803
1433.79928,1072.78996
1433.79928,1073.49803
1435.86674,1072.78996
1437.9342,1072.08188
1437.9342,1071.37381
1437.9342,1072.78996
1437.9342,1069.95766
1437.9342,1069.24959
1437.9342,1070.66574
1440.00167,1069.24959
1440.00167,1068.54152
1440.00167,1067.12537
1440.00167,1067.83344
1442.06913,1066.4173
1444.13659,1065.70922
1446.20405,1065.70922
1448.27152,1065.70922
1450.33898,1065.70922
1452.40644,1065.70922
1452.40644,1065.00115
1454.4739,1064.29307
1454.4739,1065.00115
1456.54137,1064.29307
1456.54137,1062.87693
1456.54137,1063.585
1458.60883,1062.87693
1460.67629,1062.87693
1462.74375,1062.87693
1462.74375,1062.16885
1464.81122,1061.46078
1464.81122,1062.16885
1466.87868,1060.75271
1466.87868,1061.46078
1466.87868,1060.04463
1466.87868,1058.62849
1466.87868,1057.92041
1466.87868,1059.33656
1468.94614,1057.92041
1471.0136,1057.21234
1473.08107,1057.21234
1475.14853,1057.21234
1477.21599,1057.92041
1479.28345,1058.62849
1481.35092,1059.33656
1483.41838,1059.33656
1485.48584,1059.33656
1487.5533,1058.62849
1489.62077,1058.62849
1491.68823,1059.33656
1493.75569,1060.04463
1495.82315,1060.04463
1497.89062,1060.04463
1499.95808,1060.04463
1502.02554,1060.75271
1504.093,1060.04463
1506.16047,1059.33656
1508.22793,1059.33656
1510.29539,1059.33656
1512.36285,1060.04463
1512.36285,1059.33656
1514.43032,1060.04463
1516.49778,1060.75271
1516.49778,1060.04463
1518.56524,1061.46078
1518.56524,1060.75271
1520.6327,1062.16885
1520.6327,1061.46078
1522.70017,1062.16885
1522.70017,1062.87693
1524.76763,1063.585
1524.76763,1062.87693
1526.83509,1063.585
1528.90255,1063.585
1530.97002,1065.00115
1530.97002,1064.29307
1533.03748,1065.70922
1533.03748,1065.00115
1535.10494,1065.70922
1537.1724,1065.70922
1539.23987,1066.4173
1541.30733,1067.83344
1541.30733,1067.12537
1543.37479,1067.83344
1545.44225,1068.54152
1545.44225,1069.24959
1545.44225,1069.95766
1545.44225,1070.66574
1545.44225,1071.37381
1545.44225,1067.83344
1547.50972,1072.08188
1549.57718,1072.08188
1551.64464,1072.08188
1553.7121,1072.08188
1555.77957,1072.08188
1557.84703,1071.37381
1559.91449,1070.66574
1561.98195,1069.95766
1564.04942,1070.66574
1566.11688,1071.37381
1568.18434,1071.37381
1570.2518,1070.66574
1570.2518,1071.37381
1572.31927,1070.66574
1574.38673,1069.95766
1574.38673,1070.66574
1576.45419,1069.24959
1576.45419,1069.95766
1578.52165,1068.54152
1578.52165,1069.24959
1580.58912,1068.54152
1582.65658,1067.83344
1582.65658,1068.54152
1582.65658,1067.12537
1584.72404,1066.4173
1584.72404,1067.12537
1586.7915,1066.4173
1586.7915,1065.00115
1586.7915,1065.70922
1586.7915,1063.585
1586.7915,1064.29307
1588.85897,1062.87693
1588.85897,1063.585
1590.92643,1062.87693
1592.99389,1062.16885
1592.99389,1061.46078
1592.99389,1062.87693
1595.06135,1061.46078
1597.12882,1060.75271
1597.12882,1061.46078
1599.19628,1060.04463
1599.19628,1060.75271
1601.26374,1060.04463
1603.3312,1059.33656
1603.3312,1060.04463
1605.39867,1058.62849
1605.39867,1059.33656
1607.46613,1058.62849
1609.53359,1057.92041
1609.53359,1058.62849
1611.60105,1057.92041
1613.66851,1057.92041
1615.73598,1057.21234
1615.73598,1057.92041
1617.80344,1057.21234
1619.8709,1057.92041
1621.93836,1058.62849
1624.00583,1059.33656
1626.07329,1059.33656
1628.14075,1058.62849
1630.20821,1059.33656
1632.27568,1059.33656
1634.34314,1059.33656
1636.4106,1058.62849
1638.47806,1058.62849
1640.54553,1058.62849
1642.61299,1058.62849
1644.68045,1058.62849
1646.74791,1058.62849
1648.81538,1058.62849
1650.88284,1058.62849
1652.9503,1057.92041
1655.01776,1057.21234
1657.08523,1056.50427
1659.15269,1055.79619
1661.22015,1055.79619
1663.28761,1055.79619
1665.35508,1055.79619
1667.42254,1055.79619
1669.49,1055.79619
1671.55746,1055.79619
1673.62493,1055.79619
1675.69239,1056.50427
1677.75985,1056.50427
1679.82731,1057.21234
1681.89478,1056.50427
1683.96224,1056.50427
1686.0297,1057.21234
1688.09716,1057.21234
1690.16463,1057.92041
1692.23209,1057.92041
1694.29955,1057.92041
1696.36701,1058.62849
1698.43448,1058.62849
1700.50194,1058.62849
1702.5694,1058.62849
1704.63686,1058.62849
1706.70433,1058.62849
1708.77179,1058.62849
1710.83925,1058.62849
1712.90671,1058.62849
1714.97418,1058.62849
1717.04164,1058.62849
1719.1091,1059.33656
1721.17656,1059.33656
1723.24403,1059.33656
1725.31149,1059.33656
1727.37895,1059.33656
1729.44641,1059.33656
1731.51388,1060.04463
1733.58134,1060.75271
1735.6488,1060.75271
1737.71626,1060.04463
1739.78373,1060.04463
1741.85119,1060.75271
1743.91865,1060.75271
1745.98611,1060.04463
1748.05358,1060.04463
1750.12104,1059.33656
1752.1885,1059.33656
1754.25596,1059.33656
1756.32343,1058.62849
1758.39089,1058.62849
1760.45835,1058.62849
1762.52581,1058.62849
1764.59328,1058.62849
1766.66074,1058.62849
1768.7282,1058.62849
1770.79566,1058.62849
1772.86313,1058.62849
1774.93059,1057.92041
1776.99805,1057.92041
1779.06551,1057.92041
1781.13298,1057.21234
1783.20044,1057.92041
1785.2679,1057.92041
1787.33536,1057.92041
1789.40283,1057.21234
1791.47029,1057.21234
1793.53775,1057.21234
1795.60521,1057.21234
1797.67268,1057.21234
1799.74014,1057.21234
1801.8076,1056.50427
1803.87506,1057.21234
1805.94252,1057.21234
1808.00999,1057.21234
1810.07745,1057.21234
1812.14491,1057.21234
1814.21237,1057.21234
1816.27984,1056.50427
1818.3473,1056.50427
1820.41476,1056.50427
1822.48222,1056.50427
1824.54969,1056.50427
1826.61715,1056.50427
1828.68461,1056.50427
1830.75207,1056.50427
1832.81954,1056.50427
1834.887,1055.79619
1836.95446,1055.08812
1839.02192,1054.38005
1841.08939,1053.67197
1843.15685,1053.67197
1845.22431,1053.67197
1847.29177,1053.67197
1849.35924,1053.67197
1851.4267,1053.67197
1853.49416,1053.67197
1855.56162,1053.67197
1857.62909,1053.67197
1859.69655,1053.67197
1861.76401,1053.67197
1863.83147,1053.67197
1865.89894,1053.67197
1867.9664,1053.67197
1870.03386,1053.67197
1872.10132,1053.67197
1874.16879,1053.67197
1876.23625,1053.67197
1878.30371,1053.67197
1880.37117,1053.67197
1882.43864,1053.67197
1884.5061,1053.67197
1886.57356,1053.67197
1888.64102,1053.67197
1890.70849,1053.67197
1892.77595,1053.67197
1894.84341,1053.67197
1896.91087,1053.67197
1898.97834,1053.67197
1901.0458,1053.67197
1903.11326,1053.67197
1905.18072,1053.67197
1907.24819,1053.67197
1909.31565,1053.67197
1911.38311,1053.67197
1913.45057,1053.67197
1915.51804,1053.67197
1917.5855,1053.67197
1919.65296,1053.67197
1921.72042,1053.67197
1923.78789,1053.67197
1925.85535,1053.67197
1927.92281,1053.67197
1929.99027,1053.67197
1932.05774,1053.67197
1934.1252,1053.67197
1936.19266,1053.67197
1938.26012,1053.67197
1940.32759,1053.67197
1942.39505,1053.67197
1944.46251,1053.67197
1946.52997,1053.67197
1948.59744,1053.67197
1950.6649,1054.38005
1952.73236,1055.08812
1954.79982,1055.79619
1956.86729,1056.50427
1958.93475,1056.50427
1961.00221,1056.50427
1963.06967,1056.50427
1965.13714,1056.50427
1967.2046,1056.50427
1969.27206,1055.79619
1971.33952,1055.08812
1973.40699,1054.38005
1975.47445,1053.67197
1977.54191,1054.38005
1979.60937,1054.38005
1981.67684,1054.38005
1983.7443,1054.38005
1985.81176,1054.38005
1987.87922,1054.38005
1989.94669,1054.38005
1992.01415,1054.38005
1994.08161,1053.67197
1996.14907,1052.9639
1998.21653,1052.9639
2000.284,1052.9639
2002.35146,1052.9639
2004.41892,1052.9639
2006.48638,1052.9639
2008.55385,1052.9639
2010.62131,1052.9639
2012.68877,1052.9639
2014.75623,1052.9639
2016.8237,1052.9639
2018.89116,1052.9639
2020.95862,1052.9639
2023.02608,1052.9639
2025.09355,1053.67197
2027.16101,1053.67197
2029.22847,1053.67197
2031.29593,1053.67197
2033.3634,1053.67197
2035.43086,1053.67197
2037.49832,1053.67197
2039.56578,1053.67197
2041.63325,1053.67197
2043.70071,1053.67197
2045.76817,1053.67197
2047.83563,1053.67197
2049.9031,1053.67197
2051.97056,1053.67197
2054.03802,1053.67197
2056.10548,1053.67197
2058.17295,1053.67197
2060.24041,1053.67197
2062.30787,1053.67197
2064.37533,1053.67197
2066.4428,1053.67197
2068.51026,1053.67197
2070.57772,1053.67197
2072.64518,1053.67197
2074.71265,1053.67197
2076.78011,1053.67197
2078.84757,1053.67197
2080.91503,1053.67197
2082.9825,1053.67197
2085.04996,1053.67197
2087.11742,1053.67197
2089.18488,1053.67197
2091.25235,1053.67197
2093.31981,1053.67197
2095.38727,1053.67197
2097.45473,1053.67197
2099.5222,1053.67197
2101.58966,1053.67197
2103.65712,1053.67197
2105.72458,1053.67197
2107.79205,1053.67197
2109.85951,1053.67197
2111.92697,1053.67197
2113.99443,1053.67197
2116.0619,1053.67197
2118.12936,1053.67197
2120.19682,1053.67197
2122.26428,1053.67197
2124.33175,1054.38005
2126.39921,1054.38005
2128.46667,1054.38005
2130.53413,1054.38005
2132.6016,1054.38005
2134.66906,1054.38005
2136.73652,1054.38005
2138.80398,1054.38005
2140.87145,1055.08812
2142.93891,1055.79619
2145.00637,1056.50427
2147.07383,1057.21234
2149.1413,1057.21234
2151.20876,1057.21234
2153.27622,1057.21234
2155.34368,1057.21234
2157.41115,1056.50427
2159.47861,1056.50427
2161.54607,1056.50427
2163.61353,1056.50427
2165.681,1056.50427
2167.74846,1056.50427
2169.81592,1056.50427
2171.88338,1056.50427
2173.95085,1056.50427
2176.01831,1055.79619
2178.08577,1055.08812
2180.15323,1054.38005
2182.2207,1053.67197
2184.28816,1053.67197
2186.35562,1053.67197
2188.42308,1053.67197
2190.49054,1053.67197
2192.55801,1053.67197
2194.62547,1053.67197
2196.69293,1053.67197
2198.76039,1053.67197
2200.82786,1053.67197
2202.89532,1053.67197
2204.96278,1053.67197
2207.03024,1053.67197
2209.09771,1053.67197
2211.16517,1053.67197
2213.23263,1053.67197
2215.30009,1053.67197
2217.36756,1054.38005
2219.43502,1054.38005
2221.50248,1054.38005
2223.56994,1054.38005
2225.63741,1054.38005
2227.70487,1054.38005
2229.77233,1054.38005
2231.83979,1054.38005
2233.90726,1054.38005
2235.97472,1054.38005
2238.04218,1054.38005
2240.10964,1054.38005
2242.17711,1054.38005
2244.24457,1054.38005
2246.31203,1054.38005
2248.37949,1054.38005
2250.44696,1054.38005
2252.51442,1054.38005
2254.58188,1054.38005
2256.64934,1054.38005
2258.71681,1054.38005
2260.78427,1054.38005
2262.85173,1054.38005
2264.91919,1054.38005
2266.98666,1054.38005
2269.05412,1054.38005
2271.12158,1054.38005
2273.18904,1054.38005
2275.25651,1054.38005
2277.32397,1054.38005
2279.39143,1054.38005
2281.45889,1054.38005
2283.52636,1054.38005
2285.59382,1054.38005
2287.66128,1054.38005
2289.72874,1054.38005
2291.79621,1054.38005
2293.86367,1054.38005
2295.93113,1054.38005
2297.99859,1054.38005
2300.06606,1054.38005
2302.13352,1054.38005
2304.20098,1054.38005
2306.26844,1054.38005
2308.33591,1054.38005
2310.40337,1054.38005
2312.47083,1054.38005
2314.53829,1054.38005
2316.60576,1054.38005
2318.67322,1054.38005
2320.74068,1054.38005
2322.80814,1054.38005
2324.87561,1054.38005
2326.94307,1054.38005
2329.01053,1054.38005
2331.07799,1054.38005
2333.14546,1054.38005
2335.21292,1054.38005
2337.28038,1054.38005
2339.34784,1054.38005
2341.41531,1054.38005
2343.48277,1054.38005
2345.55023,1054.38005
2347.61769,1054.38005
2349.68516,1054.38005
2351.75262,1054.38005
2353.82008,1054.38005
2355.88754,1054.38005
2357.95501,1054.38005
2360.02247,1054.38005
2362.08993,1054.38005
2364.15739,1054.38005
2366.22486,1054.38005
2368.29232,1054.38005
2370.35978,1054.38005
2372.42724,1054.38005
2374.49471,1054.38005
2376.56217,1054.38005
2378.62963,1054.38005
2380.69709,1054.38005
2382.76455,1054.38005
2384.83202,1054.38005
2386.89948,1054.38005
2388.96694,1054.38005
2391.0344,1054.38005
2393.10187,1054.38005
2395.16933,1054.38005
2397.23679,1054.38005
2399.30425,1054.38005
2401.37172,1054.38005
2403.43918,1054.38005
2405.50664,1054.38005
2407.5741,1054.38005
2409.64157,1054.38005
2411.70903,1054.38005
2413.77649,1054.38005
2415.84395,1054.38005
2417.91142,1054.38005
2419.97888,1054.38005
2422.04634,1054.38005
2424.1138,1054.38005
2426.18127,1055.08812
2428.24873,1055.08812
2430.31619,1055.08812
2432.38365,1055.08812
2434.45112,1055.08812
2436.51858,1055.08812
2438.58604,1055.08812
2440.6535,1055.08812
2442.72097,1055.08812
2444.78843,1055.08812
2446.85589,1055.08812
2448.92335,1055.08812
2450.99082,1055.08812
2453.05828,1055.08812
2455.12574,1055.08812
2457.1932,1055.08812
2459.26067,1055.08812
2461.32813,1055.08812
2463.39559,1055.79619
2465.46305,1056.50427
2467.53052,1057.21234
2469.59798,1057.92041
2471.66544,1057.92041
2473.7329,1057.92041
2475.80037,1057.92041
2477.86783,1057.92041
2479.93529,1057.92041
2482.00275,1057.92041
2484.07022,1057.92041
2486.13768,1057.21234
2488.20514,1057.21234
2490.2726,1057.21234
2492.34007,1057.21234
2494.40753,1057.21234
2496.47499,1057.21234
2498.54245,1057.21234
2500.60992,1057.21234
2502.67738,1057.21234
2504.74484,1056.50427
2506.8123,1055.79619
2508.87977,1055.08812
2510.94723,1054.38005
2513.01469,1054.38005
2515.08215,1054.38005
2517.14962,1054.38005
2519.21708,1054.38005
2521.28454,1054.38005
2523.352,1054.38005
2525.41947,1054.38005
2527.48693,1054.38005
2529.55439,1054.38005
2531.62185,1054.38005
2533.68932,1054.38005
2535.75678,1054.38005
2537.82424,1054.38005
2539.8917,1054.38005
2541.95917,1054.38005
2544.02663,1054.38005
2546.09409,1054.38005
2548.16155,1054.38005
2550.22902,1054.38005
2552.29648,1054.38005
2554.36394,1054.38005
2556.4314,1054.38005
2558.49887,1055.08812
2560.56633,1055.79619
2562.63379,1056.50427
2564.70125,1057.21234
2566.76872,1057.21234
2568.83618,1057.21234
2570.90364,1057.21234
2572.9711,1057.21234
2575.03857,1057.21234
2577.10603,1056.50427
2579.17349,1056.50427
2581.24095,1056.50427
2583.30841,1056.50427
2585.37588,1056.50427
2587.44334,1056.50427
2589.5108,1056.50427
2591.57826,1056.50427
2593.64573,1056.50427
2595.71319,1055.79619
2597.78065,1055.08812
2599.84811,1054.38005
2601.91558,1053.67197
2603.98304,1053.67197
2606.0505,1053.67197
2608.11796,1053.67197
2610.18543,1053.67197
2612.25289,1053.67197
2614.32035,1053.67197
2616.38781,1053.67197
2618.45528,1054.38005
2620.52274,1055.08812
2622.5902,1055.79619
2624.65766,1056.50427
2626.72513,1056.50427
2628.79259,1056.50427
2630.86005,1056.50427
2632.92751,1056.50427
2634.99498,1056.50427
2637.06244,1055.79619
2639.1299,1055.08812
2641.19736,1054.38005
2643.26483,1054.38005
2645.33229,1054.38005
2647.39975,1054.38005
2649.46721,1054.38005
2651.53468,1054.38005
2653.60214,1054.38005
2655.6696,1053.67197
2657.73706,1052.9639
2659.80453,1052.9639
2661.87199,1052.9639
2663.93945,1052.9639
2666.00691,1052.9639
2668.07438,1052.9639
2670.14184,1052.9639
2672.2093,1052.9639
2674.27676,1052.9639
2676.34423,1052.9639
2678.41169,1052.9639
2680.47915,1052.9639
2682.54661,1052.9639
2684.61408,1052.9639
2686.68154,1052.9639
2688.749,1052.9639
2690.81646,1052.9639
2692.88393,1052.9639
2694.95139,1052.9639
2697.01885,1052.9639
2699.08631,1052.9639
2701.15378,1052.9639
2703.22124,1053.67197
2705.2887,1053.67197
2707.35616,1053.67197
2709.42363,1053.67197
2711.49109,1053.67197
2713.55855,1053.67197
2715.62601,1053.67197
2717.69348,1053.67197
2719.76094,1053.67197
2721.8284,1053.67197
2723.89586,1053.67197
2725.96333,1053.67197
2728.03079,1053.67197
2730.09825,1053.67197
2732.16571,1053.67197
2734.23318,1053.67197
2736.30064,1053.67197
2738.3681,1053.67197
2740.43556,1053.67197
2742.50303,1053.67197
2744.57049,1053.67197
2746.63795,1053.67197
2748.70541,1053.67197
2750.77288,1053.67197
2752.84034,1053.67197
2754.9078,1053.67197
2756.97526,1053.67197
2759.04273,1053.67197
2761.11019,1054.38005
2763.17765,1054.38005
2765.24511,1054.38005
2767.31258,1054.38005
2769.38004,1054.38005
2771.4475,1054.38005
2773.51496,1054.38005
2775.58242,1054.38005
2777.64989,1054.38005
2779.71735,1054.38005
2781.78481,1054.38005
2783.85227,1054.38005
2785.91974,1054.38005
2787.9872,1054.38005
2790.05466,1054.38005
2792.12212,1054.38005
2794.18959,1054.38005
2796.25705,1054.38005
2798.32451,1054.38005
2800.39197,1054.38005
2802.45944,1054.38005
2804.5269,1054.38005
2806.59436,1054.38005
2808.66182,1054.38005
2810.72929,1054.38005
2812.79675,1054.38005
2814.86421,1054.38005
2816.93167,1054.38005
2818.99914,1055.08812
2821.0666,1055.08812
2823.13406,1055.08812
2825.20152,1055.08812
2827.26899,1055.08812
2829.33645,1055.08812
2831.40391,1055.08812
2833.47137,1055.08812
2835.53884,1055.08812
2837.6063,1055.08812
2839.67376,1055.08812
2841.74122,1055.08812
2843.80869,1055.79619
2845.87615,1055.79619
2847.94361,1055.79619
2850.01107,1055.79619
2852.07854,1055.79619
2854.146,1055.79619
2856.21346,1055.79619
2858.28092,1055.79619
2860.34839,1055.79619
2862.41585,1055.79619
2864.48331,1055.79619
2866.55077,1055.79619
2868.61824,1055.79619
2870.6857,1055.79619
2872.75316,1056.50427
2874.82062,1056.50427
2876.88809,1056.50427
2878.95555,1056.50427
2881.02301,1057.21234
2883.09047,1056.50427
2885.15794,1056.50427
2887.2254,1056.50427
2889.29286,1056.50427
2891.36032,1057.21234
2893.42779,1057.21234
2895.49525,1057.21234
2897.56271,1057.21234
2899.63017,1057.21234
2901.69764,1057.21234
2903.7651,1057.92041
2905.83256,1057.92041
2907.90002,1058.62849
2909.96749,1057.92041
2912.03495,1057.92041
2914.10241,1058.62849
2916.16987,1058.62849
2918.23734,1058.62849
2920.3048,1059.33656
2922.37226,1058.62849
2924.43972,1058.62849
2926.50719,1059.33656
2928.57465,1059.33656
2930.64211,1060.04463
2932.70957,1059.33656
2934.77704,1059.33656
2936.8445,1060.04463
2938.91196,1060.04463
2940.97942,1060.75271
2943.04689,1060.75271
2945.11435,1060.75271
2947.18181,1060.75271
2949.24927,1060.75271
2951.31674,1061.46078
2953.3842,1060.75271
2955.45166,1060.75271
2957.51912,1061.46078
2959.58659,1061.46078
2961.65405,1062.16885
2963.72151,1061.46078
2965.78897,1061.46078
2967.85643,1062.16885
2969.9239,1062.16885
2971.99136,1062.87693
2974.05882,1062.87693
2976.12628,1063.585
2978.19375,1064.29307
2980.26121,1065.00115
2982.32867,1064.29307
2984.39613,1065.00115
2986.4636,1065.00115
2988.53106,1064.29307
2990.59852,1063.585
2992.66598,1064.29307
2994.73345,1064.29307
2996.80091,1064.29307
2998.86837,1064.29307
3000.93583,1065.00115
3003.0033,1065.00115
3005.07076,1065.00115
3007.13822,1065.70922
3009.20568,1066.4173
3011.27315,1066.4173
3013.34061,1066.4173
3015.40807,1067.12537
3017.47553,1067.83344
3019.543,1067.12537
3021.61046,1067.12537
3023.67792,1067.12537
3025.74538,1067.12537
3027.81285,1067.83344
3029.88031,1067.83344
3031.94777,1068.54152
3034.01523,1068.54152
3036.0827,1069.24959
3038.15016,1069.95766
3040.21762,1069.95766
3042.28508,1069.24959
3044.35255,1069.24959
3046.42001,1069.24959
3048.48747,1069.95766
3050.55493,1069.24959
3052.6224,1069.24959
3054.68986,1069.95766
3056.75732,1069.95766
3058.82478,1070.66574
3060.89225,1069.95766
3062.95971,1069.95766
3065.02717,1070.66574
3067.09463,1070.66574
3069.1621,1070.66574
3071.22956,1070.66574
3073.29702,1070.66574
3075.36448,1070.66574
3077.43195,1070.66574
3079.49941,1070.66574
3081.56687,1070.66574
3083.63433,1070.66574
3085.7018,1070.66574
3087.76926,1070.66574
3089.83672,1070.66574
3091.90418,1070.66574
3093.97165,1070.66574
3096.03911,1070.66574
3098.10657,1070.66574
3100.17403,1070.66574
3102.2415,1070.66574
3104.30896,1070.66574
3106.37642,1070.66574
3108.44388,1070.66574
3110.51135,1070.66574
3112.57881,1070.66574
3114.64627,1070.66574
3116.71373,1070.66574
3118.7812,1070.66574
3120.84866,1070.66574
3122.91612,1070.66574
3124.98358,1070.66574
3127.05105,1070.66574
3129.11851,1070.66574
3131.18597,1070.66574
3133.25343,1070.66574
3135.3209,1070.66574
3137.38836,1070.66574
3139.45582,1070.66574
3141.52328,1070.66574
3143.59075,1070.66574
3145.65821,1070.66574
3147.72567,1070.66574
3149.79313,1070.66574
3151.8606,1070.66574
3153.92806,1070.66574
3155.99552,1070.66574
3158.06298,1070.66574
3160.13044,1070.66574
3162.19791,1070.66574
3164.26537,1070.66574
3166.33283,1071.37381
3168.40029,1071.37381
3170.46776,1071.37381
3172.53522,1071.37381
3174.60268,1071.37381
3176.67014,1071.37381
3178.73761,1071.37381
3180.80507,1071.37381
3182.87253,1071.37381
3184.93999,1071.37381
3187.00746,1071.37381
3189.07492,1071.37381
3191.14238,1071.37381
3193.20984,1071.37381
3195.27731,1071.37381
3197.34477,1071.37381
3199.41223,1071.37381
3201.47969,1071.37381
3203.54716,1071.37381
3205.61462,1071.37381
3207.68208,1071.37381
3209.74954,1072.08188
3211.81701,1072.08188
3213.88447,1072.08188
3215.95193,1072.08188
3218.01939,1072.08188
3220.08686,1072.08188
3222.15432,1072.08188
3224.22178,1072.08188
3226.28924,1072.08188
3228.35671,1072.08188
3230.42417,1072.08188
3232.49163,1072.08188
3234.55909,1072.08188
3236.62656,1072.78996
3238.69402,1072.78996
3240.76148,1072.78996
3242.82894,1072.78996
3244.89641,1072.78996
3246.96387,1072.78996
3249.03133,1072.78996
3251.09879,1072.78996
3253.16626,1072.78996
3255.23372,1072.78996
3257.30118,1072.78996
3259.36864,1072.78996
3261.43611,1072.78996
3263.50357,1073.49803
3265.57103,1073.49803
3267.63849,1073.49803
3269.70596,1073.49803
3271.77342,1073.49803
3273.84088,1073.49803
3275.90834,1073.49803
3277.97581,1073.49803
3280.04327,1073.49803
3282.11073,1073.49803
3284.17819,1073.49803
3286.24566,1073.49803
3288.31312,1074.2061
3290.38058,1074.2061
3292.44804,1074.2061
3294.51551,1074.2061
3296.58297,1074.2061
3298.65043,1074.2061
3300.71789,1074.2061
3302.78536,1074.2061
3304.85282,1074.2061
3306.92028,1074.2061
3308.98774,1074.2061
3311.05521,1074.2061
3313.12267,1074.2061
3315.19013,1074.91418
3317.25759,1074.91418
3319.32506,1074.91418
3321.39252,1074.91418
3323.45998,1074.91418
3325.52744,1074.91418
3327.59491,1074.91418
3329.66237,1074.91418
3331.72983,1075.62225
3333.79729,1076.33032
3335.86476,1075.62225
3337.93222,1075.62225
3339.99968,1076.33032
3342.06714,1076.33032
3344.13461,1076.33032
3346.20207,1077.0384
3348.26953,1077.0384
3350.33699,1077.0384
3352.40445,1078.45455
3352.40445,1079.16262
3352.40445,1077.74647
3352.40445,1080.57877
3352.40445,1079.87069
3354.47192,1081.28684
3356.53938,1081.28684
3358.60684,1081.99491
3360.6743,1081.99491
3362.74177,1081.99491
3364.80923,1081.99491
3366.87669,1082.70299
3366.87669,1083.41106
3366.87669,1081.99491
3368.94415,1083.41106
3371.01162,1084.11913
3371.01162,1083.41106
3373.07908,1084.11913
3375.14654,1084.82721
3375.14654,1084.11913
3377.214,1085.53528
3377.214,1084.82721
3379.28147,1086.24335
3379.28147,1085.53528
3381.34893,1086.95143
3381.34893,1086.24335
3383.41639,1086.95143
3385.48385,1086.95143
3387.55132,1087.6595
3387.55132,1088.36757
3387.55132,1086.95143
3389.61878,1089.07565
3389.61878,1088.36757
3391.68624,1089.78372
3391.68624,1089.07565
3393.7537,1089.78372
3395.82117,1089.78372
3397.88863,1089.78372
3399.95609,1090.49179
3399.95609,1089.78372
3402.02355,1091.19987
3402.02355,1091.90794
3402.02355,1090.49179
3404.09102,1092.61602
3404.09102,1091.90794
3404.09102,1094.03216
3404.09102,1094.74024
3404.09102,1093.32409
3406.15848,1094.74024
3406.15848,1101.1129
3408.22594,1096.15638
3408.22594,1097.57253
3408.22594,1096.86446
3408.22594,1100.40482
3408.22594,1095.44831
3408.22594,1102.52904
3408.22594,1101.82097
3408.22594,1103.23712
3410.2934,1098.2806
3410.2934,1098.98868
3410.2934,1097.57253
3410.2934,1103.94519
3410.2934,1104.65327
3410.2934,1105.36134
3410.2934,1099.69675
3412.36087,1106.06941
3414.42833,1106.77749
3414.42833,1111.02593
3414.42833,1111.734
3416.49579,1112.44207
3416.49579,1113.15015
3416.49579,1110.31785
3416.49579,1109.60978
3416.49579,1107.48556
3418.56325,1108.19363
3418.56325,1113.85822
3418.56325,1114.56629
3418.56325,1115.27437
3418.56325,1108.90171
3420.63072,1116.69051
3420.63072,1117.39859
3420.63072,1115.98244
3422.69818,1118.81474
3422.69818,1119.52281
3422.69818,1118.10666
3424.76564,1120.23088
3424.76564,1121.64703
3424.76564,1122.3551
3424.76564,1123.06318
3424.76564,1123.77125
3424.76564,1120.93896
3426.8331,1125.1874
3426.8331,1124.47932
3428.90057,1125.89547
3428.90057,1126.60354
3430.96803,1128.01969
3430.96803,1128.72776
3430.96803,1129.43584
3430.96803,1127.31162
3433.03549,1129.43584
3435.10295,1129.43584
3437.17042,1130.14391
3437.17042,1130.85198
3437.17042,1131.56006
3437.17042,1132.26813
3437.17042,1132.97621
3437.17042,1129.43584
3439.23788,1132.97621
3441.30534,1133.68428
3441.30534,1132.97621
3443.3728,1133.68428
3445.44027,1132.97621
3447.50773,1132.26813
3449.57519,1132.26813
3449.57519,1132.97621
3449.57519,1130.85198
3449.57519,1131.56006
3451.64265,1130.85198
3451.64265,1129.43584
3451.64265,1128.72776
3451.64265,1130.14391
3453.71012,1128.01969
3453.71012,1128.72776
3453.71012,1127.31162
3455.77758,1127.31162
3457.84504,1125.1874
3457.84504,1127.31162
3457.84504,1125.89547
3457.84504,1126.60354
3459.9125,1124.47932
3459.9125,1123.77125
3459.9125,1127.31162
3461.97997,1122.3551
3461.97997,1123.06318
3464.04743,1121.64703
3466.11489,1118.81474
3466.11489,1120.93896
3468.18235,1120.23088
3468.18235,1119.52281
3468.18235,1118.10666
3470.24982,1117.39859
3472.31728,1116.69051
3472.31728,1113.15015
3472.31728,1108.90171
3472.31728,1113.85822
3472.31728,1108.19363
3474.38474,1112.44207
3474.38474,1115.98244
3474.38474,1114.56629
3474.38474,1107.48556
3474.38474,1109.60978
3474.38474,1115.27437
3476.4522,1111.734
3476.4522,1110.31785
3476.4522,1106.77749
3476.4522,1106.06941
3476.4522,1103.94519
3478.51967,1104.65327
3478.51967,1105.36134
3478.51967,1103.23712
3478.51967,1102.52904
3478.51967,1101.82097
3478.51967,1111.02593
3480.58713,1100.40482
3480.58713,1101.1129
3480.58713,1099.69675
3482.65459,1098.2806
3482.65459,1097.57253
3482.65459,1098.98868
3484.72205,1096.15638
3484.72205,1096.86446
3486.78952,1096.15638
3486.78952,1095.44831
3488.85698,1094.03216
3488.85698,1094.74024
3488.85698,1095.44831
3488.85698,1096.15638
3488.85698,1093.32409
3490.92444,1091.19987
3490.92444,1092.61602
3490.92444,1091.90794
3490.92444,1096.15638
3490.92444,1093.32409
3492.9919,1094.03216
3492.9919,1093.32409
3492.9919,1091.19987
3492.9919,1096.15638
3492.9919,1090.49179
3492.9919,1095.44831
3495.05937,1094.74024
3495.05937,1093.32409
3495.05937,1089.07565
3495.05937,1089.78372
3495.05937,1095.44831
3495.05937,1088.36757
3497.12683,1092.61602
3497.12683,1088.36757
3497.12683,1093.32409
3499.19429,1091.90794
3499.19429,1087.6595
3499.19429,1092.61602
3499.19429,1088.36757
3499.19429,1086.95143
3499.19429,1086.24335
3501.26175,1086.24335
3501.26175,1091.19987
3501.26175,1085.53528
3501.26175,1084.82721
3501.26175,1090.49179
3501.26175,1089.07565
3501.26175,1089.78372
3503.32922,1084.82721
3503.32922,1088.36757
3503.32922,1084.11913
3505.39668,1088.36757
3505.39668,1087.6595
3505.39668,1083.41106
3505.39668,1084.11913
3507.46414,1086.95143
3507.46414,1086.24335
3507.46414,1087.6595
3507.46414,1083.41106
3509.5316,1083.41106
3509.5316,1086.24335
3511.59907,1085.53528
3511.59907,1082.70299
3513.66653,1082.70299
3513.66653,1081.99491
3513.66653,1081.28684
3513.66653,1080.57877
3513.66653,1079.87069
3513.66653,1084.82721
3515.73399,1079.16262
3515.73399,1079.87069
3515.73399,1084.11913
3515.73399,1083.41106
3517.80145,1079.16262
3517.80145,1082.70299
3519.86892,1081.99491
3519.86892,1079.16262
3521.93638,1079.16262
3521.93638,1077.0384
3521.93638,1077.74647
3521.93638,1078.45455
3521.93638,1081.99491
3524.00384,1081.99491
3524.00384,1077.0384
3526.0713,1081.28684
3526.0713,1081.99491
3526.0713,1077.0384
3528.13877,1077.0384
3528.13877,1081.28684
3528.13877,1080.57877
3530.20623,1076.33032
3530.20623,1077.0384
3530.20623,1079.16262
3530.20623,1079.87069
3530.20623,1080.57877
3532.27369,1078.45455
3532.27369,1076.33032
3534.34115,1076.33032
3534.34115,1077.74647
3536.40862,1077.0384
3536.40862,1077.74647
3536.40862,1076.33032
3536.40862,1074.91418
3536.40862,1075.62225
3538.47608,1077.0384
3538.47608,1076.33032
3538.47608,1074.91418
3538.47608,1074.2061
3540.54354,1074.2061
3540.54354,1073.49803
3540.54354,1075.62225
3540.54354,1076.33032
3542.611,1073.49803
3542.611,1072.78996
3544.67846,1072.78996
3546.74593,1072.78996
3548.81339,1072.08188
3548.81339,1071.37381
3550.88085,1071.37381
3552.94831,1070.66574
3552.94831,1071.37381
3555.01578,1069.95766
3555.01578,1070.66574
3557.08324,1069.95766
3559.1507,1069.24959
3559.1507,1069.95766
3561.21816,1068.54152
3563.28563,1068.54152
3565.35309,1068.54152
3567.42055,1067.83344
3569.48801,1067.12537
3569.48801,1067.83344
3571.55548,1067.12537
3573.62294,1067.12537
3573.62294,1065.70922
3573.62294,1066.4173
3575.6904,1065.70922
3577.75786,1065.70922
3579.82533,1065.70922
3579.82533,1065.00115
3579.82533,1064.29307
3581.89279,1064.29307
3581.89279,1062.87693
3581.89279,1063.585
3581.89279,1062.16885
3583.96025,1062.16885
3586.02771,1062.16885
3588.09518,1062.16885
3590.16264,1062.87693
3592.2301,1063.585
3594.29756,1062.87693
3596.36503,1062.87693
3598.43249,1062.87693
3600.49995,1062.87693
3602.56741,1062.87693
3604.63488,1062.87693
3606.70234,1062.16885
3608.7698,1062.16885
3610.83726,1062.16885
3612.90473,1062.16885
3614.97219,1062.16885
3617.03965,1061.46078
3619.10711,1060.75271
3621.17458,1061.46078
3623.24204,1061.46078
3625.3095,1061.46078
3627.37696,1060.75271
3629.44443,1061.46078
3631.51189,1061.46078
3633.57935,1061.46078
3635.64681,1060.75271
3637.71428,1060.75271
3639.78174,1060.75271
3641.8492,1060.75271
3643.91666,1060.75271
3645.98413,1060.75271
3648.05159,1060.04463
3650.11905,1060.04463
3652.18651,1060.04463
3654.25398,1059.33656
3656.32144,1060.04463
3658.3889,1060.04463
3660.45636,1060.04463
3662.52383,1059.33656
3664.59129,1059.33656
3666.65875,1059.33656
3668.72621,1059.33656
3670.79368,1059.33656
3672.86114,1059.33656
3674.9286,1059.33656
3676.99606,1059.33656
3679.06353,1058.62849
3681.13099,1058.62849
3683.19845,1058.62849
3685.26591,1058.62849
3687.33338,1058.62849
3689.40084,1058.62849
3691.4683,1058.62849
3693.53576,1058.62849
3695.60323,1058.62849
3697.67069,1058.62849
3699.73815,1057.92041
3701.80561,1057.92041
3703.87308,1057.92041
3705.94054,1057.92041
3708.008,1057.92041
3710.07546,1057.92041
3712.14293,1057.92041
3714.21039,1057.92041
3716.27785,1057.21234
3718.34531,1057.21234
3720.41278,1057.21234
3722.48024,1057.21234
3724.5477,1057.21234
3726.61516,1057.21234
3728.68263,1057.21234
3730.75009,1057.21234
3732.81755,1056.50427
3734.88501,1057.21234
3736.95248,1057.21234
3739.01994,1057.21234
3741.0874,1057.21234
3743.15486,1057.21234
3745.22232,1057.21234
3747.28979,1057.21234
3749.35725,1056.50427
3751.42471,1056.50427
3753.49217,1056.50427
3755.55964,1056.50427
3757.6271,1056.50427
3759.69456,1056.50427
3761.76202,1056.50427
3763.82949,1056.50427
3765.89695,1056.50427
3767.96441,1055.79619
3770.03187,1055.08812
3772.09934,1054.38005
3774.1668,1053.67197
3776.23426,1053.67197
3778.30172,1053.67197
3780.36919,1053.67197
3782.43665,1053.67197
3784.50411,1053.67197
3786.57157,1053.67197
3788.63904,1053.67197
3790.7065,1053.67197
3792.77396,1053.67197
3794.84142,1053.67197
3796.90889,1053.67197
3798.97635,1053.67197
3801.04381,1053.67197
3803.11127,1053.67197
3805.17874,1053.67197
3807.2462,1053.67197
3809.31366,1053.67197
3811.38112,1053.67197
3813.44859,1053.67197
3815.51605,1053.67197
3817.58351,1053.67197
3819.65097,1053.67197
3821.71844,1053.67197
3823.7859,1053.67197
3825.85336,1053.67197
3827.92082,1053.67197
3829.98829,1053.67197
3832.05575,1053.67197
3834.12321,1053.67197
3836.19067,1053.67197
3838.25814,1053.67197
3840.3256,1053.67197
3842.39306,1053.67197
3844.46052,1053.67197
3846.52799,1053.67197
3848.59545,1053.67197
3850.66291,1053.67197
3852.73037,1053.67197
3854.79784,1053.67197
3856.8653,1053.67197
3858.93276,1053.67197
3861.00022,1053.67197
3863.06769,1053.67197
3865.13515,1053.67197
3867.20261,1053.67197
3869.27007,1053.67197
3871.33754,1053.67197
3873.405,1053.67197
3875.47246,1053.67197
3877.53992,1053.67197
3879.60739,1053.67197
3881.67485,1053.67197
3883.74231,1053.67197
3885.80977,1053.67197
3887.87724,1053.67197
3889.9447,1053.67197
3892.01216,1053.67197
3894.07962,1053.67197
3896.14709,1053.67197
3898.21455,1053.67197
3900.28201,1053.67197
3902.34947,1053.67197
3904.41694,1053.67197
3906.4844,1053.67197
3908.55186,1053.67197
3910.61932,1053.67197
3912.68679,1053.67197
3914.75425,1053.67197
3916.82171,1053.67197
3918.88917,1053.67197
3920.95664,1053.67197
3923.0241,1053.67197
3925.09156,1053.67197
3927.15902,1053.67197
3929.22649,1053.67197
3931.29395,1053.67197
3933.36141,1053.67197
3935.42887,1053.67197
3937.49633,1053.67197
3939.5638,1053.67197
3941.63126,1053.67197
3943.69872,1053.67197
3945.76618,1053.67197
3947.83365,1053.67197
3949.90111,1053.67197
3951.96857,1053.67197
3954.03603,1053.67197
3956.1035,1053.67197
3958.17096,1053.67197
3960.23842,1053.67197
3962.30588,1053.67197
3964.37335,1053.67197
3966.44081,1053.67197
3968.50827,1053.67197
3970.57573,1053.67197
3972.6432,1053.67197
3974.71066,1053.67197
3976.77812,1053.67197
3978.84558,1053.67197
3980.91305,1053.67197
3982.98051,1053.67197
3985.04797,1053.67197
3987.11543,1054.38005
3989.1829,1055.08812
3991.25036,1055.08812
3993.31782,1055.08812
3995.38528,1055.08812
3997.45275,1055.08812
3999.52021,1055.08812
4001.58767,1055.08812
4003.65513,1055.08812
4005.7226,1055.08812
