Raman Shift,Intensity
214.3785040343428,263.982
224.78145843945092,290.381
235.01908334044856,68.635
245.41130867789616,-68.635
255.63837774522108,-100.313
265.8602158678186,21.119
276.23642015571386,213.826
286.44772684514464,-158.389
296.8132434111685,-63.356
307.0140349346475,-15.839
317.209615658554,76.555
327.399989574551,108.233
337.7442627077253,10.559
347.9241537664129,-5.28
358.09885002992814,-81.835
368.2683554736213,-97.673
378.5914504125685,21.119
388.7505051753542,-92.394
398.90438108190574,150.47
409.0530820913264,42.237
419.196612158652,-216.466
429.3349752349313,31.678
439.626465572117,-76.555
449.75442592354375,23.758
459.8772311743669,142.55
469.994885259468,52.796
480.1073921097559,110.873
490.2147556521086,353.736
500.31697980943136,263.982
510.41406850063504,190.067
520.5060256406359,256.063
530.5928551403995,493.647
540.6745609068894,353.736
550.7511468431039,298.3
560.8226168481124,356.376
570.888974816975,211.186
580.9502246408374,306.22
590.8492821665859,480.448
600.9004070215597,234.944
610.9464353206786,557.003
620.9873709393651,427.651
631.0232177491416,934.498
641.0539796175653,1491.5
650.9230482019848,1663.089
660.9437310766662,1763.402
670.9593405290361,567.562
680.9698804110958,535.884
690.8190579752118,575.482
700.8195493193562,459.329
710.8149825658329,356.376
720.805361551138,459.329
730.6347081696804,195.347
740.6150689503047,366.935
750.4345613154874,324.698
760.404918953056,390.694
770.3702413346182,351.097
780.174941402227,42.237
790.1302832356378,422.372
799.925166080895,303.58
809.8705423523497,432.931
819.6556227125038,570.202
829.5910483782136,422.372
839.3663409610526,446.13
849.2918309472952,364.296
859.0573504311833,219.105
868.972919634427,425.012
878.7286806683987,216.466
888.6343439553166,401.253
898.3803611591502,443.49
908.12155022542,274.542
918.0124213310264,586.041
927.743888384779,316.779
937.4705381077074,229.665
947.3466501411676,261.343
957.0635996041163,401.253
966.7757425107702,440.851
976.6371284824854,791.947
986.3395928168538,786.667
996.0372613373548,889.621
1005.7301375988682,1306.713
1015.5719657306544,1430.784
1025.255192198514,897.54
1034.9336371072422,741.79
1044.6073039976543,491.007
1054.2761964070742,411.812
1063.9403178693246,485.728
1073.5996719147442,300.94
1083.4074711432768,535.884
1093.057225399156,522.685
1102.70222286418,242.864
1112.3424670547538,311.499
1121.9779614837898,446.13
1131.6087096607444,427.651
1141.2347150916105,446.13
1150.855981278939,454.05
1160.4725117218331,240.224
1170.0843099159465,298.3
1179.6913793534914,182.148
1189.293723523253,493.647
1198.739039559725,314.139
1208.3320185130287,359.016
1217.9202825891407,530.605
1227.5038352631818,369.575
1237.0826800068826,295.66
1246.6568202885535,250.783
1256.226259573108,227.025
1265.639216696829,179.508
1275.1993388504195,248.143
1284.7547703264208,369.575
1294.3055145761757,353.736
1303.7000868433097,116.152
1313.241541245312,76.555
1322.778318700337,87.114
1332.310422646282,145.19
1341.686663866676,234.944
1351.2095051416618,131.991
1360.727683146746,274.542
1370.0902294598782,295.66
1379.5991650801443,200.627
1388.9526223370776,211.186
1398.4523290278594,31.678
1407.7967104575073,446.13
1417.287201648047,81.835
1426.7730533080105,393.334
1436.1038095471376,42.237
1445.5804658554116,192.707
1454.9021792800197,285.101
1464.369653600741,340.537
1473.6823373500883,916.019
1482.9905472474493,242.864
1492.444310209452,195.347
1501.7435100404182,224.385
1511.1881242589734,105.593
1520.4783270994303,266.622
1529.764072276041,124.072
1539.1950247490097,102.953
1548.4717924494323,113.512
1557.7441121511074,343.177
1567.1614324998736,303.58
1576.4247941832873,335.258
1585.6837175051332,105.593
1594.9382056544855,258.703
1604.3374199708342,203.266
1613.5829759239496,192.707
1622.8241063047317,92.394
1632.0608142900164,158.389
1641.2931030535765,211.186
1650.6697762525291,245.504
1659.8931649322622,242.864
1669.1121439444323,285.101
1678.3267164506542,-68.635
1687.53688560953,205.906
1696.7426545766284,504.206
1705.9440265045123,176.868
1715.1410045427183,477.808
1724.3335918377925,174.228
1733.5217915332687,211.186
1742.705606769683,293.02
1751.8850406845886,208.546
1761.0600964125188,153.11
1770.230777085024,176.868
1779.397085830693,229.665
1788.55902577511,261.343
1797.7166000408906,213.826
1806.8698117476447,50.157
1816.0186640120735,366.935
1825.163159947857,166.309
1834.1559155330324,134.631
1843.29177827917,171.589
1852.4232939699289,47.517
1861.550465707216,-5.28
1870.673296589972,50.157
1879.644751645923,0.0
1888.758979994156,-13.199
1897.8688767172423,118.792
1906.974444902422,258.703
1915.9289277003045,44.877
1925.025917750907,126.712
1934.118588458099,92.394
1943.060390766601,176.868
1952.144501554074,137.271
1961.2243021666216,65.996
1970.153450902042,116.152
1979.224709758193,10.559
1988.1454604369865,176.868
1997.208189584475,100.313
2006.120554048888,110.873
2015.1747655127983,102.953
2024.0787555828572,232.304
2033.12446136566,176.868
2042.0200888391555,-237.584
2051.057300920809,76.555
2059.9445775734057,108.233
2068.9733079113576,274.542
2077.852245496608,195.347
2086.8725060258803,89.754
2095.743116275291,256.063
2104.6096010526526,187.427
2113.6172135316083,253.423
2122.4753884816528,97.673
2131.329446630596,211.186
2140.324437642892,153.11
2149.170203423979,155.75
2158.011861050589,60.716
2166.994257105456,171.589
2175.8276397748195,232.304
2184.656922912145,142.55
2193.48210937062,147.83
2202.303202000803,147.83
2211.2647105948345,240.224
2220.077557114586,192.707
2228.886318388424,298.3
2237.6909972563008,208.546
2246.4915965555265,200.627
2255.2881191208,166.309
2264.0805677841927,234.944
2272.8689453751285,242.864
2281.6532547204406,322.058
2290.5774032157133,211.186
2299.353517963282,84.474
2308.125572976198,205.906
2316.893571070781,187.427
2325.6575150607823,124.072
2334.273835606975,182.148
2343.029746164546,234.944
2351.781610997117,200.627
2360.5294329081007,110.873
2369.273214698267,153.11
2378.0129591658333,200.627
2386.7486691064114,227.025
2395.48034731306,150.47
2404.2079965762314,541.164
2412.788641914361,87.114
2421.5083075861257,562.282
2430.2239526247795,161.029
2438.9355798105607,279.821
2447.64319192111,84.474
2456.204142101211,73.915
2464.9037980916983,250.783
2473.5994472792227,176.868
2482.148638712344,168.949
2490.836348166158,34.318
2499.5200590665554,73.915
2508.0575159626023,208.546
2516.7333034706826,139.911
2525.405100652257,285.101
2533.930847154741,184.788
2542.5947372405863,158.389
2551.112711590584,139.911
2559.768705390503,-108.233
2568.2789182109263,274.542
2576.927026515033,155.75
2585.5711635713087,155.75
2594.069721988235,89.754
2602.5644435408976,76.555
2611.196813145194,211.186
2619.683804921093,287.741
2628.3083212822166,163.669
2636.7875938271245,108.233
2645.404267656864,184.788
2653.875831497382,401.253
2662.343576738021,285.101
2670.948539131641,282.461
2679.408591378582,113.512
2687.8648328054915,419.732
2696.4581076233444,158.389
2704.906671724595,179.508
2713.351432764532,203.266
2721.792393310454,2.64
2730.370143142005,52.796
2738.8034471581705,197.987
2747.232958411034,81.835
2755.658679458633,97.673
2764.220946338093,245.504
2772.639031576786,60.716
2781.053334313052,71.275
2789.463857095703,116.152
2797.8706024712737,131.991
2806.2735729839987,258.703
2814.672771175843,97.673
2823.0681995864725,242.864
2831.459860753297,-10.559
2839.847757211428,158.389
2848.231891493713,176.868
2856.612266130724,211.186
2864.988883650767,110.873
2873.3617465798743,219.105
2881.7308574418275,121.432
2890.096218758139,161.029
2898.457833048058,110.873
2906.815702828586,-7.919
2915.169830614461,73.915
2923.5202189181878,-65.996
2931.8668702499926,293.02
2940.209787117892,208.546
2948.41001618022,89.754
2956.7455337723804,166.309
2965.077324369493,139.911
2973.405390470638,258.703
2981.7297345726547,-87.114
2989.9117125592966,161.029
2998.2286820744484,388.054
3006.5419370261297,324.698
3014.8514799023105,192.707
3023.0189130185245,295.66
3031.3211009634906,248.143
3039.619584242202,329.978
3047.776149306213,253.423
3056.067292329164,208.546
3064.2166442633534,293.02
3072.500456765243,232.304
3080.780576892153,190.067
3088.919096831967,380.135
3097.1919010483834,176.868
3105.3232317767324,224.385
3113.588729774354,369.575
3121.712880813,377.495
3129.9710822664056,221.745
3138.0880631202745,488.367
3146.338977686973,359.016
3154.448797844241,504.206
3162.692435164703,644.117
3170.7951040967964,527.965
3178.894230970407,496.287
3187.127000956163,760.269
3195.218990740796,520.045
3203.3074454664093,530.605
3211.5293695924192,308.859
3219.610701328027,615.079
3227.688504985643,688.994
3235.899604670318,509.486
3243.9702993997853,472.528
3252.03747301393,285.101
3260.1011278165533,456.689
3268.297848330192,514.766
3276.354412870096,446.13
3284.407465536773,417.092
3292.4570086259846,343.177
3300.5030444314834,448.77
3308.545575245,459.329
3316.720827896272,564.922
3324.756296283769,472.528
3332.788266581294,501.566
3340.816741072602,422.372
3348.8417220394404,340.537
3356.8632117615925,504.206
3364.8812125168406,567.562
3372.895726580995,517.405
3380.906756227865,395.974
3388.91430372934,586.041
3396.918371355256,628.278
3404.9189613735507,509.486
3412.9160760501472,491.007
3420.909717649003,430.291
3428.8998884321263,380.135
3436.886590659553,493.647
3444.734546370892,411.812
3452.714376952972,525.325
3460.690745709508,480.448
3468.663654892749,269.262
3476.633106752961,308.859
3484.5991035384795,324.698
3492.4267178764712,250.783
3500.385869715596,369.575
3508.341573175334,171.589
3516.293830496281,234.944
3524.1079469444667,411.812
3532.0533770164475,277.181
3539.9953676218797,258.703
3547.7993978646555,211.186
3555.734574435446,250.783
3563.666318194715,279.821
3571.460281747888,-23.758
3579.385224652753,-13.199
3587.30674138396,324.698
3595.090657713052,253.423
3603.00538673612,245.504
3610.782634691175,263.982
3618.6905847266535,153.11
3626.461172873067,256.063
3634.362352626544,182.148
3642.1262895150494,205.906
3650.020707677235,319.419
3657.778001843908,116.152
3665.665667090652,356.376
3673.416327056992,121.432
3681.163701429177,182.148
3689.041282322214,81.835
3696.782035212709,190.067
3704.6528847781447,118.792
3712.3870246721344,52.796
3720.117889469839,161.029
3727.845481251112,200.627
3735.702951367959,414.452
3743.4239470074463,248.143
3751.141675895298,184.788
3758.989119491133,-2.64
3766.700264858686,197.987
3774.408149723422,105.593
3782.1127761528696,208.546
3789.814146212797,174.228
3797.644959575024,34.318
3805.339767031168,89.754
3813.03132434014,176.868
3820.7196335607214,232.304
3828.404696749953,137.271
3836.086515963114,237.584
3843.76509325378,316.779
3851.4404306737633,113.512
3859.112530273167,-52.796
3866.7813941003615,163.669
3874.4470242019815,63.356
3882.109422622947,155.75
3889.7685914064414,271.902
3897.4245325939337,102.953
3905.0772482251705,116.152
3912.7267403381848,5.28
3920.373010969284,36.958
3928.016062153074,121.432
3935.655895922435,290.381
3943.292514308545,5.28
3950.925919340858,303.58
3958.424585178429,34.318
3966.051624900327,-89.754
3973.675457311714,118.792
3981.296084435249,-21.119
3988.913508291902,118.792
3996.396478310664,197.987
4004.007556831755,29.038
4011.615438103967,369.575
4019.220124141517,216.466
4026.690583777876,182.148
4034.288940385857,179.257
4041.8841077570687,157.859
4049.3452186808136,124.658
4056.934068499933,86.349
4064.519735065173,49.639
4071.971514814119,21.226
4079.550875675057,7.817
4086.996462302253,16.105
4094.5695253181984,52.796
4102.008926541021,142.55
4109.575699558212,184.788
4117.008923081237,-234.944
4124.569413932906,97.673
4131.996467447912,23.758
4139.550683954272,174.228
4146.971575140262,-5.28
4154.519525108568,604.52
4161.93426163181,7.919
4169.475952856366,-126.712
4228.011654085007,216.466
4235.396210255021,145.19
4242.907210725418,71.275
4250.415076793586,71.275
4257.7904449892885,23.758
4265.292102093408,163.669
4272.790630641473,240.224
4280.156827999919,147.83
4287.649159161061,84.474
4295.138367597785,374.855
4302.4954112134365,147.83
4309.978433811593,211.186
4317.329402006981,182.148
4324.8062464273535,168.949
4332.151146724958,21.119
4339.621820615692,147.83
4346.960660525576,308.859
4354.425171522191,108.233
4361.757958542046,192.707
4369.216314267462,295.66
4376.543055882612,287.741
4383.9952639471885,44.877
4391.315967630617,-44.877
4398.762035632179,87.114
4406.07670884455,219.105
4413.516644368407,137.271
4420.825294558097,-7.919
4428.130962180556,234.944
4435.561739780205,-2.64
4442.861395497304,26.398
4450.1580741507205,79.195
4457.579710724684,182.148
4464.870388562711,197.987
4472.158094827057,227.025
4479.570607232323,68.635
4486.852323743988,-15.839
4494.131074158497,-29.038
4501.534479210626,5.28
4508.807250907994,118.792
4516.077061971264,174.228
4523.3439142079005,197.987
4530.735219799091,71.275
4537.996107969229,203.266
4545.254042757973,208.546
4552.509025966887,221.745
4559.888261734326,263.982
4567.13729547953,147.83
4574.383383072374,253.423
4581.626526308552,166.309
4588.866726982291,211.186
4596.103986886381,234.944
4603.338307812148,116.152
4610.69653172473,221.745
4617.92492857972,208.546
4625.150391852971,319.419
4632.372923329975,52.796
4639.592524794789,208.546
4646.809198030001,97.673
4654.022944816745,92.394
4661.233766934747,2.64
4668.441666162253,118.792
4675.646644276094,290.381
4682.8487030516335,-39.597
4690.047844262837,374.855
4697.244069682201,147.83
4704.437381080781,174.228
4711.627780228235,97.673
4718.815268892759,205.906
4725.999848841122,192.707
4733.181521838655,18.479
4740.3602896492885,95.034
4747.536154035501,110.873
4754.583300303697,84.474
4761.753413983191,182.148
4768.9206294863325,23.758
4776.084948569973,118.792
4783.246372989488,203.266
4790.404904498872,340.537
4797.435032206777,293.02
4804.5878338284165,182.148
4811.73774776268,65.996
4818.884775757928,279.821
4826.028919561082,58.076
4833.044920461813,171.589
4840.183351639585,322.058
4847.3189038270575,190.067
4854.451578765569,116.152
4861.456318765864,-42.237
4868.58329482688,36.958
4875.707398824052,200.627
4882.703723295803,124.072
4889.822138682386,343.177
4896.937687177771,97.673
4903.925611277555,208.546
4911.035481404608,290.381
4918.142489800703,-5.28
4925.122028648751,105.593
4932.223368894192,269.262
4939.197342363797,31.678
4946.293021236786,97.673
4953.385846941688,161.029
4960.35146024984,293.02
4967.43863475923,31.678
4974.398699333346,137.271
4981.480229398396,324.698
4988.43475186592,168.949
4995.510644227063,168.949
5002.459631204903,7.919
5009.529892591847,219.105
5016.473350686378,208.546
5023.537987818112,-13.199
5030.475923625207,227.025
5037.534943210041,60.716
5044.467363315067,-7.919
5051.397052412052,263.982
5058.447683028528,184.788
5065.371866252855,667.875
5072.416896017057,39.597
5079.335579928018,150.47
5086.251540943114,-2.64
5093.288206657562,29.038
5100.198678149784,105.593
5107.106431592307,44.877
5114.134748143202,-79.195
5121.037021830118,224.385
5127.93658230202,92.394
5134.833431158368,-76.555
5141.85065500065,113.512
5148.742037069234,-31.678
5155.630712341699,216.466
5162.516682412504,-182.148
5169.522839786696,47.517
5176.403355996677,23.758
5183.281171809234,63.356
5190.156288813778,31.678
5197.028708598496,161.029
5204.021081907653,87.114
5210.888063918697,-2.64
5217.752353495271,31.678
5224.613952220541,84.474
5231.472861676462,158.389
5238.329083443728,124.072
5245.182619101804,23.758
5252.033470228904,168.949
5258.881638402017,34.318
5265.727125196914,21.119
5272.569932188097,271.902
5279.532181775125,44.877
5286.369586094326,79.195
5293.204315354014,63.356
5300.036371123795,139.911
5306.865754971979,-21.119
5313.692468465706,126.712
5320.516513170878,92.394
5327.216103720151,224.385
5334.034863128356,126.712
5340.850958410447,36.958
5347.664391127459,-110.873
5354.475162839211,182.148
5361.283275104273,10.559
5368.088729480027,184.788
5374.891527522632,-15.839
5381.6916707870405,68.635
5388.489160826968,229.665
5395.162686039381,-47.517
5401.954921596684,187.427
5408.744508555763,161.029
5415.531448465517,55.436
5422.31574287366,81.835
5428.976315601984,261.343
5435.7553708175255,137.271
5442.531785139763,139.911
5449.305560111599,155.75
5456.076697274744,81.835
5462.724355191152,84.474
5469.490268392445,134.631
5476.253548375513,55.436
5482.893493883399,23.758
5489.651558992991,68.635
5496.406995464167,87.114
5503.039241977291,39.597
5509.789472642318,102.953
5516.5370792381145,-121.432
5523.161640139158,171.589
5529.904049975114,2.64
5536.643840300443,-47.517
5543.260728941095,448.77
5549.995331531944,-63.356
5556.607128017575,-7.919
5563.336548861262,60.716
5569.943259067753,-18.479
5576.667504142417,213.826
5583.269133936614,102.953
5589.988209211173,71.275
5596.58476445092,89.754
5603.298675885118,84.474
5609.890162419251,-108.233
5616.598915963696,224.385
5623.185339632037,-21.119
5629.888941228186,42.237
5636.470307861637,343.177
5643.16876344182,13.199
5649.745078862296,-76.555
5656.438394349752,-10.559
5663.009664370256,158.389
5669.578436568787,68.635
5676.264076103718,263.982
5682.827811578958,211.186
5689.3890535265455,55.436
5696.067030305661,36.958
5702.623244186747,89.754
5709.176968824671,95.034
5715.847296014435,-7.919
5722.39600122282,29.038
5728.942221462719,250.783
5735.4859581482815,150.47
5742.146121627004,29.038
5748.684850350968,-2.64
5755.221099782248,47.517
5761.754871330697,-89.754
5768.404894310675,13.199
5774.933669330552,-60.716
5781.459970716278,42.237
5787.983799873429,-68.635
5794.505158206499,-18.479
5801.142549523138,52.796
5807.658925557145,79.195
5814.172834999641,2.64
5820.684279250832,79.195
5827.193259709879,211.186
5833.699777774898,-5.28
5840.203834842934,52.796
5846.7054323099655,113.512
5853.204571570954,158.389
5859.701254019747,221.745
5866.195481049195,84.474
5872.687254051074,258.703
5879.176574416102,60.716
5885.663443533944,171.589
5892.14786279323,-47.517
5898.629833581537,102.953
5905.109357285379,76.555
5911.586435290243,116.152
5918.061068980562,102.953
5924.533259739736,113.512
5931.003008950094,95.034
5937.470317992949,87.114
5943.935188248557,116.152
5950.397621096134,31.678
5956.857617913869,-163.669
5963.315180078898,68.635
5969.7703089673305,-10.559
5976.105705888956,-2.64
5982.556016527509,-174.228
5989.003897986593,58.076
5995.449351638199,-29.038
6001.8923788532775,-5.28
6008.215900781644,131.991
6014.654123287393,-5.28
6021.089923438405,153.11
6027.523302601519,-15.839
6033.954262142564,-97.673
6040.265942433929,329.978
6046.692110755517,44.877
6053.115863521547,124.072
6059.420472023492,203.266
6065.839441620141,205.906
6072.255999718647,142.55
6078.553548309683,84.474
6084.965331270854,50.157
6091.374706782226,-2.64
6097.665207314269,76.555
6104.06981570238,229.665
6110.472020679961,-39.597
6116.755484978421,116.152
6123.152930828903,2.64
6129.431725134898,100.313
6135.824417162912,147.83
6142.098546680769,182.148
6148.486490183052,97.673
6154.872039648391,15.839
6161.139160374798,23.758
6167.519969269015,113.512
6173.782438208022,227.025
6180.158511808193,-26.398
6186.416334137088,203.266
6192.787677712448,216.466
6199.040858600842,71.275
6205.291741972564,55.436
6211.656022022646,44.877
6217.902271670246,-31.678
6224.261834810408,116.152
6230.503455884398,-142.55
6236.742785809074,134.631
6243.095304999864,73.915
6249.330014038809,137.271
6255.677829386121,200.627
6261.907922670827,197.987
6268.1357311500615,161.029
6274.476522051649,97.673
6280.699722436162,158.389
6286.920641805642,44.877
6293.139281413962,414.452
6299.470738832184,182.148
6305.684780516531,29.038
6311.896546218988,92.394
6318.106037189755,58.076
6324.428181717434,195.347
6330.633084905065,216.466
6336.835717129172,190.067
6343.036079636258,42.237
6349.234173671932,171.589
6355.544716640681,95.034
6361.738235515753,174.228
6367.929489673777,139.911
6374.118480356665,155.75
6380.305208805476,137.271
6386.489676260331,-31.678
6392.671883960451,42.237
6398.851833144166,92.394
6405.143905470883,116.152
6411.319299566196,44.877
6417.492438877496,102.953
6423.663324639478,192.707
6429.831958085924,126.712
6435.998340449718,50.157
6442.162472962846,306.22
6448.324356856407,142.55
6454.483993360576,-171.589
6460.641383704664,26.398
6466.79652911704,95.034
6472.949430825232,153.11
6479.100090055821,108.233
6485.248508034543,221.745
6491.280888225534,105.593
6497.424868822251,-2.64
6503.5666118162335,44.877
6509.706118429633,-121.432
6515.843389883739,142.55
6521.978427398899,73.915
6528.111232194642,451.41
6534.241805489546,92.394
6540.256680928833,31.678
6546.382836142315,129.351
6552.506763482961,108.233
6558.628464165849,171.589
6564.747939405184,44.877
6570.751928194237,-7.919
6576.866997341494,139.911
6582.979844660076,-52.796
6589.090471360658,102.953
6595.0857801617385,21.119
6601.192010321647,81.835
6607.296023467985,21.119
6613.39782080795,137.271
6619.384468430493,390.694
6625.481878753591,105.593
6631.577076864334,126.712
6637.5572509579,-5.28
6643.64806916556,-36.958
6649.623946782151,126.712
6655.71038980603,102.953
6661.794626582923,-76.555
6667.764048126817,-13.199
6673.843916808139,187.427
6679.809053455574,71.275
6685.884558743659,124.072
6691.957863728712,158.389
6697.916561697035,322.058
6703.985510351609,129.351
6709.939934962422,79.195
6716.004531971987,171.589
6721.954687820689,68.635
6728.014937863976,102.953
6733.960829539363,229.665
6739.904610751524,197.987
6745.95836937274,293.02
6751.897893261092,266.622
6757.947316561804,134.631
6763.8825876987685,168.949
6769.927680334353,-179.508
6775.858703285812,21.119
6781.787623684751,52.796
6787.826249230238,179.508
6793.750928258974,182.148
6799.673508107371,2.64
6805.705676935038,89.754
6811.624022213946,221.745
6817.540271677499,10.559
6823.5659941374615,-2.64
6829.478015817709,95.034
6835.387945040406,29.038
6841.407231460638,-174.228
6847.312939671727,23.758
6853.216558775894,76.555
6859.118089881435,250.783
6865.017534095896,-10.559
6871.026143398485,102.953
6876.921377827312,100.313
6882.814528703813,97.673
6888.705597132364,76.555
6894.594584216582,23.758
6900.592544785228,250.783
6906.477333270021,21.119
6912.360043737404,-2.64
6918.240677287846,-2.64
6924.119235021055,179.508
6929.995718035963,211.186
6935.870127430717,190.067
6941.742464302697,211.186
6947.6127297485,73.915
6953.480924863958,52.796
6959.347050744116,124.072
6965.21110848328,159.82
6971.073099174937,143.351
6976.93302391185,94.583
6982.79088378598,33.433
6988.64667988853,-20.181
6994.500413309928,-46.345
7000.35208513985,-25.136
7006.201696467178,63.356
7012.049248380063,139.911
7017.894741965851,-39.597
7023.738178311156,108.233
7029.579558501813,-21.119
7035.418883622879,216.466
7041.2561547586665,116.152
7047.091372992727,118.792
7052.924539407839,29.038
7058.645653010426,158.389
7064.474757695687,174.228
7070.301813785409,153.11
7076.126822359336,-2.64
7081.949784496486,190.067
7087.660891581778,65.996
7093.479802640664,121.432
7099.296670474898,171.589
7105.111496160462,137.271
7110.814624476749,79.195
7116.625407570507,-21.119
7122.434151718757,89.754
7128.2408579944895,2.64
7133.936024250346,76.555
7139.73869639702,7.919
7145.53933386541,39.597
7151.22854892195,92.394
7157.025158582874,-44.877
7162.819736753059,131.991
7168.503009933542,55.436
7174.293566604632,155.75
7180.082094965896,2.64
7185.759435574095,23.758
7191.54394873148,116.152
7197.2173519438,493.647
7202.997854073568,10.559
7208.667323984642,81.835
7214.443819257263,50.157
7220.109359956041,-15.839
7225.881852536215,179.508
7231.54346810597,63.356
7237.311962152613,-5.28
7242.969656670975,134.631
7248.734156337254,221.745
7254.387933876205,60.716
7260.148443309525,-2.64
7265.798307935409,47.517
7271.554831277448,71.275
7277.20078705097,168.949
7282.953328437674,102.953
7288.59537941395,-60.716
7294.235498085545,102.953
7299.982093204053,163.669
7305.618313131272,118.792
7311.252603748333,60.716
7316.993261813666,161.029
7322.623659726734,-5.28
7328.252131317968,131.991
7333.9868615261075,60.716
7339.611446441268,29.038
7345.234108016753,121.432
7350.962919544712,-2.64
7356.581700459581,139.911
7362.198561010817,179.508
7367.813502182726,134.631
7373.426524958988,-5.28
7379.145517410223,92.394
7384.7546694986595,87.114
7390.361906157261,102.953
7395.967228366993,161.029
7401.570637108154,-2.64
7407.279835705631,42.237
7412.879383697611,71.275
7418.477021176703,168.949
7424.072749120482,15.839
7429.666568505905,92.394
7435.258480309247,81.835
7440.848485506111,-26.398
7446.436585071431,102.953
7452.022779979503,21.119
7457.607071203925,79.195
7463.296794702215,108.233
7468.877244915177,166.309
7474.455794380043,282.461
7480.032444067743,84.474
7485.607194948596,84.474
7491.18004799222,26.398
7496.751004167574,84.474
7502.2129850032,176.868
7507.7801867781745,-121.432
7513.345494569261,166.309
7518.908909342786,121.432
7524.470432064445,-23.758
7530.03006369928,42.237
7535.587805211653,-7.919
7541.1436575652915,134.631
7546.697621723266,39.597
7552.249698647978,71.275
7557.693172648,92.394
7563.241514237732,-52.796
7568.787971459049,76.555
7574.332545271769,79.195
7579.87523663506,55.436
7585.416046507413,171.589
7590.848475703144,-36.958
7596.385561603231,150.47
7601.920768865631,145.19
7607.454098446255,65.996
7612.879194899509,84.474
7618.4088080453,118.792
7623.936546354853,108.233
7629.462410781522,34.318
7634.880189328982,68.635
7640.402344837916,213.826
7645.9226293018255,168.949
7651.334937948188,113.512
7656.851519109852,134.631
7662.260197498763,-29.038
7667.773079083498,142.55
7673.284094334183,298.3
7678.687316594296,50.157
7684.194637864675,-65.996
7689.7000956236625,81.835
7695.097870006797,34.318
7700.599639370841,15.839
7705.993798107356,60.716
7711.491882781789,155.75
7716.882429503323,60.716
7722.376833188511,155.75
7727.763771521855,15.839
7733.254497913214,47.517
7738.637831480286,13.199
7744.124884268305,116.152
7749.504616686187,121.432
7754.987999556393,176.868
7760.364134437317,129.351
7765.738489349154,116.152
7771.216392021717,139.911
7776.587154788423,100.313
7782.061396717661,153.11
7787.428570939446,79.195
7792.793969640064,113.512
7798.262745065967,18.479
7803.624560595526,87.114
7808.984603262106,97.673
7814.447920368751,-131.991
7819.804385227417,39.597
7825.159079875983,-18.479
7830.616946831127,-42.237
7835.968069024231,52.796
7841.317423654822,42.237
7846.665011598543,102.953
7852.115636126822,50.157
7857.459658723532,171.589
7862.801917273948,105.593
7868.142412651388,76.555
7873.481145728587,-7.919
7878.922746278997,55.436
7884.257922859626,47.517
7889.59133977185,52.796
7894.922997886111,18.479
7900.252898072242,13.199
7905.581041199541,-102.953
7910.907428136696,126.712
7916.336446752692,290.381
7921.65928952102,166.309
7926.980378718883,166.309
7932.29971521271,89.754
7937.617299868325,-29.038
7942.933133550996,150.47
7948.247217125423,-76.555
7953.559551455743,81.835
7958.870137405502,129.351
7964.178975837705,219.105
7969.486067614758,102.953
7974.791413598527,31.678
7980.0950146503055,39.597
7985.396871630804,42.237
7990.696985400187,79.195
7995.995356818043,29.038
8001.291986743403,-102.953
8006.586876034729,92.394
8011.880025549901,-271.902
8017.067699705829,42.237
8022.357406311574,58.076
8027.645375694708,-18.479
8032.931608710882,26.398
8038.216106215201,-26.398
8043.498869062179,161.029
8048.779898105804,18.479
8053.955695240969,126.712
8059.233293192043,-18.479
8064.509159881611,131.991
8069.783296161415,23.758
8074.952338977277,26.398
8080.223050878609,166.309
8085.492034905405,153.11
8090.759291907168,-42.237
8095.921593616502,34.318
8101.185432936367,-21.119
8106.447547759821,95.034
8111.604810570996,295.66
8116.863512715307,44.877
8122.120492886879,110.873
8127.272724173963,345.817
8132.526296659391,-55.436
8137.778149690843,79.195
8142.925356813517,237.584
8148.173807142077,113.512
8153.4205405305,47.517
8158.562730834117,-10.559
8163.806066493191,-50.157
8168.944927307508,100.313
8174.184868536668,-116.152
8179.32040309432,73.915
8184.55695318873,-73.915
8189.689164718173,-7.919
8194.922326968728,139.911
8200.051218694258,-31.678
8205.280996387602,58.076
8210.406571529322,-282.461
8215.632967947844,36.958
8220.7552297217,-26.398
8225.978248143558,-39.597
8231.097199761349,10.559
8236.316843460441,23.758
8241.43248812982,68.635
8246.546496881761,87.114
8251.76110130029,-153.11
8256.871807891675,39.597
8261.98088093357,-21.119
8267.190453365733,36.958
8272.296229025691,-7.919
8277.400373499535,-23.758
8282.604921225458,36.958
8287.705773086778,55.436
8292.804996120794,176.868
8298.004526406577,-73.915
8303.100461588281,208.546
8308.194770296956,44.877
8313.28745331115,31.678
8318.48031600209,-176.868
8323.569717486189,76.555
8328.657495624051,34.318
8333.743651192239,-36.958
8338.828184966831,-31.678
8344.012739449463,-15.839
8349.093999566121,129.351
8354.17364022991,-36.958
8359.251662214898,-116.152
8364.328066294685,58.076
8369.402853242376,102.953
8374.476023830553,-116.152
8379.547578831349,-18.479
8384.718901354245,76.555
8389.787195221597,-7.919
8394.853875830348,108.233
8399.91894395064,124.072
8404.98240035212,108.233
8410.044245803958,26.398
8415.104481074803,47.517
8420.163106932847,95.034
8425.220124145773,-47.517
8430.275533480788,-129.351
8435.32933570461,-55.436
8440.381531583458,87.114
8445.432121883085,-97.673
8450.48110736873,52.796
8455.528488805172,-124.072
8460.473367100913,81.835
8465.51757477424,-36.958
8470.560180674485,7.919
8475.601185564497,7.919
8480.64059020661,-65.996
8485.67839536271,-316.779
8490.714601794163,52.796
8495.749210261878,-89.754
8500.681576948675,234.944
8505.713023691114,-271.902
8510.742874734438,-197.987
8515.771130837642,-63.356
8520.797792759218,89.754
8525.722375497866,-116.152
8530.745883175656,2.64
8535.7677989293,31.678
8540.788123515384,266.622
8545.706498587671,44.877
8550.723674892208,-97.673
8555.739262280982,-26.398
8560.652997083213,-227.025
8565.665440644778,105.593
8570.676297538128,55.436
8575.585398634048,-71.275
8580.593116146138,113.512
8585.599249233324,174.228
8590.503723174297,-68.635
8595.506721317797,-26.398
8600.508137275468,42.237
8605.40799060051,182.148
8610.406276043708,-73.915
8615.303062904772,-65.996
8620.298220771765,163.669
8625.191944046568,-113.512
8630.18397727198,13.199
8635.074639834631,89.754
8640.063551349394,23.758
8644.951156070434,102.953
8649.936948801806,29.038
8654.821498548154,-68.635
8659.804175419777,-2.64
8664.685673054784,121.432
8669.665236986599,166.309
8674.543685370048,-36.958
8679.520139278378,232.304
8684.395541266465,-142.55
8689.2694364983,-31.678
8694.241246509358,166.309
8699.112099609058,-145.19
8703.981448060618,102.953
8708.948620671701,26.398
8713.81493124642,-221.745
8718.779005433622,-105.593
8723.642280973501,-36.958
8728.504055374753,190.067
8733.364329332315,-58.076
8738.32224658698,2.64
8743.179491154478,-5.28
8748.035237374625,-23.758
8752.889485940628,-39.597
8757.8412577103,-150.47
8762.692482517024,79.195
8767.542211760752,-29.038
8772.39044613298,-81.835
8777.336083836857,-29.038
8782.18130006664,5.28
8787.02502351089,68.635
8791.867254859393,139.911
8796.707994801498,50.157
8801.547244026118,-52.796
8806.385003221756,23.758
8811.319956958603,5.28
8816.154707786565,324.698
8820.987970662514,23.758
8825.819746273257,-68.635
8830.650035305174,-26.398
8835.478838444196,7.919
8840.306156375878,58.076
8845.131989785303,110.873
8849.956339357173,5.28
8854.779205775758,-23.758
8859.60058972489,13.199
8864.420491888006,-31.678
8869.238912948098,-5.28
8874.055853587757,-52.796
8878.871314489159,-129.351
8883.685296334032,-84.474
8888.497799803714,7.919
8893.308825579123,7.919
8898.118374340735,18.479
8902.926446768637,71.275
8907.634964476681,311.499
8912.440116370435,73.915
8917.243793954342,10.559
8922.045997906822,42.237
8926.846728905857,-76.555
8931.645987629043,-68.635
8936.443774753548,-131.991
8941.142221650607,26.398
8945.937097605834,50.157
8950.73050397759,-13.199
8955.522441441404,79.195
8960.215160665939,2.64
8965.004192282166,55.436
8969.791757000756,-105.593
8974.577855495572,-256.063
8979.26485751475,-7.919
8984.048055470721,47.517
8988.829789208343,-23.758
8993.51251749025,2.64
8998.291354655303,2.64
9003.068729603765,21.119
9007.747189991118,-65.996
9012.521672326067,150.47
9017.294694442531,21.119
9021.968892767374,118.792
9026.739026222178,124.072
9031.41039612206,-472.528
9036.17764353675,-39.597
9040.943434050514,482.996
9045.610551571128,790.398
9050.373459984672,918.518
9055.037755503963,903.268
9059.797784430888,780.554
9064.45926050758,586.284
9069.216412558366,356.369
9073.87507174812,126.712
9078.629349530078,-44.877
9083.285194385431,-52.796
9088.036600502714,71.275
9092.689633573158,-100.313
9097.438170626783,184.788
9102.088394458704,0.0
9106.73722909284,-248.143
9111.481482183284,-81.835
9116.12751137963,-76.555
9120.868901881862,68.635
9125.512128179163,50.157
9130.153968412898,71.275
9134.891084617178,52.796
9139.53012574118,89.754
9144.167782675046,7.919
9148.9006303586,-47.517
9153.535491965213,-102.953
9158.168971251744,-52.796
9162.801068836525,-73.915
9167.528243916331,-68.635
9172.157551197888,-63.356
9176.785478643267,39.597
9181.412026869286,-63.356
9186.13353953768,-23.758
9190.757302472506,87.114
9195.37968804908,36.958
9200.000696882766,-29.038
9204.620329588544,-5.28
9209.334785850184,73.915
9213.951639506451,-110.873
9218.567118890363,229.665
9223.181224615444,-10.559
9227.79395729483,-76.555
9232.40531754132,-63.356
9237.015305967328,195.347
9241.623923184923,102.953
9246.23116980579,71.275
9250.932987640888,118.792
9255.537466379788,-100.313
9260.140576367572,18.479
9264.742318214474,-26.398
9269.342692530376,21.119
9273.941699924766,-18.479
9278.539341006806,-168.949
9283.135616385269,-97.673
9287.730526668583,-63.356
9292.324072464791,-279.821
9296.91625438162,23.758
9301.411444872112,-145.19
9306.00092923447,219.105
9310.589051525738,-68.635
9315.175812352172,10.559
9319.761212319692,105.593
9324.345252033823,155.75
9328.927932099774,15.839
9333.509253122353,21.119
9338.08921570604,-100.313
9342.572446701386,-71.275
9347.149722488744,105.593
9351.7256416359,50.157
9356.300204745894,95.034
9360.873412421412,-145.19
9365.350032145325,63.356
9369.920558965528,113.512
9374.489732144635,79.195
9379.05755228394,-92.394
9383.528899030936,63.356
9388.09404305015,5.28
9392.657835818722,-23.758
9397.125240831178,-2.64
9401.6863610176,153.11
9406.246131739394,166.309
9410.80455359534,81.835
9415.266701898625,-131.991
9419.822455888205,0.0
9424.281993052333,-34.318
9428.835081516963,282.461
9433.38682407955,216.466
9437.84243511156,71.275
9442.391515668474,-2.64
9446.84452129656,-142.55
9451.390942182352,39.597
9455.93602012123,-44.877
9460.385108237591,-68.635
9464.927530014324,-150.47
9469.374018445214,73.915
9473.913786387537,52.796
9478.35767741084,21.119
9482.894793843763,50.157
9487.33608973474,-113.512
9491.87055698055,-34.318
9496.30926001177,-18.479
9500.74668109923,-10.559
9505.277192831463,84.474
9509.71202445114,256.063
9514.23989277796,42.237
9518.672137195834,-23.758
9523.103102466685,-126.712
9527.62702390948,44.877
9532.05540536064,-36.958
9536.57668916292,42.237
9541.002489053764,118.792
9545.42701258622,-68.635
9549.850260312329,63.356
9554.36630345335,256.063
9558.78697410632,36.958
9563.206370618926,-13.199
9567.718482324255,68.635
9572.13530512818,-47.517
9576.550855454823,23.758
9580.965133854,23.758
9585.47202083257,7.919
9589.883729992052,-166.309
9594.294168883298,63.356
9598.703338054846,306.22
9603.111238054931,-71.275
9607.611613766734,26.398
9612.016950092931,55.436
9616.421018902103,31.678
9620.823820741218,95.034
9625.225356156909,163.669
9629.625625695517,-192.707
9634.02462990307,142.55
9638.422369325252,76.555
9642.81884450748,18.479
9647.21405599481,-15.839
9651.701478874824,87.114
9656.094137748323,-58.076
9660.485534571855,-23.758
9664.875669889248,203.266
9669.264544244,182.148
9673.65215817932,65.996
9678.03851223808,-113.512
9682.423606962846,-13.199
9686.807442895892,18.479
9691.19002057915,131.991
9695.478134071804,-171.589
9699.858223622705,44.877
9704.23705653629,-42.237
9708.614633353289,-171.589
9712.990954614088,-5.28
9717.36602085878,-84.474
9721.739832627154,182.148
9726.112390458671,0.0
9730.483694892511,-26.398
9734.760779687776,50.157
9739.129605581998,13.199
9743.497179682729,108.233
9747.863502527893,71.275
9752.228574655115,-52.796
9756.499562339395,18.479
9760.862161224974,34.318
9765.223510992222,65.996
9769.583612177565,-2.64
9773.849736751828,23.758
9778.207368918504,76.555
9782.563754099236,-79.195
9786.918892829211,-76.555
9791.18016259473,-81.835
9795.532836519418,108.233
9799.884265585692,-76.555
9804.14190615754,18.479
9808.490873566669,84.474
9812.83859770701,81.835
9817.09261371952,81.835
9821.437879345483,92.394
9825.689490172908,71.275
9830.032299369228,-60.716
9834.373867936378,-131.991
9838.621861899856,-324.698
9842.960977171238,-10.559
9847.206571054325,-377.495
9851.543235108787,92.394
9855.786430944943,60.716
9860.12064585897,39.597
9864.361445679362,110.873
9868.693213527116,163.669
9872.931619360628,-34.318
9877.26094221391,97.673
9881.49695608711,-65.996
9885.823836015392,-26.398
9890.057459952584,26.398
9894.289902518456,2.64
9898.613135046206,110.873
9902.843190697367,-73.915
9907.163985452502,34.318
9911.391656207565,-116.152
9915.61814808206,68.635
9919.935303126713,29.038
9924.15941311792,-2.64
9928.38234571751,-2.64
9932.695865648708,63.356
9936.91641937277,-36.958
9941.135797191648,-18.479
9945.445686598703,-10.559
9949.662688544726,-116.152
9953.878516069532,60.716
9958.09316966365,126.712
9962.398234183594,108.233
9966.61051589339,-15.839
9970.821625153134,2.64
9975.031562452265,21.119
9979.240328279942,52.796
9983.53937957713,541.164
9987.745778488254,131.991
9991.95100740443,7.919
9996.155066813732,-18.479
10000.357957203963,129.351
10004.55967906266,-73.915
10008.760232877092,-129.351
10013.050897176752,-10.559
10017.249090997648,-52.796
10021.446118245014,-89.754
10025.641979405023,-50.157
10029.83667496358,5.28
10034.03020540632,13.199
10038.222571218605,13.199
10042.413772885537,15.839
10046.603810891938,13.199
10050.79268572236,-137.271
10054.980397861098,-81.835
10059.16694779218,567.562
10063.352335999334,-58.076
10067.536562966066,150.47
10071.719629175575,-87.114
10075.90153511081,-29.038
10080.082281254454,-153.11
10084.26186808891,18.479
10088.440296096323,113.512
10092.52676786215,5.28
10096.702904826674,-50.157
10100.877884398516,-13.199
10105.051707058765,168.949
10109.224373288234,-7.919
10113.395883567471,-29.038
10117.475590772649,39.597
10121.64481569536,-2.64
10125.812886097472,26.398
10129.979802458443,-13.199
10134.145565257517,42.237
10138.219652237512,-60.716
10142.383134400929,-147.83
10146.545464428116,39.597
10150.706642797257,-306.22
10154.776246850048,-23.758
10158.935148346747,-84.474
10163.092899607942,-95.034
10167.159152430871,34.318
10171.314629631466,142.55
10175.468958016776,-97.673
10179.531863747628,-34.318
10183.683920879565,44.877
10187.834830614069,-34.318
10191.894393383842,7.919
10196.043034667582,52.796
10200.190529969435,-153.11
10204.246753902304,248.143
10208.391983551395,-42.237
10212.44599199288,195.347
10216.588957845182,137.271
10220.640752609928,92.394
10224.781456519388,-7.919
10228.831039420063,-76.555
10232.969483238625,-92.394
10237.016856085897,-100.313
10241.15304166346,81.835
10245.19820626604,-166.309
10249.332135450502,84.474
10253.375093615126,-63.356
10257.506768252357,121.432
10261.547521783785,171.589
10265.58718577827,-36.958
10269.715494418666,60.716
10273.752956473523,-71.275
10277.87901516247,-158.389
10281.91427707755,47.517
10285.948451675904,-58.076
10290.0711512271,0.0
10294.10312837192,-13.199
10298.13401952729,39.597
10302.253364041218,-26.398
10306.282060424935,153.11
10310.309672144327,13.199
10314.425665714796,-137.271
10318.451085340042,-150.47
10322.475421623927,58.076
10326.498675003731,81.835
10330.610215200984,23.758
10334.631280043344,-7.919
10338.651263301725,18.479
10342.670165412448,71.275
10346.687986811625,182.148
10350.704727935088,-58.076
10354.80961387438,-5.28
10358.824171771252,-31.678
10362.837650708272,-34.318
10366.850051120337,10.559
10370.86137344214,-31.678
10374.871618108127,229.665
10378.880785552512,18.479
10382.888876209276,155.75
10386.984923052532,-23.758
10390.990837530662,-213.826
10394.995676531347,-31.678
10398.999440487634,100.313
10403.00212983234,-168.949
10407.003744998048,-52.796
10411.004286417105,-39.597
10415.003754521616,-23.758
10419.002149743475,58.076
10422.999472514348,-124.072
10426.995723265634,153.11
10430.990902428544,-47.517
10434.985010434026,-84.474
10438.889325180557,213.826
10442.881315942828,-79.195
10446.872236829608,-76.555
10450.86208827093,-13.199
10454.85087069661,21.119
10458.838584536235,5.28
10462.82523021915,10.559
10466.810808174472,44.877
10470.706785742112,7.919
10474.690253232264,18.479
10478.672654271297,13.199
10482.653989287404,147.83
10486.634258708573,108.233
10490.525047770485,-5.28
10494.50321094102,73.915
10498.480309789697,31.678
10502.45634474356,34.318
10506.342995080442,63.356
10510.316927143493,47.517
10514.2897965821,0.0
10518.261603822417,2.64
10522.144122034457,-145.19
10526.113829736623,2.64
10530.082476508169,42.237
10533.961905709137,63.356
10537.92845544769,300.94
10541.89394552126,155.75
10545.770289396216,-29.038
10549.733684937964,5.28
10553.607981637546,-18.479
10557.569284306495,-31.678
10561.52952941227,52.796
10565.400746905443,-5.28
10569.35890163298,-31.678
10573.22807600992,79.195
10577.184142013864,-52.796
10581.05127489159,-551.723
10585.005253824836,71.275
10588.87034681866,-87.114
10592.822240332363,-18.479
10596.685295055897,-29.038
10600.635104799476,-42.237
10604.496122864624,-34.318
10608.443850485746,-34.318
10612.302833502728,29.038
10616.160811022752,-145.19
10620.10543022464,26.398
10623.9613750996,-58.076
10627.903916281392,-15.839
10631.757830117263,-47.517
10635.61074043666,52.796
10639.550179321655,-50.157
10643.401060998756,87.114
10647.250940343372,-161.029
10651.187280591832,68.635
10655.035133687184,29.038
10658.881985632182,-13.199
10662.815230898605,34.318
10666.660058983602,-79.195
10670.50388709854,-131.991
10674.346715633475,79.195
10678.275847672114,-134.631
10682.116655520924,29.038
10685.956464967534,-68.635
10689.795276401208,-155.75
10693.633090210977,26.398
10697.557095575656,71.275
10701.39289265285,29.038
10705.227693280882,145.19
10709.061497847986,-89.754
10712.894306742182,-5.28
10716.726120351308,-105.593
10720.55693906298,5.28
10724.386763264632,29.038
10728.302600658342,-95.034
10732.130414421008,47.517
10735.957234843503,-18.479
10739.783062312445,-44.877
10743.60789721425,-7.919
10747.431739935131,-39.597
10751.254590861114,-36.958
10755.076450378,147.83
10758.897318871408,-274.542
10762.717196726757,113.512
10766.536084329256,-10.559
10770.353982063916,-18.479
10774.170890315563,-113.512
10777.98680946881,-58.076
10781.801739908076,-84.474
10785.615682017564,81.835
10789.341989100834,68.635
10793.153978142976,0.0
10796.964979998098,-113.512
10800.774995049622,211.186
10804.58402368077,50.157
10808.392066274577,89.754
10812.199123213884,42.237
10816.005194881312,-26.398
10819.723813349112,142.55
10823.52793799081,150.47
10827.331078498672,-81.835
10831.133235254529,-95.034
10834.848029253728,-21.119
10838.64824198676,-42.237
10842.447472103491,-58.076
10846.24571998498,-105.593
10849.956695412544,-89.754
10853.753002267928,42.237
10857.548328021428,39.597
10861.342673053316,0.0
10865.049835794096,-81.835
10868.842242790466,155.75
10872.63367019626,13.199
10876.337982712816,108.233
10880.12747431772,-7.919
10883.82989575329,-124.072
10887.617453039476,52.796
10891.404032613404,-26.398
10895.103609289945,108.233
10898.88825677408,81.835
10902.585945994537,0.0
10906.368662867266,13.199
10910.150403901262,76.555
10913.845253813895,39.597
10917.62506645972,44.877
10921.318032531915,65.996
10925.095918264182,-15.839
10928.787001936307,-121.432
10932.562962228116,7.919
10936.252164939066,-73.915
10939.940438510435,-137.271
10943.713524449233,60.716
10947.399919206764,-113.512
10951.171083372872,-65.996
10954.855600751816,-29.038
10958.62484461311,44.877
10962.307486047235,-100.313
10965.989200819247,10.559
10969.755577991731,-84.474
10973.435418958636,10.559
10977.114334320191,-124.072
10980.877848072992,-718.032
10984.554891765896,126.712
10988.231010908596,100.313
10991.991664505884,73.915
10995.665914113146,-287.741
10999.33924022374,79.195
11003.011643185791,36.958
11006.768495629847,-52.796
11010.439031890255,-55.436
11014.108646053544,18.479
11017.777338467138,55.436
11021.530395518184,63.356
11025.197224058184,79.195
11028.863131897786,68.635
11032.528119383707,-7.919
11036.192186862492,-245.504
11039.855334680517,-87.114
11043.602720353196,71.275
11047.264008520897,-208.546
11050.924378073953,-73.915
11054.58382935806,39.597
11058.242362718707,124.072
11061.899978501227,-73.915
11065.556677050785,87.114
11069.21245871235,21.119
11072.867323830738,-5.28
11076.521272750586,5.28
11080.174305816368,-102.953
11083.826423372368,-95.034
11087.477625762698,184.788
11091.127913331318,464.609
11094.777286422,65.996
11098.425745378345,-205.906
11102.073290543767,-68.635
11105.719922261547,-26.398
11109.36564087477,10.559
11113.010446726335,18.479
11116.654340159006,-34.318
11120.29732151534,-34.318
11123.93939113774,89.754
11127.580549368427,44.877
11131.22079654947,60.716
11134.77550763161,110.873
11138.413954906267,-116.152
11142.051492148485,-31.678
11145.688119699626,-34.318
11149.323837900913,-7.919
11152.958647093375,5.28
11156.508048620988,-42.237
11160.141061938251,105.593
11163.773167260852,-39.597
11167.40436492916,73.915
11170.950240228543,87.114
11174.579644697213,13.199
11178.208142523734,-87.114
11181.751381744987,100.313
11185.378088371155,129.351
11189.003889365817,-42.237
11192.628785068173,-113.512
11196.16850723805,15.839
11199.79161440632,-13.199
11203.413817290922,23.758
11206.950910239968,-282.461
11210.571326582844,-2.64
11214.10667518314,18.479
11217.725306305692,42.237
11221.343034819707,95.034
11224.875759069631,39.597
11228.49170435076,71.275
11232.022687482247,-23.758
11235.636850848638,18.479
11239.166094148528,-73.915
11242.778476917028,126.712
11246.305981670925,79.195
11249.91658515709,-311.499
11253.442352649325,-31.678
11257.05117816741,-92.394
11260.575209681025,26.398
11264.182258544,68.635
11267.704555360804,-89.754
11271.309828880325,-124.072
11274.83039228086,13.199
11278.350099642112,95.034
11281.952723030843,79.195
11285.470698886753,-26.398
11288.987819646914,-23.758
11292.587795825824,184.788
11296.103186988752,95.034
11299.70139304264,26.398
11303.215055883851,87.114
11306.727865201254,44.877
11310.23982130582,42.237
11313.834511810855,-131.991
11317.34474212601,39.597
11320.8541201677,190.067
11324.446172200132,-31.678
11327.953826352135,-39.597
11331.460629168672,-97.673
11334.96658095964,213.826
11338.471682034791,-42.237
11342.059356881087,13.199
11345.562737216636,-71.275
11349.06526777208,18.479
11352.566948856567,-13.199
11356.067780779093,-89.754
11359.56776384851,166.309
11363.1502007606,-81.835
11366.648466857394,34.318
11370.145885034064,-52.796
11373.642455598843,-190.067
11377.138178859836,-171.589
11380.633055125,44.877
11384.1270847021,39.597
11387.620267898808,39.597
11391.112605022612,-76.555
11394.60409638087,-139.911
11398.094742280777,5.28
11401.584543029392,65.996
11405.073498933603,-60.716
11408.561610300185,100.313
11412.048877435727,-757.629
11415.5353006467,31.678
11419.020880239405,13.199
11422.505616520008,166.309
11425.989509794525,52.796
11429.472560368817,-52.796
11432.954768548592,50.157
11436.43613463944,10.559
11439.916658946764,-92.394
11443.313501961433,0.0
11446.79236364179,50.157
11450.270384446749,232.304
11453.74756468115,36.958
11457.22390464968,7.919
11460.699404656869,126.712
11464.091344754375,15.839
11467.565185732994,-65.996
11471.038187655771,21.119
11474.51035082668,58.076
11477.981675549512,-81.835
11481.369541233144,-34.318
11484.839209915755,92.394
11488.30804105362,-116.152
11491.693473394258,-36.958
11495.16065027576,-23.758
11498.626990514544,5.28
11502.092494413417,116.152
11505.474679896604,23.758
11508.938531918346,-36.958
11512.401548500471,55.436
11515.78130675673,7.919
11519.242673239612,-65.996
11522.620821260369,-18.479
11526.080538823127,216.466
11529.5394224415,34.318
11532.915147579475,-110.873
11536.372384051368,55.436
11539.74650183491,-50.157
11543.202092336618,-44.877
11546.574603913472,0.0
11550.028549620163,-161.029
11553.399456136987,44.877
11556.85175822272,13.199
11560.221060825072,-13.199
11563.67172046279,2.64
11567.039420295116,282.461
11570.488438656655,-55.436
11573.854536862347,-234.944
11577.301915118398,-285.101
11580.666412839755,55.436
11584.030120381583,13.199
11587.475050538147,-21.119
11590.837159300165,-68.635
11594.280452266124,-145.19
11597.64096338792,31.678
11601.000685734118,-168.949
11604.441534950183,-150.47
11607.79966135666,-126.712
11611.156999826935,23.758
11614.59540789372,42.237
11617.951152122365,-134.631
11621.306109253032,73.915
11624.66027956261,50.157
11628.09544335218,50.157
11631.44802167594,-102.953
11634.799814015252,-7.919
11638.15082064648,21.119
11641.58274474832,-58.076
11644.932161645294,5.28
11648.280793669244,-100.313
11651.62864109602,105.593
11654.975704201344,150.47
11658.403590030808,76.555
11661.749066206958,-52.796
11665.093758894744,10.559
11668.43766836938,31.678
11671.780794905935,-100.313
11675.12313877933,42.237
11678.4647002644,-63.356
11681.805479635816,63.356
11685.145477168146,63.356
11688.484693135812,55.436
11691.904543291126,15.839
11695.24217790648,102.953
11698.579031786354,-102.953
11701.915105204676,-171.589
11705.25039843522,79.195
11708.584911751648,79.195
11711.918645427471,95.034
11715.251599736104,47.517
11718.502511651865,110.873
11721.83392703817,-55.436
11725.164563870054,-129.351
11728.4944224204,-102.953
11731.823502961994,-21.119
11735.15180576744,13.199
11738.479331109273,-227.025
11741.806079259855,-65.996
11745.132050491462,-174.228
11748.457245076206,60.716
11751.70058915004,-163.669
11755.024250183047,-15.839
11758.34713537819,-134.631
11761.669245007088,-29.038
11764.990579341233,-163.669
11768.230158619372,187.427
11771.549962071174,95.034
11774.86899103535,10.559
11778.187245782876,-73.915
11781.423821624776,-29.038
11784.740547618409,-76.555
11788.05650020102,-36.958
11791.371679643096,-10.559
11794.605256223578,-7.919
11797.91890903626,21.119
11801.231789512534,-5.28
11804.46312397414,-42.237
11807.774479408556,31.678
11811.085063309589,34.318
11814.314157983485,31.678
11817.623218427994,18.479
11820.850827315822,34.318
11824.158365355152,113.512
11827.4651331948,65.996
11830.690506166697,126.712
11833.995753182851,-105.593
11837.219642936305,-105.593
11840.52337017791,-55.436
11843.745777735792,261.343
11847.047986250807,-55.436
11850.26891263506,-279.821
11853.569603470474,-10.559
11856.789049702087,42.237
11860.088223903953,102.953
11863.30619100298,314.139
11866.603849616356,-23.758
11869.820338601929,50.157
11873.11648267094,126.712
11876.331494561222,26.398
11879.545777396996,31.678
11882.839660941268,-31.678
11886.052468201013,-36.958
11889.26454715598,-13.199
11892.55617250015,79.195
11895.766777396242,63.356
11899.056892350098,-18.479
11902.26602420178,65.996
11905.474428998024,-5.28
11908.682106985869,-126.712
11911.969222890988,337.897
11915.17542984806,39.597
11918.380910743392,13.199
11921.66577540321,-47.517
11924.869786778698,-76.555
11928.07307283808,-84.474
11931.27563382762,-18.479
11934.477469993468,-153.11
11937.758600089848,34.318
11940.95896924119,2.64
11944.158614312782,139.911
11947.35753555032,-42.237
11950.55573319941,-89.754
11953.753207505528,-5.28
11957.029868231695,-219.105
11960.225878519712,-52.796
11963.42116620667,87.114
11966.615731537608,0.0
11969.809574757444,-60.716
11973.002696111003,-52.796
11976.195095842992,89.754
11979.386774197992,-76.555
11982.577731420495,73.915
11985.767967754866,108.233
11988.957483445382,5.28
11992.146278736183,-95.034
11995.334353871312,633.558
11998.521709094712,84.474
12001.708344650193,10.559
12004.894260781464,-163.669
12008.079457732136,-10.559
12011.2639357457,-55.436
12014.44769506553,-84.474
12017.630735934905,-129.351
12020.81305859698,-504.206
12023.994663294816,-55.436
12027.175550271351,190.067
12030.27622427429,52.796
12033.455694464548,-187.427
12036.634447655608,36.958
12039.812484089987,5.28
12042.989804010074,-142.55
12046.166407658158,44.877
12049.26290681064,-110.873
12052.4380965329,13.199
12055.612570703324,-190.067
12058.786329563762,26.398
12061.880055974125,-76.555
12065.052402807443,73.915
12068.224035049663,108.233
12071.394952942192,-18.479
12074.485910333004,-158.389
12077.655418093736,126.712
12080.824212222367,105.593
12083.913099633974,124.072
12087.080485047096,-71.275
12090.247157544738,-129.351
12093.333977055809,2.64
