Raman Shift,Intensity 
400,7.179092635
401,7.209821981
402,7.180304609
403,7.158622672
404,7.166866774
405,7.154662726
406,7.219344821
407,7.205660539
408,7.20427834
409,7.176423499
410,7.198736561
411,7.155385922
412,7.223533857
413,7.227453312
414,7.247842179
415,7.217831044
416,7.129293421
417,7.176243756
418,7.176606063
419,7.188669269
420,7.132974089
421,7.198907744
422,7.161418377
423,7.202050956
424,7.199031851
425,7.204641926
426,7.207677648
427,7.182684031
428,7.197011908
429,7.253034532
430,7.248706769
431,7.24984811
432,7.221571296
433,7.199977164
434,7.179662636
435,7.215141284
436,7.231921256
437,7.183598108
438,7.24214969
439,7.177803852
440,7.271274238
441,7.170293718
442,7.212809774
443,7.219575532
444,7.176720983
445,7.182403761
446,7.194922337
447,7.156043648
448,7.195055193
449,7.175206384
450,7.212544619
451,7.219037592
452,7.208866311
453,7.159830707
454,7.23335569
455,7.25591997
456,7.251634128
457,7.160720349
458,7.203485852
459,7.202411239
460,7.208011558
461,7.224158151
462,7.188319055
463,7.149412778
464,7.175667216
465,7.221823948
466,7.201871562
467,7.229963035
468,7.205524302
469,7.204008189
470,7.190616116
471,7.221353332
472,7.21776744
473,7.191032658
474,7.168913808
475,7.173295862
476,7.226844682
477,7.206918546
478,7.243216075
479,7.198956526
480,7.195858743
481,7.244022049
482,7.236745472
483,7.212837636
484,7.247028711
485,7.203259778
486,7.242319824
487,7.260968725
488,7.309906402
489,7.222932639
490,7.247580277
491,7.245637538
492,7.235256704
493,7.22873944
494,7.252518118
495,7.278410859
496,7.268941232
497,7.274424244
498,7.257774142
499,7.268065193
500,7.290514005
501,7.286965796
502,7.275025944
503,7.350232746
504,7.326333043
505,7.326434
506,7.345617068
507,7.343736043
508,7.379383375
509,7.366451309
510,7.397348623
511,7.418447539
512,7.43485856
513,7.361380479
514,7.411557094
515,7.47630459
516,7.387540009
517,7.49071449
518,7.49166971
519,7.559933491
520,7.5072061
521,7.462213849
522,7.543209528
523,7.572753084
524,7.527282953
525,7.56790733
526,7.551265763
527,7.546446493
528,7.522585003
529,7.575128341
530,7.649226889
531,7.579256268
532,7.623533068
533,7.602646269
534,7.528692013
535,7.569934017
536,7.582821902
537,7.593770929
538,7.625320247
539,7.5633164
540,7.653545096
541,7.596697883
542,7.613576896
543,7.617680842
544,7.580962425
545,7.53229531
546,7.580778598
547,7.55061877
548,7.569024264
549,7.530680391
550,7.567767293
551,7.604126502
552,7.550037076
553,7.517432114
554,7.546738275
555,7.527660962
556,7.574833123
557,7.502669329
558,7.500203038
559,7.464219465
560,7.552802551
561,7.478430058
562,7.464294829
563,7.449987183
564,7.461047793
565,7.392468702
566,7.431256784
567,7.410413332
568,7.404801055
569,7.394538415
570,7.43059868
571,7.403313487
572,7.38772224
573,7.355529702
574,7.352639438
575,7.422743857
576,7.345133399
577,7.350493512
578,7.388625149
579,7.319845562
580,7.30184995
581,7.273925981
582,7.298360243
583,7.31333703
584,7.296754133
585,7.291116622
586,7.285304807
587,7.226862268
588,7.254535423
589,7.301092539
590,7.254318651
591,7.24406595
592,7.286817494
593,7.249767394
594,7.255446279
595,7.238921714
596,7.23479296
597,7.185217453
598,7.229290729
599,7.232872904
600,7.21945942
601,7.22873329
602,7.229722365
603,7.255711086
604,7.165794759
605,7.230254216
606,7.165574765
607,7.174299256
608,7.196142659
609,7.217873571
610,7.17553525
611,7.186538094
612,7.184992888
613,7.219702166
614,7.177487865
615,7.236326627
616,7.196657755
617,7.156876852
618,7.187127248
619,7.226366566
620,7.179164476
621,7.214716401
622,7.189558901
623,7.162420046
624,7.186087011
625,7.176621135
626,7.2016586
627,7.210340914
628,7.182643549
629,7.162969164
630,7.166732127
631,7.224205308
632,7.198144596
633,7.181021361
634,7.189768784
635,7.214364917
636,7.25313958
637,7.174739846
638,7.187226321
639,7.196596648
640,7.160740997
641,7.21867413
642,7.198286314
643,7.191446139
644,7.223010419
645,7.226491356
646,7.181422673
647,7.256275451
648,7.176882811
649,7.21506577
650,7.163307466
651,7.248971921
652,7.204843514
653,7.236415153
654,7.138282103
655,7.143164437
656,7.220756702
657,7.199447085
658,7.219412178
659,7.193023735
660,7.219313447
661,7.225412091
662,7.194883687
663,7.234620281
664,7.145135614
665,7.189899092
666,7.165126254
667,7.180779355
668,7.282021608
669,7.212899535
670,7.135723069
671,7.160258363
672,7.16244812
673,7.209480576
674,7.161996088
675,7.193645595
676,7.217375416
677,7.180266735
678,7.221784776
679,7.183277778
680,7.206487147
681,7.202630621
682,7.221219945
683,7.275974798
684,7.173985921
685,7.1916969
686,7.181956928
687,7.206895491
688,7.204411223
689,7.174126348
690,7.245438963
691,7.161297387
692,7.185799212
693,7.246686876
694,7.186771304
695,7.159931915
696,7.181072004
697,7.191231331
698,7.271941876
699,7.138698126
700,7.201763281
701,7.2047842
702,7.155848838
703,7.244535517
704,7.203399188
705,7.219351387
706,7.186772759
707,7.238629561
708,7.147277996
709,7.194436276
710,7.208288439
711,7.218196582
712,7.252197993
713,7.134459152
714,7.191612679
715,7.155386196
716,7.255991708
717,7.206236711
718,7.19421616
719,7.233082218
720,7.209373495
721,7.17887408
722,7.214300289
723,7.1845491
724,7.204650146
725,7.174595742
726,7.220465451
727,7.234594629
728,7.210836756
729,7.205110442
730,7.187971047
731,7.192652885
732,7.154659767
733,7.193505141
734,7.244460925
735,7.181302392
736,7.263334026
737,7.205018456
738,7.233797224
739,7.180704364
740,7.161118145
741,7.141327388
742,7.177278973
743,7.170282295
744,7.201823306
745,7.233078262
746,7.198155522
747,7.214963864
748,7.155292035
749,7.227192565
750,7.220915203
751,7.259402488
752,7.165822215
753,7.191519785
754,7.211299574
755,7.167428991
756,7.209783017
757,7.200551928
758,7.167635009
759,7.155288177
760,7.224383381
761,7.192215713
762,7.103727827
763,7.193094148
764,7.162879448
765,7.221338129
766,7.208973439
767,7.215918129
768,7.211656369
769,7.232331257
770,7.235174258
771,7.158023674
772,7.158761072
773,7.230507847
774,7.214896414
775,7.23808226
776,7.250441308
777,7.180804363
778,7.19129459
779,7.192842133
780,7.19857856
781,7.156709036
782,7.221033111
783,7.133390304
784,7.162340933
785,7.239386189
786,7.177226313
787,7.178074966
788,7.183460616
789,7.175321064
790,7.232847935
791,7.229934025
792,7.200659088
793,7.225757395
794,7.255728334
795,7.167227287
796,7.17190966
797,7.237676806
798,7.182566359
799,7.212220814
800,7.196951867
801,7.193740514
802,7.181287369
803,7.211820249
804,7.222191915
805,7.189284184
806,7.258111164
807,7.220217715
808,7.245745451
809,7.200411265
810,7.243377776
811,7.175468365
812,7.225688011
813,7.220657602
814,7.16053858
815,7.199465586
816,7.176535875
817,7.218958335
818,7.169484347
819,7.241164699
820,7.238953237
821,7.1763777
822,7.17235622
823,7.223832499
824,7.190464835
825,7.198895555
826,7.216872183
827,7.217153783
828,7.187666251
829,7.152995351
830,7.158942318
831,7.140772936
832,7.205541362
833,7.182899437
834,7.22912433
835,7.227554217
836,7.156583497
837,7.232637192
838,7.217129395
839,7.146771498
840,7.240606171
841,7.216496616
842,7.204849782
843,7.155666163
844,7.1498081
845,7.197676378
846,7.180937692
847,7.210239323
848,7.214070409
849,7.201546738
850,7.226825371
851,7.253771684
852,7.215911853
853,7.19296295
854,7.175341338
855,7.225998516
856,7.204727284
857,7.215300649
858,7.241387909
859,7.199243506
860,7.197210089
861,7.201430315
862,7.255954816
863,7.198644158
864,7.205776537
865,7.170524906
866,7.22981278
867,7.173612114
868,7.185339206
869,7.200419904
870,7.193967041
871,7.158679029
872,7.191668796
873,7.1799392
874,7.165387152
875,7.250091217
876,7.199376132
877,7.245348622
878,7.199008299
879,7.169727686
880,7.171084655
881,7.20193663
882,7.200351099
883,7.223741865
884,7.184276883
885,7.224736147
886,7.143337021
887,7.240083604
888,7.151402659
889,7.204088488
890,7.246308163
891,7.157471106
892,7.190510998
893,7.17317348
894,7.18875573
895,7.255632764
896,7.181350764
897,7.269481391
898,7.154151358
899,7.177571467
900,7.225810193
901,7.17113796
902,7.186576737
903,7.200047387
904,7.121508164
905,7.16912989
906,7.196433389
907,7.130656134
908,7.224093666
909,7.198031944
910,7.249356107
911,7.191509517
912,7.177200984
913,7.200101351
914,7.214280073
915,7.189167932
916,7.220553472
917,7.227977236
918,7.174154951
919,7.225954868
920,7.100344366
921,7.170580566
922,7.222553457
923,7.168128593
924,7.149561205
925,7.179491108
926,7.185627742
927,7.24174255
928,7.228596445
929,7.15860271
930,7.21084109
931,7.184973902
932,7.195812677
933,7.222140718
934,7.205696502
935,7.219901175
936,7.17775541
937,7.224244799
938,7.201088844
939,7.19457551
940,7.189616104
941,7.211000691
942,7.224714934
943,7.217099132
944,7.186254996
945,7.186244706
946,7.184842011
947,7.240807732
948,7.196790708
949,7.179476501
950,7.204351618
951,7.255285076
952,7.184409294
953,7.152482303
954,7.170838365
955,7.240847974
956,7.260587672
957,7.171545298
958,7.161611223
959,7.198396796
960,7.209888265
961,7.183668842
962,7.22953606
963,7.187961655
964,7.150652161
965,7.215969951
966,7.186844207
967,7.21471037
968,7.177572765
969,7.137629671
970,7.249635647
971,7.129168243
972,7.199155755
973,7.217384186
974,7.170594239
975,7.187991288
976,7.156980803
977,7.161389482
978,7.224423498
979,7.159580492
980,7.172708908
981,7.216138385
982,7.170145936
983,7.168802281
984,7.168067605
985,7.177560253
986,7.226607345
987,7.143654959
988,7.212180027
989,7.254825902
990,7.152774452
991,7.203826285
992,7.151047829
993,7.189931146
994,7.185557492
995,7.228305587
996,7.183872521
997,7.20308806
998,7.203741663
999,7.183370778
1000,7.271684055
1001,7.201132712
1002,7.211497679
1003,7.227751795
1004,7.191483851
1005,7.209748765
1006,7.228493404
1007,7.244731665
1008,7.201007935
1009,7.203690104
1010,7.203781313
1011,7.208886717
1012,7.20564095
1013,7.181029018
1014,7.207673527
1015,7.23527087
1016,7.235729405
1017,7.191622001
1018,7.224664298
1019,7.248422777
1020,7.161534534
1021,7.170844502
1022,7.223735221
1023,7.225711287
1024,7.245794462
1025,7.157244154
1026,7.215240529
1027,7.211713991
1028,7.198454972
1029,7.186917225
1030,7.191141785
1031,7.218944337
1032,7.229529069
1033,7.209295479
1034,7.208251144
1035,7.22374331
1036,7.148105499
1037,7.176110207
1038,7.212649255
1039,7.225497295
1040,7.230798101
1041,7.170211981
1042,7.203061464
1043,7.204610624
1044,7.183447608
1045,7.224019672
1046,7.21490733
1047,7.21042257
1048,7.166798671
1049,7.224946675
1050,7.191127327
1051,7.17231317
1052,7.233020117
1053,7.179175481
1054,7.221594482
1055,7.207964245
1056,7.206220499
1057,7.197826436
1058,7.229712831
1059,7.209543612
1060,7.241228473
1061,7.21470574
1062,7.177337517
1063,7.166159444
1064,7.180436561
1065,7.181945084
1066,7.1993637
1067,7.186278932
1068,7.190254769
1069,7.212785737
1070,7.230913014
1071,7.210200388
1072,7.200152728
1073,7.162468566
1074,7.184378015
1075,7.239636797
1076,7.176245586
1077,7.186654253
1078,7.228318906
1079,7.213644399
1080,7.181088957
1081,7.218363502
1082,7.18386327
1083,7.187564437
1084,7.197797745
1085,7.248672897
1086,7.171406201
1087,7.246095874
1088,7.22325629
1089,7.141017794
1090,7.23563145
1091,7.217853301
1092,7.203561273
1093,7.201875228
1094,7.189474429
1095,7.181643561
1096,7.20179497
1097,7.211339383
1098,7.203857205
1099,7.239622437
1100,7.18934095
1101,7.210342724
1102,7.210137713
1103,7.205093858
1104,7.234185485
1105,7.195626831
1106,7.236012762
1107,7.180299798
1108,7.260793621
1109,7.194661567
1110,7.231776536
1111,7.180039901
1112,7.167612415
1113,7.182286237
1114,7.182707541
1115,7.216559726
1116,7.22231082
1117,7.190421401
1118,7.192688294
1119,7.241008857
1120,7.222165311
1121,7.135810434
1122,7.187725273
1123,7.200884168
1124,7.075598893
1125,7.212829389
1126,7.229923453
1127,7.197597192
1128,7.240021984
1129,7.200831068
1130,7.176429007
1131,7.198654059
1132,7.174795793
1133,7.220327481
1134,7.209796574
1135,7.245438258
1136,7.156875114
1137,7.171851963
1138,7.244696288
1139,7.163214228
1140,7.177597833
1141,7.211313805
1142,7.21476624
1143,7.227278023
1144,7.176147787
1145,7.189693366
1146,7.215980532
1147,7.167852482
1148,7.263583787
1149,7.141731334
1150,7.216432563
1151,7.181000711
1152,7.145718406
1153,7.191139962
1154,7.173751525
1155,7.204734361
1156,7.231402437
1157,7.202392939
1158,7.159121597
1159,7.222894558
1160,7.213142819
1161,7.220226792
1162,7.219897915
1163,7.221035944
1164,7.204018214
1165,7.197253272
1166,7.198904088
1167,7.19217252
1168,7.237741945
1169,7.19809854
1170,7.225053209
1171,7.180220464
1172,7.218528161
1173,7.170889492
1174,7.142874214
1175,7.196022221
1176,7.198964237
1177,7.21305951
1178,7.183489855
1179,7.182186763
1180,7.228887994
1181,7.241336784
1182,7.198454698
1183,7.167766199
1184,7.200541495
1185,7.173192679
1186,7.194945723
1187,7.124784026
1188,7.208611408
1189,7.184333703
1190,7.161495503
1191,7.176418704
1192,7.21249937
1193,7.246878773
1194,7.164436461
1195,7.213154673
1196,7.189314202
1197,7.200668487
1198,7.240296671
1199,7.201593105
1200,7.185309387
1201,7.194371011
1202,7.203629246
1203,7.190955767
1204,7.184121488
1205,7.212368664
1206,7.161930608
1207,7.215968435
1208,7.202567684
1209,7.214416335
1210,7.20535731
1211,7.223251001
1212,7.213554536
1213,7.261260349
1214,7.21874315
1215,7.230697705
1216,7.216935448
1217,7.176395817
1218,7.174194476
1219,7.209992426
1220,7.220360283
1221,7.192905276
1222,7.189136678
1223,7.165895623
1224,7.184401456
1225,7.163270742
1226,7.277687347
1227,7.208381728
1228,7.223866323
1229,7.186957029
1230,7.208702521
1231,7.226808341
1232,7.242974646
1233,7.273790686
1234,7.19560839
1235,7.235840244
1236,7.208783601
1237,7.1946649
1238,7.280804979
1239,7.219510816
1240,7.134522666
1241,7.185789687
1242,7.123547116
1243,7.208820975
1244,7.15345288
1245,7.193509126
1246,7.255755293
1247,7.185915023
1248,7.207064683
1249,7.214744345
1250,7.208121753
1251,7.227345811
1252,7.218676517
1253,7.220911056
1254,7.132851254
1255,7.218408999
1256,7.255224727
1257,7.203162724
1258,7.143457815
1259,7.187114945
1260,7.189685498
1261,7.214985795
1262,7.132178314
1263,7.185008613
1264,7.231448639
1265,7.20305221
1266,7.22538989
1267,7.243591737
1268,7.242709787
1269,7.162412815
1270,7.25580877
1271,7.225072346
1272,7.185798886
1273,7.206775806
1274,7.245331156
1275,7.24670629
1276,7.260732817
1277,7.223926011
1278,7.226364134
1279,7.187117144
1280,7.252476175
1281,7.207690966
1282,7.166525657
1283,7.205258363
1284,7.17795467
1285,7.16898728
1286,7.169979862
1287,7.124053198
1288,7.207053754
1289,7.168943521
1290,7.267256991
1291,7.168672592
1292,7.204953329
1293,7.174957891
1294,7.13259171
1295,7.24382669
1296,7.243063256
1297,7.228100528
1298,7.183078949
1299,7.205696263
1300,7.192322632
1301,7.249378648
1302,7.120915616
1303,7.179014359
1304,7.253136372
1305,7.217389398
1306,7.18244198
1307,7.167765185
1308,7.21716091
1309,7.241471232
1310,7.207853837
1311,7.178788362
1312,7.189144632
1313,7.19342703
1314,7.199672521
1315,7.215031767
1316,7.220649969
1317,7.171837747
1318,7.248720425
1319,7.173967708
1320,7.240313475
1321,7.231812962
1322,7.181985039
1323,7.156488227
1324,7.221564583
1325,7.197827702
1326,7.166072476
1327,7.186969802
1328,7.245784372
1329,7.166274284
1330,7.212085219
1331,7.208859835
1332,7.202012568
1333,7.192950895
1334,7.222274407
1335,7.2293165
1336,7.206413828
1337,7.138662742
1338,7.190431727
1339,7.17014884
1340,7.197476045
1341,7.223005498
1342,7.198262645
1343,7.194436672
1344,7.209092333
1345,7.180881859
1346,7.195891274
1347,7.217170567
1348,7.215182102
1349,7.208161806
1350,7.214101864
1351,7.205648051
1352,7.192811444
1353,7.203205868
1354,7.171297969
1355,7.168782419
1356,7.166573664
1357,7.179348883
1358,7.193017734
1359,7.25963058
1360,7.195589811
1361,7.199680103
1362,7.190690262
1363,7.176173061
1364,7.182196642
1365,7.216730102
1366,7.207383086
1367,7.216940319
1368,7.25063412
1369,7.161392361
1370,7.154857918
1371,7.135635373
1372,7.223824322
1373,7.252355319
1374,7.253333888
1375,7.196022363
1376,7.134488954
1377,7.243948535
1378,7.250993023
1379,7.240363366
1380,7.200056701
1381,7.209409089
1382,7.181226604
1383,7.175258477
1384,7.151505552
1385,7.260350413
1386,7.196750405
1387,7.20015689
1388,7.179423658
1389,7.172173152
1390,7.215348029
1391,7.158074982
1392,7.156048484
1393,7.243045473
1394,7.21137962
1395,7.222055249
1396,7.263958477
1397,7.245577847
1398,7.186766787
1399,7.21189022
1400,7.184902245
1401,7.202337753
1402,7.199086441
1403,7.215287704
1404,7.249869095
1405,7.219388287
1406,7.125877824
1407,7.258138332
1408,7.177963172
1409,7.217090854
1410,7.2418828
1411,7.222177375
1412,7.184363818
1413,7.21467716
1414,7.245545076
1415,7.217423906
1416,7.141629426
1417,7.251795889
1418,7.221949884
1419,7.263717467
1420,7.265665791
1421,7.225791883
1422,7.291671639
1423,7.242983804
1424,7.204379453
1425,7.228885001
1426,7.225758979
1427,7.20741992
1428,7.229950567
1429,7.209563383
1430,7.206182171
1431,7.207058403
1432,7.23111923
1433,7.20914171
1434,7.223897724
1435,7.139800805
1436,7.215768041
1437,7.207483849
1438,7.239240255
1439,7.251470145
1440,7.298606867
1441,7.270996883
1442,7.227765831
1443,7.199363569
1444,7.247408934
1445,7.244183957
1446,7.184413876
1447,7.214216149
1448,7.263496868
1449,7.202919402
1450,7.177661563
1451,7.19390068
1452,7.247961828
1453,7.248328283
1454,7.278942577
1455,7.216100475
1456,7.234596461
1457,7.290302901
1458,7.242799328
1459,7.254863982
1460,7.252649791
1461,7.352244739
1462,7.257325891
1463,7.164321576
1464,7.286973677
1465,7.196543068
1466,7.217021769
1467,7.219219275
1468,7.252188658
1469,7.249510167
1470,7.288445432
1471,7.212683819
1472,7.276671744
1473,7.302130386
1474,7.241314752
1475,7.248602407
1476,7.245595866
1477,7.236622991
1478,7.33580937
1479,7.30639368
1480,7.260607792
1481,7.272139417
1482,7.247571682
1483,7.33482267
1484,7.34375935
1485,7.280103523
1486,7.255678084
1487,7.270970723
1488,7.238136814
1489,7.353335304
1490,7.326435445
1491,7.253593045
1492,7.287777524
1493,7.244286532
1494,7.364547783
1495,7.280894244
1496,7.271201267
1497,7.321487071
1498,7.253212077
1499,7.275402553
1500,7.276407532
1501,7.284365845
1502,7.317505942
1503,7.294914876
1504,7.288860394
1505,7.268761139
1506,7.287266838
1507,7.304910686
1508,7.286139338
1509,7.333801475
1510,7.346867464
1511,7.302208138
1512,7.302132217
1513,7.31903244
1514,7.338093426
1515,7.297035691
1516,7.344935992
1517,7.281275804
1518,7.321956971
1519,7.294293738
1520,7.318546819
1521,7.320296703
1522,7.322641425
1523,7.328046049
1524,7.350403263
1525,7.354276382
1526,7.318395066
1527,7.346357992
1528,7.319169428
1529,7.353439013
1530,7.379981196
1531,7.286886514
1532,7.289266564
1533,7.344834835
1534,7.280399385
1535,7.29035371
1536,7.320652268
1537,7.351599227
1538,7.360558274
1539,7.354622045
1540,7.370826656
1541,7.364842117
1542,7.388689581
1543,7.371752326
1544,7.33500557
1545,7.33190049
1546,7.403971985
1547,7.382829527
1548,7.397139319
1549,7.36312379
1550,7.444395849
1551,7.393481843
1552,7.366125716
1553,7.344167488
1554,7.377686592
1555,7.356500828
1556,7.394972172
1557,7.403369457
1558,7.364631661
1559,7.37538957
1560,7.379561203
1561,7.370378611
1562,7.363187003
1563,7.381334361
1564,7.419365131
1565,7.395178059
1566,7.40916835
1567,7.441479048
1568,7.424583529
1569,7.398703902
1570,7.37111774
1571,7.360674677
1572,7.355049399
1573,7.445722149
1574,7.398340585
1575,7.398499549
1576,7.422554288
1577,7.421165632
1578,7.457525678
1579,7.402926653
1580,7.443820091
1581,7.364708254
1582,7.423637837
1583,7.479557428
1584,7.381650845
1585,7.350766724
1586,7.413877944
1587,7.392609447
1588,7.384142995
1589,7.354435789
1590,7.39118764
1591,7.387622079
1592,7.445736248
1593,7.394338785
1594,7.395743125
1595,7.373027294
1596,7.429347019
1597,7.351487647
1598,7.437260914
1599,7.446899869
1600,7.402362041
1601,7.454381334
1602,7.447154361
1603,7.361337981
1604,7.378731838
1605,7.376774355
1606,7.394442724
1607,7.38671651
1608,7.37543622
1609,7.385009036
1610,7.401978272
1611,7.371892595
1612,7.371139744
1613,7.348046746
1614,7.411380777
1615,7.389759494
1616,7.380363648
1617,7.43116979
1618,7.392106812
1619,7.406731895
1620,7.388731392
1621,7.419640154
1622,7.387313929
1623,7.421867015
1624,7.406072003
1625,7.401791001
1626,7.413810104
1627,7.35205498
1628,7.390279071
1629,7.351105776
1630,7.419838303
1631,7.367613332
1632,7.376704481
1633,7.388208967
1634,7.372485472
1635,7.404179614
1636,7.376294945
1637,7.328300542
1638,7.390883613
1639,7.394378834
1640,7.377898359
1641,7.424186652
1642,7.382904979
1643,7.36994252
1644,7.392688413
1645,7.402121833
1646,7.35400905
1647,7.38439809
1648,7.36750316
1649,7.451475295
1650,7.437665287
1651,7.353188093
1652,7.424444429
1653,7.360169272
1654,7.372964272
1655,7.324354313
1656,7.350810747
1657,7.412605103
1658,7.351775378
1659,7.397785565
1660,7.363651569
1661,7.356839608
1662,7.336772353
1663,7.373489854
1664,7.334602266
1665,7.34723573
1666,7.331693293
1667,7.311771748
1668,7.333506984
1669,7.343853668
1670,7.37457014
1671,7.328955216
1672,7.295410031
1673,7.374607603
1674,7.292189857
1675,7.341570575
1676,7.314901716
1677,7.303859447
1678,7.297805203
1679,7.387994746
1680,7.328156094
1681,7.292288966
1682,7.303269102
1683,7.310725334
1684,7.295037131
1685,7.332733922
1686,7.341266532
1687,7.275700474
1688,7.253349702
1689,7.29417024
1690,7.320724766
1691,7.303021951
1692,7.306489766
1693,7.298514685
1694,7.293152359
1695,7.317795959
1696,7.264231896
1697,7.261615381
1698,7.24905412
1699,7.333672755
1700,7.280003376
1701,7.290320232
1702,7.294510607
1703,7.255965559
1704,7.304888343
1705,7.283708999
1706,7.304801564
1707,7.31523254
1708,7.200626246
1709,7.289052905
1710,7.343723763
1711,7.255085456
1712,7.253207925
1713,7.292624115
1714,7.250059356
1715,7.269162649
1716,7.257250805
1717,7.262095095
1718,7.257359897
1719,7.228302403
1720,7.289426155
1721,7.232533208
1722,7.25514986
1723,7.21400841
1724,7.297676862
1725,7.259469269
1726,7.263744524
1727,7.2638614
1728,7.262585917
1729,7.248717256
1730,7.288512938
1731,7.272963518
1732,7.219554081
1733,7.248852867
1734,7.194252517
1735,7.241459468
1736,7.297083618
1737,7.209136592
1738,7.297386961
1739,7.200192787
1740,7.248939099
1741,7.212007475
1742,7.212417426
1743,7.220512091
1744,7.258098553
1745,7.202235685
1746,7.177337542
1747,7.180624266
1748,7.271748315
1749,7.268626285
1750,7.297438146
1751,7.220017139
1752,7.239415738
1753,7.201632499
1754,7.255626999
1755,7.29140363
1756,7.238645445
1757,7.191689286
1758,7.214066774
1759,7.208816616
1760,7.145006413
1761,7.253206709
1762,7.185387358
1763,7.162811749
1764,7.203919059
1765,7.215957644
1766,7.17637663
1767,7.216520176
1768,7.233998247
1769,7.232741892
1770,7.234891185
1771,7.224835827
1772,7.211660232
1773,7.211989651
1774,7.204669456
1775,7.247729533
1776,7.260133298
1777,7.217229275
1778,7.200045201
1779,7.227692069
1780,7.218287756
1781,7.256618915
1782,7.222116274
1783,7.244844244
1784,7.184583464
1785,7.205529413
1786,7.213372779
1787,7.225013012
1788,7.233280397
1789,7.240616143
1790,7.190104932
1791,7.199609352
1792,7.188288072
1793,7.279387299
1794,7.249494303
1795,7.228495277
1796,7.199527676
1797,7.255028674
1798,7.195914366
1799,7.21197182
1800,7.196255234
1801,7.174245611
1802,7.261305918
1803,7.244458635
1804,7.156420696
1805,7.210942949
1806,7.260753261
1807,7.127144707
1808,7.202212329
1809,7.20694044
1810,7.172223303
1811,7.230046984
1812,7.250868973
1813,7.223698438
1814,7.178843428
1815,7.209937587
1816,7.186049324
1817,7.185438016
1818,7.196512817
1819,7.169552965
1820,7.186376523
1821,7.226793534
1822,7.19168761
1823,7.241527933
1824,7.16728404
1825,7.158044517
1826,7.21020774
1827,7.224151898
1828,7.202209056
1829,7.232517264
1830,7.173009087
1831,7.182104789
1832,7.200360245
1833,7.169043967
1834,7.179198052
1835,7.202074195
1836,7.191206352
1837,7.140270037
1838,7.248857599
1839,7.225145943
1840,7.221911799
1841,7.155609579
1842,7.205278135
1843,7.241003006
1844,7.182892213
1845,7.185463353
1846,7.162826712
1847,7.165893062
1848,7.22134901
1849,7.223908347
1850,7.177802664
1851,7.160640745
1852,7.192238612
1853,7.199649034
1854,7.236925902
1855,7.221231308
1856,7.217466889
1857,7.190789172
1858,7.20577823
1859,7.228011519
1860,7.255738395
1861,7.237040105
1862,7.170204628
1863,7.207198214
1864,7.201869412
1865,7.21821502
1866,7.20472041
1867,7.186722784
1868,7.158303901
1869,7.143373654
1870,7.121571437
1871,7.202320463
1872,7.235339505
1873,7.218557495
1874,7.212108608
1875,7.201085573
1876,7.170243676
1877,7.161565686
1878,7.176285631
1879,7.191712372
1880,7.192603611
1881,7.159064524
1882,7.242282742
1883,7.148115024
1884,7.137568337
1885,7.191837666
1886,7.189502913
1887,7.235229697
1888,7.198047684
1889,7.154721194
1890,7.203443945
1891,7.243230976
1892,7.191994195
1893,7.235294443
1894,7.253535188
1895,7.256311817
1896,7.267650309
1897,7.175471703
1898,7.180740221
1899,7.248613625
1900,7.158851053
1901,7.183251027
1902,7.193476796
1903,7.258681098
1904,7.260614675
1905,7.167874717
1906,7.207239866
1907,7.237007005
1908,7.206840052
1909,7.212049492
1910,7.183313766
1911,7.218253954
1912,7.180185809
1913,7.207334121
1914,7.226997372
1915,7.197561448
1916,7.22443353
1917,7.169064884
1918,7.18440408
1919,7.20874709
1920,7.153251593
1921,7.170717221
1922,7.236759164
1923,7.221205521
1924,7.221309518
1925,7.228266251
1926,7.193271336
1927,7.277314092
1928,7.223548031
1929,7.242394578
1930,7.194442811
1931,7.190247863
1932,7.206221314
1933,7.226045653
1934,7.190390986
1935,7.163651211
1936,7.190264546
1937,7.177953102
1938,7.203650351
1939,7.142847819
1940,7.187909798
1941,7.17427079
1942,7.181905026
1943,7.197840054
1944,7.194889096
1945,7.242997623
1946,7.209657005
1947,7.192589045
1948,7.194665507
1949,7.24449275
1950,7.20729295
1951,7.209370196
1952,7.172313887
1953,7.224936997
1954,7.273241808
1955,7.195295764
1956,7.230865617
1957,7.233231473
1958,7.192791141
1959,7.206927019
1960,7.205328609
1961,7.198705015
1962,7.213560869
1963,7.199773628
1964,7.169602987
1965,7.182785541
1966,7.177262382
1967,7.240951439
1968,7.214363715
1969,7.175175479
1970,7.154836689
1971,7.194293866
1972,7.19454266
1973,7.191077607
1974,7.202629983
1975,7.191678947
1976,7.192037326
1977,7.266339182
1978,7.199368457
1979,7.225648427
1980,7.217822682
1981,7.260969424
1982,7.231770594
1983,7.178583138
1984,7.211016736
1985,7.178483223
1986,7.209475336
1987,7.220754004
1988,7.196804114
1989,7.199099786
1990,7.20375691
1991,7.203410095
1992,7.170638977
1993,7.213564034
1994,7.212776277
1995,7.158971035
1996,7.182453446
1997,7.195746328
1998,7.250483798
1999,7.21410393
2000,7.226635863
2001,7.186141362
2002,7.156845837
2003,7.21575222
2004,7.127874352
2005,7.181765732
2006,7.214535749
2007,7.220368099
2008,7.114474369
2009,7.162092461
2010,7.205416204
2011,7.150429248
2012,7.191866638
2013,7.166392617
2014,7.179272669
2015,7.216076232
2016,7.203994644
2017,7.203675073
2018,7.203385456
2019,7.175879998
2020,7.298758952
2021,7.212735074
2022,7.269417745
2023,7.306653662
2024,7.184464541
2025,7.214171555
2026,7.179447968
2027,7.195251273
2028,7.224157283
2029,7.228305071
2030,7.191012925
2031,7.227710784
2032,7.140878385
2033,7.162101294
2034,7.244024211
2035,7.159375769
2036,7.19451315
2037,7.189565732
2038,7.200682295
2039,7.227428939
2040,7.223360303
2041,7.195973582
2042,7.187258035
2043,7.192400072
2044,7.199601423
2045,7.243678766
2046,7.194335875
2047,7.198004075
2048,7.221877448
2049,7.218198627
2050,7.22622091
2051,7.199318542
2052,7.195624345
2053,7.231947449
2054,7.218458185
2055,7.23175916
2056,7.2004834
2057,7.179135724
2058,7.237570317
2059,7.216284984
2060,7.22259301
2061,7.220789976
2062,7.167448234
2063,7.241721209
2064,7.235492212
2065,7.194824889
2066,7.241727142
2067,7.227941274
2068,7.183180972
2069,7.221925907
2070,7.196975441
2071,7.193958783
2072,7.184967383
2073,7.167496988
2074,7.221845391
2075,7.211950289
2076,7.180859988
2077,7.267505291
2078,7.190345413
2079,7.155048481
2080,7.18399479
2081,7.18026807
2082,7.166590144
2083,7.196664548
2084,7.199988717
2085,7.202560385
2086,7.144408866
2087,7.228170098
2088,7.218593979
2089,7.173188711
2090,7.220126831
2091,7.125918525
2092,7.211810396
2093,7.202213761
2094,7.172232465
2095,7.221332573
2096,7.234118325
2097,7.255834584
2098,7.190205563
2099,7.220773358
2100,7.219254685
2101,7.196339167
2102,7.206473659
2103,7.219485094
2104,7.210096254
2105,7.202818068
2106,7.166882028
2107,7.155177026
2108,7.155719314
2109,7.187569609
2110,7.177890676
2111,7.189458047
2112,7.193335225
2113,7.264010126
2114,7.171947204
2115,7.183984748
2116,7.247284472
2117,7.225257918
2118,7.165095021
2119,7.187848567
2120,7.208078461
2121,7.196080855
2122,7.231399
2123,7.221595117
2124,7.212471001
2125,7.198773916
2126,7.181413449
2127,7.232718843
2128,7.231843865
2129,7.18393113
2130,7.170134869
2131,7.171094576
2132,7.141525858
2133,7.199369191
2134,7.204072046
2135,7.149313693
2136,7.205691299
2137,7.202690216
2138,7.205895093
2139,7.211301201
2140,7.196849244
2141,7.214268019
2142,7.176526924
2143,7.252720184
2144,7.172386675
2145,7.181121926
2146,7.161213809
2147,7.176950546
2148,7.196626351
2149,7.254150835
2150,7.218697588
2151,7.191629405
2152,7.238045123
2153,7.232462257
2154,7.179806804
2155,7.197699939
2156,7.192372332
2157,7.165125015
2158,7.180686072
2159,7.154511031
2160,7.180052055
2161,7.124959135
2162,7.208009843
2163,7.210963074
2164,7.163425685
2165,7.266242005
2166,7.258312898
2167,7.215050388
2168,7.153781595
2169,7.134159077
2170,7.218287212
2171,7.205473167
2172,7.233437955
2173,7.211536581
2174,7.187811388
2175,7.197265548
2176,7.196535454
2177,7.204492771
2178,7.249093324
2179,7.194337763
2180,7.215964202
2181,7.186164821
2182,7.208845136
2183,7.201990165
2184,7.172977375
2185,7.17837233
2186,7.254063277
2187,7.244901563
2188,7.229878718
2189,7.174618188
2190,7.219866481
2191,7.183522315
2192,7.169726368
2193,7.214799327
2194,7.217212731
2195,7.186226242
2196,7.166085215
2197,7.222293649
2198,7.221055143
2199,7.2223418
2200,7.189334723
2201,7.192574311
2202,7.144620869
2203,7.165697763
2204,7.205745534
2205,7.244392584
2206,7.130135628
2207,7.148352828
2208,7.239055238
2209,7.110464941
2210,7.182493484
2211,7.159202034
2212,7.2271666
2213,7.174942704
2214,7.205197388
2215,7.226711716
2216,7.19036066
2217,7.16074934
2218,7.193295323
2219,7.215495681
2220,7.280651612
2221,7.228564596
2222,7.198123494
2223,7.190099332
2224,7.193258636
2225,7.189769837
2226,7.181196751
2227,7.147545442
2228,7.207139879
2229,7.214525943
2230,7.222555552
2231,7.197105998
2232,7.223962492
2233,7.206335988
2234,7.179211207
2235,7.2478665
2236,7.187330273
2237,7.230230334
2238,7.234156921
2239,7.214556522
2240,7.178732097
2241,7.203835942
2242,7.21752443
2243,7.206591892
2244,7.181001897
2245,7.187633875
2246,7.18869195
2247,7.189859942
2248,7.195715465
2249,7.204881404
2250,7.252471204
2251,7.270374305
2252,7.216355743
2253,7.182289542
2254,7.166404393
2255,7.23721751
2256,7.173488317
2257,7.174043553
2258,7.159571979
2259,7.259152029
2260,7.11825675
2261,7.160350315
2262,7.147328573
2263,7.221437657
2264,7.259355091
2265,7.209133854
2266,7.236864558
2267,7.184718904
2268,7.223564541
2269,7.219670055
2270,7.129539858
2271,7.241275671
2272,7.173222856
2273,7.198430508
2274,7.150373646
2275,7.156262202
2276,7.190830381
2277,7.187271361
2278,7.233678879
2279,7.224763905
2280,7.188909336
2281,7.214675102
2282,7.25523112
2283,7.147057226
2284,7.185915235
2285,7.181923069
2286,7.204269794
2287,7.211243806
2288,7.168802086
2289,7.230006
2290,7.233164045
2291,7.205874694
2292,7.207005657
2293,7.176783765
2294,7.227854937
2295,7.176623883
2296,7.220124662
2297,7.171587946
2298,7.20888494
2299,7.225512744
2300,7.190319483
2301,7.210588816
2302,7.170632833
2303,7.225354923
2304,7.215779314
2305,7.187385458
2306,7.184981844
2307,7.23587079
2308,7.19410849
2309,7.218107898
2310,7.190774971
2311,7.201386144
2312,7.159989732
2313,7.23554022
2314,7.225951396
2315,7.162589689
2316,7.206021732
2317,7.194353746
2318,7.180616248
2319,7.165133887
2320,7.177259653
2321,7.258297413
2322,7.193348669
2323,7.188246134
2324,7.177745123
2325,7.22069757
2326,7.199698595
2327,7.229334489
2328,7.208337557
2329,7.188327902
2330,7.241858156
2331,7.185780801
2332,7.21851128
2333,7.240827087
2334,7.200075614
2335,7.26119951
2336,7.210193575
2337,7.167219727
2338,7.221167257
2339,7.220413173
2340,7.232244301
2341,7.185200552
2342,7.193563849
2343,7.178524995
2344,7.220177082
2345,7.182226249
2346,7.195498226
2347,7.186277841
2348,7.23188206
2349,7.263983662
2350,7.209374777
2351,7.184497126
2352,7.165323191
2353,7.199525833
2354,7.164170717
2355,7.196525441
2356,7.241616156
2357,7.179359983
2358,7.19409285
2359,7.196451036
2360,7.222505029
2361,7.219974688
2362,7.185879187
2363,7.131467569
2364,7.234690898
2365,7.201742206
2366,7.161365009
2367,7.198662585
2368,7.210845848
2369,7.237644979
2370,7.235453746
2371,7.232429015
2372,7.212171229
2373,7.24184377
2374,7.180299926
2375,7.202637182
2376,7.21474971
2377,7.217914397
2378,7.148459865
2379,7.151561819
2380,7.16352004
2381,7.172899136
2382,7.208857667
2383,7.162240187
2384,7.179201608
2385,7.223949187
2386,7.199241705
2387,7.191794556
2388,7.203395657
2389,7.196970672
2390,7.159360513
2391,7.22496594
2392,7.204296174
2393,7.163417225
2394,7.228837894
2395,7.153580774
2396,7.273378831
2397,7.203238597
2398,7.156893295
2399,7.195858063
2400,7.165393395
2401,7.202077334
2402,7.287434583
2403,7.196221426
2404,7.182598442
2405,7.140851319
2406,7.136816467
2407,7.219293193
2408,7.180320828
2409,7.183029019
2410,7.153141322
2411,7.197484999
2412,7.202281842
2413,7.210347031
2414,7.197469589
2415,7.102253954
2416,7.235197824
2417,7.219918791
2418,7.194721585
2419,7.181047229
2420,7.281917709
2421,7.177129783
2422,7.192850671
2423,7.235177523
2424,7.204129342
2425,7.152670387
2426,7.176422057
2427,7.189752796
2428,7.206877441
2429,7.171632372
2430,7.186475795
2431,7.137631175
2432,7.185121791
2433,7.206172056
2434,7.22137572
2435,7.14920081
2436,7.209751288
2437,7.202061983
2438,7.141731972
2439,7.218910204
2440,7.218871212
2441,7.185614473
2442,7.185243714
2443,7.235462857
2444,7.207645616
2445,7.258715794
2446,7.257156593
2447,7.231067653
2448,7.166320683
2449,7.253608105
2450,7.237314455
2451,7.202002688
2452,7.226169189
2453,7.207130682
2454,7.208945639
2455,7.222130041
2456,7.148536563
2457,7.258248315
2458,7.17569198
2459,7.203818576
2460,7.172955623
2461,7.217522704
2462,7.244011678
2463,7.215860639
2464,7.173052077
2465,7.207622506
2466,7.233423469
2467,7.18613247
2468,7.160905237
2469,7.212850697
2470,7.175202459
2471,7.194549048
2472,7.185824535
2473,7.200553895
2474,7.219002115
2475,7.182642534
2476,7.252734888
2477,7.219811286
2478,7.174479705
2479,7.187925142
2480,7.163270883
2481,7.180501503
2482,7.261308413
2483,7.217385619
2484,7.182095136
2485,7.197674959
2486,7.214409081
2487,7.218883743
2488,7.219894036
2489,7.195719201
2490,7.166776469
2491,7.146765609
2492,7.140365002
2493,7.221607642
2494,7.191788296
2495,7.181528102
2496,7.172445932
2497,7.220180984
2498,7.192057301
2499,7.217918256
2500,7.208004238
2501,7.202672894
2502,7.191488892
2503,7.16784065
2504,7.207489202
2505,7.195667109
2506,7.207936274
2507,7.192900966
2508,7.253169487
2509,7.252279891
2510,7.151580953
2511,7.208514405
2512,7.188557336
2513,7.163792086
2514,7.187558738
2515,7.171616116
2516,7.222131643
2517,7.180011109
2518,7.164568326
2519,7.186955248
2520,7.193110022
2521,7.208719044
2522,7.230751448
2523,7.187727089
2524,7.166472774
2525,7.173759954
2526,7.242678017
2527,7.185962472
2528,7.112322529
2529,7.16914567
2530,7.163387743
2531,7.224199894
2532,7.203466928
2533,7.176351714
2534,7.257336466
2535,7.169099036
2536,7.235126601
2537,7.198517871
2538,7.193200223
2539,7.244250834
2540,7.241486864
2541,7.219402829
2542,7.153159277
2543,7.152484222
2544,7.175143953
2545,7.201570569
2546,7.247069106
2547,7.222355838
2548,7.189932615
2549,7.151214228
2550,7.187073362
2551,7.235590257
2552,7.199640202
2553,7.15832004
2554,7.273369186
2555,7.220650016
2556,7.226847635
2557,7.235487714
2558,7.164422039
2559,7.198561533
2560,7.243531377
2561,7.206096361
2562,7.214714957
2563,7.174098282
2564,7.21356201
2565,7.167266502
2566,7.21137343
2567,7.196384811
2568,7.190181422
2569,7.1602682
2570,7.16017196
2571,7.18980914
2572,7.218486654
2573,7.201969415
2574,7.17053643
2575,7.164443781
2576,7.164507141
2577,7.191560096
2578,7.22202636
2579,7.192483242
2580,7.195171166
2581,7.175884473
2582,7.153991333
2583,7.176608448
2584,7.20708784
2585,7.212003271
2586,7.214611047
2587,7.202343242
2588,7.185575441
2589,7.160954644
2590,7.190346177
2591,7.188513827
2592,7.17649209
2593,7.245036852
2594,7.212369429
2595,7.186991971
2596,7.239000367
2597,7.177436211
2598,7.213314382
2599,7.15862451
2600,7.188576965
2601,7.280066918
2602,7.19686027
2603,7.198426171
2604,7.202745014
2605,7.180358345
2606,7.164141785
2607,7.181446474
2608,7.213267795
2609,7.192798057
2610,7.188371978
2611,7.232649456
2612,7.175058173
2613,7.162045689
2614,7.182214822
2615,7.224550724
2616,7.227318878
2617,7.193534819
2618,7.180072618
2619,7.191925087
2620,7.163992907
2621,7.210144089
2622,7.225540934
2623,7.172544609
2624,7.185110822
2625,7.212348123
2626,7.276613147
2627,7.20437832
2628,7.184122615
2629,7.168650356
2630,7.203859668
2631,7.234816467
2632,7.222615964
2633,7.179004402
2634,7.258347624
2635,7.233806172
2636,7.178467241
2637,7.18341959
2638,7.168825331
2639,7.19639781
2640,7.220998529
2641,7.194871322
2642,7.202505639
2643,7.265565539
2644,7.210367906
2645,7.197798465
2646,7.179159986
2647,7.213168843
2648,7.244216069
2649,7.189385125
2650,7.230670773
2651,7.245147525
2652,7.182556804
2653,7.269058583
2654,7.148426681
2655,7.181899424
2656,7.208245502
2657,7.214269871
2658,7.183001612
2659,7.198786145
2660,7.197030912
2661,7.207910996
2662,7.253554819
2663,7.221097682
2664,7.243307556
2665,7.229042918
2666,7.223175043
2667,7.218235829
2668,7.170598952
2669,7.164613393
2670,7.17681113
2671,7.178292448
2672,7.172371733
2673,7.183254176
2674,7.21629993
2675,7.234161182
2676,7.178976881
2677,7.264709691
2678,7.191023481
2679,7.202213422
2680,7.179275075
2681,7.22933889
2682,7.197653614
2683,7.177806019
2684,7.225278212
2685,7.223780408
2686,7.229083261
2687,7.154757168
2688,7.138403657
2689,7.243507215
2690,7.20555286
2691,7.220366361
2692,7.174373269
2693,7.163024187
2694,7.17001365
2695,7.162604646
2696,7.213390134
2697,7.200482927
2698,7.161670478
2699,7.201353116
2700,7.188087433
2701,7.210501733
2702,7.211262633
2703,7.172724594
2704,7.191574038
2705,7.226528089
2706,7.205398166
2707,7.239174812
2708,7.17981856
2709,7.179236263
2710,7.169161896
2711,7.197943113
2712,7.218420106
2713,7.189054114
2714,7.195482024
2715,7.232895281
2716,7.197962677
2717,7.208600298
2718,7.17061348
2719,7.244776303
2720,7.206015789
2721,7.196457194
2722,7.182912844
2723,7.185009229
2724,7.130547808
2725,7.211601497
2726,7.190661011
2727,7.216848299
2728,7.188224638
2729,7.214546045
2730,7.217567927
2731,7.231766849
2732,7.243658957
2733,7.17190455
2734,7.211828706
2735,7.174215235
2736,7.234496457
2737,7.210465897
2738,7.233300114
2739,7.180652019
2740,7.206482099
2741,7.240497255
2742,7.197808155
2743,7.181413535
2744,7.177018841
2745,7.211202694
2746,7.181412396
2747,7.166678674
2748,7.191660465
2749,7.227637979
2750,7.227174938
2751,7.189541625
2752,7.187440084
2753,7.1972035
2754,7.20555206
2755,7.222339564
2756,7.220666854
2757,7.202610939
2758,7.200595478
2759,7.189391632
2760,7.227968536
2761,7.224671381
2762,7.182616535
2763,7.215088623
2764,7.17056804
2765,7.212810579
2766,7.169426929
2767,7.194439029
2768,7.225498311
2769,7.178626867
2770,7.19364346
2771,7.178527449
2772,7.16184065
2773,7.184073435
2774,7.189896578
2775,7.183378572
2776,7.216672014
2777,7.15834737
2778,7.209568353
2779,7.176160204
2780,7.201404662
2781,7.199835544
2782,7.193058115
2783,7.176962541
2784,7.174027313
2785,7.18592621
2786,7.203238788
2787,7.201015865
2788,7.18333717
2789,7.185984102
2790,7.16832488
2791,7.200659794
2792,7.191235933
2793,7.145869271
2794,7.226598881
2795,7.21638275
2796,7.173810643
2797,7.210778977
2798,7.166340535
2799,7.183915165
2800,7.256173072
2801,7.227204443
2802,7.189411032
2803,7.164971149
2804,7.217221008
2805,7.224532411
2806,7.189704845
2807,7.230699385
2808,7.189467177
2809,7.198213997
2810,7.219436286
2811,7.171137048
2812,7.19160117
2813,7.235291312
2814,7.230665079
2815,7.19377514
2816,7.166277906
2817,7.229984812
2818,7.20784337
2819,7.210286202
2820,7.200712259
2821,7.175536266
2822,7.187612724
2823,7.23626009
2824,7.213710748
2825,7.221867344
2826,7.133826286
2827,7.191328605
2828,7.191386279
2829,7.197857138
2830,7.242807937
2831,7.203136883
2832,7.112600231
2833,7.155101956
2834,7.196629383
2835,7.190062325
2836,7.228897764
2837,7.256194941
2838,7.239596297
2839,7.221331808
2840,7.18727623
2841,7.233776582
2842,7.180423276
2843,7.212240232
2844,7.19987119
2845,7.188103738
2846,7.217873567
2847,7.199951131
2848,7.154616201
2849,7.23977536
2850,7.175708533
2851,7.222448862
2852,7.229292955
2853,7.215016557
2854,7.189869041
2855,7.177306748
2856,7.217419472
2857,7.213339482
2858,7.206487922
2859,7.24767322
2860,7.208593004
2861,7.190988467
2862,7.219335238
2863,7.219480841
2864,7.215279946
2865,7.214375924
2866,7.215245327
2867,7.233612288
2868,7.23118723
2869,7.235550522
2870,7.157334165
2871,7.185437936
2872,7.210747382
2873,7.200484104
2874,7.196612228
2875,7.221297553
2876,7.197857671
2877,7.182488122
2878,7.22486136
2879,7.216413755
2880,7.169015847
2881,7.179039618
2882,7.204454973
2883,7.177678401
2884,7.218343714
2885,7.239408911
2886,7.22048455
2887,7.266053957
2888,7.234398373
2889,7.228879077
2890,7.249881949
2891,7.126932473
2892,7.188624806
2893,7.248490662
2894,7.202371757
2895,7.215519464
2896,7.201878813
2897,7.215636995
2898,7.162063587
2899,7.186431782
2900,7.108597542
2901,7.206269598
2902,7.203118195
2903,7.203086881
2904,7.175393106
2905,7.197339664
2906,7.177790535
2907,7.184699426
2908,7.218208384
2909,7.154593879
2910,7.181475551
2911,7.21848951
2912,7.235788015
2913,7.222134221
2914,7.192396832
2915,7.175381915
2916,7.220984828
2917,7.19673894
2918,7.165804646
2919,7.190257447
2920,7.216785076
2921,7.215693262
2922,7.2181657
2923,7.279588703
2924,7.171288216
2925,7.169671831
2926,7.184388796
2927,7.175943843
2928,7.165208431
2929,7.188591369
2930,7.232410181
2931,7.247553074
2932,7.190360583
2933,7.195644281
2934,7.179069629
2935,7.206823208
2936,7.254826772
2937,7.184005169
2938,7.232377504
2939,7.177926504
2940,7.215584369
2941,7.235435648
2942,7.143744677
2943,7.22905745
2944,7.214052968
2945,7.235621534
2946,7.189754745
2947,7.186269665
2948,7.161978273
2949,7.210489165
2950,7.184147416
2951,7.18173454
2952,7.198266652
2953,7.138817513
2954,7.23254879
2955,7.233990199
2956,7.198908337
2957,7.21722057
2958,7.16550285
2959,7.176633744
2960,7.202045628
2961,7.194822868
2962,7.138692508
2963,7.174400034
2964,7.219702234
2965,7.187615197
2966,7.182125861
2967,7.216318338
2968,7.206444696
2969,7.204677276
2970,7.176831658
2971,7.184150733
2972,7.283991499
2973,7.18220182
2974,7.171344408
2975,7.212590738
2976,7.237542687
2977,7.208359531
2978,7.173648346
2979,7.209784684
2980,7.20947357
2981,7.170268318
2982,7.212582264
2983,7.195280792
2984,7.20851911
2985,7.230596795
2986,7.21982317
2987,7.207697405
2988,7.182288046
2989,7.208396894
2990,7.24509179
2991,7.19563812
2992,7.177573848
2993,7.159686113
2994,7.176980806
2995,7.173711904
2996,7.166504248
2997,7.20920316
2998,7.198029434
2999,7.204735917
3000,7.18854246
3001,7.204563153
3002,7.211884015
3003,7.182958083
3004,7.194375845
3005,7.189105493
3006,7.190023037
3007,7.187284172
3008,7.238952681
3009,7.176879068
3010,7.158447536
3011,7.190028364
3012,7.20100193
3013,7.203109435
3014,7.250857461
3015,7.206132358
3016,7.233192932
3017,7.14811424
3018,7.193226754
3019,7.192639867
3020,7.206117392
3021,7.232021696
3022,7.19076102
3023,7.257130837
3024,7.201341659
3025,7.196448697
3026,7.177964544
3027,7.154213904
3028,7.240498774
3029,7.160913261
3030,7.210073248
3031,7.20001651
3032,7.199079997
3033,7.198355128
3034,7.142639337
3035,7.205514483
3036,7.204120161
3037,7.209855966
3038,7.207006138
3039,7.259235451
3040,7.220498094
3041,7.21985563
3042,7.210823783
3043,7.199043713
3044,7.183861785
3045,7.202190433
3046,7.198552643
3047,7.196245995
3048,7.22553009
3049,7.18896829
3050,7.191349037
3051,7.195092455
3052,7.213616982
3053,7.187195664
3054,7.21864536
3055,7.186960489
3056,7.22583735
3057,7.188333534
3058,7.199155974
3059,7.157160599
3060,7.210878495
3061,7.174616753
3062,7.212132095
3063,7.185738866
3064,7.196520889
3065,7.212649048
3066,7.217272554
3067,7.235997817
3068,7.178785322
3069,7.211557693
3070,7.202795551
3071,7.197034957
3072,7.167488151
3073,7.217275045
3074,7.201001487
3075,7.247070638
3076,7.136018948
3077,7.262233597
3078,7.220963543
3079,7.131990424
3080,7.196638115
3081,7.219228897
3082,7.180193027
3083,7.190267641
3084,7.142481809
3085,7.162264315
3086,7.129645515
3087,7.226191485
3088,7.242969596
3089,7.180219068
3090,7.227422891
3091,7.127874967
3092,7.206876896
3093,7.196538802
3094,7.173612727
3095,7.229773635
3096,7.191380052
3097,7.183433762
3098,7.224145596
3099,7.140563599
3100,7.222528021
3101,7.201327907
3102,7.179741552
3103,7.230527329
3104,7.253035242
3105,7.205444252
3106,7.182642299
3107,7.230197699
3108,7.195704315
3109,7.204000399
3110,7.191813647
3111,7.199646924
3112,7.165318425
3113,7.246869435
3114,7.223549012
3115,7.219898773
3116,7.240032081
3117,7.246571429
3118,7.227434997
3119,7.205256513
3120,7.196180889
3121,7.151998384
3122,7.189711961
3123,7.191982926
3124,7.158242776
3125,7.21790507
3126,7.219814729
3127,7.210081725
3128,7.203552736
3129,7.228196976
3130,7.217049702
3131,7.188268137
3132,7.219816678
3133,7.217591908
3134,7.187279106
3135,7.160656229
3136,7.166324669
3137,7.224120241
3138,7.200003571
3139,7.172283581
3140,7.175464712
3141,7.190653461
3142,7.213658712
3143,7.236639535
3144,7.171277783
3145,7.222362285
3146,7.209368222
3147,7.240395361
3148,7.189037127
3149,7.216473904
3150,7.177859054
3151,7.226194462
3152,7.200474731
3153,7.235548998
3154,7.168558111
3155,7.206696313
3156,7.232010657
3157,7.25687592
3158,7.2318195
3159,7.164248636
3160,7.180614809
3161,7.205955876
3162,7.167554594
3163,7.20360688
3164,7.198027299
3165,7.226611457
3166,7.251473345
3167,7.172916658
3168,7.192030573
3169,7.242997187
3170,7.184977161
3171,7.161913495
3172,7.240266896
3173,7.138115218
3174,7.222219074
3175,7.212455973
3176,7.195874543
3177,7.216121488
3178,7.165167869
3179,7.202838658
3180,7.208694498
3181,7.16014738
3182,7.198707819
3183,7.204629108
3184,7.203821543
3185,7.168516385
3186,7.22381063
3187,7.177773501
3188,7.251421538
3189,7.185419599
3190,7.168003523
3191,7.21295642
3192,7.209534931
3193,7.192514913
3194,7.196455969
3195,7.184833433
3196,7.241009828
3197,7.215683189
3198,7.241063952
3199,7.215789103
3200,7.210828126
3201,7.212594309
3202,7.230976806
3203,7.195026256
3204,7.187432551
3205,7.185949943
3206,7.217729792
3207,7.166039671
3208,7.191455242
3209,7.196206904
3210,7.194633671
3211,7.271921386
3212,7.190285564
3213,7.237441836
3214,7.24101566
3215,7.264294022
3216,7.13794004
3217,7.20935317
3218,7.21643949
3219,7.215874463
3220,7.194817207
3221,7.192238891
3222,7.159935687
3223,7.169274924
3224,7.208614566
3225,7.161938491
3226,7.199227646
3227,7.197183738
3228,7.194739383
3229,7.220511323
3230,7.234684421
3231,7.17632453
3232,7.199252423
3233,7.155878227
3234,7.172672862
3235,7.174314288
3236,7.240223115
3237,7.221893876
3238,7.169958134
3239,7.22637899
3240,7.152324657
3241,7.253550592
3242,7.215268791
3243,7.21932748
3244,7.242187854
3245,7.208978876
3246,7.203852466
3247,7.209500202
3248,7.159079205
3249,7.225167555
3250,7.206238589
3251,7.173475811
3252,7.197812456
3253,7.202540583
3254,7.181267288
3255,7.202919419
3256,7.164910587
3257,7.173619219
3258,7.210080291
3259,7.149784419
3260,7.229174603
3261,7.184888302
3262,7.152643057
3263,7.231189815
3264,7.204648379
3265,7.155895087
3266,7.219620451
3267,7.213691195
3268,7.163718119
3269,7.199855104
3270,7.177683444
3271,7.234022641
3272,7.235971439
3273,7.198288297
3274,7.170784562
3275,7.192550005
3276,7.212238501
3277,7.178077104
3278,7.158331567
3279,7.180444746
3280,7.225628738
3281,7.222503545
3282,7.248180765
3283,7.182585863
3284,7.207669868
3285,7.187375564
3286,7.248014522
3287,7.161607098
3288,7.189525385
3289,7.183668707
3290,7.215498635
3291,7.200313598
3292,7.221369473
3293,7.259732897
3294,7.194524567
3295,7.22626631
3296,7.177679544
3297,7.173372913
3298,7.231299014
3299,7.159171561
3300,7.192637465
3301,7.217148798
3302,7.228309734
3303,7.180769908
3304,7.210737603
3305,7.194610211
3306,7.216963384
3307,7.234421041
3308,7.156056405
3309,7.226991587
3310,7.171954892
3311,7.190221699
3312,7.134758533
3313,7.155539498
3314,7.271686522
3315,7.194307246
3316,7.272290096
3317,7.241634481
3318,7.158458375
3319,7.243762278
3320,7.206979086
3321,7.204337218
3322,7.143239797
3323,7.155884837
3324,7.216530236
3325,7.206235148
3326,7.173445235
3327,7.160051725
3328,7.156410715
3329,7.14329754
3330,7.169346759
3331,7.236441334
3332,7.152908659
3333,7.155758921
3334,7.154959553
3335,7.159408786
3336,7.154563614
3337,7.213091438
3338,7.203863526
3339,7.218932078
3340,7.155169656
3341,7.215531531
3342,7.186830613
3343,7.258302185
3344,7.283027503
3345,7.21376116
3346,7.205068612
3347,7.185511122
3348,7.218046633
3349,7.183749196
3350,7.219194647
3351,7.208673174
3352,7.148166005
3353,7.204257281
3354,7.150876448
3355,7.198103221
3356,7.258487144
3357,7.173228189
3358,7.123359501
3359,7.191779056
3360,7.210390064
3361,7.168724709
3362,7.165969421
3363,7.203738553
3364,7.202223656
3365,7.149399618
3366,7.16385655
3367,7.201596702
3368,7.196006465
3369,7.223599016
3370,7.126471134
3371,7.254538222
3372,7.205598156
3373,7.143787397
3374,7.222219462
3375,7.185431138
3376,7.220519725
3377,7.1486284
3378,7.179727361
3379,7.171343036
3380,7.254405936
3381,7.179301449
3382,7.206934581
3383,7.24070479
3384,7.170139599
3385,7.232471358
3386,7.215981224
3387,7.206613641
3388,7.250995114
3389,7.249546758
3390,7.208131854
3391,7.18772126
3392,7.17260126
3393,7.226870567
3394,7.204820584
3395,7.225140072
3396,7.172863732
3397,7.180903461
3398,7.163746135
3399,7.213599686
3400,7.186849275
3401,7.196013633
3402,7.172560474
3403,7.147620252
3404,7.16136362
3405,7.18243333
3406,7.229728452
3407,7.240040965
3408,7.17715669
3409,7.210645099
3410,7.233953273
3411,7.178296343
3412,7.21681105
3413,7.187780381
3414,7.182285229
3415,7.249112376
3416,7.191731216
3417,7.167755347
3418,7.227065952
3419,7.224524782
3420,7.221661869
3421,7.147165153
3422,7.22387768
3423,7.153065544
3424,7.221627154
3425,7.222259879
3426,7.212297355
3427,7.241715328
3428,7.192965473
3429,7.230457152
3430,7.213238781
3431,7.238531879
3432,7.205275361
3433,7.221403919
3434,7.240663442
3435,7.19795114
3436,7.204950973
3437,7.2369408
3438,7.201005142
3439,7.144987178
3440,7.191758792
3441,7.238518847
3442,7.249577214
3443,7.209820996
3444,7.263585895
3445,7.220202131
3446,7.173439071
3447,7.235003272
3448,7.231992639
3449,7.215963304
3450,7.192362259
3451,7.167992197
3452,7.207309337
3453,7.152337398
3454,7.161801688
3455,7.208696942
3456,7.220115364
3457,7.21732634
3458,7.209797673
3459,7.218774827
3460,7.177168986
3461,7.19497067
3462,7.219758652
3463,7.172155457
3464,7.190357802
3465,7.16304017
3466,7.208311661
3467,7.211731988
3468,7.17026927
3469,7.139188626
3470,7.166088242
3471,7.209623266
3472,7.230069167
3473,7.208567236
3474,7.262914695
3475,7.224810201
3476,7.26837254
3477,7.157767962
3478,7.260007326
3479,7.205490559
3480,7.160955813
3481,7.242925555
3482,7.188159915
3483,7.188189293
3484,7.204663613
3485,7.168687595
3486,7.241450923
3487,7.19969506
3488,7.20345615
3489,7.17980864
3490,7.178956981
3491,7.155215618
3492,7.21075117
3493,7.196502529
3494,7.18874016
3495,7.153402969
3496,7.234435844
3497,7.189880053
3498,7.187198441
3499,7.194538549
3500,7.20747599
3501,7.183860957
3502,7.248883329
3503,7.192502701
3504,7.186460988
3505,7.175761179
3506,7.196278406
3507,7.200095939
3508,7.187244205
3509,7.242465549
3510,7.17542957
3511,7.190674708
3512,7.222210175
3513,7.220182435
3514,7.25361852
3515,7.242797941
3516,7.240380163
3517,7.166187108
3518,7.209838557
3519,7.222858989
3520,7.179220529
3521,7.183594996
3522,7.189471359
3523,7.198841895
3524,7.176659393
3525,7.167057398
3526,7.168891322
3527,7.168153492
3528,7.179836637
3529,7.251696074
3530,7.174650315
3531,7.172506614
3532,7.211517829
3533,7.17025445
3534,7.241140191
3535,7.180923104
3536,7.209657343
3537,7.211107722
3538,7.10690082
3539,7.186205208
3540,7.247092655
3541,7.238038757
3542,7.168178807
3543,7.182402481
3544,7.229234894
3545,7.199125675
3546,7.179488916
3547,7.151640997
3548,7.250958343
3549,7.14775119
3550,7.200201582
3551,7.141745236
3552,7.226080237
3553,7.195355506
3554,7.211486213
3555,7.195676348
3556,7.210221718
3557,7.192683001
3558,7.192583443
3559,7.176995399
3560,7.182854964
3561,7.195890092
3562,7.261084012
3563,7.252178216
3564,7.157723168
3565,7.168025395
3566,7.222750692
3567,7.236038524
3568,7.161090303
3569,7.220590904
3570,7.193717839
3571,7.194683223
3572,7.200197368
3573,7.199919801
3574,7.209009914
3575,7.269922454
3576,7.260253779
3577,7.241177295
3578,7.290751084
3579,7.30329623
3580,7.301848446
3581,7.318395173
3582,7.36428634
3583,7.344465781
3584,7.331208368
3585,7.480910603
3586,7.405122176
3587,7.477397989
3588,7.477130234
3589,7.517313672
3590,7.568487036
3591,7.580517206
3592,7.577944963
3593,7.633182548
3594,7.704690676
3595,7.720475718
3596,7.799855641
3597,7.835570128
3598,7.84475208
3599,7.869504924
3600,7.874779012
3601,7.887848713
3602,8.007961182
3603,8.006743472
3604,8.072649186
3605,8.169131595
3606,8.094498931
3607,8.141215413
3608,8.180760565
3609,8.171236081
3610,8.175616362
3611,8.179622954
3612,8.223824972
3613,8.168397608
3614,8.179950184
3615,8.218299977
3616,8.172009928
3617,8.171786809
3618,8.127778421
3619,8.107455461
3620,8.110351272
3621,8.047724825
3622,8.019194975
3623,7.973848341
3624,7.931438739
3625,7.904207522
3626,7.860365839
3627,7.804350587
3628,7.768101303
3629,7.737583837
3630,7.65906725
3631,7.663654705
3632,7.643034131
3633,7.562356835
3634,7.55823769
3635,7.495187154
3636,7.430247718
3637,7.441387554
3638,7.445642707
3639,7.409374145
3640,7.359829659
3641,7.355016733
3642,7.320919172
3643,7.29175515
3644,7.309699535
3645,7.25804355
3646,7.326308021
3647,7.19415202
3648,7.298210367
3649,7.212268668
3650,7.277482571
3651,7.253922561
3652,7.27851646
3653,7.205647697
3654,7.230375648
3655,7.210710473
3656,7.195619238
3657,7.172978943
3658,7.256056134
3659,7.240060525
3660,7.191843864
3661,7.244527796
3662,7.196787748
3663,7.23227428
3664,7.226205065
3665,7.211391791
3666,7.241989687
3667,7.223371192
3668,7.211501113
3669,7.224852295
3670,7.119928199
3671,7.174760428
3672,7.17284586
3673,7.193342736
3674,7.176930766
3675,7.191131588
3676,7.192674864
3677,7.217711088
3678,7.167183191
3679,7.210400732
3680,7.187587781
3681,7.168891198
3682,7.235428336
3683,7.190073886
3684,7.250556053
3685,7.196869861
3686,7.257417704
3687,7.257861744
3688,7.184671238
3689,7.212482771
3690,7.224039254
3691,7.19671445
3692,7.197934966
3693,7.199679575
3694,7.154755497
3695,7.176713334
3696,7.269316042
3697,7.213309823
3698,7.202899197
3699,7.20198746
3700,7.169745792
3701,7.178655184
3702,7.147419047
3703,7.213784133
3704,7.176914937
3705,7.186949235
3706,7.218108575
3707,7.160805508
3708,7.219702487
3709,7.159152007
3710,7.178040793
3711,7.191674397
3712,7.16285272
3713,7.231171546
3714,7.187825288
3715,7.222042274
3716,7.166398938
3717,7.193135568
3718,7.229101404
3719,7.19416941
3720,7.16404714
3721,7.176238386
3722,7.262431287
3723,7.162490143
3724,7.171865388
3725,7.223469702
3726,7.224451578
3727,7.156299258
3728,7.249927406
3729,7.212036983
3730,7.156877034
3731,7.223092623
3732,7.160453251
3733,7.240239692
3734,7.160283266
3735,7.230487845
3736,7.187885681
3737,7.215189238
3738,7.225026846
3739,7.235273638
3740,7.200557352
3741,7.241090297
3742,7.137999022
3743,7.191840181
3744,7.197454623
3745,7.165664988
3746,7.187405431
3747,7.16367089
3748,7.211544888
3749,7.138477239
3750,7.179241341
3751,7.116409484
3752,7.152025278
3753,7.230183665
3754,7.185187658
3755,7.177117912
3756,7.160203857
3757,7.181231266
3758,7.227505743
3759,7.198701991
3760,7.21799623
3761,7.259854643
3762,7.174159929
3763,7.245376809
3764,7.194160424
3765,7.217212859
3766,7.207570113
3767,7.135009087
3768,7.195700434
3769,7.180888043
3770,7.198824099
3771,7.244775483
3772,7.203284603
3773,7.201878541
3774,7.180072601
3775,7.19660799
3776,7.193477952
3777,7.240952252
3778,7.204415153
3779,7.239950546
3780,7.186185343
3781,7.245684981
3782,7.185663034
3783,7.193961155
3784,7.182315986
3785,7.145068691
3786,7.193363071
3787,7.227567611
3788,7.194691675
3789,7.180065448
3790,7.274421424
3791,7.171356814
3792,7.20338036
3793,7.182175577
3794,7.192744066
3795,7.177274084
3796,7.198896756
3797,7.176114189
3798,7.188307977
3799,7.191488149
3800,7.201142098
3801,7.254350508
3802,7.139707287
3803,7.200770503
3804,7.183864081
3805,7.189241327
3806,7.229343785
3807,7.181488476
3808,7.208046965
3809,7.1963341
3810,7.216709222
3811,7.175458067
3812,7.190672709
3813,7.188751451
3814,7.185723965
3815,7.190204788
3816,7.153711293
3817,7.197639337
3818,7.184199467
3819,7.215519815
3820,7.209360731
3821,7.152891871
3822,7.208782348
3823,7.192364755
3824,7.260360608
3825,7.198644028
3826,7.216033339
3827,7.222721803
3828,7.234158525
3829,7.234244584
3830,7.186622659
3831,7.204752804
3832,7.212491335
3833,7.25660145
3834,7.241203554
3835,7.225430302
3836,7.189657631
3837,7.171984477
3838,7.21003768
3839,7.234529153
3840,7.233775074
3841,7.213671345
3842,7.257503687
3843,7.171868229
3844,7.188716975
3845,7.200149233
3846,7.183861315
3847,7.215981625
3848,7.225476927
3849,7.260102654
3850,7.218657466
3851,7.159351327
3852,7.162194365
3853,7.171715551
3854,7.209637399
3855,7.223722651
3856,7.211991048
3857,7.196336401
3858,7.183147154
3859,7.209471967
3860,7.177704681
3861,7.180633885
3862,7.207120517
3863,7.198925267
3864,7.149648101
3865,7.195358331
3866,7.222257265
3867,7.193757558
3868,7.203847686
3869,7.223068857
3870,7.23474276
3871,7.219957145
3872,7.198481913
3873,7.179873985
3874,7.225531225
3875,7.229988938
3876,7.18577409
3877,7.187594683
3878,7.190059491
3879,7.252049894
3880,7.203763382
3881,7.209042162
3882,7.196079684
3883,7.16799542
3884,7.207635048
3885,7.178046039
3886,7.183445014
3887,7.220225328
3888,7.187078217
3889,7.172138692
3890,7.209335211
3891,7.223442938
3892,7.200896282
3893,7.174164867
3894,7.16086816
3895,7.218426843
3896,7.227049814
3897,7.224409719
3898,7.204584046
3899,7.234702285
3900,7.247764489
3901,7.217270154
3902,7.18137017
3903,7.181055275
3904,7.22876941
3905,7.202496146
3906,7.199776965
3907,7.229033502
3908,7.195228167
3909,7.153682623
3910,7.24489681
3911,7.158167168
3912,7.18684057
3913,7.219581076
3914,7.280821109
3915,7.137570177
3916,7.19940633
3917,7.225105628
3918,7.155406343
3919,7.224577502
3920,7.175176158
3921,7.190106857
3922,7.196740808
3923,7.213890861
3924,7.186043823
3925,7.208057826
3926,7.239529614
3927,7.261277393
3928,7.220729511
3929,7.246531731
3930,7.228303973
3931,7.25179902
3932,7.201733902
3933,7.165193475
3934,7.217578936
3935,7.241150904
3936,7.196196356
3937,7.20145624
3938,7.206399078
3939,7.201650967
3940,7.231682303
3941,7.199244908
3942,7.194602905
3943,7.190816352
3944,7.215736707
3945,7.210617669
3946,7.228820375
3947,7.191440664
3948,7.222435249
3949,7.173455617
3950,7.21499526
3951,7.184922337
3952,7.240890477
3953,7.198590098
3954,7.184005242
3955,7.179171368
3956,7.217563995
3957,7.193128807
3958,7.159518404
3959,7.239210419
3960,7.229691394
3961,7.181783541
3962,7.178538231
3963,7.148636413
3964,7.199392315
3965,7.197589284
3966,7.207658129
3967,7.19242156
3968,7.175030809
3969,7.216263934
3970,7.186624865
3971,7.155204108
3972,7.220763363
3973,7.213509374
3974,7.223238273
3975,7.170226011
3976,7.188831592
3977,7.195970442
3978,7.190386796
3979,7.234857617
3980,7.273771055
3981,7.204852957
3982,7.175945502
3983,7.263311698
3984,7.149247816
3985,7.188855757
3986,7.174320409
3987,7.2399132
3988,7.174769089
3989,7.200938365
3990,7.191054206
3991,7.211606079
3992,7.234773458
3993,7.208924184
3994,7.262577198
3995,7.203150347
3996,7.207569376
3997,7.187074052
3998,7.205148268
3999,7.184229751
4000,7.185155961
