Raman Shift,Intensity 
400,9.67552923
401,9.560715668
402,9.612710172
403,9.611185755
404,9.628858245
405,9.601162427
406,9.637117123
407,9.658106212
408,9.663109236
409,9.560954215
410,9.663047329
411,9.587829833
412,9.669508476
413,9.561530376
414,9.628716285
415,9.602667893
416,9.598676949
417,9.608394621
418,9.551706333
419,9.583984518
420,9.623890689
421,9.611617898
422,9.574571184
423,9.567005133
424,9.609453197
425,9.535574533
426,9.513375364
427,9.59949776
428,9.598371536
429,9.568624006
430,9.62199125
431,9.644721522
432,9.728104236
433,9.604498531
434,9.601005876
435,9.609064927
436,9.683820092
437,9.68887241
438,9.536712898
439,9.575793755
440,9.565702371
441,9.595845168
442,9.577342525
443,9.577886742
444,9.582199083
445,9.67655224
446,9.619290387
447,9.56310736
448,9.57308648
449,9.577338959
450,9.572288205
451,9.598236706
452,9.498584145
453,9.605269109
454,9.609522282
455,9.517588575
456,9.606110746
457,9.609982934
458,9.587083288
459,9.545754128
460,9.573359154
461,9.650080346
462,9.583834487
463,9.620492601
464,9.586426167
465,9.54739094
466,9.557964463
467,9.705917948
468,9.604208981
469,9.671829893
470,9.670937698
471,9.547054073
472,9.587240238
473,9.633045862
474,9.614254732
475,9.611378133
476,9.617465868
477,9.586341303
478,9.557073694
479,9.642559649
480,9.675546218
481,9.578651314
482,9.653073094
483,9.599347047
484,9.551033325
485,9.683662716
486,9.56236488
487,9.636196879
488,9.593462174
489,9.587100787
490,9.612199395
491,9.586834958
492,9.581675987
493,9.596780594
494,9.624038275
495,9.50911443
496,9.598185932
497,9.575488332
498,9.661187871
499,9.58373707
500,9.554981235
501,9.607268126
502,9.574174341
503,9.603062739
504,9.636167759
505,9.551362071
506,9.539897435
507,9.556610458
508,9.646450926
509,9.579869257
510,9.57707484
511,9.655784527
512,9.682116587
513,9.645115004
514,9.616797834
515,9.576217296
516,9.555378767
517,9.646665552
518,9.537436086
519,9.508471944
520,9.636025204
521,9.584462362
522,9.585388652
523,9.550396209
524,9.638730938
525,9.574577364
526,9.535051504
527,9.608985821
528,9.578532603
529,9.622035808
530,9.589369841
531,9.530952208
532,9.59225977
533,9.616086927
534,9.581587059
535,9.64181799
536,9.602988984
537,9.57993805
538,9.623191374
539,9.660151424
540,9.683418784
541,9.638066725
542,9.619161876
543,9.652181529
544,9.570336031
545,9.56154474
546,9.597759482
547,9.66965776
548,9.543197933
549,9.663402496
550,9.564932997
551,9.635687181
552,9.570468462
553,9.552035905
554,9.484951103
555,9.653881717
556,9.635541975
557,9.643235265
558,9.595770789
559,9.608849205
560,9.601743145
561,9.600019492
562,9.638469359
563,9.595004959
564,9.607901987
565,9.507212437
566,9.617341906
567,9.618281817
568,9.583630932
569,9.657651471
570,9.61064441
571,9.610738851
572,9.564800691
573,9.667205061
574,9.622816706
575,9.610995672
576,9.620909411
577,9.593295757
578,9.613120883
579,9.570396957
580,9.653260203
581,9.542498055
582,9.615776682
583,9.520450088
584,9.526185268
585,9.67374936
586,9.558280266
587,9.599059879
588,9.597385743
589,9.561063445
590,9.600516265
591,9.590670111
592,9.634257778
593,9.550835595
594,9.535826125
595,9.610785222
596,9.668853581
597,9.625674743
598,9.548299239
599,9.615286312
600,9.647129043
601,9.598450117
602,9.571761457
603,9.5754563
604,9.646038262
605,9.528958269
606,9.586909081
607,9.543601853
608,9.618851048
609,9.599957022
610,9.606135133
611,9.62067019
612,9.637877621
613,9.644637877
614,9.609478704
615,9.637645273
616,9.635995742
617,9.561028367
618,9.622317045
619,9.6091308
620,9.715092038
621,9.57488354
622,9.591772937
623,9.612499891
624,9.610722203
625,9.540236942
626,9.637348575
627,9.644244583
628,9.590886277
629,9.563345329
630,9.556350036
631,9.663505311
632,9.532222071
633,9.613001578
634,9.639728426
635,9.550636378
636,9.599516527
637,9.599887982
638,9.578123701
639,9.693947499
640,9.559985737
641,9.673945147
642,9.549216226
643,9.577667961
644,9.664584626
645,9.574727706
646,9.525157558
647,9.648807553
648,9.62941172
649,9.546500899
650,9.627021688
651,9.550933461
652,9.574558924
653,9.621815617
654,9.587059768
655,9.550010903
656,9.624389464
657,9.57412405
658,9.637156754
659,9.645052089
660,9.638554478
661,9.592255182
662,9.565355216
663,9.60275425
664,9.644247708
665,9.591342825
666,9.624434052
667,9.5632072
668,9.632036503
669,9.61144671
670,9.587008655
671,9.578131688
672,9.681180899
673,9.635209735
674,9.54130128
675,9.567839355
676,9.612301439
677,9.55626645
678,9.63441822
679,9.629881253
680,9.63992732
681,9.531429646
682,9.523000678
683,9.638338207
684,9.554811355
685,9.497404743
686,9.586327327
687,9.586241724
688,9.623321903
689,9.543400295
690,9.580574047
691,9.591637221
692,9.653865728
693,9.560173876
694,9.610913125
695,9.633537737
696,9.554633145
697,9.611143336
698,9.591535945
699,9.595722574
700,9.619289998
701,9.611777707
702,9.574740434
703,9.678424491
704,9.599155049
705,9.595515881
706,9.659087349
707,9.613294874
708,9.578411614
709,9.565772501
710,9.623537083
711,9.612052073
712,9.559225145
713,9.587677417
714,9.618697676
715,9.613869914
716,9.607874752
717,9.607451952
718,9.614652462
719,9.615976957
720,9.563392608
721,9.676449115
722,9.63781588
723,9.514651769
724,9.62562385
725,9.679766972
726,9.606478262
727,9.593573049
728,9.577525016
729,9.616833981
730,9.63464311
731,9.617853424
732,9.645986644
733,9.584273497
734,9.632387641
735,9.626831549
736,9.605655746
737,9.659002337
738,9.580104974
739,9.468588259
740,9.506197603
741,9.550248508
742,9.591080361
743,9.592389266
744,9.589570307
745,9.651014623
746,9.582175436
747,9.559060455
748,9.563534303
749,9.54478749
750,9.606242328
751,9.601539828
752,9.546701353
753,9.654012553
754,9.612581729
755,9.617014486
756,9.574375728
757,9.542776448
758,9.565074305
759,9.637721735
760,9.611463989
761,9.561703367
762,9.615843186
763,9.554697945
764,9.659741913
765,9.515105669
766,9.583992064
767,9.589612148
768,9.627099936
769,9.550226095
770,9.640481534
771,9.612999648
772,9.607738069
773,9.565070414
774,9.565794036
775,9.613517078
776,9.555634142
777,9.657455712
778,9.641784837
779,9.650237408
780,9.560399569
781,9.561638833
782,9.600841789
783,9.515728403
784,9.654972085
785,9.600036382
786,9.603761364
787,9.657831156
788,9.586608942
789,9.574402233
790,9.60265407
791,9.600057775
792,9.514767196
793,9.61553076
794,9.576776461
795,9.614143718
796,9.65841535
797,9.557411153
798,9.577944902
799,9.57251448
800,9.618234564
801,9.595713413
802,9.610604771
803,9.628103117
804,9.594508045
805,9.630097091
806,9.510362744
807,9.593989264
808,9.600655154
809,9.580800856
810,9.619714345
811,9.611681014
812,9.598553598
813,9.538916914
814,9.62140661
815,9.593404523
816,9.601427473
817,9.635666
818,9.579977067
819,9.567857365
820,9.577369296
821,9.640725338
822,9.6048151
823,9.638072875
824,9.575869746
825,9.639186047
826,9.581249907
827,9.571752216
828,9.527609886
829,9.62606155
830,9.534682759
831,9.558008058
832,9.639827164
833,9.563225787
834,9.615877403
835,9.633104904
836,9.563486305
837,9.609595672
838,9.660399847
839,9.616464693
840,9.560705383
841,9.641159273
842,9.597132293
843,9.590052567
844,9.58084535
845,9.596551594
846,9.604718636
847,9.628514841
848,9.639069652
849,9.644770256
850,9.647263952
851,9.632747934
852,9.573481679
853,9.522841363
854,9.583900766
855,9.639918861
856,9.627386927
857,9.616559511
858,9.622622338
859,9.514163077
860,9.56296043
861,9.611869627
862,9.57152375
863,9.642302581
864,9.560210499
865,9.522591203
866,9.648279704
867,9.642093876
868,9.580496216
869,9.557694196
870,9.580591959
871,9.582964865
872,9.586478651
873,9.612165106
874,9.635640044
875,9.629597474
876,9.591463039
877,9.646202491
878,9.592018645
879,9.630102291
880,9.603966474
881,9.621129863
882,9.534947302
883,9.658376437
884,9.636093701
885,9.583055636
886,9.598467763
887,9.556441777
888,9.649896929
889,9.636332198
890,9.567472448
891,9.596231067
892,9.592179821
893,9.592706753
894,9.627126208
895,9.600039453
896,9.622772594
897,9.635246261
898,9.584276879
899,9.628326223
900,9.602888571
901,9.691885225
902,9.603058678
903,9.611015049
904,9.563879729
905,9.626313497
906,9.675515989
907,9.556116602
908,9.513922146
909,9.668419357
910,9.552601464
911,9.580974718
912,9.663818851
913,9.512331948
914,9.574404349
915,9.591553827
916,9.673156223
917,9.540351963
918,9.647906512
919,9.57427282
920,9.619274331
921,9.624268582
922,9.732759581
923,9.677519572
924,9.586193581
925,9.623406986
926,9.592696393
927,9.551608857
928,9.576807618
929,9.630136897
930,9.61366792
931,9.640055982
932,9.626370491
933,9.561104712
934,9.61107195
935,9.63736642
936,9.70700619
937,9.650419643
938,9.665659113
939,9.627329986
940,9.601770501
941,9.678607779
942,9.662443467
943,9.640572611
944,9.639273283
945,9.567474808
946,9.620620575
947,9.540942297
948,9.645923825
949,9.690499885
950,9.687054989
951,9.688751818
952,9.603956223
953,9.598357069
954,9.577546604
955,9.641284329
956,9.589248807
957,9.62393184
958,9.554654021
959,9.642671187
960,9.644499285
961,9.611425567
962,9.607570621
963,9.648904504
964,9.647703717
965,9.644243241
966,9.616440645
967,9.681458859
968,9.573003045
969,9.611730894
970,9.655598496
971,9.611371339
972,9.644246693
973,9.639137743
974,9.636051047
975,9.639044675
976,9.634957165
977,9.670952054
978,9.654972767
979,9.743416384
980,9.708205955
981,9.706193345
982,9.679846912
983,9.765506304
984,9.627365631
985,9.793169482
986,9.718496242
987,9.678210644
988,9.744217666
989,9.689077384
990,9.664255617
991,9.646126392
992,9.76152394
993,9.784222138
994,9.741067043
995,9.693733842
996,9.808765296
997,9.753684631
998,9.771119761
999,9.828609839
1000,9.708541331
1001,9.769520777
1002,9.81377825
1003,9.774445638
1004,9.755157726
1005,9.78111984
1006,9.844163689
1007,9.89860526
1008,9.812965381
1009,9.877073416
1010,9.772764238
1011,9.823084841
1012,9.769385039
1013,9.818263327
1014,9.80742878
1015,9.832907678
1016,9.810933504
1017,9.828313698
1018,9.797565658
1019,9.879792838
1020,9.840128028
1021,9.805265998
1022,9.905312708
1023,9.868193228
1024,9.9331363
1025,9.944045354
1026,9.909502986
1027,9.89693572
1028,9.973418894
1029,9.95741077
1030,9.991336893
1031,9.90648097
1032,9.929550136
1033,9.890277047
1034,9.941051242
1035,9.97929051
1036,9.968320709
1037,9.951948757
1038,10.03223847
1039,10.00214562
1040,10.00541104
1041,10.01072122
1042,9.985343289
1043,9.970145587
1044,9.969974384
1045,10.0141313
1046,10.03892157
1047,9.965265828
1048,10.08632093
1049,9.988926135
1050,10.07643112
1051,10.08281177
1052,10.01391679
1053,10.04533272
1054,10.03386972
1055,9.992923835
1056,9.937043965
1057,10.03406532
1058,9.936350782
1059,9.980930901
1060,9.982506053
1061,10.02727816
1062,9.973509069
1063,10.0268391
1064,10.01295337
1065,10.003435
1066,9.944225274
1067,9.956152548
1068,9.996351843
1069,9.991205526
1070,9.888832214
1071,10.00556517
1072,9.959129634
1073,9.93056238
1074,9.933712408
1075,9.961446542
1076,9.966824161
1077,9.907374182
1078,10.01652794
1079,9.893296152
1080,9.944848768
1081,9.885636756
1082,9.867264704
1083,9.87859896
1084,9.937306194
1085,9.937582481
1086,9.921523667
1087,9.891100333
1088,9.891037226
1089,9.895546077
1090,9.84323853
1091,9.862520793
1092,9.87551334
1093,9.790475479
1094,9.909764304
1095,9.823759821
1096,9.838259188
1097,9.886334324
1098,9.807211039
1099,9.75364318
1100,9.820009505
1101,9.838922913
1102,9.799854458
1103,9.80767114
1104,9.826282548
1105,9.753820622
1106,9.781834552
1107,9.725598893
1108,9.756635397
1109,9.710949831
1110,9.697745622
1111,9.739799413
1112,9.750491817
1113,9.67859903
1114,9.721133643
1115,9.698774372
1116,9.725291874
1117,9.722830572
1118,9.715885808
1119,9.674806849
1120,9.595164858
1121,9.677801937
1122,9.684883443
1123,9.738168992
1124,9.735064905
1125,9.649630542
1126,9.727883275
1127,9.722365578
1128,9.654562832
1129,9.672611131
1130,9.682220325
1131,9.613265794
1132,9.678059506
1133,9.60226349
1134,9.644550113
1135,9.686216557
1136,9.639569911
1137,9.686891384
1138,9.655137424
1139,9.730522358
1140,9.639040892
1141,9.690987359
1142,9.665904666
1143,9.632646086
1144,9.712990548
1145,9.630562667
1146,9.629044974
1147,9.668122295
1148,9.609118277
1149,9.609442804
1150,9.577513345
1151,9.543472768
1152,9.649536923
1153,9.596429379
1154,9.621383024
1155,9.663822414
1156,9.671218781
1157,9.610776651
1158,9.646171017
1159,9.549459747
1160,9.58988046
1161,9.548293197
1162,9.617855018
1163,9.637653936
1164,9.536350207
1165,9.621431889
1166,9.589980515
1167,9.672798812
1168,9.611776877
1169,9.583119568
1170,9.626915695
1171,9.604262679
1172,9.661152191
1173,9.616952674
1174,9.579605956
1175,9.599666923
1176,9.578785361
1177,9.591566988
1178,9.56336549
1179,9.597547422
1180,9.627274304
1181,9.599890399
1182,9.481798298
1183,9.631185221
1184,9.665812209
1185,9.619054389
1186,9.652120009
1187,9.631460456
1188,9.584354349
1189,9.572075423
1190,9.556986147
1191,9.557642114
1192,9.667277921
1193,9.577588658
1194,9.615879644
1195,9.635277466
1196,9.610977259
1197,9.564619113
1198,9.528919802
1199,9.670648911
1200,9.651965252
1201,9.562049919
1202,9.622792652
1203,9.652120221
1204,9.60162158
1205,9.564607771
1206,9.534593432
1207,9.641995867
1208,9.640351225
1209,9.628721113
1210,9.652390576
1211,9.621975573
1212,9.612948185
1213,9.551417008
1214,9.58285406
1215,9.63116844
1216,9.632939075
1217,9.554494548
1218,9.551324574
1219,9.569472052
1220,9.651988194
1221,9.596661685
1222,9.614066273
1223,9.531516775
1224,9.591298841
1225,9.622974881
1226,9.623673827
1227,9.645463216
1228,9.702216653
1229,9.575269482
1230,9.572117726
1231,9.620087001
1232,9.593879836
1233,9.591078103
1234,9.563096363
1235,9.648882685
1236,9.619552979
1237,9.641325087
1238,9.604738548
1239,9.650251571
1240,9.585300774
1241,9.642956391
1242,9.568394977
1243,9.60173718
1244,9.567185149
1245,9.615871303
1246,9.650595723
1247,9.556639199
1248,9.598139452
1249,9.635456556
1250,9.629143675
1251,9.654321554
1252,9.621462351
1253,9.559799347
1254,9.662164956
1255,9.495865149
1256,9.598616623
1257,9.630672131
1258,9.655034719
1259,9.599317529
1260,9.635110884
1261,9.571668927
1262,9.614745085
1263,9.545538924
1264,9.612379205
1265,9.599796043
1266,9.57727049
1267,9.586612533
1268,9.636770265
1269,9.573378462
1270,9.555463821
1271,9.582672389
1272,9.607550826
1273,9.661500054
1274,9.62281768
1275,9.584478335
1276,9.608644397
1277,9.691925287
1278,9.583567093
1279,9.552536114
1280,9.642736396
1281,9.581439295
1282,9.588888169
1283,9.59457085
1284,9.604298391
1285,9.562733636
1286,9.631707459
1287,9.515857186
1288,9.58906631
1289,9.510781198
1290,9.561104092
1291,9.594962394
1292,9.616349657
1293,9.517162578
1294,9.654929979
1295,9.594564923
1296,9.645339335
1297,9.652972053
1298,9.682052319
1299,9.610686375
1300,9.595734409
1301,9.566075869
1302,9.659361266
1303,9.528420615
1304,9.632692723
1305,9.635220987
1306,9.65303757
1307,9.52150212
1308,9.581798768
1309,9.501658871
1310,9.629195221
1311,9.643839835
1312,9.56869156
1313,9.555284465
1314,9.55702672
1315,9.614803186
1316,9.593756962
1317,9.613659309
1318,9.643448774
1319,9.615672444
1320,9.591096356
1321,9.568183442
1322,9.572101094
1323,9.583832345
1324,9.59080853
1325,9.598112049
1326,9.592333757
1327,9.600065392
1328,9.553376115
1329,9.625180523
1330,9.58685216
1331,9.568074631
1332,9.624166556
1333,9.648047891
1334,9.603398008
1335,9.634740057
1336,9.566542183
1337,9.642126877
1338,9.565571758
1339,9.594404744
1340,9.641989183
1341,9.615796013
1342,9.611666489
1343,9.637400409
1344,9.610623816
1345,9.596716044
1346,9.59801254
1347,9.573536509
1348,9.602963144
1349,9.645036745
1350,9.602504253
1351,9.613307564
1352,9.631564142
1353,9.538286414
1354,9.593871922
1355,9.54405717
1356,9.601245141
1357,9.59232103
1358,9.535748603
1359,9.600905389
1360,9.601658119
1361,9.599998742
1362,9.513650426
1363,9.565856504
1364,9.638095018
1365,9.589579538
1366,9.622763701
1367,9.636048909
1368,9.610079792
1369,9.52446219
1370,9.609172646
1371,9.546712892
1372,9.570692764
1373,9.587290704
1374,9.61619736
1375,9.599836524
1376,9.598628485
1377,9.576938173
1378,9.570293877
1379,9.733099788
1380,9.61609152
1381,9.565052982
1382,9.630845416
1383,9.641807801
1384,9.486038014
1385,9.612493314
1386,9.549039504
1387,9.565084223
1388,9.545446004
1389,9.628894531
1390,9.573695262
1391,9.573345483
1392,9.714341814
1393,9.655196704
1394,9.587876348
1395,9.598094113
1396,9.644938708
1397,9.638400436
1398,9.591420609
1399,9.651970004
1400,9.543709322
1401,9.621799519
1402,9.590835246
1403,9.648041598
1404,9.594055371
1405,9.667986467
1406,9.555233787
1407,9.668576708
1408,9.609267618
1409,9.645111696
1410,9.662811293
1411,9.642961662
1412,9.544571628
1413,9.689253575
1414,9.601541175
1415,9.62372161
1416,9.586040561
1417,9.634479968
1418,9.543959786
1419,9.597434879
1420,9.539072066
1421,9.58408855
1422,9.575647709
1423,9.570010352
1424,9.563065496
1425,9.58200992
1426,9.544445952
1427,9.637863902
1428,9.593818186
1429,9.685430407
1430,9.632092592
1431,9.559669086
1432,9.648335924
1433,9.610707236
1434,9.565311861
1435,9.726065842
1436,9.552939941
1437,9.583580002
1438,9.633567385
1439,9.590735194
1440,9.627554339
1441,9.612402474
1442,9.544080143
1443,9.603474946
1444,9.640156331
1445,9.713571844
1446,9.61377235
1447,9.641823795
1448,9.555137098
1449,9.605439649
1450,9.648767448
1451,9.654653804
1452,9.657605776
1453,9.659367385
1454,9.589558462
1455,9.576567661
1456,9.660876192
1457,9.663601698
1458,9.647217767
1459,9.677125508
1460,9.690187713
1461,9.587424635
1462,9.655403846
1463,9.583791535
1464,9.572476103
1465,9.602455044
1466,9.674872933
1467,9.713076287
1468,9.676246701
1469,9.703830453
1470,9.644453217
1471,9.612289216
1472,9.62467103
1473,9.668886232
1474,9.656562947
1475,9.630045315
1476,9.627602695
1477,9.63049335
1478,9.706133088
1479,9.686453073
1480,9.717226907
1481,9.758018569
1482,9.63837034
1483,9.734093786
1484,9.646816156
1485,9.629659542
1486,9.661899297
1487,9.685431234
1488,9.598196613
1489,9.766373358
1490,9.631167546
1491,9.70010835
1492,9.690514139
1493,9.717600575
1494,9.729147916
1495,9.619059964
1496,9.703271549
1497,9.707792407
1498,9.701046761
1499,9.725639509
1500,9.680927098
1501,9.67503899
1502,9.719475586
1503,9.711277083
1504,9.703801695
1505,9.664727467
1506,9.702645926
1507,9.723866588
1508,9.680044684
1509,9.794839618
1510,9.672461728
1511,9.700329872
1512,9.637820979
1513,9.733016261
1514,9.755634926
1515,9.699847657
1516,9.689007753
1517,9.664120606
1518,9.676413183
1519,9.721436394
1520,9.725896249
1521,9.767602831
1522,9.708505456
1523,9.766265337
1524,9.705033728
1525,9.775116069
1526,9.717892357
1527,9.752636443
1528,9.717860199
1529,9.673020207
1530,9.755864147
1531,9.743438918
1532,9.697967096
1533,9.729747908
1534,9.740620704
1535,9.737753172
1536,9.79651312
1537,9.714275675
1538,9.830335283
1539,9.740764316
1540,9.729706761
1541,9.731960559
1542,9.802181332
1543,9.793030678
1544,9.75180126
1545,9.79904525
1546,9.760940574
1547,9.72525233
1548,9.660593532
1549,9.895811361
1550,9.737741152
1551,9.718411165
1552,9.745138656
1553,9.789176368
1554,9.743330677
1555,9.785960653
1556,9.785258988
1557,9.711418
1558,9.754598612
1559,9.792482429
1560,9.781085936
1561,9.864537828
1562,9.787165086
1563,9.738948142
1564,9.760252499
1565,9.739669595
1566,9.790388412
1567,9.826627312
1568,9.776114569
1569,9.807992274
1570,9.739043256
1571,9.773995506
1572,9.81724784
1573,9.802060042
1574,9.808232106
1575,9.798594126
1576,9.790038711
1577,9.782216174
1578,9.810893845
1579,9.832791491
1580,9.866065524
1581,9.792584844
1582,9.85589072
1583,9.78194591
1584,9.85277702
1585,9.857919686
1586,9.819874829
1587,9.683901208
1588,9.821100499
1589,9.798545576
1590,9.827834061
1591,9.788596603
1592,9.781140228
1593,9.792894865
1594,9.838426866
1595,9.837822826
1596,9.844555309
1597,9.796762479
1598,9.824071785
1599,9.778265257
1600,9.803003221
1601,9.904137947
1602,9.793043393
1603,9.75168237
1604,9.764843577
1605,9.876734193
1606,9.808292467
1607,9.827814843
1608,9.814421506
1609,9.809209013
1610,9.805722226
1611,9.807822694
1612,9.760402869
1613,9.760879148
1614,9.833877896
1615,9.807837971
1616,9.876612217
1617,9.819025405
1618,9.735202968
1619,9.847094993
1620,9.786092532
1621,9.767565295
1622,9.746382803
1623,9.756669504
1624,9.779414537
1625,9.762365432
1626,9.729915312
1627,9.814049539
1628,9.73999327
1629,9.752500031
1630,9.817015788
1631,9.726448577
1632,9.809161129
1633,9.837236611
1634,9.744643912
1635,9.766148887
1636,9.790610668
1637,9.782185686
1638,9.802606757
1639,9.665380556
1640,9.77390015
1641,9.750647388
1642,9.808229497
1643,9.737061707
1644,9.742265891
1645,9.802893652
1646,9.741693089
1647,9.771466589
1648,9.772393849
1649,9.748272016
1650,9.793740939
1651,9.792756991
1652,9.718893335
1653,9.769822114
1654,9.740394042
1655,9.724065862
1656,9.769355807
1657,9.786070554
1658,9.708787741
1659,9.780321175
1660,9.734967695
1661,9.821923689
1662,9.732758396
1663,9.789379434
1664,9.760484271
1665,9.774341871
1666,9.737983578
1667,9.825765886
1668,9.751200964
1669,9.715378289
1670,9.774284733
1671,9.787203441
1672,9.737516255
1673,9.772857207
1674,9.725380417
1675,9.759556043
1676,9.741753945
1677,9.800982175
1678,9.72159583
1679,9.710058438
1680,9.743921315
1681,9.775970486
1682,9.740646107
1683,9.705361331
1684,9.669420141
1685,9.732672771
1686,9.633120424
1687,9.719553217
1688,9.718626445
1689,9.662634557
1690,9.735162686
1691,9.685088251
1692,9.717226093
1693,9.695586923
1694,9.688955112
1695,9.706309823
1696,9.751815127
1697,9.683063037
1698,9.684599655
1699,9.71929458
1700,9.64767019
1701,9.700974343
1702,9.715346688
1703,9.703664694
1704,9.709059029
1705,9.637092584
1706,9.655175271
1707,9.672936099
1708,9.69313238
1709,9.689734261
1710,9.6027718
1711,9.710268804
1712,9.680043558
1713,9.685126122
1714,9.716392765
1715,9.64664677
1716,9.629827229
1717,9.62395051
1718,9.690867658
1719,9.602497445
1720,9.70184593
1721,9.670766324
1722,9.588709805
1723,9.677024541
1724,9.696480396
1725,9.625365684
1726,9.56991112
1727,9.633953556
1728,9.631847572
1729,9.715746192
1730,9.653884264
1731,9.598633915
1732,9.586662695
1733,9.621699544
1734,9.661481959
1735,9.63476728
1736,9.654579244
1737,9.686038908
1738,9.643397109
1739,9.619757784
1740,9.668666504
1741,9.650895442
1742,9.678739885
1743,9.749019459
1744,9.642011678
1745,9.683274719
1746,9.595568699
1747,9.584882376
1748,9.649773896
1749,9.708750177
1750,9.669197745
1751,9.583709306
1752,9.676065501
1753,9.598309421
1754,9.655873436
1755,9.646982273
1756,9.608251497
1757,9.682356736
1758,9.654844116
1759,9.608918888
1760,9.664897855
1761,9.593706821
1762,9.56370278
1763,9.616235251
1764,9.684395747
1765,9.563963656
1766,9.605794142
1767,9.583384086
1768,9.614439199
1769,9.655195143
1770,9.635884792
1771,9.634436581
1772,9.590293943
1773,9.617360289
1774,9.571051735
1775,9.6683796
1776,9.690195465
1777,9.6135251
1778,9.606869922
1779,9.585114425
1780,9.61762293
1781,9.575115928
1782,9.567978757
1783,9.619010303
1784,9.588599131
1785,9.554063886
1786,9.596049509
1787,9.6627424
1788,9.628645164
1789,9.609316037
1790,9.564554086
1791,9.560022692
1792,9.647752637
1793,9.596576717
1794,9.670418903
1795,9.633897498
1796,9.653792672
1797,9.581661443
1798,9.58349246
1799,9.569449783
1800,9.604905381
1801,9.693575871
1802,9.629090839
1803,9.706932785
1804,9.701700871
1805,9.516386843
1806,9.587364112
1807,9.613983992
1808,9.66896835
1809,9.574049344
1810,9.58930978
1811,9.671663205
1812,9.707636805
1813,9.705539433
1814,9.586810804
1815,9.600876273
1816,9.66917587
1817,9.574540196
1818,9.542312527
1819,9.565985842
1820,9.636789513
1821,9.661735047
1822,9.604409942
1823,9.558094841
1824,9.537249044
1825,9.538573511
1826,9.52610019
1827,9.614575253
1828,9.5758921
1829,9.605649557
1830,9.602641474
1831,9.627055362
1832,9.561365429
1833,9.555895364
1834,9.61259151
1835,9.603057989
1836,9.631309156
1837,9.577710335
1838,9.623554259
1839,9.661785915
1840,9.634618131
1841,9.664595745
1842,9.564448829
1843,9.554288481
1844,9.515991199
1845,9.638013328
1846,9.661018807
1847,9.580360471
1848,9.572843248
1849,9.58831517
1850,9.517890667
1851,9.658852973
1852,9.619230275
1853,9.576331761
1854,9.605673026
1855,9.626328918
1856,9.680831033
1857,9.480760158
1858,9.588441907
1859,9.665365162
1860,9.584016213
1861,9.598196285
1862,9.641070753
1863,9.584474157
1864,9.594982588
1865,9.594686114
1866,9.653745042
1867,9.625562154
1868,9.654871857
1869,9.576077084
1870,9.635547778
1871,9.615252942
1872,9.682972909
1873,9.649969697
1874,9.563509416
1875,9.629359301
1876,9.529157846
1877,9.603319477
1878,9.58585729
1879,9.601009008
1880,9.562447081
1881,9.624450292
1882,9.575332351
1883,9.556612347
1884,9.632055331
1885,9.598435573
1886,9.597693687
1887,9.676459355
1888,9.631535152
1889,9.571587456
1890,9.62949437
1891,9.615626601
1892,9.592490504
1893,9.614711889
1894,9.544025014
1895,9.588977795
1896,9.587200137
1897,9.63203197
1898,9.632956837
1899,9.640078896
1900,9.60881466
1901,9.633301677
1902,9.608567548
1903,9.584235267
1904,9.591395487
1905,9.574143131
1906,9.526141094
1907,9.574086384
1908,9.614796614
1909,9.564042475
1910,9.641785249
1911,9.539785605
1912,9.558527992
1913,9.618361425
1914,9.615081978
1915,9.585681465
1916,9.674630269
1917,9.593690301
1918,9.608019288
1919,9.61257558
1920,9.60005995
1921,9.635105578
1922,9.602309344
1923,9.574623135
1924,9.588266089
1925,9.585324171
1926,9.585655706
1927,9.641652427
1928,9.572344336
1929,9.544568613
1930,9.559130929
1931,9.607798542
1932,9.626332387
1933,9.5776074
1934,9.53036581
1935,9.576929916
1936,9.598949724
1937,9.653829061
1938,9.572009612
1939,9.540962694
1940,9.565853851
1941,9.657285239
1942,9.610984931
1943,9.583844347
1944,9.643369221
1945,9.660595774
1946,9.588186662
1947,9.614403652
1948,9.670219094
1949,9.622994298
1950,9.584586787
1951,9.629321631
1952,9.565159618
1953,9.640161061
1954,9.620019692
1955,9.743224323
1956,9.589872029
1957,9.62392099
1958,9.648550365
1959,9.674688568
1960,9.643575104
1961,9.487539091
1962,9.576745945
1963,9.621030398
1964,9.642355914
1965,9.555646556
1966,9.526134565
1967,9.599712036
1968,9.6484153
1969,9.565234625
1970,9.581196358
1971,9.663945877
1972,9.579379331
1973,9.600421894
1974,9.60978063
1975,9.568550314
1976,9.606871697
1977,9.623677485
1978,9.655594969
1979,9.639351
1980,9.537782564
1981,9.621923847
1982,9.631552495
1983,9.672454267
1984,9.638923427
1985,9.539487334
1986,9.555636382
1987,9.590255764
1988,9.517484802
1989,9.505831307
1990,9.565742312
1991,9.590033695
1992,9.531626014
1993,9.616734455
1994,9.504572738
1995,9.635625805
1996,9.596375202
1997,9.568402871
1998,9.688564101
1999,9.573766984
2000,9.596833032
2001,9.603706484
2002,9.602782796
2003,9.565899148
2004,9.650990866
2005,9.626755722
2006,9.60253669
2007,9.684256923
2008,9.639487091
2009,9.585206334
2010,9.608726968
2011,9.605270601
2012,9.526066222
2013,9.630035709
2014,9.566219163
2015,9.561768598
2016,9.492397444
2017,9.527237422
2018,9.641838116
2019,9.577555896
2020,9.584285398
2021,9.657098609
2022,9.538988308
2023,9.55829978
2024,9.603207738
2025,9.55371231
2026,9.673980378
2027,9.625922687
2028,9.64453309
2029,9.616574237
2030,9.603047838
2031,9.651726731
2032,9.541004452
2033,9.642557056
2034,9.603893347
2035,9.625934964
2036,9.614066377
2037,9.611848324
2038,9.603263125
2039,9.592440816
2040,9.60205819
2041,9.526772772
2042,9.61743327
2043,9.591697649
2044,9.580431587
2045,9.566205452
2046,9.559746326
2047,9.683901975
2048,9.6361049
2049,9.636901885
2050,9.585289313
2051,9.661120148
2052,9.613531989
2053,9.670082386
2054,9.571572906
2055,9.619807662
2056,9.490973443
2057,9.602920647
2058,9.61854907
2059,9.61610302
2060,9.568813101
2061,9.603399982
2062,9.579180124
2063,9.552926276
2064,9.661974324
2065,9.547830608
2066,9.564778553
2067,9.56796103
2068,9.635772164
2069,9.51447537
2070,9.572189037
2071,9.589382555
2072,9.468023661
2073,9.594184449
2074,9.572647225
2075,9.630676532
2076,9.588034691
2077,9.614842439
2078,9.577001631
2079,9.601599435
2080,9.647739665
2081,9.491964143
2082,9.709199583
2083,9.571936369
2084,9.556931666
2085,9.671441676
2086,9.630311379
2087,9.595010614
2088,9.6153658
2089,9.599392388
2090,9.615526851
2091,9.557419588
2092,9.574565228
2093,9.586648233
2094,9.543762227
2095,9.548174865
2096,9.589743025
2097,9.623219969
2098,9.671947572
2099,9.619213688
2100,9.520280721
2101,9.629387973
2102,9.630555673
2103,9.557535419
2104,9.645359773
2105,9.637944961
2106,9.623614429
2107,9.573465888
2108,9.673663673
2109,9.541747681
2110,9.549211167
2111,9.610836862
2112,9.547781785
2113,9.624805358
2114,9.60721694
2115,9.597019026
2116,9.60238405
2117,9.582894696
2118,9.641095582
2119,9.538108926
2120,9.657686518
2121,9.60157532
2122,9.592486393
2123,9.602311589
2124,9.57380247
2125,9.573811511
2126,9.585981676
2127,9.568455489
2128,9.676262141
2129,9.655746846
2130,9.663933785
2131,9.590253165
2132,9.614746047
2133,9.596818151
2134,9.632119842
2135,9.573591714
2136,9.518535929
2137,9.536548805
2138,9.588073322
2139,9.571867584
2140,9.621981775
2141,9.574947103
2142,9.567493333
2143,9.690245402
2144,9.617707578
2145,9.626606862
2146,9.663562479
2147,9.700143081
2148,9.537649418
2149,9.579736962
2150,9.628103265
2151,9.569344785
2152,9.623151093
2153,9.574522846
2154,9.623657051
2155,9.53715905
2156,9.517055319
2157,9.593010768
2158,9.605238336
2159,9.54921448
2160,9.577598816
2161,9.552217306
2162,9.641444073
2163,9.584082331
2164,9.53215725
2165,9.578267054
2166,9.558696908
2167,9.618534678
2168,9.629977914
2169,9.591284222
2170,9.56998001
2171,9.53378957
2172,9.606168881
2173,9.585908002
2174,9.652459653
2175,9.580653442
2176,9.52915984
2177,9.608309029
2178,9.567199914
2179,9.645834796
2180,9.607220771
2181,9.568704746
2182,9.589468715
2183,9.582309235
2184,9.558954931
2185,9.63551392
2186,9.581863509
2187,9.637804154
2188,9.515637592
2189,9.661785841
2190,9.582173725
2191,9.655949012
2192,9.574965151
2193,9.613794765
2194,9.555043266
2195,9.602033554
2196,9.586071758
2197,9.622308111
2198,9.531534041
2199,9.618062322
2200,9.587687599
2201,9.616837169
2202,9.531765301
2203,9.596684885
2204,9.555554662
2205,9.606663756
2206,9.589727083
2207,9.645011778
2208,9.645382593
2209,9.619930872
2210,9.595201507
2211,9.648088418
2212,9.555024188
2213,9.563498255
2214,9.653978418
2215,9.557160985
2216,9.654511789
2217,9.663642693
2218,9.632450062
2219,9.620141832
2220,9.571501807
2221,9.522179574
2222,9.596013679
2223,9.522929204
2224,9.607662733
2225,9.630441856
2226,9.606983517
2227,9.560779332
2228,9.602537366
2229,9.543068721
2230,9.640685182
2231,9.624144209
2232,9.67804738
2233,9.596969511
2234,9.639071624
2235,9.571548378
2236,9.56845863
2237,9.624848742
2238,9.6060277
2239,9.603078841
2240,9.566203529
2241,9.624795523
2242,9.595427355
2243,9.586947746
2244,9.588121962
2245,9.606697604
2246,9.585859075
2247,9.551618919
2248,9.608982946
2249,9.625097991
2250,9.507060021
2251,9.581345483
2252,9.597111289
2253,9.649985575
2254,9.653268891
2255,9.587625246
2256,9.625210868
2257,9.679290014
2258,9.629041644
2259,9.557452446
2260,9.566460472
2261,9.665177259
2262,9.492246851
2263,9.635973521
2264,9.557611732
2265,9.553713822
2266,9.61314454
2267,9.567126844
2268,9.601624146
2269,9.65216978
2270,9.59812728
2271,9.553248136
2272,9.608743212
2273,9.620848174
2274,9.603075416
2275,9.57102515
2276,9.592835207
2277,9.619758019
2278,9.545556049
2279,9.634493595
2280,9.621497978
2281,9.622398731
2282,9.579102286
2283,9.651477649
2284,9.619400144
2285,9.531289708
2286,9.484614783
2287,9.57840174
2288,9.60063053
2289,9.545954527
2290,9.668187075
2291,9.647693301
2292,9.645859229
2293,9.579086102
2294,9.563170619
2295,9.600500738
2296,9.565905375
2297,9.700928163
2298,9.660325352
2299,9.554189582
2300,9.580591471
2301,9.533808723
2302,9.627753446
2303,9.647442493
2304,9.597084479
2305,9.53364342
2306,9.58217719
2307,9.620933296
2308,9.59435876
2309,9.663706993
2310,9.601602768
2311,9.615571459
2312,9.539045914
2313,9.587158067
2314,9.529915746
2315,9.585927092
2316,9.618556082
2317,9.637259849
2318,9.607384942
2319,9.607758712
2320,9.549856821
2321,9.614290512
2322,9.713101802
2323,9.651274315
2324,9.638257562
2325,9.591617667
2326,9.639175607
2327,9.575291375
2328,9.631455796
2329,9.629404173
2330,9.544221075
2331,9.569011254
2332,9.584724299
2333,9.587879216
2334,9.586527842
2335,9.667841389
2336,9.577924988
2337,9.565582184
2338,9.557417681
2339,9.564625128
2340,9.589884351
2341,9.614000812
2342,9.553936127
2343,9.608922629
2344,9.637370947
2345,9.646328348
2346,9.636888607
2347,9.60700265
2348,9.689435128
2349,9.571790859
2350,9.496301772
2351,9.589946405
2352,9.638070838
2353,9.608593193
2354,9.630741206
2355,9.603827733
2356,9.686799873
2357,9.614306274
2358,9.635948169
2359,9.636575577
2360,9.588366682
2361,9.566018701
2362,9.511176298
2363,9.569260718
2364,9.540601332
2365,9.588773581
2366,9.609490712
2367,9.626368442
2368,9.624463134
2369,9.617861523
2370,9.529292801
2371,9.579455797
2372,9.616228989
2373,9.587527447
2374,9.621815718
2375,9.592157656
2376,9.531445704
2377,9.602926106
2378,9.615193391
2379,9.637572189
2380,9.606369867
2381,9.709869877
2382,9.620718307
2383,9.587518524
2384,9.623756697
2385,9.61631816
2386,9.676167631
2387,9.612888319
2388,9.62889953
2389,9.587773175
2390,9.583645736
2391,9.530798941
2392,9.656557489
2393,9.575647181
2394,9.63504074
2395,9.589938023
2396,9.57772823
2397,9.589474889
2398,9.574356198
2399,9.574332543
2400,9.613806717
2401,9.578199961
2402,9.642585221
2403,9.634578833
2404,9.653338516
2405,9.62888151
2406,9.596962672
2407,9.645103385
2408,9.620168669
2409,9.61249186
2410,9.596835813
2411,9.582367022
2412,9.58817926
2413,9.630821327
2414,9.59394373
2415,9.642225443
2416,9.532409659
2417,9.614086607
2418,9.645696843
2419,9.639930345
2420,9.663109382
2421,9.656514017
2422,9.623034517
2423,9.621110091
2424,9.570751036
2425,9.632133611
2426,9.579831779
2427,9.608757055
2428,9.682635131
2429,9.620556901
2430,9.589047142
2431,9.624866622
2432,9.68856488
2433,9.601522415
2434,9.593333058
2435,9.594210423
2436,9.581450228
2437,9.622116671
2438,9.56637956
2439,9.643172921
2440,9.545966624
2441,9.600678551
2442,9.636811207
2443,9.547392925
2444,9.557126983
2445,9.62879295
2446,9.661348072
2447,9.639361017
2448,9.583440084
2449,9.594032506
2450,9.514684049
2451,9.65428281
2452,9.616248799
2453,9.622920524
2454,9.645721603
2455,9.583513608
2456,9.598396782
2457,9.580064507
2458,9.597609881
2459,9.623868672
2460,9.679407778
2461,9.679062914
2462,9.543276161
2463,9.643305107
2464,9.636906541
2465,9.627938182
2466,9.570723164
2467,9.621563795
2468,9.557140013
2469,9.632690736
2470,9.663088698
2471,9.597600443
2472,9.584899617
2473,9.542017361
2474,9.605518759
2475,9.6450499
2476,9.618570044
2477,9.537423555
2478,9.485822257
2479,9.586714548
2480,9.652360034
2481,9.621933623
2482,9.591402816
2483,9.634856484
2484,9.549886301
2485,9.633849787
2486,9.628474936
2487,9.637487833
2488,9.584987079
2489,9.609048992
2490,9.660320559
2491,9.584813449
2492,9.60269098
2493,9.62726816
2494,9.631789668
2495,9.652095506
2496,9.585161125
2497,9.634862087
2498,9.672857871
2499,9.600650808
2500,9.600460691
2501,9.609818122
2502,9.591995416
2503,9.617229853
2504,9.595374474
2505,9.643867029
2506,9.605275435
2507,9.549635734
2508,9.58531165
2509,9.575976562
2510,9.578806605
2511,9.69732078
2512,9.627900453
2513,9.575431646
2514,9.597018066
2515,9.545456995
2516,9.614765184
2517,9.634056879
2518,9.611092161
2519,9.581421122
2520,9.620503473
2521,9.627731
2522,9.646768066
2523,9.547949277
2524,9.645404626
2525,9.546781518
2526,9.574898914
2527,9.578601349
2528,9.559387516
2529,9.651076272
2530,9.536980118
2531,9.600912646
2532,9.609315987
2533,9.601346226
2534,9.665715049
2535,9.585563888
2536,9.590302268
2537,9.591629217
2538,9.58590919
2539,9.599884323
2540,9.577688056
2541,9.622259625
2542,9.564312406
2543,9.596883326
2544,9.534907026
2545,9.648880257
2546,9.561008326
2547,9.496892202
2548,9.584072572
2549,9.604182397
2550,9.610062559
2551,9.653199217
2552,9.550285958
2553,9.61985904
2554,9.621906007
2555,9.601704526
2556,9.655370966
2557,9.61952519
2558,9.556766326
2559,9.60845028
2560,9.612721146
2561,9.681138859
2562,9.633806964
2563,9.650616732
2564,9.557815828
2565,9.588230746
2566,9.591732603
2567,9.632710648
2568,9.603711098
2569,9.602892288
2570,9.545361905
2571,9.558771581
2572,9.606307593
2573,9.625983744
2574,9.642169479
2575,9.610439005
2576,9.577161823
2577,9.544859884
2578,9.652984609
2579,9.663086739
2580,9.558414143
2581,9.603755579
2582,9.596603753
2583,9.62014713
2584,9.639841664
2585,9.606078961
2586,9.538904024
2587,9.582376302
2588,9.611540774
2589,9.625033717
2590,9.577941495
2591,9.682342752
2592,9.519742189
2593,9.60915589
2594,9.613427782
2595,9.557350865
2596,9.550575399
2597,9.549792506
2598,9.55157067
2599,9.618373647
2600,9.545544568
2601,9.589926499
2602,9.692322369
2603,9.577562846
2604,9.57030539
2605,9.655407102
2606,9.621259915
2607,9.564694734
2608,9.561161559
2609,9.601968848
2610,9.586934871
2611,9.615361907
2612,9.608519324
2613,9.531022267
2614,9.613618674
2615,9.529620542
2616,9.623743716
2617,9.649139987
2618,9.538769717
2619,9.567278419
2620,9.533378602
2621,9.602721586
2622,9.5439961
2623,9.623381989
2624,9.607898866
2625,9.520676337
2626,9.655310274
2627,9.617369055
2628,9.57320154
2629,9.600016486
2630,9.646454393
2631,9.632495775
2632,9.586521091
2633,9.598648912
2634,9.646829185
2635,9.662756542
2636,9.610890063
2637,9.5962299
2638,9.637423976
2639,9.552976981
2640,9.504515772
2641,9.515050952
2642,9.592426144
2643,9.526123622
2644,9.602781179
2645,9.630165228
2646,9.633983926
2647,9.591133658
2648,9.602210641
2649,9.611591838
2650,9.639336388
2651,9.537787252
2652,9.521803802
2653,9.557716883
2654,9.58732668
2655,9.56190011
2656,9.54053934
2657,9.549600069
2658,9.690151814
2659,9.58354163
2660,9.621965458
2661,9.639747557
2662,9.625051322
2663,9.584473482
2664,9.58645344
2665,9.560922211
2666,9.608644239
2667,9.571969159
2668,9.665892955
2669,9.62288443
2670,9.601627446
2671,9.586128123
2672,9.627052425
2673,9.551045449
2674,9.635957386
2675,9.622702726
2676,9.595585679
2677,9.604648334
2678,9.639232733
2679,9.584976766
2680,9.658843087
2681,9.604810659
2682,9.607106453
2683,9.574943716
2684,9.613859735
2685,9.528771125
2686,9.636533297
2687,9.53883449
2688,9.610343899
2689,9.645247401
2690,9.591663859
2691,9.593120147
2692,9.560429475
2693,9.623042283
2694,9.577611534
2695,9.57364121
2696,9.575492787
2697,9.553912289
2698,9.618392103
2699,9.64385234
2700,9.559664579
2701,9.601517488
2702,9.551733754
2703,9.572971127
2704,9.547457237
2705,9.595195001
2706,9.607477791
2707,9.645956264
2708,9.573053042
2709,9.599313004
2710,9.574816093
2711,9.64073005
2712,9.538803642
2713,9.589036689
2714,9.601960613
2715,9.693364401
2716,9.548838976
2717,9.641205263
2718,9.60175271
2719,9.655635695
2720,9.577336237
2721,9.567327346
2722,9.616895702
2723,9.674911271
2724,9.540703793
2725,9.586201127
2726,9.601635405
2727,9.57929207
2728,9.596277039
2729,9.605525091
2730,9.615647723
2731,9.587933782
2732,9.633037964
2733,9.624319815
2734,9.555958418
2735,9.70468852
2736,9.611163943
2737,9.641875339
2738,9.650817677
2739,9.590979736
2740,9.58324419
2741,9.561172401
2742,9.615491674
2743,9.617300396
2744,9.629719016
2745,9.565344371
2746,9.616694637
2747,9.678684945
2748,9.651035041
2749,9.638358731
2750,9.508682599
2751,9.633112752
2752,9.59990398
2753,9.674361404
2754,9.620644743
2755,9.574717594
2756,9.604489861
2757,9.570977234
2758,9.694988445
2759,9.642189852
2760,9.576014395
2761,9.602747609
2762,9.607226295
2763,9.616639675
2764,9.610325733
2765,9.588354864
2766,9.666278451
2767,9.585509362
2768,9.67489969
2769,9.569559611
2770,9.583501979
2771,9.548529408
2772,9.59627727
2773,9.541010606
2774,9.551407347
2775,9.645146942
2776,9.568843262
2777,9.671917389
2778,9.589020854
2779,9.602577517
2780,9.656830783
2781,9.578634454
2782,9.592783841
2783,9.610582039
2784,9.541146573
2785,9.562262816
2786,9.613766813
2787,9.629892079
2788,9.596473358
2789,9.520053654
2790,9.619797689
2791,9.567711075
2792,9.640164665
2793,9.621679592
2794,9.647339481
2795,9.600647744
2796,9.61891103
2797,9.575357791
2798,9.581595014
2799,9.648997505
2800,9.557069868
2801,9.602455812
2802,9.614396359
2803,9.586123331
2804,9.617299947
2805,9.617197673
2806,9.601307174
2807,9.536528096
2808,9.588892178
2809,9.52553423
2810,9.593177724
2811,9.544095223
2812,9.631430564
2813,9.616197615
2814,9.635990252
2815,9.609335891
2816,9.59905044
2817,9.603065869
2818,9.544168617
2819,9.561444531
2820,9.618930701
2821,9.639236581
2822,9.640049058
2823,9.573941091
2824,9.586449654
2825,9.568254264
2826,9.645121579
2827,9.620631469
2828,9.62251096
2829,9.533612837
2830,9.52584527
2831,9.546950297
2832,9.641737195
2833,9.643052015
2834,9.556510641
2835,9.584066547
2836,9.546537033
2837,9.545672822
2838,9.559222768
2839,9.564557549
2840,9.615126207
2841,9.627380718
2842,9.520144513
2843,9.572711269
2844,9.527417714
2845,9.578545835
2846,9.609183986
2847,9.651502556
2848,9.559624893
2849,9.701815115
2850,9.59799678
2851,9.625141218
2852,9.498154196
2853,9.550043586
2854,9.635069511
2855,9.584210166
2856,9.580258104
2857,9.556113792
2858,9.646199899
2859,9.519991822
2860,9.537712664
2861,9.536158577
2862,9.662299718
2863,9.60689639
2864,9.618455957
2865,9.56818898
2866,9.585992721
2867,9.615331233
2868,9.599269197
2869,9.628521698
2870,9.566937739
2871,9.559559811
2872,9.593622012
2873,9.615429392
2874,9.64632608
2875,9.623549006
2876,9.657337492
2877,9.684054996
2878,9.622827258
2879,9.62447763
2880,9.534400882
2881,9.586535782
2882,9.635182456
2883,9.646612847
2884,9.558338709
2885,9.59625375
2886,9.690195082
2887,9.58818882
2888,9.676138704
2889,9.607423669
2890,9.612462196
2891,9.564268647
2892,9.591341489
2893,9.634856681
2894,9.674346129
2895,9.64922133
2896,9.603066158
2897,9.550352948
2898,9.610220229
2899,9.599944154
2900,9.626627768
2901,9.630210952
2902,9.570741099
2903,9.635352985
2904,9.637127146
2905,9.536742256
2906,9.5438014
2907,9.631554559
2908,9.707530772
2909,9.626265285
2910,9.590793201
2911,9.600599451
2912,9.606753754
2913,9.584810796
2914,9.640368795
2915,9.664998771
2916,9.552406987
2917,9.566535035
2918,9.564087986
2919,9.604514579
2920,9.649876361
2921,9.605148424
2922,9.524787268
2923,9.61749864
2924,9.633812208
2925,9.581980871
2926,9.557305868
2927,9.613990883
2928,9.632652044
2929,9.665274481
2930,9.564920907
2931,9.58203862
2932,9.619397195
2933,9.504917769
2934,9.622675753
2935,9.572162881
2936,9.61378242
2937,9.568600208
2938,9.515635966
2939,9.716089157
2940,9.597241012
2941,9.554468686
2942,9.608635972
2943,9.611919581
2944,9.624170512
2945,9.507093496
2946,9.603872834
2947,9.499719926
2948,9.64012674
2949,9.544526221
2950,9.637347478
2951,9.630635246
2952,9.517251707
2953,9.588095536
2954,9.609609593
2955,9.541607021
2956,9.595126762
2957,9.544889082
2958,9.615070415
2959,9.59662445
2960,9.599371732
2961,9.588752657
2962,9.613145843
2963,9.624106543
2964,9.589273051
2965,9.663072384
2966,9.642259932
2967,9.637689204
2968,9.629050144
2969,9.651591505
2970,9.619735497
2971,9.571168678
2972,9.571995685
2973,9.619494202
2974,9.611422628
2975,9.636554161
2976,9.628071993
2977,9.627320974
2978,9.622774807
2979,9.539094863
2980,9.645757911
2981,9.524524546
2982,9.598963996
2983,9.555515219
2984,9.615246621
2985,9.661067334
2986,9.575354634
2987,9.574227068
2988,9.625302563
2989,9.574967653
2990,9.531408794
2991,9.678488364
2992,9.574121217
2993,9.591826871
2994,9.604913653
2995,9.605232713
2996,9.621837018
2997,9.612058893
2998,9.581977761
2999,9.642574372
3000,9.549039989
3001,9.648338472
3002,9.628066417
3003,9.568830922
3004,9.611479465
3005,9.606593491
3006,9.64060063
3007,9.566021194
3008,9.609563427
3009,9.573708972
3010,9.614607085
3011,9.654490738
3012,9.599575531
3013,9.607223488
3014,9.549194758
3015,9.640783067
3016,9.554525619
3017,9.557778695
3018,9.586720409
3019,9.58975058
3020,9.570603361
3021,9.60666705
3022,9.514034677
3023,9.545981593
3024,9.574288633
3025,9.639386202
3026,9.616238917
3027,9.5835616
3028,9.560443382
3029,9.639631458
3030,9.588123543
3031,9.65684696
3032,9.612948127
3033,9.596479863
3034,9.583740449
3035,9.57669163
3036,9.552277794
3037,9.62102858
3038,9.579884602
3039,9.563734033
3040,9.596365216
3041,9.567846149
3042,9.602921001
3043,9.6198596
3044,9.598083842
3045,9.568860577
3046,9.540407662
3047,9.627283964
3048,9.572945792
3049,9.569029764
3050,9.551696097
3051,9.594441399
3052,9.570915131
3053,9.597661077
3054,9.537598426
3055,9.66096858
3056,9.540830645
3057,9.589850912
3058,9.580497827
3059,9.625669523
3060,9.545000965
3061,9.618397284
3062,9.55381316
3063,9.549914256
3064,9.669877107
3065,9.554502576
3066,9.591571383
3067,9.615481546
3068,9.642056639
3069,9.567995717
3070,9.584553332
3071,9.597848756
3072,9.589072145
3073,9.57861934
3074,9.645663484
3075,9.586919297
3076,9.630982141
3077,9.52324612
3078,9.614592791
3079,9.572175433
3080,9.569072469
3081,9.549322032
3082,9.608581354
3083,9.603690867
3084,9.567728378
3085,9.538020902
3086,9.616774678
3087,9.668506622
3088,9.598128432
3089,9.600928538
3090,9.533389277
3091,9.585009903
3092,9.622904345
3093,9.62443337
3094,9.502508395
3095,9.53453607
3096,9.558826781
3097,9.637702421
3098,9.5909281
3099,9.597932513
3100,9.669611197
3101,9.572635678
3102,9.663325767
3103,9.619587229
3104,9.583812034
3105,9.664175298
3106,9.592753095
3107,9.655148642
3108,9.618130686
3109,9.606690308
3110,9.602589741
3111,9.592087197
3112,9.582391757
3113,9.631027191
3114,9.569927078
3115,9.540479264
3116,9.616253121
3117,9.662374252
3118,9.608066962
3119,9.556395122
3120,9.625986645
3121,9.674865308
3122,9.637080961
3123,9.582956911
3124,9.615417588
3125,9.628737339
3126,9.674186029
3127,9.602085297
3128,9.600738046
3129,9.579477248
3130,9.617555506
3131,9.672439384
3132,9.602263593
3133,9.641240306
3134,9.648858124
3135,9.693115156
3136,9.564434424
3137,9.593922635
3138,9.606150733
3139,9.567864481
3140,9.593807685
3141,9.621892261
3142,9.58104885
3143,9.629179388
3144,9.588313374
3145,9.623719546
3146,9.594929559
3147,9.582806201
3148,9.54946248
3149,9.632176271
3150,9.639626955
3151,9.562930743
3152,9.610176195
3153,9.568369479
3154,9.590179943
3155,9.608453558
3156,9.671083834
3157,9.645694847
3158,9.620896551
3159,9.582679917
3160,9.659000041
3161,9.577160591
3162,9.67700062
3163,9.599784541
3164,9.586889925
3165,9.620158159
3166,9.680557507
3167,9.622422475
3168,9.610362283
3169,9.618987916
3170,9.559316256
3171,9.608674271
3172,9.606152195
3173,9.62200112
3174,9.537690742
3175,9.521307735
3176,9.501487387
3177,9.536188265
3178,9.558856444
3179,9.611494297
3180,9.626558539
3181,9.584552755
3182,9.612525797
3183,9.592349322
3184,9.549160775
3185,9.581220531
3186,9.554923748
3187,9.611771849
3188,9.501901295
3189,9.663540489
3190,9.611636347
3191,9.583106747
3192,9.62514125
3193,9.533028319
3194,9.637005561
3195,9.624929905
3196,9.64853959
3197,9.6207329
3198,9.596573902
3199,9.548497888
3200,9.620477235
3201,9.59853831
3202,9.633911573
3203,9.624107655
3204,9.60710949
3205,9.646064494
3206,9.527481305
3207,9.595977801
3208,9.653400048
3209,9.620723411
3210,9.607437051
3211,9.520658366
3212,9.636533598
3213,9.588251389
3214,9.606443819
3215,9.532780184
3216,9.615739516
3217,9.56468248
3218,9.610054454
3219,9.586104401
3220,9.497257679
3221,9.651155207
3222,9.604802526
3223,9.698410031
3224,9.583559863
3225,9.653329928
3226,9.623885689
3227,9.592796639
3228,9.510343294
3229,9.590188858
3230,9.611793112
3231,9.574890349
3232,9.515385184
3233,9.537516171
3234,9.536151503
3235,9.625871942
3236,9.61266859
3237,9.551007273
3238,9.61909538
3239,9.607964393
3240,9.576058454
3241,9.576863545
3242,9.582016318
3243,9.595667181
3244,9.611610653
3245,9.584503701
3246,9.629588112
3247,9.628337109
3248,9.545745654
3249,9.558339038
3250,9.635573117
3251,9.654508326
3252,9.561011642
3253,9.627244462
3254,9.608049428
3255,9.622596639
3256,9.593132383
3257,9.637714264
3258,9.630771003
3259,9.656373237
3260,9.576845982
3261,9.541671111
3262,9.579713132
3263,9.543941503
3264,9.583255881
3265,9.615144568
3266,9.529695368
3267,9.549681976
3268,9.621268646
3269,9.653631874
3270,9.611605708
3271,9.594460429
3272,9.632882324
3273,9.573439534
3274,9.611978626
3275,9.530807578
3276,9.623634432
3277,9.64516939
3278,9.585003847
3279,9.614085051
3280,9.547467163
3281,9.617102234
3282,9.594100588
3283,9.625760405
3284,9.601875894
3285,9.591692729
3286,9.548318046
3287,9.606278454
3288,9.609724317
3289,9.598095693
3290,9.587720776
3291,9.648565096
3292,9.584454613
3293,9.590446012
3294,9.511532551
3295,9.592484089
3296,9.598568493
3297,9.610409669
3298,9.627439086
3299,9.596958484
3300,9.600282999
3301,9.643364179
3302,9.611170137
3303,9.543581502
3304,9.595931468
3305,9.587786407
3306,9.69030476
3307,9.5947702
3308,9.627871276
3309,9.629095679
3310,9.57676913
3311,9.595746238
3312,9.636411707
3313,9.601322271
3314,9.663105281
3315,9.52973509
3316,9.551359928
3317,9.561344022
3318,9.620077368
3319,9.632813465
3320,9.594573401
3321,9.586912369
3322,9.570143516
3323,9.602655062
3324,9.611011733
3325,9.626932645
3326,9.589997902
3327,9.557929808
3328,9.56899786
3329,9.566001515
3330,9.588586636
3331,9.518193838
3332,9.60546221
3333,9.55581054
3334,9.664279523
3335,9.592125302
3336,9.588547807
3337,9.587367175
3338,9.550976934
3339,9.577179057
3340,9.572122948
3341,9.631357009
3342,9.585895353
3343,9.647952557
3344,9.608699009
3345,9.599948026
3346,9.653070685
3347,9.60407244
3348,9.571498965
3349,9.596386369
3350,9.523499504
3351,9.629051372
3352,9.610592928
3353,9.627365361
3354,9.608254861
3355,9.638059497
3356,9.577603475
3357,9.615304812
3358,9.602279865
3359,9.53759113
3360,9.594346344
3361,9.553440134
3362,9.63307721
3363,9.576773816
3364,9.607204441
3365,9.609441149
3366,9.616425142
3367,9.611181606
3368,9.630292556
3369,9.613614709
3370,9.591541212
3371,9.616753101
3372,9.655621438
3373,9.609883727
3374,9.558098215
3375,9.590785473
3376,9.535185484
3377,9.630051111
3378,9.57910111
3379,9.616660564
3380,9.559757964
3381,9.628684424
3382,9.555172929
3383,9.598664132
3384,9.553348267
3385,9.644280267
3386,9.616748283
3387,9.619136596
3388,9.670879265
3389,9.654750104
3390,9.629086422
3391,9.634920901
3392,9.62509622
3393,9.606994482
3394,9.596698505
3395,9.563884567
3396,9.532483719
3397,9.631265104
3398,9.593785786
3399,9.62631437
3400,9.617753031
3401,9.61344758
3402,9.569690367
3403,9.519532918
3404,9.632387984
3405,9.600974023
3406,9.626899678
3407,9.539001138
3408,9.600911548
3409,9.615544296
3410,9.627131428
3411,9.576446179
3412,9.63448887
3413,9.678330362
3414,9.593279112
3415,9.563823866
3416,9.612263904
3417,9.62836522
3418,9.625462129
3419,9.593564586
3420,9.622967047
3421,9.635086869
3422,9.5486677
3423,9.588693553
3424,9.649505771
3425,9.553581251
3426,9.64375729
3427,9.524764247
3428,9.640131657
3429,9.610624219
3430,9.616447184
3431,9.668306071
3432,9.640475309
3433,9.66070701
3434,9.635701487
3435,9.685078789
3436,9.553375204
3437,9.520862269
3438,9.540267304
3439,9.621858399
3440,9.582783011
3441,9.59512822
3442,9.536269535
3443,9.686639638
3444,9.581352937
3445,9.521079528
3446,9.556711029
3447,9.590856059
3448,9.55542971
3449,9.591771472
3450,9.543890197
3451,9.644721295
3452,9.613234572
3453,9.600160768
3454,9.540094894
3455,9.576809037
3456,9.561975847
3457,9.581383542
3458,9.603960987
3459,9.60145374
3460,9.624033887
3461,9.597333754
3462,9.618761171
3463,9.539568414
3464,9.649074467
3465,9.538097622
3466,9.573605554
3467,9.604831962
3468,9.602324604
3469,9.565921789
3470,9.60924325
3471,9.613380086
3472,9.568214383
3473,9.651832489
3474,9.618842627
3475,9.566093698
3476,9.559600136
3477,9.632994828
3478,9.581528649
3479,9.58040846
3480,9.618563164
3481,9.613987677
3482,9.646677381
3483,9.590741342
3484,9.586620395
3485,9.567743279
3486,9.653281455
3487,9.588539029
3488,9.646365678
3489,9.648993178
3490,9.63908122
3491,9.605264191
3492,9.560875058
3493,9.594961389
3494,9.62535714
3495,9.578005928
3496,9.602470464
3497,9.628061207
3498,9.662871145
3499,9.624411684
3500,9.626319372
3501,9.63569589
3502,9.646618178
3503,9.504018351
3504,9.666178209
3505,9.540264084
3506,9.662254395
3507,9.709446499
3508,9.651281795
3509,9.661469486
3510,9.585057444
3511,9.565824651
3512,9.566136968
3513,9.609881812
3514,9.55024951
3515,9.586645917
3516,9.600296851
3517,9.597634701
3518,9.580435025
3519,9.584263364
3520,9.66545566
3521,9.590975019
3522,9.54860484
3523,9.61243256
3524,9.570681671
3525,9.583195448
3526,9.562717269
3527,9.560135372
3528,9.568809113
3529,9.623519415
3530,9.649504177
3531,9.606412612
3532,9.589013515
3533,9.574754692
3534,9.662397102
3535,9.500983547
3536,9.6235363
3537,9.614602535
3538,9.615700168
3539,9.55926888
3540,9.586418693
3541,9.59105377
3542,9.589934618
3543,9.607682148
3544,9.637023305
3545,9.591215633
3546,9.556376159
3547,9.649953771
3548,9.567088238
3549,9.610251561
3550,9.577444758
3551,9.553878107
3552,9.699942275
3553,9.666368459
3554,9.575709418
3555,9.584779219
3556,9.62004834
3557,9.632581627
3558,9.616190659
3559,9.614408491
3560,9.586255963
3561,9.574164813
3562,9.626129408
3563,9.594417829
3564,9.58957748
3565,9.618628662
3566,9.61251076
3567,9.546287942
3568,9.651140245
3569,9.628861036
3570,9.607487152
3571,9.61853332
3572,9.577159819
3573,9.636813291
3574,9.636211906
3575,9.573604954
3576,9.637406962
3577,9.654187257
3578,9.585004306
3579,9.629120353
3580,9.591552266
3581,9.608183865
3582,9.581658262
3583,9.639991134
3584,9.582774448
3585,9.547539254
3586,9.613939404
3587,9.508269338
3588,9.616376696
3589,9.535115025
3590,9.565865875
3591,9.57772632
3592,9.603135155
3593,9.628761386
3594,9.528309193
3595,9.634512971
3596,9.700410129
3597,9.595034375
3598,9.596492924
3599,9.618830517
3600,9.626281545
3601,9.595045444
3602,9.558554146
3603,9.63214292
3604,9.622317769
3605,9.623899744
3606,9.628525398
3607,9.635266748
3608,9.593808919
3609,9.574687644
3610,9.535363184
3611,9.628162417
3612,9.582355557
3613,9.584143123
3614,9.588515065
3615,9.669022869
3616,9.571831398
3617,9.628415495
3618,9.608921033
3619,9.616105896
3620,9.570747363
3621,9.614174339
3622,9.594865136
3623,9.58277805
3624,9.629363555
3625,9.578306701
3626,9.645048022
3627,9.552304489
3628,9.596467857
3629,9.617794168
3630,9.569837081
3631,9.636480023
3632,9.600668424
3633,9.610190617
3634,9.550518232
3635,9.596381888
3636,9.646260637
3637,9.642378715
3638,9.589726733
3639,9.658215749
3640,9.57244657
3641,9.55916035
3642,9.615616963
3643,9.613996526
3644,9.5767245
3645,9.599566832
3646,9.609804334
3647,9.666169724
3648,9.638255167
3649,9.630227029
3650,9.623086959
3651,9.582650353
3652,9.689987911
3653,9.592099572
3654,9.683198683
3655,9.640019252
3656,9.597547781
3657,9.69799206
3658,9.698338014
3659,9.717978999
3660,9.671324263
3661,9.762946919
3662,9.775168067
3663,9.753636805
3664,9.768196333
3665,9.836015324
3666,9.935759078
3667,9.897438163
3668,9.887952625
3669,9.943589315
3670,10.02418654
3671,10.01262996
3672,9.989883907
3673,10.03423365
3674,10.13988121
3675,10.17218975
3676,10.16626539
3677,10.23956982
3678,10.2564473
3679,10.38883512
3680,10.36975241
3681,10.36804176
3682,10.48175415
3683,10.4041192
3684,10.45240738
3685,10.55373265
3686,10.5654751
3687,10.48072942
3688,10.6076084
3689,10.58919919
3690,10.59120153
3691,10.61065948
3692,10.60458334
3693,10.56675037
3694,10.56208432
3695,10.56561539
3696,10.47516597
3697,10.51717596
3698,10.51321053
3699,10.46518555
3700,10.50900853
3701,10.37285553
3702,10.37624346
3703,10.28605484
3704,10.27587861
3705,10.30129263
3706,10.23151724
3707,10.1838332
3708,10.15369425
3709,10.11356865
3710,10.06032001
3711,9.988891095
3712,9.940671194
3713,9.898113001
3714,9.945667743
3715,9.916346494
3716,9.864968411
3717,9.79845604
3718,9.779657675
3719,9.849693417
3720,9.792476292
3721,9.778596774
3722,9.718948786
3723,9.631185881
3724,9.730990424
3725,9.692132729
3726,9.615728805
3727,9.617993369
3728,9.64612189
3729,9.657840912
3730,9.617684711
3731,9.550046101
3732,9.610024526
3733,9.660517951
3734,9.629019829
3735,9.651634964
3736,9.637857982
3737,9.643073375
3738,9.654839937
3739,9.644190652
3740,9.570476524
3741,9.598499697
3742,9.630959051
3743,9.648076466
3744,9.542520013
3745,9.614823069
3746,9.603853614
3747,9.673885169
3748,9.607028067
3749,9.586402261
3750,9.653541747
3751,9.568369492
3752,9.561079497
3753,9.657407526
3754,9.580294866
3755,9.653077687
3756,9.559579974
3757,9.533213733
3758,9.577056061
3759,9.610883319
3760,9.584811238
3761,9.570540816
3762,9.649685674
3763,9.591026086
3764,9.643633079
3765,9.520852278
3766,9.64665908
3767,9.632512893
3768,9.548593956
3769,9.633052243
3770,9.533940644
3771,9.577223229
3772,9.545036479
3773,9.689609564
3774,9.609613564
3775,9.546777658
3776,9.597659612
3777,9.563409079
3778,9.61117511
3779,9.657378412
3780,9.647443721
3781,9.621594123
3782,9.648111034
3783,9.586888747
3784,9.563713376
3785,9.650756533
3786,9.530884887
3787,9.626589458
3788,9.569857995
3789,9.629324451
3790,9.592494511
3791,9.580151933
3792,9.5835473
3793,9.606931241
3794,9.611753165
3795,9.61625992
3796,9.587699817
3797,9.560637688
3798,9.624933688
3799,9.564108352
3800,9.567851318
3801,9.600717923
3802,9.576166874
3803,9.629273807
3804,9.616765082
3805,9.600865626
3806,9.595016424
3807,9.666943121
3808,9.553739792
3809,9.583460498
3810,9.633482902
3811,9.531934944
3812,9.609132636
3813,9.636713332
3814,9.602601157
3815,9.61127403
3816,9.570054132
3817,9.560043078
3818,9.595176075
3819,9.558695587
3820,9.579292314
3821,9.593084657
3822,9.567832871
3823,9.64721589
3824,9.618194587
3825,9.602689436
3826,9.504131923
3827,9.637507955
3828,9.506039969
3829,9.540708021
3830,9.613881612
3831,9.614591103
3832,9.618647607
3833,9.544542696
3834,9.601371571
3835,9.589251608
3836,9.576697804
3837,9.604570678
3838,9.654328382
3839,9.593700845
3840,9.601216232
3841,9.66391232
3842,9.7284277
3843,9.631577234
3844,9.655214593
3845,9.590770122
3846,9.656840322
3847,9.656075458
3848,9.628545379
3849,9.598683537
3850,9.611231274
3851,9.555924592
3852,9.635506972
3853,9.612838518
3854,9.502313688
3855,9.591509609
3856,9.591594766
3857,9.570901433
3858,9.613340514
3859,9.596029183
3860,9.667505058
3861,9.599813819
3862,9.628958134
3863,9.677230573
3864,9.61254237
3865,9.576342454
3866,9.532929745
3867,9.625753586
3868,9.561914908
3869,9.577708951
3870,9.561778984
3871,9.619104526
3872,9.63906965
3873,9.612740615
3874,9.608405236
3875,9.573666874
3876,9.594750712
3877,9.592049263
3878,9.577291625
3879,9.560423456
3880,9.661251081
3881,9.634839803
3882,9.545469913
3883,9.571348568
3884,9.614486447
3885,9.629249633
3886,9.60914101
3887,9.602454534
3888,9.621553624
3889,9.637416007
3890,9.612580865
3891,9.587355843
3892,9.552058896
3893,9.535958262
3894,9.670789484
3895,9.565927347
3896,9.586859053
3897,9.571084081
3898,9.658119533
3899,9.548825965
3900,9.62695469
3901,9.637550036
3902,9.577763403
3903,9.591106341
3904,9.635119552
3905,9.560829463
3906,9.617319831
3907,9.61157777
3908,9.606046555
3909,9.615428523
3910,9.591684774
3911,9.703822342
3912,9.62391351
3913,9.598497724
3914,9.628728515
3915,9.666192412
3916,9.542478598
3917,9.647409908
3918,9.62851958
3919,9.610693497
3920,9.62586259
3921,9.627891303
3922,9.717081757
3923,9.628340084
3924,9.621407069
3925,9.59602125
3926,9.614947885
3927,9.582443988
3928,9.639223805
3929,9.572133867
3930,9.615400363
3931,9.597940399
3932,9.57683315
3933,9.558289436
3934,9.54562223
3935,9.65393629
3936,9.636720387
3937,9.589130744
3938,9.589709779
3939,9.536417321
3940,9.609203942
3941,9.706676352
3942,9.573801483
3943,9.610128917
3944,9.631638772
3945,9.550337226
3946,9.608493089
3947,9.597653242
3948,9.597701209
3949,9.622682877
3950,9.651173819
3951,9.579477377
3952,9.596600414
3953,9.592752551
3954,9.566786523
3955,9.603186437
3956,9.553938619
3957,9.602951896
3958,9.58803439
3959,9.559891969
3960,9.575220366
3961,9.654336434
3962,9.681303811
3963,9.637932727
3964,9.59896409
3965,9.637961838
3966,9.632578165
3967,9.603093121
3968,9.600308871
3969,9.543455427
3970,9.589992672
3971,9.625117235
3972,9.606569347
3973,9.507779638
3974,9.553719554
3975,9.677944969
3976,9.628270998
3977,9.632003682
3978,9.689167216
3979,9.549541908
3980,9.658860401
3981,9.506840748
3982,9.590079152
3983,9.677732507
3984,9.608331044
3985,9.646144873
3986,9.647892776
3987,9.605696979
3988,9.603653496
3989,9.711532061
3990,9.619556001
3991,9.488429093
3992,9.634141236
3993,9.594416286
3994,9.575102941
3995,9.578677066
3996,9.509421427
3997,9.624100148
3998,9.61791021
3999,9.515940181
4000,9.6237892
