Raman Shift,Intensity
214.3785040343428,80.132
224.78145843945092,29.382
235.01908334044856,80.132
245.41130867789616,10.684
255.63837774522108,275.121
265.8602158678186,-24.04
276.23642015571386,74.79
286.44772684514464,18.698
296.8132434111685,21.369
307.0140349346475,-21.369
317.209615658554,-42.737
327.399989574551,21.369
337.7442627077253,-253.752
347.9241537664129,96.159
358.09885002992814,5.342
368.2683554736213,-2.671
378.5914504125685,106.843
388.7505051753542,2.671
398.90438108190574,64.106
409.0530820913264,344.569
419.196612158652,21.369
429.3349752349313,424.701
439.626465572117,122.87
449.75442592354375,26.711
459.8772311743669,277.792
469.994885259468,259.095
480.1073921097559,331.214
490.2147556521086,141.567
500.31697980943136,299.161
510.41406850063504,312.516
520.5060256406359,371.28
530.5928551403995,328.543
540.6745609068894,531.545
550.7511468431039,293.819
560.8226168481124,462.097
570.888974816975,539.558
580.9502246408374,339.227
590.8492821665859,446.07
600.9004070215597,614.348
610.9464353206786,440.728
620.9873709393651,953.575
631.0232177491416,1327.526
641.0539796175653,2241.035
650.9230482019848,2310.483
660.9437310766662,1586.621
670.9593405290361,966.93
680.9698804110958,731.875
690.8190579752118,705.165
700.8195493193562,673.112
710.8149825658329,667.77
720.805361551138,363.267
730.6347081696804,617.019
740.6150689503047,443.399
750.4345613154874,595.65
760.404918953056,470.11
770.3702413346182,475.452
780.174941402227,235.055
790.1302832356378,395.32
799.925166080895,699.823
809.8705423523497,534.216
819.6556227125038,526.202
829.5910483782136,61.435
839.3663409610526,389.977
849.2918309472952,389.977
859.0573504311833,480.794
868.972919634427,323.2
878.7286806683987,114.856
888.6343439553166,336.556
898.3803611591502,315.187
908.12155022542,419.359
918.0124213310264,277.792
927.743888384779,422.03
937.4705381077074,448.741
947.3466501411676,609.006
957.0635996041163,483.465
966.7757425107702,406.004
976.6371284824854,659.756
986.3395928168538,1137.879
996.0372613373548,2318.496
1005.7301375988682,3400.283
1015.5719657306544,3261.387
1025.255192198514,2155.56
1034.9336371072422,1047.063
1044.6073039976543,836.048
1054.2761964070742,691.809
1063.9403178693246,617.019
1073.5996719147442,766.6
1083.4074711432768,539.558
1093.057225399156,531.545
1102.70222286418,168.278
1112.3424670547538,526.202
1121.9779614837898,598.322
1131.6087096607444,937.549
1141.2347150916105,755.915
1150.855981278939,558.255
1160.4725117218331,32.053
1170.0843099159465,491.478
1179.6913793534914,670.441
1189.293723523253,432.715
1198.739039559725,609.006
1208.3320185130287,646.401
1217.9202825891407,1049.734
1227.5038352631818,681.125
1237.0826800068826,603.664
1246.6568202885535,408.675
1256.226259573108,464.768
1265.639216696829,312.516
1275.1993388504195,686.467
1284.7547703264208,427.373
1294.3055145761757,280.463
1303.7000868433097,387.306
1313.241541245312,293.819
1322.778318700337,472.781
1332.310422646282,219.028
1341.686663866676,243.068
1351.2095051416618,235.055
1360.727683146746,363.267
1370.0902294598782,363.267
1379.5991650801443,235.055
1388.9526223370776,72.119
1398.4523290278594,504.834
1407.7967104575073,253.752
1417.287201648047,277.792
1426.7730533080105,106.843
1436.1038095471376,93.488
1445.5804658554116,315.187
1454.9021792800197,8.013
1464.369653600741,344.569
1473.6823373500883,-219.028
1482.9905472474493,251.081
1492.444310209452,211.015
1501.7435100404182,454.083
1511.1881242589734,232.384
1520.4783270994303,424.701
1529.764072276041,496.821
1539.1950247490097,333.885
1548.4717924494323,216.357
1557.7441121511074,296.49
1567.1614324998736,275.121
1576.4247941832873,133.554
1585.6837175051332,237.726
1594.9382056544855,397.991
1604.3374199708342,136.225
1613.5829759239496,267.108
1622.8241063047317,237.726
1632.0608142900164,339.227
1641.2931030535765,339.227
1650.6697762525291,216.357
1659.8931649322622,397.991
1669.1121439444323,285.805
1678.3267164506542,312.516
1687.53688560953,272.45
1696.7426545766284,510.176
1705.9440265045123,251.081
1715.1410045427183,406.004
1724.3335918377925,232.384
1733.5217915332687,245.739
1742.705606769683,-5.342
1751.8850406845886,293.819
1761.0600964125188,200.331
1770.230777085024,232.384
1779.397085830693,205.673
1788.55902577511,240.397
1797.7166000408906,170.949
1806.8698117476447,470.11
1816.0186640120735,560.926
1825.163159947857,93.488
1834.1559155330324,130.883
1843.29177827917,72.119
1852.4232939699289,88.146
1861.550465707216,568.94
1870.673296589972,448.741
1879.644751645923,130.883
1888.758979994156,96.159
1897.8688767172423,280.463
1906.974444902422,301.832
1915.9289277003045,323.2
1925.025917750907,414.017
1934.118588458099,165.607
1943.060390766601,114.856
1952.144501554074,331.214
1961.2243021666216,261.766
1970.153450902042,208.344
1979.224709758193,355.253
1988.1454604369865,64.106
1997.208189584475,178.962
2006.120554048888,130.883
2015.1747655127983,176.291
2024.0787555828572,154.923
2033.12446136566,251.081
2042.0200888391555,-69.448
2051.057300920809,26.711
2059.9445775734057,283.134
2068.9733079113576,72.119
2077.852245496608,104.172
2086.8725060258803,259.095
2095.743116275291,352.582
2104.6096010526526,197.66
2113.6172135316083,325.872
2122.4753884816528,42.737
2131.329446630596,200.331
2140.324437642892,205.673
2149.170203423979,173.62
2158.011861050589,125.541
2166.994257105456,170.949
2175.8276397748195,264.437
2184.656922912145,216.357
2193.48210937062,197.66
2202.303202000803,152.251
2211.2647105948345,285.805
2220.077557114586,125.541
2228.886318388424,141.567
2237.6909972563008,-56.093
2246.4915965555265,112.185
2255.2881191208,291.148
2264.0805677841927,299.161
2272.8689453751285,414.017
2281.6532547204406,186.975
2290.5774032157133,253.752
2299.353517963282,240.397
2308.125572976198,256.424
2316.893571070781,203.002
2325.6575150607823,259.095
2334.273835606975,138.896
2343.029746164546,162.936
2351.781610997117,29.382
2360.5294329081007,227.042
2369.273214698267,216.357
2378.0129591658333,181.633
2386.7486691064114,120.199
2395.48034731306,133.554
2404.2079965762314,341.898
2412.788641914361,259.095
2421.5083075861257,18.698
2430.2239526247795,152.251
2438.9355798105607,227.042
2447.64319192111,176.291
2456.204142101211,261.766
2464.9037980916983,168.278
2473.5994472792227,130.883
2482.148638712344,120.199
2490.836348166158,74.79
2499.5200590665554,152.251
2508.0575159626023,154.923
2516.7333034706826,74.79
2525.405100652257,272.45
2533.930847154741,168.278
2542.5947372405863,186.975
2551.112711590584,109.514
2559.768705390503,104.172
2568.2789182109263,85.475
2576.927026515033,160.265
2585.5711635713087,240.397
2594.069721988235,272.45
2602.5644435408976,213.686
2611.196813145194,211.015
2619.683804921093,256.424
2628.3083212822166,219.028
2636.7875938271245,34.724
2645.404267656864,114.856
2653.875831497382,122.87
2662.343576738021,80.132
2670.948539131641,114.856
2679.408591378582,232.384
2687.8648328054915,432.715
2696.4581076233444,186.975
2704.906671724595,90.817
2713.351432764532,178.962
2721.792393310454,331.214
2730.370143142005,-64.106
2738.8034471581705,104.172
2747.232958411034,285.805
2755.658679458633,114.856
2764.220946338093,216.357
2772.639031576786,117.527
2781.053334313052,106.843
2789.463857095703,173.62
2797.8706024712737,160.265
2806.2735729839987,389.977
2814.672771175843,157.594
2823.0681995864725,160.265
2831.459860753297,168.278
2839.847757211428,309.845
2848.231891493713,283.134
2856.612266130724,419.359
2864.988883650767,149.58
2873.3617465798743,178.962
2881.7308574418275,307.174
2890.096218758139,219.028
2898.457833048058,136.225
2906.815702828586,400.662
2915.169830614461,317.858
2923.5202189181878,146.909
2931.8668702499926,133.554
2940.209787117892,117.527
2948.41001618022,293.819
2956.7455337723804,184.304
2965.077324369493,221.7
2973.405390470638,208.344
2981.7297345726547,285.805
2989.9117125592966,424.701
2998.2286820744484,235.055
3006.5419370261297,275.121
3014.8514799023105,285.805
3023.0189130185245,165.607
3031.3211009634906,422.03
3039.619584242202,344.569
3047.776149306213,574.282
3056.067292329164,438.057
3064.2166442633534,563.598
3072.500456765243,657.085
3080.780576892153,515.518
3088.919096831967,526.202
3097.1919010483834,627.703
3105.3232317767324,657.085
3113.588729774354,737.218
3121.712880813,966.93
3129.9710822664056,1073.774
3138.0880631202745,1132.537
3146.338977686973,1308.828
3154.448797844241,1418.343
3162.692435164703,1399.645
3170.7951040967964,1485.12
3178.894230970407,1477.106
3187.127000956163,1407.658
3195.218990740796,1616.002
3203.3074454664093,1685.451
3211.5293695924192,1199.314
3219.610701328027,1188.63
3227.688504985643,1490.462
3235.899604670318,1276.776
3243.9702993997853,1079.116
3252.03747301393,1367.592
3260.1011278165533,1287.46
3268.297848330192,1362.25
3276.354412870096,1185.959
3284.407465536773,1354.237
3292.4570086259846,1207.327
3300.5030444314834,1335.539
3308.545575245,1380.948
3316.720827896272,1976.598
3324.756296283769,1108.498
3332.788266581294,1047.063
3340.816741072602,1231.367
3348.8417220394404,1314.171
3356.8632117615925,1650.726
3364.8812125168406,1514.501
3372.895726580995,1674.766
3380.906756227865,1538.541
3388.91430372934,1292.802
3396.918371355256,1466.422
3404.9189613735507,1426.356
3412.9160760501472,1060.418
3420.909717649003,1052.405
3428.8998884321263,1020.352
3436.886590659553,718.52
3444.734546370892,937.549
3452.714376952972,627.703
3460.690745709508,878.785
3468.663654892749,803.995
3476.633106752961,641.059
3484.5991035384795,552.913
3492.4267178764712,657.085
3500.385869715596,520.86
3508.341573175334,451.412
3516.293830496281,435.386
3524.1079469444667,430.044
3532.0533770164475,414.017
3539.9953676218797,603.664
3547.7993978646555,478.123
3555.734574435446,349.911
3563.666318194715,315.187
3571.460281747888,301.832
3579.385224652753,211.015
3587.30674138396,371.28
3595.090657713052,435.386
3603.00538673612,176.291
3610.782634691175,269.779
3618.6905847266535,197.66
3626.461172873067,197.66
3634.362352626544,291.148
3642.1262895150494,74.79
3650.020707677235,120.199
3657.778001843908,26.711
3665.665667090652,96.159
3673.416327056992,200.331
3681.163701429177,315.187
3689.041282322214,315.187
3696.782035212709,435.386
3704.6528847781447,77.461
3712.3870246721344,138.896
3720.117889469839,253.752
3727.845481251112,77.461
3735.702951367959,381.964
3743.4239470074463,98.83
3751.141675895298,205.673
3758.989119491133,98.83
3766.700264858686,96.159
3774.408149723422,221.7
3782.1127761528696,168.278
3789.814146212797,104.172
3797.644959575024,146.909
3805.339767031168,235.055
3813.03132434014,109.514
3820.7196335607214,37.395
3828.404696749953,232.384
3836.086515963114,219.028
3843.76509325378,58.764
3851.4404306737633,301.832
3859.112530273167,219.028
3866.7813941003615,160.265
3874.4470242019815,176.291
3882.109422622947,66.777
3889.7685914064414,136.225
3897.4245325939337,595.65
3905.0772482251705,112.185
3912.7267403381848,-112.185
3920.373010969284,106.843
3928.016062153074,203.002
3935.655895922435,42.737
3943.292514308545,205.673
3950.925919340858,259.095
3958.424585178429,168.278
3966.051624900327,146.909
3973.675457311714,288.476
3981.296084435249,430.044
3988.913508291902,248.41
3996.396478310664,395.32
4004.007556831755,200.331
4011.615438103967,352.582
4019.220124141517,478.123
4026.690583777876,186.975
4034.288940385857,259.095
4041.8841077570687,-48.079
4049.3452186808136,400.662
4056.934068499933,34.724
4064.519735065173,160.265
4071.971514814119,170.949
4079.550875675057,-53.422
4086.996462302253,146.909
4094.5695253181984,227.042
4102.008926541021,16.026
4109.575699558212,133.554
4117.008923081237,969.601
4124.569413932906,146.909
4131.996467447912,141.567
4139.550683954272,101.501
4146.971575140262,186.975
4154.519525108568,293.819
4161.93426163181,154.923
4169.475952856366,154.923
4228.011654085007,219.028
4235.396210255021,189.647
4242.907210725418,192.318
4250.415076793586,170.949
4257.7904449892885,64.106
4265.292102093408,5.342
4272.790630641473,146.909
4280.156827999919,-32.053
4287.649159161061,173.62
4295.138367597785,224.371
4302.4954112134365,120.199
4309.978433811593,229.713
4317.329402006981,312.516
4324.8062464273535,277.792
4332.151146724958,213.686
4339.621820615692,237.726
4346.960660525576,136.225
4354.425171522191,34.724
4361.757958542046,-26.711
4369.216314267462,58.764
4376.543055882612,80.132
4383.9952639471885,104.172
4391.315967630617,542.229
4398.762035632179,203.002
4406.07670884455,307.174
4413.516644368407,285.805
4420.825294558097,336.556
4428.130962180556,152.251
4435.561739780205,146.909
4442.861395497304,184.304
4450.1580741507205,213.686
4457.579710724684,178.962
4464.870388562711,203.002
4472.158094827057,149.58
4479.570607232323,200.331
4486.852323743988,157.594
4494.131074158497,272.45
4501.534479210626,146.909
4508.807250907994,203.002
4516.077061971264,355.253
4523.3439142079005,98.83
4530.735219799091,-98.83
4537.996107969229,-96.159
4545.254042757973,472.781
4552.509025966887,165.607
4559.888261734326,-21.369
4567.13729547953,50.75
4574.383383072374,144.238
4581.626526308552,176.291
4588.866726982291,194.989
4596.103986886381,208.344
4603.338307812148,88.146
4610.69653172473,58.764
4617.92492857972,221.7
4625.150391852971,138.896
4632.372923329975,136.225
4639.592524794789,269.779
4646.809198030001,219.028
4654.022944816745,13.355
4661.233766934747,90.817
4668.441666162253,90.817
4675.646644276094,184.304
4682.8487030516335,317.858
4690.047844262837,245.739
4697.244069682201,128.212
4704.437381080781,149.58
4711.627780228235,269.779
4718.815268892759,106.843
4725.999848841122,170.949
4733.181521838655,194.989
4740.3602896492885,192.318
4747.536154035501,141.567
4754.583300303697,259.095
4761.753413983191,133.554
4768.9206294863325,162.936
4776.084948569973,157.594
4783.246372989488,149.58
4790.404904498872,243.068
4797.435032206777,253.752
4804.5878338284165,117.527
4811.73774776268,98.83
4818.884775757928,376.622
4826.028919561082,208.344
4833.044920461813,173.62
4840.183351639585,192.318
4847.3189038270575,269.779
4854.451578765569,256.424
4861.456318765864,502.163
4868.58329482688,138.896
4875.707398824052,144.238
4882.703723295803,192.318
4889.822138682386,85.475
4896.937687177771,152.251
4903.925611277555,307.174
4911.035481404608,152.251
4918.142489800703,130.883
4925.122028648751,144.238
4932.223368894192,264.437
4939.197342363797,240.397
4946.293021236786,93.488
4953.385846941688,37.395
4960.35146024984,272.45
4967.43863475923,40.066
4974.398699333346,192.318
4981.480229398396,149.58
4988.43475186592,200.331
4995.510644227063,-50.75
5002.459631204903,90.817
5009.529892591847,162.936
5016.473350686378,387.306
5023.537987818112,256.424
5030.475923625207,69.448
5037.534943210041,5.342
5044.467363315067,109.514
5051.397052412052,125.541
5058.447683028528,411.346
5065.371866252855,24.04
5072.416896017057,128.212
5079.335579928018,80.132
5086.251540943114,154.923
5093.288206657562,130.883
5100.198678149784,106.843
5107.106431592307,61.435
5114.134748143202,16.026
5121.037021830118,112.185
5127.93658230202,61.435
5134.833431158368,40.066
5141.85065500065,128.212
5148.742037069234,48.079
5155.630712341699,112.185
5162.516682412504,29.382
5169.522839786696,235.055
5176.403355996677,144.238
5183.281171809234,165.607
5190.156288813778,90.817
5197.028708598496,96.159
5204.021081907653,10.684
5210.888063918697,96.159
5217.752353495271,-34.724
5224.613952220541,32.053
5231.472861676462,74.79
5238.329083443728,72.119
5245.182619101804,32.053
5252.033470228904,-13.355
5258.881638402017,-77.461
5265.727125196914,141.567
5272.569932188097,18.698
5279.532181775125,64.106
5286.369586094326,-26.711
5293.204315354014,61.435
5300.036371123795,205.673
5306.865754971979,48.079
5313.692468465706,146.909
5320.516513170878,-16.026
5327.216103720151,251.081
5334.034863128356,48.079
5340.850958410447,8.013
5347.664391127459,77.461
5354.475162839211,130.883
5361.283275104273,309.845
5368.088729480027,-101.501
5374.891527522632,-80.132
5381.6916707870405,-88.146
5388.489160826968,-403.333
5395.162686039381,176.291
5401.954921596684,98.83
5408.744508555763,8.013
5415.531448465517,192.318
5422.31574287366,197.66
5428.976315601984,53.422
5435.7553708175255,130.883
5442.531785139763,74.79
5449.305560111599,8.013
5456.076697274744,112.185
5462.724355191152,61.435
5469.490268392445,128.212
5476.253548375513,227.042
5482.893493883399,221.7
5489.651558992991,237.726
5496.406995464167,74.79
5503.039241977291,26.711
5509.789472642318,45.408
5516.5370792381145,-162.936
5523.161640139158,56.093
5529.904049975114,200.331
5536.643840300443,355.253
5543.260728941095,141.567
5549.995331531944,104.172
5556.607128017575,-149.58
5563.336548861262,50.75
5569.943259067753,-208.344
5576.667504142417,40.066
5583.269133936614,-32.053
5589.988209211173,66.777
5596.58476445092,93.488
5603.298675885118,-82.803
5609.890162419251,-56.093
5616.598915963696,112.185
5623.185339632037,117.527
5629.888941228186,53.422
5636.470307861637,26.711
5643.16876344182,114.856
5649.745078862296,53.422
5656.438394349752,32.053
5663.009664370256,114.856
5669.578436568787,200.331
5676.264076103718,112.185
5682.827811578958,120.199
5689.3890535265455,74.79
5696.067030305661,293.819
5702.623244186747,307.174
5709.176968824671,208.344
5715.847296014435,125.541
5722.39600122282,138.896
5728.942221462719,112.185
5735.4859581482815,125.541
5742.146121627004,144.238
5748.684850350968,56.093
5755.221099782248,216.357
5761.754871330697,237.726
5768.404894310675,40.066
5774.933669330552,-18.698
5781.459970716278,160.265
5787.983799873429,98.83
5794.505158206499,-56.093
5801.142549523138,125.541
5807.658925557145,21.369
5814.172834999641,74.79
5820.684279250832,88.146
5827.193259709879,162.936
5833.699777774898,72.119
5840.203834842934,197.66
5846.7054323099655,80.132
5853.204571570954,146.909
5859.701254019747,194.989
5866.195481049195,189.647
5872.687254051074,69.448
5879.176574416102,29.382
5885.663443533944,256.424
5892.14786279323,122.87
5898.629833581537,-32.053
5905.109357285379,56.093
5911.586435290243,56.093
5918.061068980562,186.975
5924.533259739736,120.199
5931.003008950094,173.62
5937.470317992949,53.422
5943.935188248557,165.607
5950.397621096134,61.435
5956.857617913869,197.66
5963.315180078898,53.422
5969.7703089673305,117.527
5976.105705888956,165.607
5982.556016527509,347.24
5989.003897986593,66.777
5995.449351638199,170.949
6001.8923788532775,109.514
6008.215900781644,203.002
6014.654123287393,104.172
6021.089923438405,125.541
6027.523302601519,-13.355
6033.954262142564,82.803
6040.265942433929,237.726
6046.692110755517,85.475
6053.115863521547,117.527
6059.420472023492,61.435
6065.839441620141,93.488
6072.255999718647,64.106
6078.553548309683,211.015
6084.965331270854,-61.435
6091.374706782226,170.949
6097.665207314269,120.199
6104.06981570238,293.819
6110.472020679961,173.62
6116.755484978421,397.991
6123.152930828903,240.397
6129.431725134898,184.304
6135.824417162912,96.159
6142.098546680769,221.7
6148.486490183052,-42.737
6154.872039648391,74.79
6161.139160374798,40.066
6167.519969269015,72.119
6173.782438208022,154.923
6180.158511808193,-88.146
6186.416334137088,34.724
6192.787677712448,323.2
6199.040858600842,104.172
6205.291741972564,13.355
6211.656022022646,-136.225
6217.902271670246,170.949
6224.261834810408,178.962
6230.503455884398,37.395
6236.742785809074,-344.569
6243.095304999864,40.066
6249.330014038809,98.83
6255.677829386121,80.132
6261.907922670827,56.093
6268.1357311500615,101.501
6274.476522051649,-18.698
6280.699722436162,42.737
6286.920641805642,232.384
6293.139281413962,397.991
6299.470738832184,58.764
6305.684780516531,272.45
6311.896546218988,-61.435
6318.106037189755,178.962
6324.428181717434,5.342
6330.633084905065,-392.649
6336.835717129172,82.803
6343.036079636258,136.225
6349.234173671932,253.752
6355.544716640681,197.66
6361.738235515753,144.238
6367.929489673777,0.0
6374.118480356665,184.304
6380.305208805476,-26.711
6386.489676260331,160.265
6392.671883960451,109.514
6398.851833144166,125.541
6405.143905470883,152.251
6411.319299566196,109.514
6417.492438877496,112.185
6423.663324639478,288.476
6429.831958085924,264.437
6435.998340449718,176.291
6442.162472962846,34.724
6448.324356856407,96.159
6454.483993360576,141.567
6460.641383704664,21.369
6466.79652911704,114.856
6472.949430825232,104.172
6479.100090055821,152.251
6485.248508034543,267.108
6491.280888225534,77.461
6497.424868822251,173.62
6503.5666118162335,162.936
6509.706118429633,-189.647
6515.843389883739,154.923
6521.978427398899,74.79
6528.111232194642,58.764
6534.241805489546,32.053
6540.256680928833,-24.04
6546.382836142315,18.698
6552.506763482961,112.185
6558.628464165849,285.805
6564.747939405184,8.013
6570.751928194237,203.002
6576.866997341494,-24.04
6582.979844660076,120.199
6589.090471360658,64.106
6595.0857801617385,-2.671
6601.192010321647,-32.053
6607.296023467985,189.647
6613.39782080795,45.408
6619.384468430493,48.079
6625.481878753591,130.883
6631.577076864334,93.488
6637.5572509579,149.58
6643.64806916556,-48.079
6649.623946782151,64.106
6655.71038980603,56.093
6661.794626582923,173.62
6667.764048126817,106.843
6673.843916808139,0.0
6679.809053455574,93.488
6685.884558743659,154.923
6691.957863728712,93.488
6697.916561697035,-112.185
6703.985510351609,141.567
6709.939934962422,34.724
6716.004531971987,168.278
6721.954687820689,29.382
6728.014937863976,-8.013
6733.960829539363,141.567
6739.904610751524,42.737
6745.95836937274,0.0
6751.897893261092,277.792
6757.947316561804,-10.684
6763.8825876987685,66.777
6769.927680334353,494.15
6775.858703285812,146.909
6781.787623684751,112.185
6787.826249230238,232.384
6793.750928258974,-125.541
6799.673508107371,-291.148
6805.705676935038,90.817
6811.624022213946,29.382
6817.540271677499,128.212
6823.5659941374615,-203.002
6829.478015817709,162.936
6835.387945040406,-2.671
6841.407231460638,130.883
6847.312939671727,85.475
6853.216558775894,120.199
6859.118089881435,317.858
6865.017534095896,106.843
6871.026143398485,61.435
6876.921377827312,56.093
6882.814528703813,160.265
6888.705597132364,-21.369
6894.594584216582,88.146
6900.592544785228,61.435
6906.477333270021,69.448
6912.360043737404,173.62
6918.240677287846,136.225
6924.119235021055,117.527
6929.995718035963,50.75
6935.870127430717,40.066
6941.742464302697,152.251
6947.6127297485,149.58
6953.480924863958,32.053
6959.347050744116,104.172
6965.21110848328,-101.501
6971.073099174937,-24.04
6976.93302391185,307.174
6982.79088378598,173.62
6988.64667988853,80.132
6994.500413309928,26.711
7000.35208513985,320.529
7006.201696467178,130.883
7012.049248380063,280.463
7017.894741965851,85.475
7023.738178311156,216.357
7029.579558501813,141.567
7035.418883622879,189.647
7041.2561547586665,170.949
7047.091372992727,96.159
7052.924539407839,64.106
7058.645653010426,40.066
7064.474757695687,-34.724
7070.301813785409,-111.878
7076.126822359336,-171.09
7081.949784496486,-206.685
7087.660891581778,-212.986
7093.479802640664,-184.315
7099.296670474898,-114.998
7105.111496160462,0.641
7110.814624476749,168.278
7116.625407570507,227.042
7122.434151718757,-205.673
7128.2408579944895,98.83
7133.936024250346,90.817
7139.73869639702,133.554
7145.53933386541,72.119
7151.22854892195,146.909
7157.025158582874,-40.066
7162.819736753059,42.737
7168.503009933542,307.174
7174.293566604632,106.843
7180.082094965896,-13.355
7185.759435574095,184.304
7191.54394873148,112.185
7197.2173519438,309.845
7202.997854073568,176.291
7208.667323984642,21.369
7214.443819257263,88.146
7220.109359956041,88.146
7225.881852536215,72.119
7231.54346810597,133.554
7237.311962152613,37.395
7242.969656670975,66.777
7248.734156337254,90.817
7254.387933876205,66.777
7260.148443309525,125.541
7265.798307935409,122.87
7271.554831277448,117.527
7277.20078705097,277.792
7282.953328437674,45.408
7288.59537941395,275.121
7294.235498085545,85.475
7299.982093204053,213.686
7305.618313131272,85.475
7311.252603748333,323.2
7316.993261813666,64.106
7322.623659726734,56.093
7328.252131317968,-18.698
7333.9868615261075,149.58
7339.611446441268,122.87
7345.234108016753,138.896
7350.962919544712,170.949
7356.581700459581,-160.265
7362.198561010817,104.172
7367.813502182726,125.541
7373.426524958988,106.843
7379.145517410223,395.32
7384.7546694986595,168.278
7390.361906157261,165.607
7395.967228366993,120.199
7401.570637108154,136.225
7407.279835705631,184.304
7412.879383697611,120.199
7418.477021176703,-34.724
7424.072749120482,56.093
7429.666568505905,93.488
7435.258480309247,114.856
7440.848485506111,-26.711
7446.436585071431,213.686
7452.022779979503,0.0
7457.607071203925,114.856
7463.296794702215,64.106
7468.877244915177,101.501
7474.455794380043,61.435
7480.032444067743,200.331
7485.607194948596,184.304
7491.18004799222,243.068
7496.751004167574,-104.172
7502.2129850032,-85.475
7507.7801867781745,125.541
7513.345494569261,144.238
7518.908909342786,93.488
7524.470432064445,-18.698
7530.03006369928,53.422
7535.587805211653,-85.475
7541.1436575652915,125.541
7546.697621723266,-13.355
7552.249698647978,125.541
7557.693172648,66.777
7563.241514237732,26.711
7568.787971459049,-2.671
7574.332545271769,194.989
7579.87523663506,32.053
7585.416046507413,93.488
7590.848475703144,58.764
7596.385561603231,165.607
7601.920768865631,98.83
7607.454098446255,29.382
7612.879194899509,88.146
7618.4088080453,109.514
7623.936546354853,66.777
7629.462410781522,136.225
7634.880189328982,-10.684
7640.402344837916,-48.079
7645.9226293018255,157.594
7651.334937948188,141.567
7656.851519109852,117.527
7662.260197498763,37.395
7667.773079083498,-42.737
7673.284094334183,85.475
7678.687316594296,34.724
7684.194637864675,157.594
7689.7000956236625,56.093
7695.097870006797,227.042
7700.599639370841,24.04
7705.993798107356,8.013
7711.491882781789,101.501
7716.882429503323,48.079
7722.376833188511,-8.013
7727.763771521855,117.527
7733.254497913214,37.395
7738.637831480286,373.951
7744.124884268305,90.817
7749.504616686187,227.042
7754.987999556393,-18.698
7760.364134437317,106.843
7765.738489349154,85.475
7771.216392021717,106.843
7776.587154788423,133.554
7782.061396717661,227.042
7787.428570939446,203.002
7792.793969640064,21.369
7798.262745065967,208.344
7803.624560595526,72.119
7808.984603262106,-16.026
7814.447920368751,-170.949
7819.804385227417,203.002
7825.159079875983,168.278
7830.616946831127,-16.026
7835.968069024231,181.633
7841.317423654822,58.764
7846.665011598543,50.75
7852.115636126822,0.0
7857.459658723532,-120.199
7862.801917273948,-56.093
7868.142412651388,48.079
7873.481145728587,-66.777
7878.922746278997,104.172
7884.257922859626,-13.355
7889.59133977185,-50.75
7894.922997886111,56.093
7900.252898072242,-34.724
7905.581041199541,194.989
7910.907428136696,90.817
7916.336446752692,170.949
7921.65928952102,-122.87
7926.980378718883,112.185
7932.29971521271,112.185
7937.617299868325,61.435
7942.933133550996,-26.711
7948.247217125423,56.093
7953.559551455743,93.488
7958.870137405502,130.883
7964.178975837705,101.501
7969.486067614758,26.711
7974.791413598527,-149.58
7980.0950146503055,117.527
7985.396871630804,101.501
7990.696985400187,13.355
7995.995356818043,109.514
8001.291986743403,117.527
8006.586876034729,104.172
8011.880025549901,-157.594
8017.067699705829,24.04
8022.357406311574,146.909
8027.645375694708,162.936
8032.931608710882,50.75
8038.216106215201,277.792
8043.498869062179,-26.711
8048.779898105804,0.0
8053.955695240969,-149.58
8059.233293192043,21.369
8064.509159881611,122.87
8069.783296161415,77.461
8074.952338977277,45.408
8080.223050878609,-104.172
8085.492034905405,-133.554
8090.759291907168,219.028
8095.921593616502,64.106
8101.185432936367,74.79
8106.447547759821,77.461
8111.604810570996,-21.369
8116.863512715307,45.408
8122.120492886879,104.172
8127.272724173963,18.698
8132.526296659391,85.475
8137.778149690843,-5.342
8142.925356813517,50.75
8148.173807142077,61.435
8153.4205405305,48.079
8158.562730834117,82.803
8163.806066493191,64.106
8168.944927307508,16.026
8174.184868536668,-80.132
8179.32040309432,66.777
8184.55695318873,90.817
8189.689164718173,216.357
8194.922326968728,29.382
8200.051218694258,-170.949
8205.280996387602,26.711
8210.406571529322,-117.527
8215.632967947844,333.885
8220.7552297217,130.883
8225.978248143558,-144.238
8231.097199761349,-10.684
8236.316843460441,-82.803
8241.43248812982,-32.053
8246.546496881761,16.026
8251.76110130029,114.856
8256.871807891675,101.501
8261.98088093357,64.106
8267.190453365733,165.607
8272.296229025691,-168.278
8277.400373499535,-93.488
8282.604921225458,128.212
8287.705773086778,-74.79
8292.804996120794,42.737
8298.004526406577,-45.408
8303.100461588281,-248.41
8308.194770296956,21.369
8313.28745331115,-29.382
8318.48031600209,-24.04
8323.569717486189,128.212
8328.657495624051,74.79
8333.743651192239,112.185
8338.828184966831,50.75
8344.012739449463,-18.698
8349.093999566121,-34.724
8354.17364022991,109.514
8359.251662214898,-10.684
8364.328066294685,-21.369
8369.402853242376,-157.594
8374.476023830553,-189.647
8379.547578831349,96.159
8384.718901354245,32.053
8389.787195221597,85.475
8394.853875830348,-82.803
8399.91894395064,-112.185
8404.98240035212,-61.435
8410.044245803958,37.395
8415.104481074803,-154.923
8420.163106932847,114.856
8425.220124145773,-18.698
8430.275533480788,21.369
8435.32933570461,-45.408
8440.381531583458,117.527
8445.432121883085,-69.448
8450.48110736873,-80.132
8455.528488805172,45.408
8460.473367100913,125.541
8465.51757477424,21.369
8470.560180674485,-10.684
8475.601185564497,101.501
8480.64059020661,16.026
8485.67839536271,-61.435
8490.714601794163,170.949
8495.749210261878,259.095
8500.681576948675,-414.017
8505.713023691114,154.923
8510.742874734438,229.713
8515.771130837642,42.737
8520.797792759218,-120.199
8525.722375497866,-101.501
8530.745883175656,10.684
8535.7677989293,-21.369
8540.788123515384,-58.764
8545.706498587671,64.106
8550.723674892208,-122.87
8555.739262280982,-165.607
8560.652997083213,-194.989
8565.665440644778,77.461
8570.676297538128,-138.896
8575.585398634048,13.355
8580.593116146138,88.146
8585.599249233324,-32.053
8590.503723174297,-16.026
8595.506721317797,-64.106
8600.508137275468,-240.397
8605.40799060051,-32.053
8610.406276043708,-160.265
8615.303062904772,66.777
8620.298220771765,21.369
8625.191944046568,8.013
8630.18397727198,-53.422
8635.074639834631,130.883
8640.063551349394,0.0
8644.951156070434,160.265
8649.936948801806,157.594
8654.821498548154,-178.962
8659.804175419777,-64.106
8664.685673054784,-80.132
8669.665236986599,85.475
8674.543685370048,32.053
8679.520139278378,114.856
8684.395541266465,216.357
8689.2694364983,-96.159
8694.241246509358,72.119
8699.112099609058,18.698
8703.981448060618,-26.711
8708.948620671701,-80.132
8713.81493124642,-101.501
8718.779005433622,-8.013
8723.642280973501,-45.408
8728.504055374753,-74.79
8733.364329332315,259.095
8738.32224658698,-32.053
8743.179491154478,56.093
8748.035237374625,-117.527
8752.889485940628,74.79
8757.8412577103,-82.803
8762.692482517024,-133.554
8767.542211760752,77.461
8772.39044613298,74.79
8777.336083836857,-18.698
8782.18130006664,-58.764
8787.02502351089,-77.461
8791.867254859393,18.698
8796.707994801498,45.408
8801.547244026118,-72.119
8806.385003221756,-56.093
8811.319956958603,-269.779
8816.154707786565,-141.567
8820.987970662514,-32.918
8825.819746273257,-39.158
8830.650035305174,-122.432
8835.478838444196,-244.892
8840.306156375878,-368.686
8845.131989785303,-455.967
8849.956339357173,-468.879
8854.779205775758,-369.573
8859.60058972489,-120.199
8864.420491888006,152.251
8869.238912948098,-10.684
8874.055853587757,-96.159
8878.871314489159,34.724
8883.685296334032,141.567
8888.497799803714,-189.647
8893.308825579123,-56.093
8898.118374340735,32.053
8902.926446768637,26.711
8907.634964476681,-8.013
8912.440116370435,-160.265
8917.243793954342,-112.185
8922.045997906822,-165.607
8926.846728905857,-128.212
8931.645987629043,18.698
8936.443774753548,-61.435
8941.142221650607,5.342
8945.937097605834,88.146
8950.73050397759,85.475
8955.522441441404,13.355
8960.215160665939,64.106
8965.004192282166,-96.159
8969.791757000756,16.026
8974.577855495572,104.172
8979.26485751475,74.79
8984.048055470721,-74.79
8988.829789208343,-101.501
8993.51251749025,45.408
8998.291354655303,80.132
9003.068729603765,-37.395
9007.747189991118,-5.342
9012.521672326067,-245.739
9017.294694442531,24.04
9021.968892767374,101.501
9026.739026222178,-10.684
9031.41039612206,-176.291
9036.17764353675,26.711
9040.943434050514,5.342
9045.610551571128,-32.053
9050.373459984672,138.896
9055.037755503963,-133.554
9059.797784430888,40.066
9064.45926050758,-10.684
9069.216412558366,-8.013
9073.87507174812,13.355
9078.629349530078,-112.185
9083.285194385431,-50.75
9088.036600502714,-8.013
9092.689633573158,-229.713
9097.438170626783,-117.527
9102.088394458704,45.408
9106.73722909284,-72.119
9111.481482183284,-26.711
9116.12751137963,50.75
9120.868901881862,-16.026
9125.512128179163,2.671
9130.153968412898,-53.422
9134.891084617178,-229.713
9139.53012574118,77.461
9144.167782675046,-146.909
9148.9006303586,-224.371
9153.535491965213,-8.013
9158.168971251744,101.501
9162.801068836525,-229.713
9167.528243916331,-26.711
9172.157551197888,-109.514
9176.785478643267,66.777
9181.412026869286,-37.395
9186.13353953768,42.737
9190.757302472506,-144.238
9195.37968804908,90.817
9200.000696882766,-74.79
9204.620329588544,-98.83
9209.334785850184,-2.671
9213.951639506451,50.75
9218.567118890363,-114.856
9223.181224615444,45.408
9227.79395729483,-16.026
9232.40531754132,37.395
9237.015305967328,200.331
9241.623923184923,26.711
9246.23116980579,109.514
9250.932987640888,8.013
9255.537466379788,88.146
9260.140576367572,29.382
9264.742318214474,-194.989
9269.342692530376,-50.75
9273.941699924766,-61.435
9278.539341006806,56.093
9283.135616385269,0.0
9287.730526668583,8.013
9292.324072464791,422.03
9296.91625438162,-53.422
9301.411444872112,112.185
9306.00092923447,-8.013
9310.589051525738,-37.395
9315.175812352172,82.803
9319.761212319692,48.079
9324.345252033823,125.541
9328.927932099774,-181.633
9333.509253122353,2.671
9338.08921570604,-32.053
9342.572446701386,45.408
9347.149722488744,213.686
9351.7256416359,5.342
9356.300204745894,280.463
9360.873412421412,61.435
9365.350032145325,32.053
9369.920558965528,24.04
9374.489732144635,34.724
9379.05755228394,136.225
9383.528899030936,-120.199
9388.09404305015,-42.737
9392.657835818722,18.698
9397.125240831178,-32.053
9401.6863610176,24.04
9406.246131739394,-53.422
9410.80455359534,-114.856
9415.266701898625,66.777
9419.822455888205,-128.212
9424.281993052333,-157.594
9428.835081516963,-74.79
9433.38682407955,58.764
9437.84243511156,48.079
9442.391515668474,-37.395
9446.84452129656,-66.777
9451.390942182352,138.896
9455.93602012123,-48.079
9460.385108237591,-50.75
9464.927530014324,-69.448
9469.374018445214,16.026
9473.913786387537,122.87
9478.35767741084,-21.369
9482.894793843763,42.737
9487.33608973474,-32.053
9491.87055698055,-13.355
9496.30926001177,-93.488
9500.74668109923,72.119
9505.277192831463,-56.093
9509.71202445114,21.369
9514.23989277796,-61.435
9518.672137195834,0.0
9523.103102466685,-58.764
9527.62702390948,-109.514
9532.05540536064,133.554
9536.57668916292,8.013
9541.002489053764,56.093
9545.42701258622,96.159
9549.850260312329,114.856
9554.36630345335,459.425
9558.78697410632,168.278
9563.206370618926,21.369
9567.718482324255,-2.671
9572.13530512818,0.0
9576.550855454823,8.013
9580.965133854,-24.04
9585.47202083257,90.817
9589.883729992052,-152.251
9594.294168883298,-170.949
9598.703338054846,136.225
9603.111238054931,-2.671
9607.611613766734,-120.199
9612.016950092931,88.146
9616.421018902103,-101.501
9620.823820741218,-69.448
9625.225356156909,93.488
9629.625625695517,2.671
9634.02462990307,197.66
9638.422369325252,-5.342
9642.81884450748,141.567
9647.21405599481,406.004
9651.701478874824,82.803
9656.094137748323,-77.461
9660.485534571855,-8.013
9664.875669889248,50.75
9669.264544244,21.369
9673.65215817932,-82.803
9678.03851223808,157.594
9682.423606962846,2.671
9686.807442895892,2.671
9691.19002057915,16.026
9695.478134071804,-2.671
9699.858223622705,-5.342
9704.23705653629,-21.369
9708.614633353289,13.355
9712.990954614088,-138.896
9717.36602085878,-34.724
9721.739832627154,-45.408
9726.112390458671,-205.673
9730.483694892511,29.382
9734.760779687776,-21.369
9739.129605581998,18.698
9743.497179682729,-37.395
9747.863502527893,-128.212
9752.228574655115,-64.106
9756.499562339395,10.684
9760.862161224974,-130.883
9765.223510992222,37.395
9769.583612177565,8.013
9773.849736751828,213.686
9778.207368918504,-227.042
9782.563754099236,69.448
9786.918892829211,-2.671
9791.18016259473,-64.106
9795.532836519418,-72.119
9799.884265585692,-26.711
9804.14190615754,122.87
9808.490873566669,48.079
9812.83859770701,-24.04
9817.09261371952,-192.318
9821.437879345483,24.04
9825.689490172908,-18.698
9830.032299369228,16.026
9834.373867936378,104.172
9838.621861899856,-10.684
9842.960977171238,-45.408
9847.206571054325,72.119
9851.543235108787,-40.066
9855.786430944943,80.132
9860.12064585897,18.698
9864.361445679362,-122.87
9868.693213527116,-136.225
9872.931619360628,16.026
9877.26094221391,77.461
9881.49695608711,21.369
9885.823836015392,-82.803
9890.057459952584,-219.028
9894.289902518456,-64.106
9898.613135046206,-194.989
9902.843190697367,-8.013
9907.163985452502,-64.106
9911.391656207565,-176.291
9915.61814808206,-56.093
9919.935303126713,-85.475
9924.15941311792,-80.132
9928.38234571751,42.737
9932.695865648708,165.607
9936.91641937277,13.355
9941.135797191648,-133.554
9945.445686598703,117.527
9949.662688544726,2.671
9953.878516069532,48.079
9958.09316966365,0.0
9962.398234183594,106.843
9966.61051589339,-53.422
9970.821625153134,56.093
9975.031562452265,34.724
9979.240328279942,-5.342
9983.53937957713,381.964
9987.745778488254,341.898
9991.95100740443,-26.711
9996.155066813732,13.355
10000.357957203963,88.146
10004.55967906266,-26.711
10008.760232877092,-157.594
10013.050897176752,-82.803
10017.249090997648,-21.369
10021.446118245014,157.594
10025.641979405023,5.342
10029.83667496358,34.724
10034.03020540632,34.724
10038.222571218605,-82.803
10042.413772885537,16.026
10046.603810891938,77.461
10050.79268572236,205.673
10054.980397861098,26.711
10059.16694779218,320.529
10063.352335999334,112.185
10067.536562966066,21.369
10071.719629175575,-77.461
10075.90153511081,-53.422
10080.082281254454,8.013
10084.26186808891,-48.079
10088.440296096323,-32.053
10092.52676786215,50.75
10096.702904826674,69.448
10100.877884398516,-26.711
10105.051707058765,125.541
10109.224373288234,104.172
10113.395883567471,16.026
10117.475590772649,331.214
10121.64481569536,-138.896
10125.812886097472,53.422
10129.979802458443,-58.764
10134.145565257517,-90.817
10138.219652237512,13.355
10142.383134400929,53.422
10146.545464428116,26.711
10150.706642797257,-96.159
10154.776246850048,-37.395
10158.935148346747,-5.342
10163.092899607942,8.013
10167.159152430871,98.83
10171.314629631466,-5.342
10175.468958016776,50.75
10179.531863747628,-72.119
10183.683920879565,-48.079
10187.834830614069,162.936
10191.894393383842,-90.817
10196.043034667582,80.132
10200.190529969435,48.079
10204.246753902304,2.671
10208.391983551395,-165.607
10212.44599199288,-133.554
10216.588957845182,-34.724
10220.640752609928,72.119
10224.781456519388,18.698
10228.831039420063,-261.766
10232.969483238625,0.0
10237.016856085897,-213.686
10241.15304166346,5.342
10245.19820626604,-40.066
10249.332135450502,58.764
10253.375093615126,-82.803
10257.506768252357,146.909
10261.547521783785,-165.607
10265.58718577827,61.435
10269.715494418666,64.106
10273.752956473523,165.607
10277.87901516247,189.647
10281.91427707755,-24.04
10285.948451675904,-24.04
10290.0711512271,-109.514
10294.10312837192,5.342
10298.13401952729,-42.737
10302.253364041218,141.567
10306.282060424935,32.053
10310.309672144327,104.172
10314.425665714796,203.002
10318.451085340042,149.58
10322.475421623927,88.146
10326.498675003731,-149.58
10330.610215200984,26.711
10334.631280043344,-136.225
10338.651263301725,8.013
10342.670165412448,-13.355
10346.687986811625,-157.594
10350.704727935088,-5.342
10354.80961387438,-90.817
10358.824171771252,-90.817
10362.837650708272,13.355
10366.850051120337,-307.174
10370.86137344214,72.119
10374.871618108127,117.527
10378.880785552512,-96.159
10382.888876209276,146.909
10386.984923052532,42.737
10390.990837530662,253.752
10394.995676531347,-77.461
10398.999440487634,109.514
10403.00212983234,56.093
10407.003744998048,16.026
10411.004286417105,37.395
10415.003754521616,146.909
10419.002149743475,-10.684
10422.999472514348,-104.172
10426.995723265634,29.382
10430.990902428544,106.843
10434.985010434026,-16.026
10438.889325180557,467.439
10442.881315942828,93.488
10446.872236829608,56.093
10450.86208827093,-104.172
10454.85087069661,2.671
10458.838584536235,165.607
10462.82523021915,-168.278
10466.810808174472,85.475
10470.706785742112,40.066
10474.690253232264,-96.159
10478.672654271297,8.013
10482.653989287404,80.132
10486.634258708573,26.711
10490.525047770485,0.0
10494.50321094102,-5.342
10498.480309789697,-82.803
10502.45634474356,-277.792
10506.342995080442,-2.671
10510.316927143493,136.225
10514.2897965821,-53.422
10518.261603822417,-61.435
10522.144122034457,-90.817
10526.113829736623,16.026
10530.082476508169,80.132
10533.961905709137,-2.671
10537.92845544769,-56.093
10541.89394552126,-200.331
10545.770289396216,53.422
10549.733684937964,101.501
10553.607981637546,184.304
10557.569284306495,29.382
10561.52952941227,10.684
10565.400746905443,61.435
10569.35890163298,-26.711
10573.22807600992,29.382
10577.184142013864,80.132
10581.05127489159,114.856
10585.005253824836,-2.671
10588.87034681866,125.541
10592.822240332363,37.395
10596.685295055897,90.817
10600.635104799476,77.461
10604.496122864624,13.355
10608.443850485746,-82.803
10612.302833502728,13.355
10616.160811022752,208.344
10620.10543022464,-21.369
10623.9613750996,120.199
10627.903916281392,90.817
10631.757830117263,-40.066
10635.61074043666,114.856
10639.550179321655,80.132
10643.401060998756,-37.395
10647.250940343372,-50.75
10651.187280591832,98.83
10655.035133687184,80.132
10658.881985632182,235.055
10662.815230898605,-16.026
10666.660058983602,64.106
10670.50388709854,112.185
10674.346715633475,-85.475
10678.275847672114,88.146
10682.116655520924,-18.698
10685.956464967534,-18.698
10689.795276401208,48.079
10693.633090210977,-112.185
10697.557095575656,8.013
10701.39289265285,-72.119
10705.227693280882,-128.212
10709.061497847986,-104.172
10712.894306742182,-40.066
10716.726120351308,37.395
10720.55693906298,45.408
10724.386763264632,18.698
10728.302600658342,42.737
10732.130414421008,-10.684
10735.957234843503,-42.737
10739.783062312445,-45.408
10743.60789721425,48.079
10747.431739935131,-203.002
10751.254590861114,-5.342
10755.076450378,-146.909
10758.897318871408,-261.766
10762.717196726757,-109.514
10766.536084329256,-82.803
10770.353982063916,-53.422
10774.170890315563,-5.342
10777.98680946881,50.75
10781.801739908076,162.936
10785.615682017564,-149.58
10789.341989100834,13.355
10793.153978142976,146.909
10796.964979998098,85.475
10800.774995049622,50.75
10804.58402368077,34.724
10808.392066274577,130.883
10812.199123213884,-50.75
10816.005194881312,21.369
10819.723813349112,106.843
10823.52793799081,109.514
10827.331078498672,-112.185
10831.133235254529,-26.711
10834.848029253728,72.119
10838.64824198676,-93.488
10842.447472103491,101.501
10846.24571998498,10.684
10849.956695412544,-21.369
10853.753002267928,77.461
10857.548328021428,109.514
10861.342673053316,40.066
10865.049835794096,-40.066
10868.842242790466,-336.556
10872.63367019626,-32.053
10876.337982712816,58.764
10880.12747431772,138.896
10883.82989575329,-117.527
10887.617453039476,-40.066
10891.404032613404,8.013
10895.103609289945,34.724
10898.88825677408,-176.291
10902.585945994537,-168.278
10906.368662867266,-50.75
10910.150403901262,122.87
10913.845253813895,8.013
10917.62506645972,106.843
10921.318032531915,117.527
10925.095918264182,50.75
10928.787001936307,-112.185
10932.562962228116,-64.106
10936.252164939066,-13.355
10939.940438510435,85.475
10943.713524449233,-2.671
10947.399919206764,-122.87
10951.171083372872,-18.698
10954.855600751816,-117.527
10958.62484461311,-34.724
10962.307486047235,109.514
10965.989200819247,-24.04
10969.755577991731,18.698
10973.435418958636,-104.172
10977.114334320191,-2.671
10980.877848072992,381.964
10984.554891765896,125.541
10988.231010908596,29.382
10991.991664505884,-34.724
10995.665914113146,-168.278
10999.33924022374,-72.119
11003.011643185791,26.711
11006.768495629847,128.212
11010.439031890255,-32.053
11014.108646053544,-144.238
11017.777338467138,-61.435
11021.530395518184,-133.554
11025.197224058184,-34.724
11028.863131897786,18.698
11032.528119383707,178.962
11036.192186862492,-106.843
11039.855334680517,-24.04
11043.602720353196,-34.724
11047.264008520897,149.58
11050.924378073953,-42.737
11054.58382935806,93.488
11058.242362718707,32.053
11061.899978501227,-104.172
11065.556677050785,40.066
11069.21245871235,-2.671
11072.867323830738,82.803
11076.521272750586,-32.053
11080.174305816368,-21.369
11083.826423372368,189.647
11087.477625762698,-224.371
11091.127913331318,312.516
11094.777286422,-50.75
11098.425745378345,245.739
11102.073290543767,-104.172
11105.719922261547,18.698
11109.36564087477,56.093
11113.010446726335,8.013
11116.654340159006,48.079
11120.29732151534,93.488
11123.93939113774,10.684
11127.580549368427,-2.671
11131.22079654947,-157.594
11134.77550763161,-170.949
11138.413954906267,-93.488
11142.051492148485,32.053
11145.688119699626,53.422
11149.323837900913,-26.711
11152.958647093375,48.079
11156.508048620988,178.962
11160.141061938251,56.093
11163.773167260852,-8.013
11167.40436492916,32.053
11170.950240228543,106.843
11174.579644697213,141.289
11178.208142523734,134.158
11181.751381744987,102.663
11185.378088371155,64.029
11189.003889365817,35.47
11192.628785068173,34.206
11196.16850723805,77.461
11199.79161440632,48.079
11203.413817290922,-317.858
11206.950910239968,144.238
11210.571326582844,-50.75
11214.10667518314,-50.75
11217.725306305692,-37.395
11221.343034819707,141.567
11224.875759069631,34.724
11228.49170435076,-34.724
11232.022687482247,-117.527
11235.636850848638,18.698
11239.166094148528,-109.514
11242.778476917028,-34.724
11246.305981670925,-16.026
11249.91658515709,98.83
11253.442352649325,-45.408
11257.05117816741,72.119
11260.575209681025,-5.342
11264.182258544,104.172
11267.704555360804,-96.159
11271.309828880325,-69.448
11274.83039228086,34.724
11278.350099642112,138.896
11281.952723030843,-58.764
11285.470698886753,53.422
11288.987819646914,56.093
11292.587795825824,-93.488
11296.103186988752,144.238
11299.70139304264,-21.369
11303.215055883851,-280.463
11306.727865201254,205.673
11310.23982130582,10.684
11313.834511810855,-90.817
11317.34474212601,21.369
11320.8541201677,80.132
11324.446172200132,72.119
11327.953826352135,56.093
11331.460629168672,-77.461
11334.96658095964,-203.002
11338.471682034791,26.711
11342.059356881087,37.395
11345.562737216636,-66.777
11349.06526777208,2.671
11352.566948856567,125.541
11356.067780779093,-8.013
11359.56776384851,-34.724
11363.1502007606,133.554
11366.648466857394,-82.803
11370.145885034064,-90.817
11373.642455598843,66.777
11377.138178859836,-37.395
11380.633055125,-368.609
11384.1270847021,248.41
11387.620267898808,-45.408
11391.112605022612,-34.724
11394.60409638087,-64.106
11398.094742280777,8.013
11401.584543029392,259.095
11405.073498933603,-40.066
11408.561610300185,-42.737
11412.048877435727,-275.121
11415.5353006467,16.026
11419.020880239405,82.803
11422.505616520008,37.395
11425.989509794525,120.199
11429.472560368817,-37.395
11432.954768548592,21.369
11436.43613463944,85.475
11439.916658946764,61.435
11443.313501961433,88.146
11446.79236364179,-192.318
11450.270384446749,18.698
11453.74756468115,5.342
11457.22390464968,-18.698
11460.699404656869,-45.408
11464.091344754375,-120.199
11467.565185732994,-146.909
11471.038187655771,53.422
11474.51035082668,32.053
11477.981675549512,32.053
11481.369541233144,-2.671
11484.839209915755,18.698
11488.30804105362,64.106
11491.693473394258,-48.079
11495.16065027576,-18.698
11498.626990514544,-8.013
11502.092494413417,130.883
11505.474679896604,18.698
11508.938531918346,-26.711
11512.401548500471,-205.673
11515.78130675673,109.514
11519.242673239612,-58.764
11522.620821260369,40.066
11526.080538823127,136.225
11529.5394224415,-16.026
11532.915147579475,-10.684
11536.372384051368,-181.633
11539.74650183491,-77.461
11543.202092336618,-69.448
11546.574603913472,-64.106
11550.028549620163,-208.344
11553.399456136987,16.026
11556.85175822272,10.684
11560.221060825072,157.594
11563.67172046279,133.554
11567.039420295116,-29.382
11570.488438656655,26.711
11573.854536862347,-133.554
11577.301915118398,-141.567
11580.666412839755,66.777
11584.030120381583,-40.066
11587.475050538147,-66.777
11590.837159300165,53.422
11594.280452266124,-112.185
11597.64096338792,42.737
11601.000685734118,-165.607
11604.441534950183,315.187
11607.79966135666,-138.896
11611.156999826935,-24.04
11614.59540789372,-42.737
11617.951152122365,-64.106
11621.306109253032,-13.355
11624.66027956261,18.698
11628.09544335218,-66.777
11631.44802167594,-24.04
11634.799814015252,98.83
11638.15082064648,90.817
11641.58274474832,18.698
11644.932161645294,5.342
11648.280793669244,-37.395
11651.62864109602,74.79
11654.975704201344,93.488
11658.403590030808,-66.777
11661.749066206958,-189.647
11665.093758894744,21.369
11668.43766836938,13.355
11671.780794905935,120.199
11675.12313877933,-48.079
11678.4647002644,-72.119
11681.805479635816,-34.724
11685.145477168146,-18.698
11688.484693135812,26.711
11691.904543291126,-56.093
11695.24217790648,-50.75
11698.579031786354,-21.369
11701.915105204676,184.304
11705.25039843522,0.0
11708.584911751648,-18.698
11711.918645427471,-56.093
11715.251599736104,112.185
11718.502511651865,8.013
11721.83392703817,-82.803
11725.164563870054,122.87
11728.4944224204,82.803
11731.823502961994,8.013
11735.15180576744,-61.435
11738.479331109273,21.369
11741.806079259855,24.04
11745.132050491462,77.461
11748.457245076206,-56.093
11751.70058915004,114.856
11755.024250183047,-106.843
11758.34713537819,72.119
11761.669245007088,122.87
11764.990579341233,88.146
11768.230158619372,-74.79
11771.549962071174,-269.779
11774.86899103535,-13.355
11778.187245782876,112.185
11781.423821624776,-74.79
11784.740547618409,-18.698
11788.05650020102,-165.607
11791.371679643096,24.04
11794.605256223578,-56.093
11797.91890903626,272.45
11801.231789512534,-117.527
11804.46312397414,-2.671
11807.774479408556,82.803
11811.085063309589,-61.435
11814.314157983485,69.448
11817.623218427994,125.541
11820.850827315822,160.265
11824.158365355152,-176.291
11827.4651331948,-10.684
11830.690506166697,-26.711
11833.995753182851,-10.684
11837.219642936305,8.013
11840.52337017791,-13.355
11843.745777735792,208.344
11847.047986250807,-61.435
11850.26891263506,21.369
11853.569603470474,-120.199
11856.789049702087,53.422
11860.088223903953,144.238
11863.30619100298,-88.146
11866.603849616356,48.079
11869.820338601929,-173.62
11873.11648267094,128.212
11876.331494561222,-45.408
11879.545777396996,26.711
11882.839660941268,-24.04
11886.052468201013,34.724
11889.26454715598,-106.843
11892.55617250015,-24.04
11895.766777396242,58.764
11899.056892350098,-32.053
11902.26602420178,18.698
11905.474428998024,-21.369
11908.682106985869,133.554
11911.969222890988,-176.291
11915.17542984806,34.724
11918.380910743392,104.172
11921.66577540321,8.013
11924.869786778698,74.79
11928.07307283808,26.711
11931.27563382762,173.62
11934.477469993468,-74.79
11937.758600089848,-18.698
11940.95896924119,-48.079
11944.158614312782,186.975
11947.35753555032,-208.344
11950.55573319941,-18.698
11953.753207505528,141.567
11957.029868231695,-154.923
11960.225878519712,21.369
11963.42116620667,-133.554
11966.615731537608,-112.185
11969.809574757444,-24.04
11973.002696111003,-24.04
11976.195095842992,96.159
11979.386774197992,-34.724
11982.577731420495,80.132
11985.767967754866,-21.369
11988.957483445382,-144.238
11992.146278736183,32.053
11995.334353871312,-18.698
11998.521709094712,-82.803
12001.708344650193,61.435
12004.894260781464,-40.066
12008.079457732136,69.448
12011.2639357457,2.671
12014.44769506553,141.567
12017.630735934905,10.684
12020.81305859698,69.448
12023.994663294816,48.079
12027.175550271351,-2.671
12030.27622427429,64.106
12033.455694464548,-96.159
12036.634447655608,112.185
12039.812484089987,58.764
12042.989804010074,-40.066
12046.166407658158,128.212
12049.26290681064,104.172
12052.4380965329,5.342
12055.612570703324,50.75
12058.786329563762,-136.225
12061.880055974125,-96.159
12065.052402807443,101.501
12068.224035049663,10.684
12071.394952942192,-109.514
12074.485910333004,-26.711
12077.655418093736,-8.013
12080.824212222367,-53.422
12083.913099633974,21.369
12087.080485047096,2.671
12090.247157544738,18.698
12093.333977055809,34.724
