Raman Shift,Intensity
214.3785040343428,-87.138
224.78145843945092,-15.843
235.01908334044856,63.373
245.41130867789616,-13.203
255.63837774522108,102.981
265.8602158678186,216.525
276.23642015571386,-7.922
286.44772684514464,-71.295
296.8132434111685,-26.405
307.0140349346475,102.981
317.209615658554,-44.889
327.399989574551,87.138
337.7442627077253,129.387
347.9241537664129,-29.046
358.09885002992814,139.949
368.2683554736213,-232.368
378.5914504125685,42.249
388.7505051753542,10.562
398.90438108190574,34.327
409.0530820913264,163.714
419.196612158652,116.184
429.3349752349313,-52.811
439.626465572117,113.543
449.75442592354375,97.7
459.8772311743669,195.4
469.994885259468,176.916
480.1073921097559,240.29
490.2147556521086,129.387
500.31697980943136,174.276
510.41406850063504,179.557
520.5060256406359,306.303
530.5928551403995,116.184
540.6745609068894,293.1
550.7511468431039,565.076
560.8226168481124,520.187
570.888974816975,248.211
580.9502246408374,409.284
590.8492821665859,419.846
600.9004070215597,409.284
610.9464353206786,219.165
620.9873709393651,652.214
631.0232177491416,998.126
641.0539796175653,1526.234
650.9230482019848,1911.754
660.9437310766662,1359.88
670.9593405290361,739.352
680.9698804110958,549.233
690.8190579752118,87.138
700.8195493193562,427.768
710.8149825658329,615.247
720.805361551138,279.898
730.6347081696804,374.957
740.6150689503047,359.114
750.4345613154874,84.497
760.404918953056,388.16
770.3702413346182,361.755
780.174941402227,485.86
790.1302832356378,422.487
799.925166080895,356.473
809.8705423523497,332.709
819.6556227125038,332.709
829.5910483782136,419.846
839.3663409610526,393.441
849.2918309472952,496.422
859.0573504311833,536.03
868.972919634427,353.833
878.7286806683987,636.371
888.6343439553166,367.036
898.3803611591502,237.649
908.12155022542,179.557
918.0124213310264,282.538
927.743888384779,227.087
937.4705381077074,361.755
947.3466501411676,221.806
957.0635996041163,264.054
966.7757425107702,308.944
976.6371284824854,182.198
986.3395928168538,551.874
996.0372613373548,1074.701
1005.7301375988682,1462.861
1015.5719657306544,1370.442
1025.255192198514,966.439
1034.9336371072422,778.96
1044.6073039976543,538.671
1054.2761964070742,425.128
1063.9403178693246,454.174
1073.5996719147442,625.809
1083.4074711432768,778.96
1093.057225399156,530.749
1102.70222286418,398.722
1112.3424670547538,330.068
1121.9779614837898,285.179
1131.6087096607444,385.519
1141.2347150916105,253.492
1150.855981278939,203.322
1160.4725117218331,-50.17
1170.0843099159465,250.852
1179.6913793534914,195.4
1189.293723523253,588.841
1198.739039559725,245.571
1208.3320185130287,269.335
1217.9202825891407,401.363
1227.5038352631818,242.93
1237.0826800068826,221.806
1246.6568202885535,343.271
1256.226259573108,298.381
1265.639216696829,155.792
1275.1993388504195,71.295
1284.7547703264208,92.419
1294.3055145761757,245.571
1303.7000868433097,477.938
1313.241541245312,374.957
1322.778318700337,369.676
1332.310422646282,129.387
1341.686663866676,258.773
1351.2095051416618,-58.092
1360.727683146746,250.852
1370.0902294598782,92.419
1379.5991650801443,274.617
1388.9526223370776,213.884
1398.4523290278594,279.898
1407.7967104575073,26.405
1417.287201648047,124.106
1426.7730533080105,47.53
1436.1038095471376,-13.203
1445.5804658554116,182.198
1454.9021792800197,81.857
1464.369653600741,245.571
1473.6823373500883,124.106
1482.9905472474493,221.806
1492.444310209452,187.479
1501.7435100404182,248.211
1511.1881242589734,176.916
1520.4783270994303,158.433
1529.764072276041,102.981
1539.1950247490097,235.008
1548.4717924494323,248.211
1557.7441121511074,269.335
1567.1614324998736,213.884
1576.4247941832873,440.971
1585.6837175051332,166.354
1594.9382056544855,203.322
1604.3374199708342,92.419
1613.5829759239496,224.446
1622.8241063047317,232.368
1632.0608142900164,348.552
1641.2931030535765,351.192
1650.6697762525291,108.262
1659.8931649322622,63.373
1669.1121439444323,176.916
1678.3267164506542,319.506
1687.53688560953,295.741
1696.7426545766284,23.765
1705.9440265045123,356.473
1715.1410045427183,18.484
1724.3335918377925,95.06
1733.5217915332687,158.433
1742.705606769683,-42.249
1751.8850406845886,179.557
1761.0600964125188,200.681
1770.230777085024,269.335
1779.397085830693,163.714
1788.55902577511,121.465
1797.7166000408906,150.511
1806.8698117476447,108.262
1816.0186640120735,274.617
1825.163159947857,108.262
1834.1559155330324,137.308
1843.29177827917,237.649
1852.4232939699289,271.976
1861.550465707216,76.576
1870.673296589972,79.216
1879.644751645923,211.244
1888.758979994156,134.668
1897.8688767172423,168.995
1906.974444902422,166.354
1915.9289277003045,132.027
1925.025917750907,549.233
1934.118588458099,55.451
1943.060390766601,271.976
1952.144501554074,219.165
1961.2243021666216,155.792
1970.153450902042,216.525
1979.224709758193,179.557
1988.1454604369865,250.852
1997.208189584475,126.746
2006.120554048888,68.654
2015.1747655127983,129.387
2024.0787555828572,266.695
2033.12446136566,132.027
2042.0200888391555,250.852
2051.057300920809,179.557
2059.9445775734057,168.995
2068.9733079113576,13.203
2077.852245496608,121.465
2086.8725060258803,351.192
2095.743116275291,380.238
2104.6096010526526,311.584
2113.6172135316083,150.511
2122.4753884816528,137.308
2131.329446630596,113.543
2140.324437642892,139.949
2149.170203423979,158.433
2158.011861050589,190.119
2166.994257105456,166.354
2175.8276397748195,216.525
2184.656922912145,47.53
2193.48210937062,192.76
2202.303202000803,242.93
2211.2647105948345,60.733
2220.077557114586,52.811
2228.886318388424,129.387
2237.6909972563008,155.792
2246.4915965555265,213.884
2255.2881191208,118.824
2264.0805677841927,-15.843
2272.8689453751285,15.843
2281.6532547204406,187.479
2290.5774032157133,81.857
2299.353517963282,124.106
2308.125572976198,108.262
2316.893571070781,118.824
2325.6575150607823,227.087
2334.273835606975,150.511
2343.029746164546,-7.922
2351.781610997117,200.681
2360.5294329081007,253.492
2369.273214698267,-23.765
2378.0129591658333,174.276
2386.7486691064114,95.06
2395.48034731306,31.687
2404.2079965762314,39.608
2412.788641914361,295.741
2421.5083075861257,15.843
2430.2239526247795,290.46
2438.9355798105607,87.138
2447.64319192111,190.119
2456.204142101211,351.192
2464.9037980916983,237.649
2473.5994472792227,229.727
2482.148638712344,66.014
2490.836348166158,198.041
2499.5200590665554,279.898
2508.0575159626023,166.354
2516.7333034706826,97.7
2525.405100652257,23.765
2533.930847154741,118.824
2542.5947372405863,161.073
2551.112711590584,227.087
2559.768705390503,274.617
2568.2789182109263,-95.06
2576.927026515033,95.06
2585.5711635713087,66.014
2594.069721988235,330.068
2602.5644435408976,150.511
2611.196813145194,245.571
2619.683804921093,26.405
2628.3083212822166,132.027
2636.7875938271245,200.681
2645.404267656864,92.419
2653.875831497382,446.252
2662.343576738021,211.244
2670.948539131641,224.446
2679.408591378582,198.041
2687.8648328054915,-2.641
2696.4581076233444,237.649
2704.906671724595,129.387
2713.351432764532,166.354
2721.792393310454,68.654
2730.370143142005,406.644
2738.8034471581705,155.792
2747.232958411034,71.295
2755.658679458633,116.184
2764.220946338093,137.308
2772.639031576786,203.322
2781.053334313052,308.944
2789.463857095703,137.308
2797.8706024712737,113.543
2806.2735729839987,192.76
2814.672771175843,31.687
2823.0681995864725,-58.092
2831.459860753297,84.497
2839.847757211428,250.852
2848.231891493713,182.198
2856.612266130724,132.027
2864.988883650767,7.922
2873.3617465798743,121.465
2881.7308574418275,314.225
2890.096218758139,155.792
2898.457833048058,258.773
2906.815702828586,237.649
2915.169830614461,205.962
2923.5202189181878,322.146
2931.8668702499926,31.687
2940.209787117892,71.295
2948.41001618022,142.589
2956.7455337723804,97.7
2965.077324369493,176.916
2973.405390470638,-23.765
2981.7297345726547,60.733
2989.9117125592966,274.617
2998.2286820744484,124.106
3006.5419370261297,203.322
3014.8514799023105,158.433
3023.0189130185245,-216.525
3031.3211009634906,124.106
3039.619584242202,224.446
3047.776149306213,287.819
3056.067292329164,298.381
3064.2166442633534,205.962
3072.500456765243,277.257
3080.780576892153,229.727
3088.919096831967,-18.484
3097.1919010483834,142.589
3105.3232317767324,404.003
3113.588729774354,337.99
3121.712880813,406.644
3129.9710822664056,314.225
3138.0880631202745,462.095
3146.338977686973,409.284
3154.448797844241,586.201
3162.692435164703,649.574
3170.7951040967964,694.463
3178.894230970407,348.552
3187.127000956163,710.306
3195.218990740796,385.519
3203.3074454664093,543.952
3211.5293695924192,620.528
3219.610701328027,430.409
3227.688504985643,588.841
3235.899604670318,554.514
3243.9702993997853,477.938
3252.03747301393,493.782
3260.1011278165533,496.422
3268.297848330192,385.519
3276.354412870096,549.233
3284.407465536773,499.063
3292.4570086259846,596.763
3300.5030444314834,580.92
3308.545575245,530.749
3316.720827896272,480.579
3324.756296283769,525.468
3332.788266581294,491.141
3340.816741072602,485.86
3348.8417220394404,718.228
3356.8632117615925,499.063
3364.8812125168406,686.541
3372.895726580995,705.025
3380.906756227865,855.536
3388.91430372934,821.209
3396.918371355256,578.279
3404.9189613735507,541.312
3412.9160760501472,493.782
3420.909717649003,567.717
3428.8998884321263,501.703
3436.886590659553,525.468
3444.734546370892,483.22
3452.714376952972,467.376
3460.690745709508,382.879
3468.663654892749,409.284
3476.633106752961,438.33
3484.5991035384795,393.441
3492.4267178764712,520.187
3500.385869715596,314.225
3508.341573175334,266.695
3516.293830496281,351.192
3524.1079469444667,308.944
3532.0533770164475,345.911
3539.9953676218797,102.981
3547.7993978646555,256.133
3555.734574435446,417.206
3563.666318194715,89.778
3571.460281747888,102.981
3579.385224652753,200.681
3587.30674138396,213.884
3595.090657713052,377.598
3603.00538673612,137.308
3610.782634691175,269.335
3618.6905847266535,213.884
3626.461172873067,208.603
3634.362352626544,314.225
3642.1262895150494,205.962
3650.020707677235,44.889
3657.778001843908,184.838
3665.665667090652,235.008
3673.416327056992,163.714
3681.163701429177,-18.484
3689.041282322214,248.211
3696.782035212709,250.852
3704.6528847781447,92.419
3712.3870246721344,-13.203
3720.117889469839,219.165
3727.845481251112,126.746
3735.702951367959,42.249
3743.4239470074463,124.106
3751.141675895298,219.165
3758.989119491133,335.349
3766.700264858686,198.041
3774.408149723422,13.203
3782.1127761528696,198.041
3789.814146212797,205.962
3797.644959575024,440.971
3805.339767031168,108.262
3813.03132434014,79.216
3820.7196335607214,55.451
3828.404696749953,60.733
3836.086515963114,224.446
3843.76509325378,5.281
3851.4404306737633,155.792
3859.112530273167,-290.46
3866.7813941003615,100.341
3874.4470242019815,153.152
3882.109422622947,250.852
3889.7685914064414,42.249
3897.4245325939337,168.995
3905.0772482251705,47.53
3912.7267403381848,216.525
3920.373010969284,211.244
3928.016062153074,174.276
3935.655895922435,155.792
3943.292514308545,-81.857
3950.925919340858,171.635
3958.424585178429,187.479
3966.051624900327,216.525
3973.675457311714,76.576
3981.296084435249,190.119
3988.913508291902,203.322
3996.396478310664,258.773
4004.007556831755,211.244
4011.615438103967,240.29
4019.220124141517,-15.843
4026.690583777876,168.995
4034.288940385857,224.446
4041.8841077570687,139.949
4049.3452186808136,340.63
4056.934068499933,139.949
4064.519735065173,-224.446
4071.971514814119,87.138
4079.550875675057,161.073
4086.996462302253,190.119
4094.5695253181984,116.184
4102.008926541021,216.525
4109.575699558212,142.589
4117.008923081237,-116.184
4124.569413932906,221.806
4131.996467447912,150.511
4139.550683954272,73.935
4146.971575140262,68.654
4154.519525108568,87.138
4161.93426163181,113.543
4169.475952856366,-150.511
4228.011654085007,311.584
4235.396210255021,116.184
4242.907210725418,110.903
4250.415076793586,89.778
4257.7904449892885,216.525
4265.292102093408,256.133
4272.790630641473,-118.824
4280.156827999919,129.387
4287.649159161061,36.968
4295.138367597785,5.281
4302.4954112134365,322.146
4309.978433811593,242.93
4317.329402006981,63.373
4324.8062464273535,303.663
4332.151146724958,36.968
4339.621820615692,116.184
4346.960660525576,63.373
4354.425171522191,147.87
4361.757958542046,240.29
4369.216314267462,26.405
4376.543055882612,227.087
4383.9952639471885,184.838
4391.315967630617,-92.419
4398.762035632179,2.641
4406.07670884455,137.308
4413.516644368407,190.119
4420.825294558097,322.146
4428.130962180556,237.649
4435.561739780205,124.106
4442.861395497304,216.525
4450.1580741507205,192.76
4457.579710724684,113.543
4464.870388562711,124.106
4472.158094827057,414.565
4479.570607232323,121.465
4486.852323743988,235.008
4494.131074158497,562.436
4501.534479210626,208.603
4508.807250907994,153.152
4516.077061971264,240.29
4523.3439142079005,187.479
4530.735219799091,374.957
4537.996107969229,29.046
4545.254042757973,528.109
4552.509025966887,89.778
4559.888261734326,211.244
4567.13729547953,184.838
4574.383383072374,279.898
4581.626526308552,139.949
4588.866726982291,87.138
4596.103986886381,158.433
4603.338307812148,187.479
4610.69653172473,89.778
4617.92492857972,208.603
4625.150391852971,89.778
4632.372923329975,92.419
4639.592524794789,142.589
4646.809198030001,190.119
4654.022944816745,237.649
4661.233766934747,208.603
4668.441666162253,187.479
4675.646644276094,110.903
4682.8487030516335,396.082
4690.047844262837,261.414
4697.244069682201,187.479
4704.437381080781,108.262
4711.627780228235,132.027
4718.815268892759,171.635
4725.999848841122,158.433
4733.181521838655,113.543
4740.3602896492885,39.608
4747.536154035501,58.092
4754.583300303697,161.073
4761.753413983191,113.543
4768.9206294863325,269.335
4776.084948569973,258.773
4783.246372989488,190.119
4790.404904498872,71.295
4797.435032206777,308.944
4804.5878338284165,44.889
4811.73774776268,187.479
4818.884775757928,-95.06
4826.028919561082,184.838
4833.044920461813,13.203
4840.183351639585,208.603
4847.3189038270575,113.543
4854.451578765569,50.17
4861.456318765864,480.579
4868.58329482688,174.276
4875.707398824052,184.838
4882.703723295803,229.727
4889.822138682386,163.714
4896.937687177771,153.152
4903.925611277555,232.368
4911.035481404608,-42.249
4918.142489800703,137.308
4925.122028648751,113.543
4932.223368894192,-13.203
4939.197342363797,150.511
4946.293021236786,274.617
4953.385846941688,142.589
4960.35146024984,97.7
4967.43863475923,139.949
4974.398699333346,102.981
4981.480229398396,237.649
4988.43475186592,26.405
4995.510644227063,477.938
5002.459631204903,216.525
5009.529892591847,174.276
5016.473350686378,102.981
5023.537987818112,258.773
5030.475923625207,443.611
5037.534943210041,5.281
5044.467363315067,235.008
5051.397052412052,211.244
5058.447683028528,-50.17
5065.371866252855,-161.073
5072.416896017057,158.433
5079.335579928018,261.414
5086.251540943114,266.695
5093.288206657562,108.262
5100.198678149784,129.387
5107.106431592307,76.576
5114.134748143202,195.4
5121.037021830118,166.354
5127.93658230202,18.484
5134.833431158368,142.589
5141.85065500065,36.968
5148.742037069234,-2.641
5155.630712341699,55.451
5162.516682412504,84.497
5169.522839786696,87.138
5176.403355996677,108.262
5183.281171809234,0.0
5190.156288813778,155.792
5197.028708598496,60.733
5204.021081907653,-63.373
5210.888063918697,52.811
5217.752353495271,118.824
5224.613952220541,145.23
5231.472861676462,0.0
5238.329083443728,-23.765
5245.182619101804,47.53
5252.033470228904,50.17
5258.881638402017,134.668
5265.727125196914,-68.654
5272.569932188097,87.138
5279.532181775125,-108.262
5286.369586094326,219.165
5293.204315354014,71.295
5300.036371123795,0.0
5306.865754971979,102.981
5313.692468465706,155.792
5320.516513170878,-29.046
5327.216103720151,68.654
5334.034863128356,198.041
5340.850958410447,58.092
5347.664391127459,158.433
5354.475162839211,47.53
5361.283275104273,105.622
5368.088729480027,-5.281
5374.891527522632,250.852
5381.6916707870405,44.889
5388.489160826968,60.733
5395.162686039381,47.53
5401.954921596684,18.484
5408.744508555763,126.746
5415.531448465517,-15.843
5422.31574287366,145.23
5428.976315601984,213.884
5435.7553708175255,-23.765
5442.531785139763,102.981
5449.305560111599,44.889
5456.076697274744,-15.843
5462.724355191152,124.106
5469.490268392445,60.733
5476.253548375513,92.419
5482.893493883399,-23.765
5489.651558992991,301.022
5496.406995464167,132.027
5503.039241977291,-52.811
5509.789472642318,73.935
5516.5370792381145,237.649
5523.161640139158,18.484
5529.904049975114,102.981
5536.643840300443,-200.681
5543.260728941095,84.497
5549.995331531944,-26.405
5556.607128017575,126.746
5563.336548861262,227.087
5569.943259067753,-81.857
5576.667504142417,34.327
5583.269133936614,-488.501
5589.988209211173,163.714
5596.58476445092,-2.641
5603.298675885118,105.622
5609.890162419251,192.76
5616.598915963696,-21.124
5623.185339632037,110.903
5629.888941228186,97.7
5636.470307861637,-110.903
5643.16876344182,95.06
5649.745078862296,21.124
5656.438394349752,-26.405
5663.009664370256,118.824
5669.578436568787,158.433
5676.264076103718,195.4
5682.827811578958,97.7
5689.3890535265455,73.935
5696.067030305661,287.819
5702.623244186747,63.373
5709.176968824671,89.778
5715.847296014435,134.668
5722.39600122282,-36.968
5728.942221462719,142.589
5735.4859581482815,39.608
5742.146121627004,158.433
5748.684850350968,200.681
5755.221099782248,232.368
5761.754871330697,161.073
5768.404894310675,102.981
5774.933669330552,-10.562
5781.459970716278,-242.93
5787.983799873429,137.308
5794.505158206499,81.857
5801.142549523138,55.451
5807.658925557145,39.608
5814.172834999641,113.543
5820.684279250832,261.414
5827.193259709879,168.995
5833.699777774898,108.262
5840.203834842934,134.668
5846.7054323099655,-71.295
5853.204571570954,139.949
5859.701254019747,47.53
5866.195481049195,10.562
5872.687254051074,63.373
5879.176574416102,203.322
5885.663443533944,198.041
5892.14786279323,306.303
5898.629833581537,5.281
5905.109357285379,-26.405
5911.586435290243,174.276
5918.061068980562,81.857
5924.533259739736,97.7
5931.003008950094,-277.257
5937.470317992949,50.17
5943.935188248557,58.092
5950.397621096134,142.589
5956.857617913869,50.17
5963.315180078898,116.184
5969.7703089673305,147.87
5976.105705888956,184.838
5982.556016527509,145.23
5989.003897986593,158.433
5995.449351638199,63.373
6001.8923788532775,129.387
6008.215900781644,-89.778
6014.654123287393,60.733
6021.089923438405,116.184
6027.523302601519,108.262
6033.954262142564,66.014
6040.265942433929,192.76
6046.692110755517,2.641
6053.115863521547,168.995
6059.420472023492,23.765
6065.839441620141,71.295
6072.255999718647,121.465
6078.553548309683,68.654
6084.965331270854,2.641
6091.374706782226,108.262
6097.665207314269,-2.641
6104.06981570238,467.376
6110.472020679961,39.608
6116.755484978421,108.262
6123.152930828903,132.027
6129.431725134898,279.898
6135.824417162912,-145.23
6142.098546680769,134.668
6148.486490183052,29.046
6154.872039648391,92.419
6161.139160374798,47.53
6167.519969269015,47.53
6173.782438208022,174.276
6180.158511808193,134.668
6186.416334137088,102.981
6192.787677712448,102.981
6199.040858600842,142.589
6205.291741972564,42.249
6211.656022022646,390.801
6217.902271670246,285.179
6224.261834810408,-29.046
6230.503455884398,110.903
6236.742785809074,92.419
6243.095304999864,10.562
6249.330014038809,0.0
6255.677829386121,113.543
6261.907922670827,66.014
6268.1357311500615,42.249
6274.476522051649,-10.562
6280.699722436162,2.641
6286.920641805642,258.773
6293.139281413962,147.87
6299.470738832184,58.092
6305.684780516531,-13.203
6311.896546218988,150.511
6318.106037189755,92.419
6324.428181717434,124.106
6330.633084905065,113.543
6336.835717129172,110.903
6343.036079636258,89.778
6349.234173671932,168.995
6355.544716640681,150.511
6361.738235515753,18.484
6367.929489673777,23.765
6374.118480356665,174.276
6380.305208805476,139.949
6386.489676260331,63.373
6392.671883960451,142.589
6398.851833144166,21.124
6405.143905470883,55.451
6411.319299566196,-29.046
6417.492438877496,60.733
6423.663324639478,92.419
6429.831958085924,261.414
6435.998340449718,161.073
6442.162472962846,0.0
6448.324356856407,124.106
6454.483993360576,158.433
6460.641383704664,298.381
6466.79652911704,150.511
6472.949430825232,324.787
6479.100090055821,139.949
6485.248508034543,100.341
6491.280888225534,52.811
6497.424868822251,-153.152
6503.5666118162335,155.792
6509.706118429633,-21.124
6515.843389883739,95.06
6521.978427398899,116.184
6528.111232194642,55.451
6534.241805489546,266.695
6540.256680928833,60.733
6546.382836142315,36.968
6552.506763482961,187.479
6558.628464165849,-145.23
6564.747939405184,-23.765
6570.751928194237,216.525
6576.866997341494,60.733
6582.979844660076,5.281
6589.090471360658,110.903
6595.0857801617385,10.562
6601.192010321647,31.687
6607.296023467985,161.073
6613.39782080795,66.014
6619.384468430493,427.768
6625.481878753591,179.557
6631.577076864334,129.387
6637.5572509579,258.773
6643.64806916556,5.281
6649.623946782151,174.276
6655.71038980603,10.562
6661.794626582923,195.4
6667.764048126817,134.668
6673.843916808139,150.511
6679.809053455574,29.046
6685.884558743659,116.184
6691.957863728712,145.23
6697.916561697035,-42.249
6703.985510351609,71.295
6709.939934962422,63.373
6716.004531971987,-203.322
6721.954687820689,92.419
6728.014937863976,287.819
6733.960829539363,47.53
6739.904610751524,380.238
6745.95836937274,187.479
6751.897893261092,100.341
6757.947316561804,-21.124
6763.8825876987685,47.53
6769.927680334353,-60.733
6775.858703285812,166.354
6781.787623684751,137.308
6787.826249230238,47.53
6793.750928258974,84.497
6799.673508107371,31.687
6805.705676935038,158.433
6811.624022213946,153.152
6817.540271677499,-71.295
6823.5659941374615,97.7
6829.478015817709,10.562
6835.387945040406,95.06
6841.407231460638,221.806
6847.312939671727,150.511
6853.216558775894,118.824
6859.118089881435,73.935
6865.017534095896,147.87
6871.026143398485,124.106
6876.921377827312,102.981
6882.814528703813,147.87
6888.705597132364,76.576
6894.594584216582,192.76
6900.592544785228,137.308
6906.477333270021,158.433
6912.360043737404,92.419
6918.240677287846,97.7
6924.119235021055,60.733
6929.995718035963,211.244
6935.870127430717,227.087
6941.742464302697,52.811
6947.6127297485,113.543
6953.480924863958,145.23
6959.347050744116,36.968
6965.21110848328,-89.778
6971.073099174937,36.968
6976.93302391185,211.244
6982.79088378598,166.354
6988.64667988853,36.968
6994.500413309928,116.184
7000.35208513985,219.165
7006.201696467178,39.608
7012.049248380063,-179.557
7017.894741965851,34.327
7023.738178311156,134.668
7029.579558501813,216.525
7035.418883622879,21.124
7041.2561547586665,145.23
7047.091372992727,126.746
7052.924539407839,95.06
7058.645653010426,139.949
7064.474757695687,208.603
7070.301813785409,71.295
7076.126822359336,132.027
7081.949784496486,126.746
7087.660891581778,142.589
7093.479802640664,110.903
7099.296670474898,44.889
7105.111496160462,126.746
7110.814624476749,7.922
7116.625407570507,10.562
7122.434151718757,-269.335
7128.2408579944895,219.165
7133.936024250346,36.968
7139.73869639702,147.87
7145.53933386541,105.622
7151.22854892195,66.014
7157.025158582874,192.76
7162.819736753059,121.465
7168.503009933542,303.663
7174.293566604632,132.027
7180.082094965896,110.903
7185.759435574095,60.733
7191.54394873148,113.543
7197.2173519438,55.451
7202.997854073568,126.746
7208.667323984642,116.184
7214.443819257263,113.543
7220.109359956041,23.765
7225.881852536215,68.654
7231.54346810597,-2.641
7237.311962152613,105.622
7242.969656670975,10.562
7248.734156337254,39.608
7254.387933876205,121.465
7260.148443309525,124.106
7265.798307935409,161.073
7271.554831277448,29.046
7277.20078705097,7.922
7282.953328437674,42.249
7288.59537941395,42.249
7294.235498085545,-13.203
7299.982093204053,121.465
7305.618313131272,105.622
7311.252603748333,47.53
7316.993261813666,47.53
7322.623659726734,29.046
7328.252131317968,100.341
7333.9868615261075,168.995
7339.611446441268,287.819
7345.234108016753,145.23
7350.962919544712,2.641
7356.581700459581,-68.654
7362.198561010817,121.465
7367.813502182726,60.733
7373.426524958988,79.216
7379.145517410223,293.1
7384.7546694986595,475.298
7390.361906157261,34.327
7395.967228366993,-47.53
7401.570637108154,200.681
7407.279835705631,-213.884
7412.879383697611,10.562
7418.477021176703,192.76
7424.072749120482,110.903
7429.666568505905,264.054
7435.258480309247,60.733
7440.848485506111,-60.733
7446.436585071431,118.824
7452.022779979503,26.405
7457.607071203925,134.668
7463.296794702215,29.046
7468.877244915177,97.7
7474.455794380043,47.53
7480.032444067743,73.935
7485.607194948596,66.014
7491.18004799222,126.746
7496.751004167574,-50.17
7502.2129850032,-198.041
7507.7801867781745,240.29
7513.345494569261,171.635
7518.908909342786,179.557
7524.470432064445,126.746
7530.03006369928,100.341
7535.587805211653,-84.497
7541.1436575652915,161.073
7546.697621723266,-10.562
7552.249698647978,108.262
7557.693172648,100.341
7563.241514237732,-2.641
7568.787971459049,-39.608
7574.332545271769,34.327
7579.87523663506,5.281
7585.416046507413,166.354
7590.848475703144,-84.497
7596.385561603231,124.106
7601.920768865631,235.008
7607.454098446255,-39.608
7612.879194899509,34.327
7618.4088080453,76.576
7623.936546354853,97.7
7629.462410781522,68.654
7634.880189328982,42.249
7640.402344837916,116.184
7645.9226293018255,132.027
7651.334937948188,10.562
7656.851519109852,179.557
7662.260197498763,190.119
7667.773079083498,52.811
7673.284094334183,71.295
7678.687316594296,0.0
7684.194637864675,89.778
7689.7000956236625,7.922
7695.097870006797,-337.99
7700.599639370841,319.506
7705.993798107356,10.562
7711.491882781789,13.203
7716.882429503323,179.557
7722.376833188511,113.543
7727.763771521855,-5.281
7733.254497913214,87.138
7738.637831480286,-97.7
7744.124884268305,132.027
7749.504616686187,-66.014
7754.987999556393,63.373
7760.364134437317,79.216
7765.738489349154,42.249
7771.216392021717,-50.17
7776.587154788423,97.7
7782.061396717661,242.93
7787.428570939446,55.451
7792.793969640064,15.843
7798.262745065967,227.087
7803.624560595526,76.576
7808.984603262106,-21.124
7814.447920368751,-18.484
7819.804385227417,182.198
7825.159079875983,23.765
7830.616946831127,92.419
7835.968069024231,-110.903
7841.317423654822,211.244
7846.665011598543,55.451
7852.115636126822,155.792
7857.459658723532,137.308
7862.801917273948,121.465
7868.142412651388,100.341
7873.481145728587,66.014
7878.922746278997,44.889
7884.257922859626,76.576
7889.59133977185,5.281
7894.922997886111,52.811
7900.252898072242,15.843
7905.581041199541,102.981
7910.907428136696,7.922
7916.336446752692,-161.073
7921.65928952102,-31.687
7926.980378718883,7.922
7932.29971521271,-13.203
7937.617299868325,113.543
7942.933133550996,121.465
7948.247217125423,36.968
7953.559551455743,-89.778
7958.870137405502,71.295
7964.178975837705,116.184
7969.486067614758,-10.562
7974.791413598527,-134.668
7980.0950146503055,92.419
7985.396871630804,195.4
7990.696985400187,31.687
7995.995356818043,10.562
8001.291986743403,55.451
8006.586876034729,-31.687
8011.880025549901,34.327
8017.067699705829,163.714
8022.357406311574,-13.203
8027.645375694708,203.322
8032.931608710882,163.714
8038.216106215201,-34.327
8043.498869062179,13.203
8048.779898105804,73.935
8053.955695240969,319.506
8059.233293192043,124.106
8064.509159881611,-7.922
8069.783296161415,42.249
8074.952338977277,5.281
8080.223050878609,42.249
8085.492034905405,60.733
8090.759291907168,-113.543
8095.921593616502,87.138
8101.185432936367,-2.641
8106.447547759821,-242.93
8111.604810570996,150.511
8116.863512715307,126.746
8122.120492886879,213.884
8127.272724173963,-87.138
8132.526296659391,301.022
8137.778149690843,29.046
8142.925356813517,105.622
8148.173807142077,55.451
8153.4205405305,171.635
8158.562730834117,110.903
8163.806066493191,134.668
8168.944927307508,81.857
8174.184868536668,2.641
8179.32040309432,134.668
8184.55695318873,71.295
8189.689164718173,-192.76
8194.922326968728,-95.06
8200.051218694258,-31.687
8205.280996387602,21.124
8210.406571529322,-232.368
8215.632967947844,-13.203
8220.7552297217,47.53
8225.978248143558,116.184
8231.097199761349,-308.944
8236.316843460441,21.124
8241.43248812982,34.327
8246.546496881761,150.511
8251.76110130029,113.543
8256.871807891675,-15.843
8261.98088093357,34.327
8267.190453365733,29.046
8272.296229025691,50.17
8277.400373499535,139.949
8282.604921225458,36.968
8287.705773086778,102.981
8292.804996120794,-23.765
8298.004526406577,47.53
8303.100461588281,-31.687
8308.194770296956,-18.484
8313.28745331115,-18.484
8318.48031600209,-124.106
8323.569717486189,369.676
8328.657495624051,47.53
8333.743651192239,-15.843
8338.828184966831,-10.562
8344.012739449463,18.484
8349.093999566121,-73.935
8354.17364022991,84.497
8359.251662214898,42.249
8364.328066294685,-23.765
8369.402853242376,-102.981
8374.476023830553,124.106
8379.547578831349,87.138
8384.718901354245,13.203
8389.787195221597,76.576
8394.853875830348,66.014
8399.91894395064,102.981
8404.98240035212,13.203
8410.044245803958,-60.733
8415.104481074803,7.922
8420.163106932847,63.373
8425.220124145773,42.249
8430.275533480788,18.484
8435.32933570461,18.484
8440.381531583458,66.014
8445.432121883085,23.765
8450.48110736873,139.949
8455.528488805172,52.811
8460.473367100913,-108.262
8465.51757477424,79.216
8470.560180674485,79.216
8475.601185564497,-34.327
8480.64059020661,21.124
8485.67839536271,47.53
8490.714601794163,-84.497
8495.749210261878,-60.733
8500.681576948675,-348.552
8505.713023691114,-192.76
8510.742874734438,10.562
8515.771130837642,105.622
8520.797792759218,285.179
8525.722375497866,10.562
8530.745883175656,71.295
8535.7677989293,21.124
8540.788123515384,29.046
8545.706498587671,66.014
8550.723674892208,118.824
8555.739262280982,-58.092
8560.652997083213,55.451
8565.665440644778,55.451
8570.676297538128,158.433
8575.585398634048,50.17
8580.593116146138,-18.484
8585.599249233324,34.327
8590.503723174297,-44.889
8595.506721317797,-81.857
8600.508137275468,-277.257
8605.40799060051,-29.046
8610.406276043708,-36.968
8615.303062904772,76.576
8620.298220771765,42.249
8625.191944046568,97.7
8630.18397727198,-5.281
8635.074639834631,-63.373
8640.063551349394,-36.968
8644.951156070434,-34.327
8649.936948801806,-15.843
8654.821498548154,-290.46
8659.804175419777,-240.29
8664.685673054784,36.968
8669.665236986599,240.29
8674.543685370048,55.451
8679.520139278378,105.622
8684.395541266465,124.106
8689.2694364983,-79.216
8694.241246509358,-73.935
8699.112099609058,10.562
8703.981448060618,-60.733
8708.948620671701,7.922
8713.81493124642,15.843
8718.779005433622,68.654
8723.642280973501,100.341
8728.504055374753,15.843
8733.364329332315,-145.23
8738.32224658698,-71.295
8743.179491154478,-52.811
8748.035237374625,76.576
8752.889485940628,-15.843
8757.8412577103,23.765
8762.692482517024,-47.53
8767.542211760752,23.765
8772.39044613298,250.852
8777.336083836857,34.327
8782.18130006664,-110.903
8787.02502351089,31.687
8791.867254859393,-60.733
8796.707994801498,-264.054
8801.547244026118,55.451
8806.385003221756,34.327
8811.319956958603,253.492
8816.154707786565,322.146
8820.987970662514,89.778
8825.819746273257,21.124
8830.650035305174,-23.765
8835.478838444196,29.046
8840.306156375878,-68.654
8845.131989785303,110.903
8849.956339357173,73.935
8854.779205775758,23.765
8859.60058972489,163.714
8864.420491888006,132.027
8869.238912948098,0.0
8874.055853587757,0.0
8878.871314489159,52.811
8883.685296334032,-29.046
8888.497799803714,84.497
8893.308825579123,18.484
8898.118374340735,-42.249
8902.926446768637,23.765
8907.634964476681,132.027
8912.440116370435,-7.922
8917.243793954342,10.562
8922.045997906822,21.124
8926.846728905857,124.106
8931.645987629043,-23.765
8936.443774753548,-47.53
8941.142221650607,-31.687
8945.937097605834,-21.124
8950.73050397759,42.249
8955.522441441404,89.778
8960.215160665939,147.87
8965.004192282166,-108.262
8969.791757000756,13.203
8974.577855495572,-15.843
8979.26485751475,-31.687
8984.048055470721,73.935
8988.829789208343,26.405
8993.51251749025,-34.327
8998.291354655303,129.387
9003.068729603765,44.889
9007.747189991118,100.341
9012.521672326067,-134.668
9017.294694442531,58.092
9021.968892767374,-2.641
9026.739026222178,126.746
9031.41039612206,-308.944
9036.17764353675,-66.014
9040.943434050514,29.046
9045.610551571128,100.341
9050.373459984672,-36.968
9055.037755503963,95.06
9059.797784430888,5.281
9064.45926050758,100.341
9069.216412558366,31.687
9073.87507174812,147.87
9078.629349530078,79.216
9083.285194385431,44.889
9088.036600502714,-84.497
9092.689633573158,26.405
9097.438170626783,205.962
9102.088394458704,31.687
9106.73722909284,60.733
9111.481482183284,-26.405
9116.12751137963,0.0
9120.868901881862,79.216
9125.512128179163,-39.608
9130.153968412898,116.184
9134.891084617178,-5.281
9139.53012574118,-87.138
9144.167782675046,-76.576
9148.9006303586,-97.7
9153.535491965213,-29.046
9158.168971251744,15.843
9162.801068836525,-110.903
9167.528243916331,150.511
9172.157551197888,-66.014
9176.785478643267,-50.17
9181.412026869286,23.765
9186.13353953768,-71.295
9190.757302472506,-73.935
9195.37968804908,63.373
9200.000696882766,-26.405
9204.620329588544,10.562
9209.334785850184,31.687
9213.951639506451,13.203
9218.567118890363,10.562
9223.181224615444,18.484
9227.79395729483,-47.53
9232.40531754132,-63.373
9237.015305967328,155.792
9241.623923184923,-5.281
9246.23116980579,-108.262
9250.932987640888,73.935
9255.537466379788,23.765
9260.140576367572,-13.203
9264.742318214474,50.17
9269.342692530376,110.903
9273.941699924766,-2.641
9278.539341006806,-129.387
9283.135616385269,-36.968
9287.730526668583,256.133
9292.324072464791,-271.976
9296.91625438162,-63.373
9301.411444872112,-29.046
9306.00092923447,95.06
9310.589051525738,26.405
9315.175812352172,0.0
9319.761212319692,39.608
9324.345252033823,84.497
9328.927932099774,-166.354
9333.509253122353,42.249
9338.08921570604,23.765
9342.572446701386,-118.824
9347.149722488744,348.552
9351.7256416359,134.668
9356.300204745894,89.778
9360.873412421412,-52.811
9365.350032145325,21.124
9369.920558965528,18.484
9374.489732144635,95.06
9379.05755228394,-205.962
9383.528899030936,-34.327
9388.09404305015,2.641
9392.657835818722,15.843
9397.125240831178,-13.203
9401.6863610176,23.765
9406.246131739394,26.405
9410.80455359534,137.308
9415.266701898625,-176.916
9419.822455888205,-97.7
9424.281993052333,-84.497
9428.835081516963,-153.152
9433.38682407955,-36.968
9437.84243511156,21.124
9442.391515668474,-39.608
9446.84452129656,81.857
9451.390942182352,42.249
9455.93602012123,47.53
9460.385108237591,84.497
9464.927530014324,21.124
9469.374018445214,-84.497
9473.913786387537,147.87
9478.35767741084,-108.262
9482.894793843763,21.124
9487.33608973474,-166.354
9491.87055698055,81.857
9496.30926001177,-55.451
9500.74668109923,102.981
9505.277192831463,13.203
9509.71202445114,-63.373
9514.23989277796,18.484
9518.672137195834,36.968
9523.103102466685,10.562
9527.62702390948,229.727
9532.05540536064,13.203
9536.57668916292,-21.124
9541.002489053764,68.654
9545.42701258622,60.733
9549.850260312329,18.484
9554.36630345335,158.433
9558.78697410632,26.405
9563.206370618926,7.922
9567.718482324255,-29.046
9572.13530512818,118.824
9576.550855454823,63.373
9580.965133854,176.916
9585.47202083257,42.249
9589.883729992052,-10.562
9594.294168883298,-168.995
9598.703338054846,-34.327
9603.111238054931,42.249
9607.611613766734,42.249
9612.016950092931,-31.687
9616.421018902103,414.565
9620.823820741218,-168.995
9625.225356156909,126.746
9629.625625695517,-44.889
9634.02462990307,52.811
9638.422369325252,-66.014
9642.81884450748,-79.216
9647.21405599481,-240.29
9651.701478874824,50.17
9656.094137748323,-113.543
9660.485534571855,-129.387
9664.875669889248,195.4
9669.264544244,68.654
9673.65215817932,89.778
9678.03851223808,-31.687
9682.423606962846,97.7
9686.807442895892,-295.741
9691.19002057915,-71.295
9695.478134071804,-68.654
9699.858223622705,13.203
9704.23705653629,21.124
9708.614633353289,7.922
9712.990954614088,-44.889
9717.36602085878,-39.608
9721.739832627154,-100.341
9726.112390458671,132.027
9730.483694892511,-126.746
9734.760779687776,-47.53
9739.129605581998,-34.327
9743.497179682729,-47.53
9747.863502527893,42.249
9752.228574655115,81.857
9756.499562339395,-195.4
9760.862161224974,10.562
9765.223510992222,0.0
9769.583612177565,-29.046
9773.849736751828,-68.654
9778.207368918504,-21.124
9782.563754099236,23.765
9786.918892829211,126.746
9791.18016259473,-79.216
9795.532836519418,-36.968
9799.884265585692,-89.778
9804.14190615754,116.184
9808.490873566669,-163.714
9812.83859770701,-168.995
9817.09261371952,-153.152
9821.437879345483,-26.405
9825.689490172908,110.903
9830.032299369228,26.405
9834.373867936378,-31.687
9838.621861899856,121.465
9842.960977171238,-44.889
9847.206571054325,39.608
9851.543235108787,100.341
9855.786430944943,-36.968
9860.12064585897,76.576
9864.361445679362,55.451
9868.693213527116,-174.276
9872.931619360628,-26.405
9877.26094221391,-79.216
9881.49695608711,195.4
9885.823836015392,-18.484
9890.057459952584,-129.387
9894.289902518456,76.576
9898.613135046206,-58.092
9902.843190697367,-89.778
9907.163985452502,21.124
9911.391656207565,-147.87
9915.61814808206,-137.308
9919.935303126713,192.76
9924.15941311792,44.889
9928.38234571751,68.654
9932.695865648708,44.889
9936.91641937277,-10.562
9941.135797191648,5.281
9945.445686598703,92.419
9949.662688544726,-71.295
9953.878516069532,-68.654
9958.09316966365,-18.484
9962.398234183594,-29.046
9966.61051589339,-34.327
9970.821625153134,-105.622
9975.031562452265,58.092
9979.240328279942,36.968
9983.53937957713,-744.633
9987.745778488254,102.981
9991.95100740443,52.811
9996.155066813732,-10.562
10000.357957203963,55.451
10004.55967906266,163.714
10008.760232877092,21.124
10013.050897176752,44.889
10017.249090997648,-121.465
10021.446118245014,-76.576
10025.641979405023,34.327
10029.83667496358,71.295
10034.03020540632,13.203
10038.222571218605,-15.843
10042.413772885537,-18.484
10046.603810891938,-39.608
10050.79268572236,68.654
10054.980397861098,10.562
10059.16694779218,-322.146
10063.352335999334,-2.641
10067.536562966066,258.773
10071.719629175575,-155.792
10075.90153511081,-21.124
10080.082281254454,47.53
10084.26186808891,-23.765
10088.440296096323,-150.511
10092.52676786215,-113.543
10096.702904826674,18.484
10100.877884398516,21.124
10105.051707058765,73.935
10109.224373288234,18.484
10113.395883567471,79.216
10117.475590772649,319.506
10121.64481569536,-92.419
10125.812886097472,84.497
10129.979802458443,0.0
10134.145565257517,-39.608
10138.219652237512,-26.405
10142.383134400929,21.124
10146.545464428116,-44.889
10150.706642797257,166.354
10154.776246850048,21.124
10158.935148346747,13.203
10163.092899607942,0.0
10167.159152430871,-26.405
10171.314629631466,-66.014
10175.468958016776,163.714
10179.531863747628,-31.687
10183.683920879565,92.419
10187.834830614069,-79.216
10191.894393383842,-44.889
10196.043034667582,47.53
10200.190529969435,-145.23
10204.246753902304,18.484
10208.391983551395,84.497
10212.44599199288,7.922
10216.588957845182,58.092
10220.640752609928,-5.281
10224.781456519388,-18.484
10228.831039420063,419.846
10232.969483238625,47.53
10237.016856085897,-36.968
10241.15304166346,15.843
10245.19820626604,87.138
10249.332135450502,-52.811
10253.375093615126,26.405
10257.506768252357,-190.119
10261.547521783785,155.792
10265.58718577827,-55.451
10269.715494418666,118.824
10273.752956473523,50.17
10277.87901516247,15.843
10281.91427707755,0.0
10285.948451675904,-23.765
10290.0711512271,-132.027
10294.10312837192,-26.405
10298.13401952729,29.046
10302.253364041218,102.981
10306.282060424935,23.765
10310.309672144327,34.327
10314.425665714796,179.557
10318.451085340042,171.635
10322.475421623927,39.608
10326.498675003731,34.327
10330.610215200984,26.405
10334.631280043344,145.23
10338.651263301725,-58.092
10342.670165412448,44.889
10346.687986811625,-155.792
10350.704727935088,76.576
10354.80961387438,-147.87
10358.824171771252,-42.249
10362.837650708272,79.216
10366.850051120337,47.53
10370.86137344214,84.497
10374.871618108127,10.562
10378.880785552512,95.06
10382.888876209276,-29.046
10386.984923052532,-10.562
10390.990837530662,129.387
10394.995676531347,-250.852
10398.999440487634,110.903
10403.00212983234,-18.484
10407.003744998048,21.124
10411.004286417105,-18.484
10415.003754521616,108.262
10419.002149743475,-34.327
10422.999472514348,2.641
10426.995723265634,-7.922
10430.990902428544,-36.968
10434.985010434026,21.124
10438.889325180557,522.828
10442.881315942828,129.387
10446.872236829608,-29.046
10450.86208827093,-52.811
10454.85087069661,5.281
10458.838584536235,182.198
10462.82523021915,-105.622
10466.810808174472,89.778
10470.706785742112,63.373
10474.690253232264,198.041
10478.672654271297,73.935
10482.653989287404,-55.451
10486.634258708573,10.562
10490.525047770485,-13.203
10494.50321094102,-63.373
10498.480309789697,-5.281
10502.45634474356,-187.479
10506.342995080442,29.046
10510.316927143493,5.281
10514.2897965821,224.446
10518.261603822417,73.935
10522.144122034457,134.668
10526.113829736623,23.765
10530.082476508169,7.922
10533.961905709137,23.765
10537.92845544769,229.727
10541.89394552126,-147.87
10545.770289396216,39.608
10549.733684937964,52.811
10553.607981637546,-187.479
10557.569284306495,15.843
10561.52952941227,-118.824
10565.400746905443,-66.014
10569.35890163298,-52.811
10573.22807600992,73.935
10577.184142013864,-23.765
10581.05127489159,-184.838
10585.005253824836,-34.327
10588.87034681866,26.405
10592.822240332363,-102.981
10596.685295055897,18.484
10600.635104799476,-2.641
10604.496122864624,-10.562
10608.443850485746,39.608
10612.302833502728,100.341
10616.160811022752,44.889
10620.10543022464,-21.124
10623.9613750996,-5.281
10627.903916281392,60.733
10631.757830117263,71.493
10635.61074043666,21.394
10639.550179321655,-63.648
10643.401060998756,-157.702
10647.250940343372,-234.85
10651.187280591832,-269.17
10655.035133687184,-234.734
10658.881985632182,-105.622
10662.815230898605,73.935
10666.660058983602,84.497
10670.50388709854,58.092
10674.346715633475,55.451
10678.275847672114,-261.414
10682.116655520924,81.857
10685.956464967534,34.327
10689.795276401208,-287.819
10693.633090210977,-124.106
10697.557095575656,47.53
10701.39289265285,58.092
10705.227693280882,-26.405
10709.061497847986,2.641
10712.894306742182,55.451
10716.726120351308,240.29
10720.55693906298,23.765
10724.386763264632,23.765
10728.302600658342,121.465
10732.130414421008,137.308
10735.957234843503,-34.327
10739.783062312445,-168.995
10743.60789721425,15.843
10747.431739935131,190.119
10751.254590861114,-15.843
10755.076450378,-50.17
10758.897318871408,-158.433
10762.717196726757,-76.576
10766.536084329256,-55.451
10770.353982063916,95.06
10774.170890315563,-21.124
10777.98680946881,-26.405
10781.801739908076,10.562
10785.615682017564,-15.843
10789.341989100834,-50.17
10793.153978142976,18.484
10796.964979998098,-118.824
10800.774995049622,47.53
10804.58402368077,-52.811
10808.392066274577,71.295
10812.199123213884,92.419
10816.005194881312,134.668
10819.723813349112,79.216
10823.52793799081,-39.608
10827.331078498672,13.203
10831.133235254529,81.857
10834.848029253728,-89.778
10838.64824198676,-205.962
10842.447472103491,89.778
10846.24571998498,2.641
10849.956695412544,92.419
10853.753002267928,-31.687
10857.548328021428,-76.576
10861.342673053316,-21.124
10865.049835794096,-95.06
10868.842242790466,21.124
10872.63367019626,-21.124
10876.337982712816,-166.354
10880.12747431772,-55.451
10883.82989575329,-50.17
10887.617453039476,84.497
10891.404032613404,34.327
10895.103609289945,-68.654
10898.88825677408,105.622
10902.585945994537,105.622
10906.368662867266,36.968
10910.150403901262,-26.405
10913.845253813895,-29.046
10917.62506645972,-179.557
10921.318032531915,-23.765
10925.095918264182,110.903
10928.787001936307,150.511
10932.562962228116,142.589
10936.252164939066,34.327
10939.940438510435,-155.792
10943.713524449233,31.687
10947.399919206764,-18.484
10951.171083372872,-113.543
10954.855600751816,142.589
10958.62484461311,10.562
10962.307486047235,97.7
10965.989200819247,-95.06
10969.755577991731,81.857
10973.435418958636,-100.341
10977.114334320191,-89.778
10980.877848072992,543.952
10984.554891765896,-110.903
10988.231010908596,-179.557
10991.991664505884,-60.733
10995.665914113146,10.562
10999.33924022374,-36.968
11003.011643185791,7.922
11006.768495629847,-105.622
11010.439031890255,-5.281
11014.108646053544,100.341
11017.777338467138,102.981
11021.530395518184,63.373
11025.197224058184,-68.654
11028.863131897786,-79.216
11032.528119383707,-87.138
11036.192186862492,-411.925
11039.855334680517,-92.419
11043.602720353196,-26.405
11047.264008520897,-44.889
11050.924378073953,55.451
11054.58382935806,-213.884
11058.242362718707,-44.889
11061.899978501227,-166.354
11065.556677050785,-92.419
11069.21245871235,-23.765
11072.867323830738,58.092
11076.521272750586,-47.53
11080.174305816368,-2.641
11083.826423372368,-29.046
11087.477625762698,-237.649
11091.127913331318,108.262
11094.777286422,58.092
11098.425745378345,-477.938
11102.073290543767,2.641
11105.719922261547,-7.922
11109.36564087477,134.668
11113.010446726335,-60.733
11116.654340159006,92.419
11120.29732151534,-18.484
11123.93939113774,68.654
11127.580549368427,-89.778
11131.22079654947,-52.811
11134.77550763161,-73.935
11138.413954906267,-105.622
11142.051492148485,229.727
11145.688119699626,-5.281
11149.323837900913,-87.138
11152.958647093375,-34.327
11156.508048620988,-100.341
11160.141061938251,63.373
11163.773167260852,-23.765
11167.40436492916,-34.327
11170.950240228543,66.014
11174.579644697213,-58.092
11178.208142523734,158.433
11181.751381744987,60.733
11185.378088371155,-36.968
11189.003889365817,10.562
11192.628785068173,153.152
11196.16850723805,-102.981
11199.79161440632,-18.484
11203.413817290922,211.244
11206.950910239968,174.276
11210.571326582844,18.484
11214.10667518314,55.451
11217.725306305692,-87.138
11221.343034819707,-44.889
11224.875759069631,110.903
11228.49170435076,36.968
11232.022687482247,-7.922
11235.636850848638,-116.184
11239.166094148528,-5.281
11242.778476917028,-50.17
11246.305981670925,-71.295
11249.91658515709,-7.922
11253.442352649325,71.295
11257.05117816741,308.944
11260.575209681025,50.17
11264.182258544,327.427
11267.704555360804,26.405
11271.309828880325,-21.124
11274.83039228086,13.203
11278.350099642112,42.249
11281.952723030843,124.106
11285.470698886753,42.249
11288.987819646914,-29.046
11292.587795825824,129.387
11296.103186988752,0.0
11299.70139304264,-105.622
11303.215055883851,-126.746
11306.727865201254,31.687
11310.23982130582,0.0
11313.834511810855,-81.857
11317.34474212601,60.733
11320.8541201677,110.903
11324.446172200132,-50.17
11327.953826352135,118.824
11331.460629168672,-26.405
11334.96658095964,-176.916
11338.471682034791,-66.014
11342.059356881087,44.889
11345.562737216636,66.014
11349.06526777208,-287.819
11352.566948856567,50.17
11356.067780779093,50.17
11359.56776384851,-26.405
11363.1502007606,139.949
11366.648466857394,58.092
11370.145885034064,-13.203
11373.642455598843,52.811
11377.138178859836,-290.46
11380.633055125,345.911
11384.1270847021,-21.124
11387.620267898808,-97.7
11391.112605022612,29.046
11394.60409638087,76.576
11398.094742280777,-5.281
11401.584543029392,18.484
11405.073498933603,-73.935
11408.561610300185,26.405
11412.048877435727,720.869
11415.5353006467,-108.262
11419.020880239405,-102.981
11422.505616520008,227.087
11425.989509794525,0.0
11429.472560368817,-47.53
11432.954768548592,-145.23
11436.43613463944,-177.735
11439.916658946764,-143.54
11443.313501961433,-69.599
11446.79236364179,17.132
11450.270384446749,89.694
11453.74756468115,121.135
11457.22390464968,84.497
11460.699404656869,2.641
11464.091344754375,34.327
11467.565185732994,134.668
11471.038187655771,-116.184
11474.51035082668,47.53
11477.981675549512,-5.281
11481.369541233144,29.046
11484.839209915755,-7.922
11488.30804105362,23.765
11491.693473394258,-97.7
11495.16065027576,-44.889
11498.626990514544,-105.622
11502.092494413417,26.405
11505.474679896604,58.092
11508.938531918346,134.668
11512.401548500471,-31.687
11515.78130675673,150.511
11519.242673239612,-124.106
11522.620821260369,-36.968
11526.080538823127,139.949
11529.5394224415,97.7
11532.915147579475,121.465
11536.372384051368,-63.373
11539.74650183491,47.53
11543.202092336618,36.968
11546.574603913472,-44.889
11550.028549620163,158.433
11553.399456136987,-66.014
11556.85175822272,23.765
11560.221060825072,5.281
11563.67172046279,-55.451
11567.039420295116,52.811
11570.488438656655,-66.014
11573.854536862347,-23.765
11577.301915118398,44.889
11580.666412839755,10.562
11584.030120381583,-110.903
11587.475050538147,-71.295
11590.837159300165,-39.608
11594.280452266124,-208.603
11597.64096338792,31.687
11601.000685734118,7.922
11604.441534950183,-520.187
11607.79966135666,-18.484
11611.156999826935,0.0
11614.59540789372,-55.451
11617.951152122365,205.962
11621.306109253032,87.138
11624.66027956261,-95.06
11628.09544335218,126.746
11631.44802167594,0.0
11634.799814015252,42.249
11638.15082064648,5.281
11641.58274474832,15.843
11644.932161645294,89.778
11648.280793669244,-145.23
11651.62864109602,63.373
11654.975704201344,145.23
11658.403590030808,-134.668
11661.749066206958,-36.968
11665.093758894744,39.608
11668.43766836938,-42.249
11671.780794905935,-198.041
11675.12313877933,-150.511
11678.4647002644,-126.746
11681.805479635816,84.497
11685.145477168146,-36.968
11688.484693135812,84.497
11691.904543291126,-142.589
11695.24217790648,-139.949
11698.579031786354,-79.216
11701.915105204676,-335.349
11705.25039843522,-97.7
11708.584911751648,89.778
11711.918645427471,-13.203
11715.251599736104,-73.935
11718.502511651865,26.405
11721.83392703817,-52.811
11725.164563870054,-306.303
11728.4944224204,285.179
11731.823502961994,-2.641
11735.15180576744,-31.687
11738.479331109273,31.687
11741.806079259855,-2.641
11745.132050491462,68.654
11748.457245076206,-5.281
11751.70058915004,-39.608
11755.024250183047,-208.603
11758.34713537819,174.276
11761.669245007088,34.327
11764.990579341233,-71.295
11768.230158619372,-15.843
11771.549962071174,-13.203
11774.86899103535,23.765
11778.187245782876,-89.778
11781.423821624776,-47.53
11784.740547618409,34.327
11788.05650020102,-92.419
11791.371679643096,-68.654
11794.605256223578,-47.53
11797.91890903626,145.23
11801.231789512534,-15.843
11804.46312397414,-87.138
11807.774479408556,-71.295
11811.085063309589,39.608
11814.314157983485,-13.203
11817.623218427994,89.778
11820.850827315822,-29.046
11824.158365355152,124.106
11827.4651331948,66.014
11830.690506166697,-23.765
11833.995753182851,-73.935
11837.219642936305,134.668
11840.52337017791,-95.06
11843.745777735792,-179.557
11847.047986250807,55.451
11850.26891263506,52.811
11853.569603470474,163.714
11856.789049702087,-71.295
11860.088223903953,-335.349
11863.30619100298,250.852
11866.603849616356,60.733
11869.820338601929,113.543
11873.11648267094,-15.843
11876.331494561222,-92.419
11879.545777396996,21.124
11882.839660941268,-42.249
11886.052468201013,73.935
11889.26454715598,113.543
11892.55617250015,-95.06
11895.766777396242,73.935
11899.056892350098,97.7
11902.26602420178,66.014
11905.474428998024,79.216
11908.682106985869,-29.046
11911.969222890988,-129.387
11915.17542984806,205.962
11918.380910743392,29.046
11921.66577540321,-66.014
11924.869786778698,42.249
11928.07307283808,63.373
11931.27563382762,84.497
11934.477469993468,13.203
11937.758600089848,26.405
11940.95896924119,-50.17
11944.158614312782,-116.184
11947.35753555032,-155.792
11950.55573319941,-21.124
11953.753207505528,-13.203
11957.029868231695,-279.898
11960.225878519712,-87.138
11963.42116620667,113.543
11966.615731537608,-50.17
11969.809574757444,7.922
11973.002696111003,-129.387
11976.195095842992,-2.641
11979.386774197992,100.341
11982.577731420495,71.295
11985.767967754866,-2.641
11988.957483445382,-47.53
11992.146278736183,76.576
11995.334353871312,290.46
11998.521709094712,73.935
12001.708344650193,-95.06
12004.894260781464,266.695
12008.079457732136,-87.138
12011.2639357457,-55.451
12014.44769506553,84.497
12017.630735934905,-31.687
12020.81305859698,-36.968
12023.994663294816,-95.06
12027.175550271351,118.824
12030.27622427429,-29.046
12033.455694464548,23.765
12036.634447655608,-21.124
12039.812484089987,-26.405
12042.989804010074,100.341
12046.166407658158,0.0
12049.26290681064,-203.322
12052.4380965329,18.484
12055.612570703324,203.322
12058.786329563762,5.281
12061.880055974125,0.0
12065.052402807443,-116.184
12068.224035049663,-21.124
12071.394952942192,-118.824
12074.485910333004,44.889
12077.655418093736,-55.451
12080.824212222367,-87.138
12083.913099633974,47.53
12087.080485047096,-23.765
12090.247157544738,76.576
12093.333977055809,42.249
