Raman Shift,Intensity
246.025,7404.0
247.394,7338.0
248.763,7262.0
250.132,7274.0
251.501,7130.0
252.869,7233.0
254.237,7216.0
255.605,7093.0
256.973,7203.0
258.34,7053.0
259.708,7095.0
261.075,7075.0
262.442,7046.0
263.808,7034.0
265.175,7019.494
266.541,7003.0
267.907,6993.0
269.273,6993.0
270.639,6964.0
272.004,6947.0
273.369,6921.0
274.734,6941.0
276.099,6956.0
277.463,6945.0
278.828,6917.0
280.192,6855.0
281.556,6842.0
282.919,6850.0
284.283,6869.0
285.646,6775.0
287.009,6784.0
288.372,6683.0
289.734,6704.0
291.097,6677.0
292.459,6578.0
293.821,6616.0
295.183,6564.0
296.544,6492.0
297.905,6528.0
299.266,6382.0
300.627,6425.0
301.988,6413.0
303.348,6354.0
304.709,6277.0
306.069,6305.0
307.428,6340.0
308.788,6330.0
310.147,6260.0
311.507,6336.0
312.865,6259.0
314.224,6258.464
315.583,6171.0
316.941,6223.0
318.299,6191.0
319.657,6174.0
321.015,6111.0
322.372,6209.0
323.729,6218.0
325.086,6198.0
326.443,6215.0
327.8,6148.0
329.156,6131.0
330.512,6105.0
331.868,6150.0
333.224,6131.0
334.579,6139.0
335.935,6164.0
337.29,6115.0
338.645,6125.0
339.999,6138.0
341.354,6103.0
342.708,6111.0
344.062,6112.0
345.416,6154.0
346.769,6147.0
348.123,6181.0
349.476,6115.0
350.829,6134.0
352.182,6151.0
353.534,6159.0
354.887,6162.0
356.239,6114.0
357.591,6123.0
358.942,6034.0
360.294,6062.0
361.645,6078.0
362.996,6100.0
364.347,6013.0
365.698,6044.0
367.048,6024.0
368.398,6034.0
369.748,6045.0
371.098,6051.0
372.448,6010.0
373.797,5993.0
375.146,5982.0
376.495,5908.0
377.844,5962.0
379.192,5975.0
380.54,5921.0
381.889,5961.0
383.236,5928.0
384.584,5914.0
385.932,5934.0
387.279,5884.0
388.626,5895.0
389.973,5885.176
391.319,5932.0
392.666,5888.0
394.012,5906.0
395.358,5939.0
396.704,5878.0
398.049,5895.0
399.394,6018.0
400.74,5958.901
402.084,6022.0
403.429,5955.0
404.774,5943.0
406.118,5947.0
407.462,5944.0
408.806,6014.0
410.15,5894.0
411.493,5914.0
412.836,5974.0
414.179,5859.0
415.522,5833.0
416.865,5917.0
418.207,5831.0
419.549,5894.0
420.891,5852.0
422.233,5845.0
423.575,5735.0
424.916,5813.0
426.257,5696.0
427.598,5726.0
428.939,5699.0
430.279,5662.0
431.619,5657.0
432.959,5643.0
434.299,5558.0
435.639,5616.0
436.978,5523.0
438.318,5535.0
439.657,5515.0
440.996,5512.0
442.334,5475.0
443.673,5451.0
445.011,5444.0
446.349,5452.0
447.687,5417.0
449.024,5436.0
450.361,5447.0
451.699,5424.148
453.036,5464.0
454.372,5423.0
455.709,5290.0
457.045,5333.0
458.381,5327.0
459.717,5435.0
461.053,5289.0
462.388,5413.0
463.724,5428.0
465.059,5393.0
466.394,5436.0
467.728,5417.0
469.063,5422.0
470.397,5490.0
471.731,5445.0
473.065,5452.0
474.398,5519.0
475.732,5541.0
477.065,5580.0
478.398,5491.0
479.731,5529.0
481.063,5574.0
482.396,5675.0
483.728,5673.0
485.06,5630.0
486.391,5649.0
487.723,5678.0
489.054,5728.0
490.385,5804.0
491.716,5715.0
493.047,5765.0
494.377,5685.0
495.708,5769.0
497.038,5771.0
498.368,5717.0
499.697,5813.0
501.027,5798.0
502.356,5725.0
503.685,5836.0
505.014,5800.0
506.342,5874.0
507.671,5798.0
508.999,5814.0
510.327,5839.0
511.655,5807.0
512.982,5808.0
514.31,5790.0
515.637,5786.083
516.964,5777.949
518.291,5783.0
519.617,5767.0
520.944,5760.0
522.27,5765.467
523.596,5787.0
524.921,5793.0
526.247,5799.595
527.572,5841.0
528.897,5807.0
530.222,5810.0
531.547,5811.0
532.871,5904.0
534.196,5817.0
535.52,5896.0
536.844,5860.0
538.167,5995.0
539.491,5916.0
540.814,5926.0
542.137,5851.0
543.46,5865.0
544.783,5921.0
546.105,5893.0
547.427,5862.0
548.749,5864.0
550.071,5828.0
551.393,5815.0
552.714,5826.0
554.035,5756.0
555.356,5793.0
556.677,5714.0
557.998,5708.0
559.318,5673.0
560.638,5553.0
561.958,5572.0
563.278,5548.0
564.597,5551.0
565.917,5488.0
567.236,5450.0
568.555,5460.0
569.874,5392.0
571.192,5413.0
572.511,5362.0
573.829,5359.0
575.147,5320.4
576.464,5317.914
577.782,5279.936
579.099,5319.0
580.416,5223.0
581.733,5216.0
583.05,5224.0
584.366,5174.0
585.683,5152.0
586.999,5196.0
588.315,5103.0
589.63,5149.0
590.946,5141.0
592.261,5094.0
593.576,5056.0
594.891,5106.0
596.206,5104.0
597.52,5094.0
598.834,5057.0
600.148,5132.0
601.462,5148.0
602.776,5084.0
604.089,5178.0
605.402,5141.0
606.715,5146.0
608.028,5133.0
609.341,5137.0
610.653,5129.0
611.965,5146.0
613.277,5163.337
614.589,5193.0
615.901,5221.0
617.212,5225.0
618.523,5265.0
619.834,5161.0
621.145,5149.0
622.456,5146.922
623.766,5199.0
625.076,5170.0
626.386,5186.0
627.696,5262.0
629.006,5314.0
630.315,5315.507
631.624,5316.0
632.933,5340.0
634.242,5344.403
635.551,5317.0
636.859,5349.0
638.167,5346.0
639.475,5300.0
640.783,5394.0
642.09,5463.0
643.398,5404.0
644.705,5480.0
646.012,5543.0
647.318,5524.0
648.625,5566.0
649.931,5596.854
651.237,5599.0
652.543,5656.0
653.849,5683.0
655.155,5700.0
656.46,5727.0
657.765,5776.0
659.07,5920.0
660.375,5986.0
661.679,6078.0
662.984,6150.0
664.288,6156.0
665.592,6362.0
666.895,6419.0
668.199,6607.0
669.502,6690.061
670.805,6711.0
672.108,6828.0
673.411,6906.0
674.713,6905.0
676.016,6975.0
677.318,6893.0
678.62,6897.0
679.921,6769.0
681.223,6829.0
682.524,6644.0
683.825,6596.0
685.126,6516.0
686.427,6532.0
687.727,6443.0
689.028,6550.0
690.328,6444.0
691.628,6567.0
692.927,6475.0
694.227,6532.0
695.526,6564.0
696.825,6607.0
698.124,6754.0
699.423,6759.0
700.721,6838.0
702.02,7112.0
703.318,7037.0
704.616,7219.0
705.913,7292.0
707.211,7452.0
708.508,7521.0
709.805,7616.0
711.102,7866.0
712.399,7831.0
713.695,7983.0
714.992,8016.0
716.288,8034.0
717.584,7997.0
718.879,8037.0
720.175,8146.0
721.47,7972.0
722.765,7931.0
724.06,7998.0
725.355,7803.0
726.649,7787.0
727.944,7497.0
729.238,7618.0
730.532,7350.0
731.825,7369.0
733.119,7155.0
734.412,6986.0
735.705,7014.0
736.998,6934.0
738.291,6742.0
739.584,6661.0
740.876,6579.0
742.168,6566.0
743.46,6610.0
744.752,6495.0
746.043,6447.0
747.334,6494.0
748.626,6449.0
749.916,6489.0
751.207,6411.0
752.498,6533.0
753.788,6421.0
755.078,6534.0
756.368,6504.0
757.658,6640.0
758.947,6612.0
760.237,6615.0
761.526,6653.0
762.815,6612.0
764.104,6718.0
765.392,6759.0
766.68,6738.0
767.969,6703.0
769.257,6711.0
770.544,6664.824
771.832,6639.577
773.119,6583.0
774.406,6564.0
775.693,6505.0
776.98,6454.0
778.267,6402.0
779.553,6297.778
780.839,6111.0
782.125,6068.0
783.411,5954.0
784.697,5812.0
785.982,5748.0
787.267,5670.0
788.552,5678.0
789.837,5486.0
791.122,5494.0
792.406,5470.0
793.69,5287.0
794.974,5342.0
796.258,5243.0
797.542,5286.0
798.825,5209.0
800.108,5167.0
801.391,5090.0
802.674,5015.0
803.957,5037.0
805.239,5042.0
806.522,5013.0
807.804,4992.854
809.085,4870.0
810.367,4880.0
811.649,4815.0
812.93,4693.0
814.211,4812.0
815.492,4791.0
816.772,4736.0
818.053,4747.0
819.333,4722.0
820.613,4689.0
821.893,4693.0
823.173,4692.0
824.452,4716.0
825.732,4638.0
827.011,4679.0
828.29,4624.0
829.568,4617.0
830.847,4656.0
832.125,4652.0
833.403,4671.0
834.681,4684.0
835.959,4613.0
837.236,4618.0
838.514,4685.0
839.791,4614.0
841.068,4636.0
842.345,4626.0
843.621,4630.0
844.898,4622.0
846.174,4604.0
847.45,4592.0
848.726,4607.0
850.001,4628.0
851.277,4605.0
852.552,4628.0
853.827,4551.0
855.102,4649.0
856.376,4681.0
857.651,4618.0
858.925,4687.0
860.199,4581.0
861.473,4668.0
862.746,4654.0
864.02,4689.0
865.293,4596.0
866.566,4676.0
867.839,4685.0
869.112,4625.0
870.384,4738.0
871.656,4656.0
872.928,4696.0
874.2,4684.0
875.472,4690.0
876.744,4643.0
878.015,4722.0
879.286,4684.0
880.557,4690.0
881.828,4756.0
883.098,4697.0
884.369,4756.0
885.639,4743.0
886.909,4755.0
888.178,4738.0
889.448,4770.0
890.717,4773.0
891.987,4761.0
893.256,4750.0
894.524,4756.0
895.793,4791.0
897.061,4860.0
898.33,4785.0
899.598,4857.0
900.865,4885.0
902.133,4815.0
903.401,4855.0
904.668,4885.0
905.935,4861.0
907.202,4938.0
908.468,4869.0
909.735,4855.0
911.001,4901.0
912.267,4885.0
913.533,4858.0
914.799,4933.0
916.064,4948.0
917.33,4923.0
918.595,4903.0
919.86,4936.0
921.124,4870.0
922.389,5017.0
923.653,4930.946
924.918,4959.0
926.182,4900.0
927.445,4923.0
928.709,5030.0
929.972,4942.0
931.236,4952.0
932.499,4983.0
933.761,4953.0
935.024,4955.0
936.286,4902.0
937.549,4984.0
938.811,4959.0
940.073,4903.0
941.334,4935.0
942.596,5010.0
943.857,4940.0
945.118,5005.0
946.379,4921.0
947.64,4989.0
948.9,4998.0
950.161,4990.0
951.421,4956.0
952.681,4979.0
953.94,4982.0
955.2,4948.0
956.459,4940.0
957.719,4897.0
958.978,4878.0
960.236,4947.0
961.495,4868.0
962.753,4895.0
964.012,4870.0
965.27,4834.0
966.527,4820.0
967.785,4830.0
969.043,4812.0
970.3,4790.0
971.557,4806.0
972.814,4761.0
974.071,4826.0
975.327,4809.0
976.583,4772.0
977.84,4783.0
979.095,4740.0
980.351,4755.0
981.607,4783.0
982.862,4796.0
984.117,4813.0
985.372,4848.0
986.627,4829.0
987.882,4818.0
989.136,4838.0
990.39,4790.0
991.644,4750.0
992.898,4792.0
994.152,4747.0
995.405,4806.0
996.659,4770.0
997.912,4801.0
999.165,4823.0
1000.417,4769.0
1001.67,4767.0
1002.922,4839.0
1004.174,4793.0
1005.426,4855.0
1006.678,4795.0
1007.93,4800.0
1009.181,4769.0
1010.432,4758.0
1011.683,4763.0
1012.934,4814.0
1014.185,4825.0
1015.435,4815.0
1016.685,4835.0
1017.935,4845.444
1019.185,4835.0
1020.435,4881.0
1021.684,4868.0
1022.934,4886.0
1024.183,4908.0
1025.432,4903.0
1026.68,4952.0
1027.929,4894.0
1029.177,4878.0
1030.425,4945.0
1031.673,4913.0
1032.921,4883.0
1034.169,4907.0
1035.416,4942.0
1036.663,4879.0
1037.911,4907.0
1039.157,4826.0
1040.404,4894.0
1041.65,4879.0
1042.897,4921.0
1044.143,4862.0
1045.389,4851.0
1046.634,4814.0
1047.88,4814.29
1049.125,4884.0
1050.371,4834.0
1051.615,4873.0
1052.86,4893.0
1054.105,4900.0
1055.349,4909.603
1056.593,4852.0
1057.837,4879.0
1059.081,4895.0
1060.325,4828.0
1061.568,4820.0
1062.812,4864.0
1064.055,4878.0
1065.298,4869.0
1066.54,4822.0
1067.783,4821.0
1069.025,4838.0
1070.267,4892.0
1071.509,4881.0
1072.751,4899.0
1073.993,4852.0
1075.234,4850.0
1076.475,4848.0
1077.716,4836.0
1078.957,4807.0
1080.198,4834.0
1081.438,4863.0
1082.679,4838.0
1083.919,4871.0
1085.159,4867.664
1086.398,4825.0
1087.638,4880.0
1088.877,4820.0
1090.116,4835.0
1091.355,4777.0
1092.594,4806.0
1093.833,4674.0
1095.071,4759.0
1096.309,4661.0
1097.547,4690.0
1098.785,4713.0
1100.023,4674.0
1101.26,4669.0
1102.498,4637.0
1103.735,4623.0
1104.972,4628.0
1106.208,4593.0
1107.445,4575.0
1108.681,4626.0
1109.918,4647.0
1111.154,4634.0
1112.389,4610.0
1113.625,4575.0
1114.86,4639.0
1116.096,4588.0
1117.331,4600.0
1118.566,4581.0
1119.8,4570.971
1121.035,4580.0
1122.269,4581.0
1123.503,4559.0
1124.737,4598.0
1125.971,4582.0
1127.205,4506.0
1128.438,4545.0
1129.671,4507.0
1130.904,4495.0
1132.137,4547.0
1133.37,4547.0
1134.602,4548.0
1135.834,4516.0
1137.066,4532.0
1138.298,4530.0
1139.53,4565.0
1140.762,4501.0
1141.993,4559.0
1143.224,4495.0
1144.455,4504.0
1145.686,4508.0
1146.917,4517.0
1148.147,4494.0
1149.377,4475.0
1150.607,4555.0
1151.837,4497.0
1153.067,4464.0
1154.296,4550.0
1155.526,4554.0
1156.755,4520.0
1157.984,4484.0
1159.213,4503.0
1160.441,4505.0
1161.67,4523.0
1162.898,4473.0
1164.126,4467.0
1165.354,4440.0
1166.581,4437.924
1167.809,4498.0
1169.036,4471.0
1170.263,4481.0
1171.49,4546.0
1172.717,4489.0
1173.943,4566.0
1175.17,4471.0
1176.396,4477.0
1177.622,4503.0
1178.848,4479.0
1180.073,4463.0
1181.299,4488.0
1182.524,4489.0
1183.749,4486.0
1184.974,4517.0
1186.199,4479.0
1187.423,4469.0
1188.648,4444.0
1189.872,4536.0
1191.096,4489.0
1192.32,4516.0
1193.543,4463.0
1194.767,4448.0
1195.99,4480.0
1197.213,4505.0
1198.436,4484.0
1199.659,4500.0
1200.881,4518.0
1202.104,4496.0
1203.326,4502.0
1204.548,4497.0
1205.77,4529.0
1206.991,4439.0
1208.213,4466.0
1209.434,4461.0
1210.655,4503.0
1211.876,4480.0
1213.096,4467.0
1214.317,4444.0
1215.537,4460.0
1216.757,4503.0
1217.977,4460.0
1219.197,4516.0
1220.417,4492.0
1221.636,4498.0
1222.855,4533.0
1224.074,4513.0
1225.293,4494.0
1226.512,4503.0
1227.731,4516.0
1228.949,4539.0
1230.167,4465.0
1231.385,4520.0
1232.603,4501.0
1233.82,4407.0
1235.038,4472.0
1236.255,4522.0
1237.472,4438.0
1238.689,4507.0
1239.906,4550.0
1241.122,4456.0
1242.338,4538.0
1243.555,4508.0
1244.771,4510.0
1245.986,4417.0
1247.202,4466.0
1248.417,4514.0
1249.633,4539.0
1250.848,4554.0
1252.063,4546.168
1253.277,4547.0
1254.492,4504.0
1255.706,4473.0
1256.92,4461.0
1258.134,4527.0
1259.348,4498.0
1260.562,4480.0
1261.775,4464.0
1262.988,4436.0
1264.201,4451.634
1265.414,4476.0
1266.627,4476.0
1267.839,4475.0
1269.052,4470.0
1270.264,4530.0
1271.476,4527.0
1272.688,4484.0
1273.899,4447.0
1275.111,4510.0
1276.322,4481.0
1277.533,4510.0
1278.744,4508.0
1279.955,4494.0
1281.165,4484.0
1282.376,4471.479
1283.586,4474.414
1284.796,4453.0
1286.006,4476.0
1287.215,4494.0
1288.425,4478.0
1289.634,4454.0
1290.843,4507.0
1292.052,4442.0
1293.261,4428.0
1294.469,4474.0
1295.678,4528.0
1296.886,4479.0
1298.094,4504.0
1299.302,4502.0
1300.509,4545.0
1301.717,4419.0
1302.924,4448.0
1304.131,4444.0
1305.338,4465.0
1306.545,4454.0
1307.752,4465.979
1308.958,4441.0
1310.164,4480.0
1311.37,4444.0
1312.576,4446.0
1313.782,4457.0
1314.987,4462.0
1316.193,4463.0
1317.398,4471.0
1318.603,4475.0
1319.807,4468.173
1321.012,4433.29
1322.216,4459.0
1323.421,4399.0
