Wavenumber (cm⁻¹),Intensity
200.0,28.067999999999998
201.00097751710655,25.464457478005865
202.0019550342131,22.860914956011733
203.00293255131965,20.2573724340176
204.0039100684262,17.65382991202347
205.00488758553274,15.050287390029336
206.0058651026393,12.446744868035204
207.00684261974584,9.843202346041071
208.0078201368524,7.239659824046939
209.00879765395894,4.636117302052806
210.00977517106548,2.0477262952101754
211.01075268817203,0.996376344086031
212.01173020527858,0.028958944281515867
213.01270772238513,0.8930087976539361
214.01368523949168,2.858649071358728
215.01466275659823,4.501718475073304
216.01564027370478,5.233339198435963
217.01661779081132,5.959064516129021
218.01759530791787,6.688043988269781
219.01857282502445,7.527647116324535
220.019550342131,7.490153470185718
221.02052785923755,6.528824046920813
222.0215053763441,5.764548387096777
223.02248289345064,6.116251221896386
224.0234604105572,6.491117302052791
225.02443792766374,7.181672531769311
226.0254154447703,7.98110557184751
227.02639296187684,8.525695014662757
228.02737047898339,8.66304007820137
229.02834799608993,8.674260019550339
230.02932551319648,7.763202346041054
231.03030303030303,6.806666666666666
232.03128054740958,6.715390029325514
233.03225806451613,7.2102258064516125
234.03323558162268,7.7859149560117284
235.03421309872923,8.649272727272725
236.03519061583577,9.264838709677422
237.03616813294232,8.876837732160316
238.03714565004887,8.119717497556213
239.03812316715542,7.220134897360709
240.03910068426197,6.252737047898345
241.04007820136852,5.321770283479964
242.04105571847506,4.932448680351912
243.0420332355816,4.342691104594334
244.0430107526882,3.9522903225806374
245.04398826979474,3.501689149560104
246.0449657869013,2.7029853372433825
247.04594330400784,1.5194330400781824
248.04692082111438,0.322404692082111
249.04789833822093,0.32549266862171067
250.04887585532748,1.0422414467253205
251.04985337243403,1.2658856304985349
252.05083088954058,1.3545777126099698
253.05180840664713,1.2472355816226737
254.05278592375367,0.7749970674486772
255.05376344086022,0.44206451612903347
256.05474095796677,0.5972473118279586
257.0557184750733,0.7836539589442768
258.05669599217987,0.15104398826980264
259.0576735092864,1.6724076246334392
260.05865102639297,3.56032551319649
261.0596285434995,6.111259042033242
262.06060606060606,8.671575757575761
263.0615835777126,10.766994134897361
264.06256109481916,12.687244379276637
265.0635386119257,14.643281524926685
266.06451612903226,16.629258064516126
267.0654936461388,19.08343890518083
268.06647116324535,22.428553274682294
269.0674486803519,26.186002932551297
270.06842619745845,31.425471163245327
271.069403714565,37.2207839687194
272.07038123167155,45.04162463343102
273.0713587487781,54.53029227761478
274.07233626588464,64.81660508308885
275.0733137829912,76.92234604105559
276.07429130009774,89.314588465298
277.0752688172043,102.63579569892458
278.07624633431084,116.1923665689148
279.0772238514174,128.28285141739966
280.07820136852393,138.97792082111425
281.0791788856305,148.30439002932545
282.08015640273703,151.94536559139777
283.0811339198436,155.16234310850447
284.08211143695013,150.77388563049863
285.0830889540567,144.57411827957006
286.0840664711632,134.89140664711658
287.0850439882698,121.67397653958972
288.0860215053764,108.26238709677367
289.0869990224829,93.44551319648043
290.0879765395895,79.05972434017553
291.088954056696,66.30436461388035
292.0899315738026,54.24156500488723
293.0909090909091,43.15590909090878
294.09188660801567,33.18402248289317
295.0928641251222,24.204736070381085
296.09384164222877,19.12912316715528
297.0948191593353,14.078992179863034
298.09579667644186,9.903993157380148
299.0967741935484,5.978032258064438
300.09775171065496,3.0880928641250804
301.0987292277615,1.412772238514137
302.09970674486806,0.05458064516129968
303.1006842619746,0.4741612903225923
304.10166177908116,0.979193548387103
305.1026392961877,1.2751495601173077
306.10361681329425,1.5272023460410553
307.1045943304008,1.4616852394916837
308.10557184750735,1.0771730205278542
309.1065493646139,0.7610205278592288
310.10752688172045,0.27537634408601785
311.108504398827,0.16865395894429502
312.10948191593354,1.072818181818195
313.1104594330401,2.0321153470185886
314.11143695014664,3.255712609970693
315.1124144672532,4.739925708699917
316.11339198435974,5.9918475073313875
317.1143695014663,6.787885630498541
318.11534701857283,7.53183870967743
319.1163245356794,8.745889540566969
320.11730205278593,9.817897360703816
321.1182795698925,10.194451612903224
322.119257086999,9.86797653958944
323.1202346041056,9.483788856304985
324.1212121212121,9.581090909090909
325.1221896383187,9.436261974584555
326.1231671554252,8.868299120234603
327.12414467253177,8.096250244379275
328.1251221896383,7.367288367546433
329.12609970674487,6.688741935483871
330.1270772238514,6.326427174975562
331.12805474095796,6.657739980449657
332.1290322580645,6.874064516129035
333.13000977517106,6.054690127077229
334.1309872922776,5.110375366568918
335.13196480938416,4.660615835777127
336.1329423264907,4.520400782013688
337.13391984359725,4.087071358748786
338.1348973607038,3.069730205278602
339.13587487781035,2.103513196480944
340.1368523949169,1.5246471163245416
341.13782991202345,1.0275425219941379
342.13880742913,0.8020058651026403
343.13978494623655,0.7320322580645169
344.1407624633431,0.6768064516129039
345.14173998044964,0.6344643206256114
346.1427174975562,0.5439188660801635
347.14369501466274,0.17994428152492492
348.1446725317693,0.24324828934506673
349.14565004887584,0.13017986314760002
350.1466275659824,0.40340175953078594
351.14760508308893,0.6620518084066462
352.1485826001955,0.7215161290322545
353.14956011730203,1.068392961876802
354.1505376344086,2.4501935483870647
355.1515151515151,3.734848484848467
356.1524926686217,4.432041055718462
357.1534701857282,5.036405669599193
358.1544477028348,6.078331378299082
359.1554252199413,7.528542521994095
360.15640273704787,8.996632453567896
361.1573802541544,10.481283479960856
362.15835777126097,11.919152492668587
363.1593352883675,13.031230694037113
364.16031280547406,13.997103616813275
365.1612903225806,14.525967741935476
366.16226783968716,14.713
367.1632453567937,14.62941837732162
368.16422287390026,14.131697947214091
369.1652003910068,13.586376344086064
370.16617790811335,12.400790811339245
371.1671554252199,11.156307917888604
372.16813294232645,10.091017595307957
373.169110459433,9.044192570870038
374.17008797653955,7.779228739002994
375.1710654936461,6.291415444770345
376.1720430107527,4.899634408602136
377.17302052785925,3.8384252199413353
378.1739980449658,2.835199413489727
379.17497556207235,2.1281153470185656
380.1759530791789,1.4991495601172955
381.17693059628544,0.868179863147599
382.177908113392,0.321669599217985
383.17888563049854,0.2373870967741952
384.1798631476051,0.4494692082111452
385.18084066471164,0.6068739002932543
386.1818181818182,0.45254545454545364
387.18279569892474,0.2810215053763434
388.1837732160313,0.12219061583577666
389.18475073313783,0.04156011730205318
390.1857282502444,0.2019022482893453
391.18670576735093,0.37052785923753684
392.1876832844575,0.7293782991202344
393.188660801564,1.7719618768328436
394.1896383186706,2.8183098729227742
395.1906158357771,3.8714809384164193
396.1915933528837,4.970515151515147
397.1925708699902,6.289167155425213
398.19354838709677,7.8448387096774095
399.1945259042033,9.838750733137811
400.19550342130987,12.903923753665667
401.1964809384164,15.766120234604086
402.19745845552296,18.068511241446704
403.1984359726295,20.461197458455498
404.19941348973606,23.19589149560114
405.2003910068426,25.931787878787855
406.20136852394916,27.606028347996087
407.2023460410557,27.9003137829912
408.20332355816225,27.794006842619766
409.20430107526886,26.41739784946231
410.2052785923754,24.85810557184741
411.20625610948196,22.436402737047796
412.2072336265885,19.819679374388954
413.20821114369505,17.232897360703717
414.2091886608016,14.688834799608903
415.21016617790815,12.325803519061507
416.2111436950147,10.228630498533649
417.21212121212125,8.355515151515121
418.2130987292278,7.476242424242397
419.21407624633434,6.698354838709656
420.2150537634409,6.01895698924729
421.21603128054744,5.379963831867046
422.217008797654,5.098436950146631
423.21798631476054,5.214826001955038
424.2189638318671,5.351772238514177
425.21994134897363,5.3903313782991145
426.2209188660802,5.138702834799597
427.22189638318673,4.619021505376325
428.2228739002933,3.8881202346040893
429.2238514173998,3.2118563049853206
430.2248289345064,2.553686217008786
431.2258064516129,2.153064516129031
432.2267839687195,2.0754574780058612
433.227761485826,1.7655171065493502
434.22873900293257,1.028832844574764
435.2297165200391,0.3381652003910026
436.23069403714567,0.13262463343108288
437.2316715542522,0.11329325513197022
438.23264907135876,0.47094916911046675
439.2336265884653,0.9092365591397902
440.23460410557186,1.1496744868035174
441.2355816226784,1.0525865102639296
442.23655913978496,0.9734838709677381
443.2375366568915,0.6876304985337222
444.23851417399806,0.5501094819159339
445.2394916911046,0.8914105571847633
446.24046920821115,2.2443255131964936
447.2414467253177,3.75625024437929
448.24242424242425,5.4478787878788
449.2434017595308,7.270586510263941
450.24437927663735,9.22183773216032
451.2453567937439,10.81225610948192
452.24633431085044,11.72985923753666
453.247311827957,12.401526881720429
454.24828934506354,12.196875855327468
455.2492668621701,11.412674486803517
456.25024437927664,9.59464907135875
457.2512218963832,7.1912776148582624
458.25219941348973,5.028689149560121
459.2531769305963,3.1090537634408655
460.25415444770283,1.807869012707722
461.2551319648094,1.98890615835777
462.2561094819159,2.808174975562059
463.2570869990225,5.436702834799588
464.258064516129,9.322419354838669
465.2590420332356,15.589396871945192
466.2600195503421,24.14629423264898
467.26099706744867,35.53014369501451
468.2619745845552,51.02437243401743
469.26295210166177,68.1521114369499
470.2639296187683,89.66224046920794
471.26490713587486,111.39785141739951
472.2658846529814,133.5403030303027
473.26686217008796,154.2520527859235
474.2678396871945,169.00240664711615
475.26881720430106,178.29713978494613
476.2697947214076,181.14049853372444
477.27077223851416,175.46351124144684
478.2717497556207,166.79807429130048
479.27272727272725,148.13445454545493
480.2737047898338,128.83301955034258
481.27468230694035,107.90390811339248
482.2756598240469,86.74380058651072
483.27663734115345,68.38936656891535
484.27761485826,52.6188563049857
485.27859237536654,39.27308211143722
486.2795698924731,28.949817204301347
487.28054740957964,20.029209188660964
488.2815249266862,14.125381231671723
489.2825024437928,8.863866080156303
490.28347996089934,5.341549364613797
491.2844574780059,2.2293753665688403
492.28543499511244,0.8494535679374997
493.286412512219,3.0618084066471534
494.28739002932554,4.017049853372421
495.2883675464321,3.4197937438905033
496.28934506353863,2.328141739980405
497.2903225806452,0.9503870967742027
498.29130009775173,3.1802678396873203
499.2922776148583,9.885279569892603
500.2932551319648,18.02853665689168
501.2942326490714,29.27379276637362
502.2952101661779,43.15602737047925
503.2961876832845,61.99547214076281
504.297165200391,85.81237145650084
505.29814271749757,114.84961290322629
506.2991202346041,151.40093841642275
507.30009775171067,193.62650830889604
508.3010752688172,248.75077419354895
509.30205278592376,305.87688563049915
510.3030303030303,370.01896969697026
511.30400782013686,433.2616686217013
512.3049853372434,486.56937536656653
513.3059628543499,528.7668983382193
514.3069403714564,547.0693792766377
515.307917888563,536.8273196480945
516.3088954056695,509.671476050834
517.3098729227761,451.41332649071677
518.3108504398826,391.4372111436985
519.3118279569892,327.238709677423
520.3128054740957,265.67777908113703
521.3137829912023,212.83861583577996
522.3147605083088,166.3221173020552
523.3157380254154,128.49568719452776
524.3167155425219,98.65890909091078
525.3176930596285,73.92784946236671
526.318670576735,55.811798631477174
527.3196480938416,40.42433724340237
528.3206256109481,30.793588465298768
529.3216031280547,21.994898338221372
530.3225806451612,15.293129032258475
531.3235581622678,9.738998044966065
532.3245356793743,6.105871945259213
533.3255131964809,3.7148181818183263
534.3264907135874,1.7689824046921938
535.327468230694,0.718127077223845
536.3284457478005,0.8933137829911777
537.3294232649071,1.2518279569892194
538.3304007820136,1.5175992179863131
539.3313782991202,1.5565278592375313
540.3323558162267,1.444136852394953
541.3333333333333,0.9216666666667125
542.3343108504398,0.4110175953079427
543.3352883675464,0.46557184750726904
544.3362658846529,1.2787644183772566
545.3372434017595,2.176360703812235
546.338220918866,3.139046920821048
547.3391984359725,3.660203323558169
548.3401759530791,3.548809384164237
549.3411534701856,3.7584369501465487
550.3421309872922,4.722341153470103
551.3431085043987,5.529859237536618
552.3440860215054,5.866344086021508
553.345063538612,5.8413890518084
554.3460410557185,5.49221407624632
555.347018572825,4.894534701857264
556.3479960899316,4.269705767350917
557.3489736070381,3.8406451612903134
558.3499511241447,3.6375933528836786
559.3509286412512,3.8098719452590473
560.3519061583578,4.0621260997067505
561.3528836754643,4.346512218963838
562.3538611925709,4.522306940371456
563.3548387096774,4.3807096774193495
564.355816226784,4.023661779081126
565.3567937438905,3.591428152492662
566.3577712609971,3.2395571847507294
567.3587487781036,3.0915562072336273
568.3597262952102,3.0949345063538605
569.3607038123167,2.88678005865102
570.3616813294233,2.3960742913000916
571.3626588465298,2.0427233626588457
572.3636363636364,1.9710909090909088
573.3646138807429,1.8122805474095762
574.3655913978495,1.4106344086021465
575.366568914956,1.1292961876832848
576.3675464320626,1.3267468230694068
577.3685239491691,1.6811212121212131
578.3695014662757,1.6160498533724317
579.3704789833822,1.1720254154447685
580.3714565004888,0.7224731182795685
581.3724340175953,0.2818328445747791
582.3734115347019,0.021107526881720448
583.3743890518084,0.024630498533724336
584.375366568915,0.012618768328445752
585.3763440860215,0.005387096774193537
586.377321603128,0.013641251221896368
587.3782991202346,0.023674486803519017
588.3792766373411,0.04210263929618759
589.3802541544477,0.06498533724340166
590.3812316715542,0.10964222873900246
591.3822091886608,0.18851906158357726
592.3831867057673,0.259823069403714
593.3841642228739,0.3225923753665685
594.3851417399804,0.36979081133919806
595.386119257087,0.4092864125122186
596.3870967741935,0.4432258064516126
597.3880742913001,0.46837341153470163
598.3890518084066,0.48894819159335257
599.3900293255132,0.5147008797653955
600.3910068426197,0.54746725317693
601.3919843597263,0.58685532746823
602.3929618768328,0.6318621700879757
603.3939393939394,0.6511515151515156
604.3949169110459,0.47724340175953806
605.3958944281525,0.2074750733137843
606.396871945259,0.14437829912023575
607.3978494623656,0.08772043010752804
608.3988269794721,0.03326099706744981
609.3998044965787,0.02478885630498405
610.4007820136852,0.08264613880742774
611.4017595307918,0.14250733137829763
612.4027370478983,0.2043724340175937
613.4037145650049,0.2690488758553257
614.4046920821114,0.3377331378299101
615.405669599218,0.409613880742911
616.4066471163245,0.5111505376344044
617.4076246334312,0.8161173020528312
618.4086021505377,1.3599139784946692
619.4095796676443,1.5406471163245068
620.4105571847508,1.1816832844574479
621.4115347018574,0.9370733137829861
622.4125122189639,0.918563049853376
623.4134897360705,1.0963372434017882
624.414467253177,1.5397859237537086
625.4154447702836,2.098557184750777
626.4164222873901,2.66819354838714
627.4173998044967,3.1184545454545662
628.4183773216032,3.135823069403689
629.4193548387098,2.830419354838692
630.4203323558163,2.7382805474095884
631.4213098729228,2.861242424242433
632.4222873900294,2.9878973607038213
633.423264907136,3.17262561094821
634.4242424242425,3.3784242424242517
635.425219941349,3.5124046920821206
636.4261974584556,3.514136852394905
637.4271749755621,3.2748768328445537
638.4281524926687,2.8508064516128666
639.4291300097752,2.196136852394867
640.4301075268818,1.491354838709639
641.4310850439883,1.0123636363636168
642.4320625610949,0.7029247311827767
643.4330400782014,0.3950566959921612
644.434017595308,0.14765102639295175
645.4349951124145,0.07809970674487159
646.4359726295211,0.18393548387097736
647.4369501466276,0.16514076246332846
648.4379276637342,0.13310948191594799
649.4389051808407,0.20853079178884765
650.4398826979473,0.39592668621704297
651.4408602150538,0.7728924731182829
652.4418377321604,0.6726813294232489
653.4428152492669,0.4631466275659777
654.4437927663735,0.48489442815250094
655.44477028348,0.6474975562072418
656.4457478005866,0.8102111436950227
657.4467253176931,0.9750498533724422
658.4477028347997,1.1494819159335374
659.4486803519062,1.3729384164223002
660.4496578690128,1.3792101661778933
661.4506353861193,1.064556207233613
662.4516129032259,0.9421612903225851
663.4525904203324,1.0721300097751782
664.453567937439,1.1761534701857295
665.4545454545455,1.263363636363643
666.455522971652,1.420517106549371
667.4565004887586,1.5781270772238576
668.4574780058651,1.6397536656891474
669.4584555229717,1.4670449657868894
670.4594330400782,1.1513597262951984
671.4604105571848,0.8386539589442705
672.4613880742913,0.5378132942326388
673.4623655913979,0.2417526881720328
674.4633431085044,0.13335777126100085
675.464320625611,0.28965004887586204
676.4652981427175,0.670803519061602
677.4662756598241,0.8626334310850361
678.4672531769306,0.5708719452590322
679.4682306940372,0.5747370478983493
680.4692082111437,1.0680938416422459
681.4701857282503,1.4109266862170098
682.4711632453568,1.2947761485825926
683.4721407624634,1.083982404692079
684.4731182795699,1.052537634408604
685.4740957966765,1.0374271749755595
686.475073313783,0.7798944281524832
687.4760508308896,0.4091397849462296
688.4770283479961,0.25297165200391053
689.4780058651027,0.28746627565982497
690.4789833822092,0.4834760508308964
691.4799608993158,0.8912619745845637
692.4809384164223,0.9102492668621621
693.4819159335289,0.435861192570862
694.4828934506354,0.12839882697947042
695.483870967742,0.05067741935483809
696.4848484848485,0.02609090909090901
697.485826001955,0.052635386119257874
698.4868035190616,0.10298533724340223
699.4877810361681,0.31079569892473546
700.4887585532747,0.5822913000977533
701.4897360703812,0.6100469208211134
702.4907135874878,0.5786099706744872
703.4916911045943,0.7573411534701882
704.4926686217009,1.0205043988269809
705.4936461388074,1.0499530791788847
706.494623655914,0.9383870967741932
707.4956011730205,1.0640615835777139
708.4965786901271,1.3844291300097762
709.4975562072336,1.4479618768328442
710.4985337243402,1.248806451612903
711.4995112414467,1.2723743890518084
712.5004887585533,1.5881827956989245
713.5014662756598,1.709307917888563
714.5024437927664,1.5294428152492672
715.5034213098729,1.31430889540567
716.5043988269795,1.1443929618768334
717.505376344086,0.9779569892473128
718.5063538611926,0.7756656891495614
719.5073313782991,0.5654604105571862
720.5083088954057,0.353730205278594
721.5092864125122,0.21284066471163304
722.5102639296188,0.3076070381231648
723.5112414467253,0.5143098729227745
724.5122189638319,0.4787751710654961
725.5131964809384,0.2550439882697974
726.514173998045,0.11000782013685328
727.5151515151515,0.19242424242423928
728.516129032258,0.18329032258064853
729.5171065493646,0.12267644183773063
730.5180840664711,0.08451612903226079
731.5190615835777,0.11763636363635988
732.5200391006842,0.1528347996089956
733.5210166177908,0.12599217986314626
734.5219941348973,0.2920645161290272
735.5229716520039,0.5474037145649995
736.5239491691104,0.8020351906158303
737.524926686217,1.0521818181818126
738.5259042033235,1.427693059628532
739.5268817204301,2.059903225806433
740.5278592375366,2.650202346041045
741.5288367546432,2.7633958944281574
