Raman shift,Intensity
808.83954,2326.20205
808.83954,2331.62744
808.83954,2330.27109
808.83954,2327.5584
808.83954,2328.91475
810.39388,2330.27109
810.39388,2323.48935
810.39388,2322.13301
810.39388,2320.77666
810.39388,2319.42031
810.39388,2324.8457
811.94822,2318.06396
811.94822,2315.35127
811.94822,2313.99492
811.94822,2309.92588
811.94822,2316.70762
811.94822,2301.78779
813.50256,2303.14414
813.50256,2295.00605
813.50256,2296.3624
813.50256,2300.43144
813.50256,2308.56953
813.50256,2299.07509
813.50256,2311.28222
813.50256,2312.63857
813.50256,2297.71875
815.0569,2305.85683
815.0569,2304.50049
815.0569,2293.6497
815.0569,2307.21318
816.61123,2292.29336
816.61123,2289.58066
816.61123,2288.22431
816.61123,2290.93701
818.16557,2281.44257
818.16557,2286.86796
818.16557,2285.51162
818.16557,2284.15527
818.16557,2282.79892
819.71991,2284.15527
839.29551,2296.66161
864.79574,2297.71875
866.35008,2301.78779
866.35008,2297.71875
866.35008,2299.07509
867.90441,2305.85683
867.90441,2300.43144
867.90441,2308.56953
867.90441,2303.14414
867.90441,2304.50049
869.45875,2307.21318
869.45875,2315.35127
869.45875,2309.92588
869.45875,2311.28222
871.01309,2318.06396
871.01309,2313.99492
871.01309,2312.63857
871.01309,2316.70762
872.56743,2320.77666
872.56743,2319.42031
872.56743,2323.48935
872.56743,2324.8457
872.56743,2322.13301
874.12177,2326.20205
875.67611,2327.5584
877.23045,2328.91475
878.78479,2330.27109
880.33912,2331.62744
880.33912,2334.34014
880.33912,2332.98379
881.89346,2337.05283
881.89346,2335.69648
883.4478,2338.40918
885.00214,2342.47822
885.00214,2341.12187
885.00214,2339.76553
886.55648,2343.83457
888.11082,2345.19092
888.11082,2347.90361
888.11082,2346.54727
889.66516,2347.90361
891.2195,2349.25996
892.77384,2349.25996
892.77384,2350.61631
894.32817,2350.61631
895.88251,2351.97266
897.43685,2351.97266
898.99119,2351.97266
900.54553,2351.97266
902.09987,2351.97266
902.09987,2350.61631
903.65421,2350.61631
905.20855,2349.25996
906.76288,2349.25996
908.31722,2350.61631
909.87156,2350.61631
909.87156,2351.97266
911.4259,2351.97266
912.98024,2353.329
914.53458,2354.68535
916.08892,2356.0417
916.08892,2357.39805
917.64326,2357.39805
931.6323,2381.81231
933.18664,2381.81231
934.74098,2381.81231
936.29532,2381.81231
937.84966,2383.16866
939.404,2385.88135
939.404,2384.525
940.95834,2387.2377
942.51268,2388.59405
944.06701,2389.95039
944.06701,2392.66309
944.06701,2391.30674
945.62135,2394.01944
945.62135,2396.73213
945.62135,2395.37578
945.62135,2392.66309
947.17569,2398.08848
947.17569,2407.58291
947.17569,2403.51387
947.17569,2404.87022
947.17569,2406.22657
947.17569,2410.29561
948.73003,2400.80118
948.73003,2408.93926
948.73003,2411.65196
948.73003,2402.15752
948.73003,2399.44483
950.28437,2414.36465
950.28437,2417.07735
950.28437,2413.00831
950.28437,2415.721
951.83871,2419.79004
951.83871,2421.14639
951.83871,2418.4337
958.05606,2436.06622
958.05606,2434.70987
959.6104,2437.42257
961.16474,2438.77891
962.71908,2444.2043
962.71908,2438.77891
964.27342,2440.13526
964.27342,2441.49161
964.27342,2445.56065
965.82776,2441.49161
965.82776,2448.27335
965.82776,2444.2043
967.3821,2444.2043
967.3821,2442.84796
967.3821,2445.56065
967.3821,2455.05509
967.3821,2449.6297
967.3821,2445.56065
968.93644,2455.05509
968.93644,2448.27335
968.93644,2448.27335
968.93644,2446.917
970.49077,2457.76778
970.49077,2459.12413
970.49077,2459.12413
970.49077,2460.48048
970.49077,2448.27335
970.49077,2449.6297
970.49077,2450.98604
970.49077,2452.34239
970.49077,2461.83682
970.49077,2449.6297
972.04511,2456.41143
972.04511,2455.05509
972.04511,2465.90587
972.04511,2460.48048
972.04511,2453.69874
972.04511,2463.19317
972.04511,2453.69874
973.59945,2465.90587
973.59945,2467.26222
973.59945,2468.61856
973.59945,2465.90587
973.59945,2464.54952
973.59945,2459.12413
975.15379,2471.33126
975.15379,2469.97491
975.15379,2471.33126
975.15379,2461.83682
976.70813,2472.68761
976.70813,2471.33126
976.70813,2465.90587
978.26247,2475.4003
978.26247,2469.97491
978.26247,2471.33126
979.81681,2471.33126
979.81681,2476.75665
979.81681,2472.68761
981.37115,2472.68761
981.37115,2474.04395
981.37115,2474.04395
981.37115,2478.113
982.92548,2475.4003
982.92548,2478.113
982.92548,2475.4003
984.47982,2476.75665
984.47982,2476.75665
986.03416,2480.82569
986.03416,2475.4003
987.5885,2480.82569
989.14284,2479.46935
990.69718,2479.46935
990.69718,2474.04395
992.25152,2474.04395
993.80586,2471.33126
995.36019,2468.61856
996.91453,2472.68761
996.91453,2468.61856
998.46887,2465.90587
1000.02321,2467.26222
1001.57755,2469.97491
1001.57755,2476.75665
1003.13189,2472.68761
1003.13189,2479.46935
1004.68623,2480.82569
1004.68623,2474.04395
1006.24057,2475.4003
1006.24057,2483.53839
1007.79491,2479.46935
1007.79491,2490.32013
1007.79491,2486.25108
1009.34924,2486.25108
1010.90358,2495.74552
1010.90358,2484.89474
1012.45792,2502.52726
1012.45792,2490.32013
1014.01226,2498.45821
1014.01226,2507.95265
1015.5666,2506.5963
1015.5666,2498.45821
1015.5666,2513.37804
1017.12094,2516.09073
1017.12094,2505.23995
1017.12094,2512.02169
1018.67528,2507.95265
1018.67528,2516.09073
1020.22962,2509.309
1020.22962,2514.73439
1021.78395,2509.309
1021.78395,2514.73439
1023.33829,2513.37804
1023.33829,2507.95265
1024.89263,2512.02169
1024.89263,2506.5963
1026.44697,2505.23995
1026.44697,2510.66534
1028.00131,2502.52726
1028.00131,2509.309
1029.55565,2502.52726
1031.10999,2503.88361
1031.10999,2498.45821
1031.10999,2488.96378
1031.10999,2494.38917
1032.66433,2487.60743
1032.66433,2494.38917
1034.21866,2491.67648
1034.21866,2495.74552
1034.21866,2482.18204
1035.773,2487.60743
1035.773,2475.4003
1037.32734,2482.18204
1037.32734,2472.68761
1038.88168,2474.04395
1038.88168,2479.46935
1040.43602,2478.113
1040.43602,2472.68761
1041.99036,2472.68761
1041.99036,2478.113
1041.99036,2478.113
1043.5447,2475.4003
1043.5447,2478.113
1045.09904,2479.46935
1045.09904,2479.46935
1046.65337,2476.75665
1046.65337,2480.82569
1046.65337,2479.46935
1048.20771,2480.82569
1048.20771,2479.46935
1049.76205,2480.82569
1049.76205,2478.113
1049.76205,2480.82569
1051.31639,2480.82569
1051.31639,2478.113
1051.31639,2482.18204
1052.87073,2480.82569
1052.87073,2480.82569
1054.42507,2482.18204
1054.42507,2478.113
1054.42507,2482.18204
1055.97941,2482.18204
1055.97941,2482.18204
1055.97941,2478.113
1057.53375,2482.18204
1057.53375,2479.46935
1057.53375,2482.18204
1059.08808,2482.18204
1059.08808,2480.82569
1060.64242,2480.82569
1060.64242,2480.82569
1062.19676,2480.82569
1062.19676,2480.82569
1062.19676,2478.113
1062.19676,2476.75665
1062.19676,2475.4003
1062.19676,2479.46935
1062.19676,2476.75665
1063.7511,2475.4003
1063.7511,2475.4003
1063.7511,2479.46935
1065.30544,2475.4003
1065.30544,2478.113
1065.30544,2475.4003
1066.85978,2476.75665
1066.85978,2467.26222
1066.85978,2475.4003
1068.41412,2474.04395
1068.41412,2475.4003
1068.41412,2465.90587
1069.96846,2459.12413
1069.96846,2456.41143
1069.96846,2457.76778
1069.96846,2459.12413
1069.96846,2460.48048
1069.96846,2461.83682
1069.96846,2455.05509
1069.96846,2472.68761
1069.96846,2474.04395
1069.96846,2469.97491
1071.5228,2453.69874
1071.5228,2453.69874
1071.5228,2446.917
1071.5228,2463.19317
1071.5228,2464.54952
1071.5228,2465.90587
1071.5228,2467.26222
1071.5228,2468.61856
1071.5228,2469.97491
1071.5228,2471.33126
1071.5228,2472.68761
1071.5228,2452.34239
1071.5228,2465.90587
1073.07713,2450.98604
1073.07713,2449.6297
1073.07713,2448.27335
1073.07713,2446.917
1073.07713,2457.76778
1073.07713,2448.27335
1073.07713,2445.56065
1073.07713,2444.2043
1073.07713,2442.84796
1074.63147,2441.49161
1074.63147,2456.41143
1076.18581,2438.77891
1076.18581,2426.57178
1076.18581,2440.13526
1076.18581,2429.28448
1076.18581,2446.917
1076.18581,2427.92813
1076.18581,2431.99717
1077.74015,2430.64083
1077.74015,2437.42257
1077.74015,2425.21544
1077.74015,2436.06622
1077.74015,2434.70987
1077.74015,2433.35352
1079.29449,2422.50274
1079.29449,2423.85909
1080.84883,2421.14639
1080.84883,2422.50274
1082.40317,2419.79004
1083.95751,2418.4337
1083.95751,2419.79004
1085.51184,2417.07735
1087.06618,2417.07735
1087.06618,2415.721
1088.62052,2411.65196
1088.62052,2413.00831
1088.62052,2415.721
1088.62052,2410.29561
1088.62052,2414.36465
1090.17486,2404.87022
1090.17486,2408.93926
1090.17486,2407.58291
1090.17486,2406.22657
1091.7292,2402.15752
1091.7292,2403.51387
1091.7292,2400.80118
1093.28354,2399.44483
1094.83788,2395.37578
1094.83788,2398.08848
1094.83788,2396.73213
1096.39222,2395.37578
1102.60957,2396.73213
1102.60957,2392.66309
1104.16391,2394.01944
1104.16391,2398.08848
1105.71825,2399.44483
1105.71825,2395.37578
1107.27259,2394.01944
1107.27259,2400.80118
1108.82693,2389.95039
1108.82693,2400.80118
1110.38126,2388.59405
1110.38126,2398.08848
1111.9356,2394.01944
1111.9356,2385.88135
1113.48994,2384.525
1113.48994,2392.66309
1115.04428,2377.74326
1115.04428,2387.2377
1116.59862,2375.03057
1116.59862,2379.09961
1118.15296,2375.03057
1118.15296,2381.81231
1119.7073,2379.09961
1121.26164,2376.38692
1121.26164,2383.16866
1122.81598,2383.16866
1124.37031,2385.88135
1125.92465,2387.2377
1127.47899,2389.95039
1127.47899,2379.09961
1129.03333,2379.09961
1129.03333,2387.2377
1130.58767,2385.88135
1130.58767,2377.74326
1130.58767,2373.67422
1132.14201,2373.67422
1132.14201,2380.45596
1133.69635,2375.03057
1133.69635,2380.45596
1133.69635,2368.24883
1135.25069,2373.67422
1135.25069,2362.82344
1135.25069,2365.53613
1136.80502,2361.46709
1136.80502,2369.60518
1138.35936,2361.46709
1138.35936,2366.89248
1139.9137,2362.82344
1141.46804,2361.46709
1143.02238,2361.46709
1143.02238,2365.53613
1144.57672,2364.17979
1146.13106,2362.82344
1147.6854,2362.82344
1149.23973,2361.46709
1149.23973,2365.53613
1150.79407,2360.11074
1150.79407,2365.53613
1152.34841,2358.7544
1152.34841,2364.17979
1153.90275,2357.39805
1153.90275,2362.82344
1155.45709,2357.39805
1155.45709,2361.46709
1157.01143,2361.46709
1157.01143,2357.39805
1158.56577,2356.0417
1158.56577,2360.11074
1160.12011,2356.0417
1160.12011,2364.17979
1161.67444,2364.17979
1163.22878,2361.46709
1163.22878,2368.24883
1164.78312,2366.89248
1164.78312,2362.82344
1164.78312,2370.96153
1166.33746,2362.82344
1166.33746,2370.96153
1167.8918,2368.24883
1167.8918,2373.67422
1169.44614,2360.11074
1169.44614,2369.60518
1171.00048,2368.24883
1171.00048,2354.68535
1172.55482,2362.82344
1172.55482,2351.97266
1172.55482,2368.24883
1174.10915,2354.68535
1174.10915,2360.11074
1174.10915,2346.54727
1175.66349,2350.61631
1175.66349,2342.47822
1177.21783,2345.19092
1177.21783,2338.40918
1177.21783,2349.25996
1178.77217,2332.98379
1178.77217,2342.47822
1180.32651,2334.34014
1180.32651,2338.40918
1181.88085,2328.91475
1181.88085,2323.48935
1181.88085,2338.40918
1183.43519,2322.13301
1183.43519,2332.98379
1184.98953,2318.06396
1184.98953,2327.5584
1186.54387,2316.70762
1186.54387,2323.48935
1188.0982,2313.99492
1188.0982,2322.13301
1189.65254,2309.92588
1189.65254,2316.70762
1191.20688,2311.28222
1191.20688,2315.35127
1192.76122,2307.21318
1192.76122,2313.99492
1194.31556,2309.92588
1194.31556,2301.78779
1194.31556,2305.85683
1195.8699,2303.14414
1195.8699,2309.92588
1197.42424,2300.43144
1197.42424,2309.92588
1198.97858,2308.56953
1198.97858,2301.78779
1200.53291,2304.50049
1200.53291,2311.28222
1202.08725,2315.35127
1202.08725,2304.50049
1202.08725,2309.92588
1203.64159,2308.56953
1203.64159,2318.06396
1205.19593,2313.99492
1205.19593,2320.77666
1206.75027,2318.06396
1206.75027,2312.63857
1206.75027,2322.13301
1208.30461,2316.70762
1208.30461,2322.13301
1209.85895,2318.06396
1209.85895,2322.13301
1211.41329,2322.13301
1211.41329,2318.06396
1212.96762,2316.70762
1214.52196,2316.70762
1214.52196,2320.77666
1216.0763,2315.35127
1216.0763,2319.42031
1217.63064,2313.99492
1217.63064,2319.42031
1219.18498,2313.99492
1219.18498,2318.06396
1220.73932,2313.99492
1220.73932,2318.06396
1222.29366,2312.63857
1222.29366,2316.70762
1223.848,2311.28222
1223.848,2315.35127
1225.40233,2315.35127
1226.95667,2309.92588
1226.95667,2313.99492
1228.51101,2308.56953
1228.51101,2312.63857
1230.06535,2307.21318
1231.61969,2307.21318
1231.61969,2309.92588
1233.17403,2305.85683
1233.17403,2309.92588
1234.72837,2305.85683
1234.72837,2308.56953
1236.28271,2304.50049
1237.83705,2305.85683
1239.39138,2305.85683
1240.94572,2303.14414
1240.94572,2305.85683
1242.50006,2304.50049
1244.0544,2301.78779
1244.0544,2305.85683
1245.60874,2301.78779
1245.60874,2305.85683
1247.16308,2299.07509
1247.16308,2305.85683
1248.71742,2304.50049
1248.71742,2297.71875
1250.27176,2293.6497
1250.27176,2301.78779
1251.82609,2288.22431
1251.82609,2297.71875
1253.38043,2295.00605
1253.38043,2284.15527
1253.38043,2289.58066
1254.93477,2289.58066
1254.93477,2282.79892
1256.48911,2280.08623
1256.48911,2285.51162
1258.04345,2281.44257
1258.04345,2288.22431
1259.59779,2282.79892
1259.59779,2290.93701
1261.15213,2284.15527
1262.70647,2286.86796
1262.70647,2293.6497
1264.2608,2289.58066
1264.2608,2296.3624
1265.81514,2292.29336
1265.81514,2297.71875
1267.36948,2293.6497
1267.36948,2300.43144
1268.92382,2296.3624
1268.92382,2301.78779
1270.47816,2297.71875
1270.47816,2303.14414
1272.0325,2299.07509
1273.58684,2300.43144
1273.58684,2305.85683
1275.14118,2301.78779
1275.14118,2307.21318
1276.69551,2303.14414
1276.69551,2307.21318
1278.24985,2304.50049
1278.24985,2309.92588
1279.80419,2305.85683
1279.80419,2311.28222
1281.35853,2307.21318
1281.35853,2313.99492
1282.91287,2308.56953
1282.91287,2313.99492
1284.46721,2311.28222
1284.46721,2316.70762
1286.02155,2316.70762
1287.57589,2312.63857
1289.13022,2312.63857
1289.13022,2315.35127
1290.68456,2315.35127
1290.68456,2312.63857
1292.2389,2315.35127
1293.79324,2311.28222
1293.79324,2313.99492
1295.34758,2309.92588
1295.34758,2313.99492
1296.90192,2309.92588
1298.45626,2311.28222
1298.45626,2316.70762
1300.0106,2316.70762
1300.0106,2312.63857
1301.56494,2313.99492
1301.56494,2319.42031
1303.11927,2315.35127
1303.11927,2320.77666
1304.67361,2316.70762
1304.67361,2322.13301
1306.22795,2318.06396
1306.22795,2322.13301
1307.78229,2318.06396
1307.78229,2322.13301
1309.33663,2318.06396
1309.33663,2322.13301
1310.89097,2316.70762
1310.89097,2320.77666
1312.44531,2316.70762
1313.99965,2319.42031
1313.99965,2316.70762
1315.55398,2316.70762
1315.55398,2319.42031
1317.10832,2316.70762
1317.10832,2319.42031
1318.66266,2320.77666
1318.66266,2316.70762
1320.217,2318.06396
1321.77134,2322.13301
1321.77134,2318.06396
1323.32568,2322.13301
1323.32568,2318.06396
1324.88002,2318.06396
1324.88002,2322.13301
1326.43436,2322.13301
1327.98869,2322.13301
1329.54303,2318.06396
1329.54303,2322.13301
1331.09737,2319.42031
1331.09737,2322.13301
1332.65171,2318.06396
1332.65171,2322.13301
1334.20605,2322.13301
1334.20605,2318.06396
1335.76039,2320.77666
1337.31473,2315.35127
1337.31473,2320.77666
1338.86907,2313.99492
1338.86907,2319.42031
1340.4234,2312.63857
1340.4234,2318.06396
1341.97774,2311.28222
1341.97774,2315.35127
1343.53208,2308.56953
1343.53208,2313.99492
1345.08642,2308.56953
1345.08642,2312.63857
1346.64076,2308.56953
1348.1951,2307.21318
1348.1951,2309.92588
1349.74944,2307.21318
1349.74944,2309.92588
1351.30378,2307.21318
1351.30378,2309.92588
1352.85812,2309.92588
1352.85812,2307.21318
1354.41245,2308.56953
1355.96679,2308.56953
1357.52113,2308.56953
1357.52113,2313.99492
1359.07547,2309.92588
1360.62981,2311.28222
1360.62981,2316.70762
1362.18415,2312.63857
1362.18415,2318.06396
1363.73849,2319.42031
1363.73849,2313.99492
1365.29283,2313.99492
1365.29283,2320.77666
1366.84716,2320.77666
1368.4015,2324.8457
1368.4015,2318.06396
1369.95584,2319.42031
1369.95584,2323.48935
1371.51018,2323.48935
1371.51018,2327.5584
1373.06452,2323.48935
1373.06452,2330.27109
1374.61886,2324.8457
1374.61886,2331.62744
1376.1732,2327.5584
1376.1732,2332.98379
1377.72754,2335.69648
1377.72754,2328.91475
1379.28187,2331.62744
1379.28187,2337.05283
1380.83621,2332.98379
1380.83621,2339.76553
1382.39055,2342.47822
1382.39055,2335.69648
1383.94489,2338.40918
1383.94489,2342.47822
1385.49923,2338.40918
1385.49923,2343.83457
1387.05357,2343.83457
1387.05357,2339.76553
1388.60791,2341.12187
1388.60791,2345.19092
1390.16225,2342.47822
1390.16225,2346.54727
1391.71658,2347.90361
1393.27092,2346.54727
1394.82526,2346.54727
1396.3796,2343.83457
1396.3796,2347.90361
1397.93394,2343.83457
1397.93394,2346.54727
1399.48828,2342.47822
1399.48828,2346.54727
1401.04262,2339.76553
1401.04262,2345.19092
1402.59696,2339.76553
1402.59696,2343.83457
1404.15129,2342.47822
1404.15129,2339.76553
1405.70563,2337.05283
1405.70563,2342.47822
1407.25997,2335.69648
1407.25997,2341.12187
1408.81431,2337.05283
1410.36865,2332.98379
1410.36865,2338.40918
1411.92299,2332.98379
1411.92299,2337.05283
1413.47733,2330.27109
1413.47733,2335.69648
1415.03167,2328.91475
1415.03167,2334.34014
1416.58601,2324.8457
1416.58601,2332.98379
1418.14034,2330.27109
1418.14034,2320.77666
1418.14034,2324.8457
1419.69468,2323.48935
1419.69468,2318.06396
1419.69468,2327.5584
1421.24902,2315.35127
1421.24902,2323.48935
1422.80336,2312.63857
1422.80336,2319.42031
1424.3577,2311.28222
1424.3577,2318.06396
1425.91204,2309.92588
1425.91204,2315.35127
1427.46638,2308.56953
1427.46638,2312.63857
1429.02072,2307.21318
1429.02072,2311.28222
1430.57505,2307.21318
1430.57505,2311.28222
1432.12939,2307.21318
1433.68373,2304.50049
1433.68373,2308.56953
1435.23807,2303.14414
1436.79241,2301.78779
1436.79241,2305.85683
1438.34675,2301.78779
1438.34675,2305.85683
1439.90109,2301.78779
1439.90109,2305.85683
1441.45543,2303.14414
1441.45543,2300.43144
1443.00976,2303.14414
1443.00976,2300.43144
1443.00976,2308.56953
1444.5641,2309.92588
1444.5641,2300.43144
1444.5641,2303.14414
1446.11844,2308.56953
1446.11844,2301.78779
1446.11844,2315.35127
1447.67278,2319.42031
1447.67278,2309.92588
1449.22712,2319.42031
1449.22712,2324.8457
1450.78146,2316.70762
1450.78146,2328.91475
1452.3358,2330.27109
1452.3358,2322.13301
1452.3358,2326.20205
1453.89014,2323.48935
1453.89014,2326.20205
1455.44447,2327.5584
1455.44447,2331.62744
1456.99881,2328.91475
1458.55315,2328.91475
1460.10749,2327.5584
1461.66183,2328.91475
1463.21617,2328.91475
1463.21617,2334.34014
1464.77051,2335.69648
1464.77051,2328.91475
1466.32485,2331.62744
1466.32485,2338.40918
1467.87919,2334.34014
1467.87919,2338.40918
1469.43352,2335.69648
1469.43352,2342.47822
1470.98786,2339.76553
1470.98786,2345.19092
1472.5422,2338.40918
1472.5422,2345.19092
1474.09654,2337.05283
1474.09654,2343.83457
1516.06369,2354.68535
1516.06369,2356.0417
1517.25705,2382.06633
1517.61803,2353.329
1517.61803,2351.97266
1519.17236,2351.97266
1520.7267,2351.97266
1520.7267,2343.83457
1520.7267,2345.19092
1522.28104,2350.61631
1522.28104,2346.54727
1522.28104,2351.97266
1523.83538,2346.54727
1523.83538,2349.25996
1523.83538,2347.90361
1528.59075,2387.46031
1562.59186,2407.23825
1574.9559,2401.84427
1615.54137,2422.50274
1617.09571,2421.14639
1618.65005,2419.79004
1618.65005,2417.07735
1618.65005,2421.14639
1618.65005,2418.4337
1620.20439,2415.721
1621.75872,2415.721
1623.31306,2414.36465
1624.8674,2413.00831
1624.8674,2408.93926
1624.8674,2410.29561
1624.8674,2411.65196
1626.42174,2408.93926
1627.97608,2408.93926
1629.53042,2408.93926
1631.08476,2408.93926
1632.6391,2408.93926
1634.19343,2408.93926
1635.74777,2407.58291
1637.30211,2408.93926
1638.85645,2408.93926
1640.41079,2407.58291
1641.96513,2407.58291
1643.51947,2406.22657
1645.07381,2404.87022
1646.62815,2404.87022
1648.18248,2403.51387
1649.73682,2402.15752
1649.73682,2400.80118
1649.73682,2399.44483
1649.73682,2398.08848
1651.29116,2396.73213
1651.29116,2395.37578
1651.29116,2392.66309
1652.8455,2394.01944
1652.8455,2392.66309
1654.39984,2392.66309
1654.39984,2391.30674
1654.39984,2389.95039
1654.39984,2388.59405
1655.95418,2388.59405
1655.95418,2387.2377
1655.95418,2385.88135
1657.50852,2385.88135
1657.50852,2384.525
1659.06286,2384.525
1659.06286,2383.16866
1659.06286,2381.81231
1659.06286,2380.45596
1659.06286,2379.09961
1660.61719,2379.09961
1662.17153,2379.09961
1662.17153,2377.74326
1663.72587,2377.74326
1665.28021,2377.74326
1666.83455,2379.09961
1668.38889,2379.09961
1669.94323,2380.45596
1671.49757,2379.09961
1673.0519,2380.45596
1674.60624,2380.45596
1676.16058,2380.45596
1677.71492,2379.09961
1679.26926,2379.09961
1680.8236,2379.09961
1682.37794,2379.09961
1683.93228,2379.09961
1685.48661,2377.74326
1685.48661,2376.38692
1687.04095,2376.38692
1688.59529,2373.67422
1688.59529,2375.03057
1690.14963,2372.31787
1691.70397,2370.96153
1691.70397,2369.60518
1691.70397,2368.24883
1693.25831,2368.24883
1693.25831,2366.89248
1693.25831,2365.53613
1694.81265,2365.53613
1696.36699,2365.53613
1697.92133,2365.53613
1699.47566,2365.53613
1701.03,2365.53613
1702.58434,2365.53613
1704.13868,2365.53613
1705.69302,2365.53613
1707.24736,2364.17979
1708.8017,2362.82344
1710.35604,2362.82344
1711.91037,2362.82344
1713.46471,2361.46709
1715.01905,2361.46709
1716.57339,2361.46709
1718.12773,2361.46709
1719.68207,2362.82344
1721.23641,2362.82344
1722.79075,2362.82344
1724.34508,2362.82344
1725.89942,2361.46709
1727.45376,2360.11074
1729.0081,2358.7544
1729.0081,2357.39805
1730.56244,2357.39805
1730.56244,2356.0417
1732.11678,2356.0417
1733.67112,2354.68535
1733.67112,2353.329
1735.22546,2353.329
1736.77979,2353.329
1738.33413,2353.329
1739.88847,2353.329
1741.44281,2351.97266
1742.99715,2350.61631
1744.55149,2349.25996
1744.55149,2347.90361
1744.55149,2346.54727
1746.10583,2346.54727
1746.10583,2345.19092
1746.10583,2343.83457
1747.66017,2342.47822
1747.66017,2331.62744
1747.66017,2332.98379
1747.66017,2334.34014
1747.66017,2335.69648
1747.66017,2330.27109
1749.2145,2338.40918
1749.2145,2327.5584
1749.2145,2341.12187
1749.2145,2337.05283
1749.2145,2328.91475
1749.2145,2326.20205
1750.76884,2339.76553
1750.76884,2324.8457
1752.32318,2323.48935
1753.87752,2323.48935
1753.87752,2322.13301
1755.43186,2320.77666
1756.9862,2319.42031
1758.54054,2318.06396
1760.09488,2316.70762
1775.63826,2326.20205
1775.63826,2322.13301
1777.1926,2326.20205
1777.1926,2322.13301
1778.74694,2326.20205
1780.30128,2326.20205
1781.85562,2324.8457
1781.85562,2319.42031
1783.40996,2322.13301
1783.40996,2315.35127
1784.9643,2320.77666
1784.9643,2313.99492
1786.51864,2319.42031
1786.51864,2311.28222
1788.07297,2312.63857
1789.62731,2313.99492
1789.62731,2308.56953
1791.18165,2308.56953
1792.73599,2312.63857
1792.73599,2308.56953
1794.29033,2312.63857
1794.29033,2308.56953
1795.84467,2312.63857
1795.84467,2309.92588
1797.39901,2312.63857
1797.39901,2309.92588
1798.95335,2312.63857
1798.95335,2308.56953
1800.50768,2309.92588
1802.06202,2311.28222
1803.61636,2312.63857
1803.61636,2308.56953
1805.1707,2311.28222
1805.1707,2305.85683
1806.72504,2309.92588
1806.72504,2305.85683
1808.27938,2309.92588
1808.27938,2304.50049
1809.83372,2308.56953
1809.83372,2301.78779
1811.38806,2305.85683
1811.38806,2299.07509
1812.9424,2303.14414
1812.9424,2297.71875
1812.9424,2295.00605
1814.49673,2300.43144
1814.49673,2292.29336
1816.05107,2297.71875
1816.05107,2290.93701
1817.60541,2296.3624
1817.60541,2292.29336
1819.15975,2295.00605
1819.15975,2289.58066
1820.71409,2295.00605
1820.71409,2290.93701
1822.26843,2295.00605
1822.26843,2290.93701
1823.82277,2292.29336
1825.37711,2297.71875
1825.37711,2292.29336
1826.93144,2300.43144
1826.93144,2295.00605
1828.48578,2304.50049
1828.48578,2295.00605
1830.04012,2303.14414
1830.04012,2296.3624
1831.59446,2307.21318
1831.59446,2300.43144
1833.1488,2308.56953
1834.70314,2316.70762
1834.70314,2307.21318
1836.25748,2318.06396
1836.25748,2309.92588
1837.81182,2318.06396
1837.81182,2313.99492
1839.36615,2318.06396
1839.36615,2312.63857
1840.92049,2316.70762
1840.92049,2312.63857
1842.47483,2316.70762
1842.47483,2312.63857
1844.02917,2315.35127
1844.02917,2309.92588
1845.58351,2313.99492
1845.58351,2308.56953
1847.13785,2313.99492
1847.13785,2307.21318
1848.69219,2311.28222
1848.69219,2303.14414
1850.24653,2309.92588
1850.24653,2301.78779
1851.80086,2304.50049
1851.80086,2297.71875
1853.3552,2301.78779
1853.3552,2299.07509
1853.3552,2295.00605
1854.90954,2303.14414
1854.90954,2300.43144
1854.90954,2296.3624
1856.46388,2301.78779
1856.46388,2295.00605
1858.01822,2301.78779
1858.01822,2296.3624
1859.57256,2300.43144
1859.57256,2297.71875
1861.1269,2304.50049
1861.1269,2299.07509
1862.68124,2305.85683
1862.68124,2300.43144
1864.23557,2305.85683
1865.78991,2305.85683
1865.78991,2301.78779
1867.34425,2304.50049
1868.89859,2305.85683
1870.45293,2305.85683
1872.00727,2307.21318
1872.00727,2304.50049
1873.56161,2307.21318
1873.56161,2304.50049
1875.11595,2307.21318
1875.11595,2304.50049
1876.67029,2304.50049
1878.22462,2304.50049
1878.22462,2300.43144
1879.77896,2303.14414
1881.3333,2301.78779
1882.88764,2303.14414
1882.88764,2299.07509
1884.44198,2301.78779
1884.44198,2299.07509
1885.99632,2301.78779
1885.99632,2299.07509
1887.55066,2301.78779
1887.55066,2299.07509
1889.105,2301.78779
1889.105,2299.07509
1890.65933,2300.43144
1892.21367,2303.14414
1892.21367,2300.43144
1893.76801,2300.43144
1895.32235,2307.21318
1895.32235,2301.78779
1896.87669,2308.56953
1896.87669,2301.78779
1898.43103,2309.92588
1898.43103,2304.50049
1899.98537,2312.63857
1899.98537,2308.56953
1901.53971,2315.35127
1901.53971,2308.56953
1903.09404,2315.35127
1903.09404,2311.28222
1904.64838,2316.70762
1904.64838,2312.63857
1906.20272,2318.06396
1906.20272,2312.63857
1907.75706,2318.06396
1907.75706,2313.99492
1909.3114,2319.42031
1909.3114,2313.99492
1910.86574,2320.77666
1910.86574,2316.70762
1912.42008,2320.77666
1912.42008,2316.70762
1913.97442,2319.42031
1913.97442,2316.70762
1915.52875,2319.42031
1915.52875,2316.70762
1917.08309,2319.42031
1917.08309,2316.70762
1918.63743,2319.42031
1918.63743,2316.70762
1920.19177,2319.42031
1920.19177,2316.70762
1921.74611,2316.70762
1923.30045,2318.06396
1923.30045,2313.99492
1924.85479,2318.06396
1924.85479,2313.99492
1926.40913,2315.35127
1927.96346,2316.70762
1927.96346,2312.63857
1929.5178,2316.70762
1929.5178,2312.63857
1931.07214,2315.35127
1931.07214,2311.28222
1932.62648,2313.99492
1932.62648,2309.92588
1934.18082,2313.99492
1934.18082,2308.56953
1935.73516,2312.63857
1935.73516,2308.56953
1937.2895,2311.28222
1937.2895,2307.21318
1938.84384,2309.92588
1938.84384,2305.85683
1940.39818,2309.92588
1940.39818,2305.85683
1941.95251,2308.56953
1941.95251,2305.85683
1943.50685,2308.56953
1943.50685,2304.50049
1945.06119,2304.50049
1946.61553,2305.85683
1948.16987,2305.85683
1948.16987,2303.14414
1949.72421,2305.85683
1949.72421,2303.14414
1951.27855,2305.85683
1951.27855,2303.14414
1952.83289,2305.85683
1952.83289,2301.78779
1954.38722,2305.85683
1954.38722,2303.14414
1955.94156,2305.85683
1955.94156,2303.14414
1957.4959,2303.14414
1959.05024,2305.85683
1960.60458,2304.50049
1962.15892,2305.85683
1962.15892,2303.14414
1963.71326,2305.85683
1963.71326,2303.14414
1965.2676,2305.85683
1965.2676,2303.14414
1966.82193,2303.14414
1966.82193,2300.43144
1968.37627,2304.50049
1968.37627,2300.43144
1969.93061,2304.50049
1969.93061,2299.07509
1971.48495,2303.14414
1971.48495,2297.71875
1973.03929,2301.78779
1973.03929,2296.3624
1974.59363,2299.07509
1974.59363,2295.00605
1976.14797,2297.71875
1976.14797,2293.6497
1977.70231,2297.71875
1977.70231,2290.93701
1979.25664,2296.3624
1979.25664,2292.29336
1979.25664,2288.22431
1980.81098,2295.00605
1980.81098,2290.93701
1980.81098,2286.86796
1982.36532,2286.86796
1983.91966,2289.58066
1983.91966,2282.79892
1985.474,2285.51162
1985.474,2281.44257
1985.474,2278.72988
1987.02834,2285.51162
1987.02834,2281.44257
1987.02834,2278.72988
1988.58268,2284.15527
1988.58268,2278.72988
1990.13702,2278.72988
1991.69136,2286.86796
1991.69136,2281.44257
1993.24569,2288.22431
1993.24569,2282.79892
1994.80003,2290.93701
1994.80003,2285.51162
1996.35437,2293.6497
1996.35437,2290.93701
1996.35437,2286.86796
1997.90871,2295.00605
1997.90871,2288.22431
1999.46305,2297.71875
1999.46305,2290.93701
2001.01739,2301.78779
2001.01739,2293.6497
2002.57173,2304.50049
2002.57173,2297.71875
2004.12607,2305.85683
2004.12607,2297.71875
2005.6804,2308.56953
2005.6804,2301.78779
2007.23474,2312.63857
2007.23474,2304.50049
2008.78908,2311.28222
2008.78908,2305.85683
2010.34342,2313.99492
2010.34342,2308.56953
2011.89776,2315.35127
2011.89776,2309.92588
2013.4521,2316.70762
2013.4521,2311.28222
2015.00644,2318.06396
2015.00644,2312.63857
2016.56078,2318.06396
2018.11511,2319.42031
2018.11511,2315.35127
2019.66945,2319.42031
2019.66945,2316.70762
2021.22379,2319.42031
2021.22379,2316.70762
2022.77813,2320.77666
2022.77813,2316.70762
2024.33247,2320.77666
2024.33247,2316.70762
2025.88681,2319.42031
2027.44115,2319.42031
2027.44115,2313.99492
2028.99549,2319.42031
2028.99549,2313.99492
2030.54982,2318.06396
2030.54982,2312.63857
2032.10416,2316.70762
2032.10416,2311.28222
2033.6585,2313.99492
2033.6585,2311.28222
2035.21284,2313.99492
2035.21284,2311.28222
2036.76718,2311.28222
2038.32152,2309.92588
2039.87586,2312.63857
2041.4302,2308.56953
2041.4302,2312.63857
2042.98453,2312.63857
2042.98453,2307.21318
2044.53887,2311.28222
2044.53887,2305.85683
2046.09321,2311.28222
2046.09321,2303.14414
2047.64755,2308.56953
2047.64755,2301.78779
2049.20189,2304.50049
2049.20189,2299.07509
2050.75623,2304.50049
2050.75623,2299.07509
2052.31057,2301.78779
2052.31057,2297.71875
2053.86491,2299.07509
2053.86491,2295.00605
2055.41925,2299.07509
2056.97358,2300.43144
2056.97358,2296.3624
2058.52792,2300.43144
2058.52792,2296.3624
2060.08226,2300.43144
2060.08226,2296.3624
2061.6366,2301.78779
2061.6366,2297.71875
2063.19094,2301.78779
2063.19094,2299.07509
2064.74528,2303.14414
2064.74528,2299.07509
2066.29962,2303.14414
2066.29962,2300.43144
2067.85396,2304.50049
2067.85396,2300.43144
2069.40829,2304.50049
2069.40829,2300.43144
2070.96263,2305.85683
2072.51697,2304.50049
2072.51697,2297.71875
2074.07131,2303.14414
2074.07131,2295.00605
2075.62565,2299.07509
2075.62565,2288.22431
2077.17999,2297.71875
2077.17999,2290.93701
2077.17999,2286.86796
2078.73433,2284.15527
2078.73433,2293.6497
2078.73433,2286.86796
2080.28867,2289.58066
2080.28867,2284.15527
2081.843,2288.22431
2081.843,2284.15527
2083.39734,2288.22431
2083.39734,2284.15527
2084.95168,2288.22431
2084.95168,2284.15527
2086.50602,2285.51162
2088.06036,2290.93701
2088.06036,2286.86796
2089.6147,2293.6497
2089.6147,2288.22431
2091.16904,2295.00605
2091.16904,2289.58066
2092.72338,2295.00605
2092.72338,2290.93701
2094.27771,2299.07509
2094.27771,2292.29336
2095.83205,2293.6497
2095.83205,2299.07509
2097.38639,2296.3624
2097.38639,2301.78779
2098.94073,2304.50049
2098.94073,2297.71875
2100.49507,2303.14414
2100.49507,2307.21318
2100.49507,2299.07509
2102.04941,2304.50049
2102.04941,2300.43144
2103.60375,2308.56953
2103.60375,2303.14414
2105.15809,2312.63857
2105.15809,2309.92588
2105.15809,2305.85683
2106.71243,2313.99492
2108.26676,2308.56953
2108.26676,2313.99492
2109.8211,2309.92588
2109.8211,2313.99492
2111.37544,2313.99492
2111.37544,2311.28222
2112.92978,2313.99492
2112.92978,2311.28222
2114.48412,2313.99492
2114.48412,2311.28222
2116.03846,2309.92588
2116.03846,2312.63857
2117.5928,2309.92588
2119.14714,2311.28222
2119.14714,2313.99492
2120.70147,2315.35127
2120.70147,2309.92588
2122.25581,2316.70762
2123.81015,2312.63857
2123.81015,2318.06396
2125.36449,2312.63857
2125.36449,2318.06396
2126.91883,2311.28222
2126.91883,2318.06396
2128.47317,2309.92588
2128.47317,2319.42031
2128.47317,2313.99492
2130.02751,2309.92588
2130.02751,2305.85683
2130.02751,2315.35127
2131.58185,2311.28222
2131.58185,2303.14414
2133.13618,2311.28222
2133.13618,2301.78779
2134.69052,2307.21318
2134.69052,2303.14414
2134.69052,2297.71875
2136.24486,2301.78779
2136.24486,2296.3624
2137.7992,2301.78779
2137.7992,2296.3624
2139.35354,2296.3624
2140.90788,2296.3624
2142.46222,2296.3624
2144.01656,2296.3624
2144.01656,2293.6497
2145.57089,2303.14414
2145.57089,2300.43144
2145.57089,2293.6497
2147.12523,2295.00605
2147.12523,2305.85683
2147.12523,2300.43144
2148.67957,2299.07509
2148.67957,2311.28222
2150.23391,2305.85683
2151.78825,2312.63857
2151.78825,2309.92588
2151.78825,2304.50049
2151.78825,2319.42031
2153.34259,2312.63857
2153.34259,2323.48935
2154.89693,2318.06396
2154.89693,2328.91475
2156.45127,2330.27109
2156.45127,2323.48935
2158.0056,2332.98379
2158.0056,2324.8457
2159.55994,2330.27109
2159.55994,2339.76553
2161.11428,2337.05283
2162.66862,2341.12187
2162.66862,2331.62744
2164.22296,2332.98379
2164.22296,2342.47822
2165.7773,2341.12187
2167.33164,2335.69648
2167.33164,2328.91475
2167.33164,2339.76553
2168.88598,2322.13301
2168.88598,2331.62744
2170.44032,2327.5584
2170.44032,2319.42031
2171.99465,2322.13301
2171.99465,2315.35127
2171.99465,2327.5584
2173.54899,2318.06396
2175.10333,2312.63857
2175.10333,2308.56953
2175.10333,2316.70762
2176.65767,2308.56953
2176.65767,2315.35127
2178.21201,2305.85683
2178.21201,2312.63857
2179.76635,2301.78779
2179.76635,2309.92588
2181.32069,2303.14414
2181.32069,2308.56953
2182.87503,2300.43144
2182.87503,2304.50049
2184.42936,2300.43144
2185.9837,2300.43144
2185.9837,2305.85683
2187.53804,2303.14414
2187.53804,2305.85683
2189.09238,2303.14414
2189.09238,2307.21318
2190.64672,2304.50049
2190.64672,2308.56953
2192.20106,2304.50049
2192.20106,2308.56953
2193.7554,2304.50049
2193.7554,2309.92588
2195.30974,2307.21318
2196.86407,2313.99492
2196.86407,2308.56953
2198.41841,2312.63857
2198.41841,2316.70762
2199.97275,2316.70762
2199.97275,2311.28222
2201.52709,2312.63857
2201.52709,2315.35127
2203.08143,2312.63857
2203.08143,2316.70762
2204.63577,2311.28222
2204.63577,2315.35127
2206.19011,2309.92588
2206.19011,2313.99492
2207.74445,2308.56953
2207.74445,2312.63857
2209.29878,2308.56953
2209.29878,2312.63857
2210.85312,2308.56953
2210.85312,2312.63857
2212.40746,2308.56953
2213.9618,2313.99492
2213.9618,2309.92588
2215.51614,2313.99492
2217.07048,2311.28222
2217.07048,2315.35127
2218.62482,2311.28222
2218.62482,2316.70762
2220.17916,2312.63857
2220.17916,2318.06396
2221.7335,2313.99492
2221.7335,2319.42031
2223.28783,2316.70762
2223.28783,2320.77666
2224.84217,2316.70762
2224.84217,2322.13301
2226.39651,2316.70762
2226.39651,2323.48935
2227.95085,2324.8457
2227.95085,2318.06396
2229.50519,2323.48935
2229.50519,2316.70762
2231.05953,2318.06396
2232.61387,2319.42031
2232.61387,2311.28222
2234.16821,2316.70762
2234.16821,2312.63857
2234.16821,2308.56953
2235.72254,2313.99492
2235.72254,2307.21318
2237.27688,2312.63857
2237.27688,2303.14414
2238.83122,2308.56953
2238.83122,2303.14414
2238.83122,2297.71875
2240.38556,2307.21318
2240.38556,2303.14414
2240.38556,2295.00605
2241.9399,2295.00605
2243.49424,2296.3624
2243.49424,2282.79892
2245.04858,2289.58066
2245.04858,2281.44257
2270.43317,2302.05559
2298.25226,2321.83352
2321.95,2362.28839
2338.43539,2376.67235
2344.61741,2352.39943
2355.95111,2327.22751
2355.95111,2347.00544
2378.72171,2290.93701
2378.72171,2297.71875
2380.27605,2296.3624
2380.27605,2290.93701
2381.83039,2295.00605
2381.83039,2289.58066
2383.38473,2290.93701
2383.38473,2286.86796
2383.38473,2293.6497
2384.93907,2285.51162
2384.93907,2292.29336
2386.49341,2289.58066
2386.49341,2284.15527
2388.04774,2284.15527
2389.60208,2280.08623
2389.60208,2285.51162
2391.15642,2280.08623
2391.15642,2286.86796
2392.71076,2285.51162
2392.71076,2278.72988
2394.2651,2281.44257
2395.81944,2282.79892
2395.81944,2289.58066
2397.37378,2296.3624
2397.37378,2286.86796
2398.92812,2297.71875
2400.48246,2300.43144
2400.48246,2292.29336
2402.03679,2296.3624
2402.03679,2303.14414
2403.59113,2303.14414
2405.14547,2300.43144
2405.14547,2305.85683
2406.69981,2305.85683
2406.69981,2301.78779
2408.25415,2308.56953
2408.25415,2304.50049
2409.80849,2303.14414
2409.80849,2309.92588
2411.36283,2309.92588
2411.36283,2303.14414
2412.91717,2307.21318
2414.4715,2307.21318
2414.4715,2301.78779
2416.02584,2305.85683
2416.02584,2301.78779
2417.58018,2299.07509
2417.58018,2304.50049
2419.13452,2297.71875
2419.13452,2303.14414
2420.68886,2295.00605
2420.68886,2301.78779
2422.2432,2300.43144
2422.2432,2292.29336
2423.79754,2297.71875
2423.79754,2290.93701
2425.35188,2289.58066
2425.35188,2296.3624
2426.90621,2290.93701
2426.90621,2288.22431
2428.46055,2286.86796
2428.46055,2292.29336
2430.01489,2286.86796
2430.01489,2292.29336
2431.56923,2290.93701
2431.56923,2286.86796
2433.12357,2293.6497
2433.12357,2289.58066
2434.67791,2295.00605
2434.67791,2290.93701
2436.23225,2296.3624
2436.23225,2292.29336
2437.78659,2296.3624
2437.78659,2292.29336
2439.34092,2292.29336
2439.34092,2296.3624
2440.89526,2296.3624
2440.89526,2292.29336
2442.4496,2295.00605
2444.00394,2293.6497
2444.00394,2288.22431
2445.55828,2290.93701
2445.55828,2285.51162
2447.11262,2278.72988
2447.11262,2285.51162
2447.11262,2290.93701
2448.66696,2289.58066
2448.66696,2277.37353
2450.2213,2270.59179
2450.2213,2285.51162
2451.77564,2261.09736
2451.77564,2277.37353
2453.32997,2259.74101
2453.32997,2267.8791
2453.32997,2276.01718
2454.88431,2255.67197
2454.88431,2267.8791
2456.43865,2262.45371
2456.43865,2255.67197
2457.99299,2259.74101
2457.99299,2255.67197
2459.54733,2255.67197
2461.10167,2258.38466
2462.65601,2257.02831
2464.21035,2257.02831
2464.21035,2262.45371
2465.76468,2257.02831
2465.76468,2267.8791
2465.76468,2273.30449
2467.31902,2276.01718
2467.31902,2281.44257
2467.31902,2263.81005
2468.87336,2262.45371
2468.87336,2282.79892
2470.4277,2271.94814
2470.4277,2292.29336
2471.98204,2282.79892
2471.98204,2295.00605
2471.98204,2289.58066
2471.98204,2301.78779
2473.53638,2303.14414
2473.53638,2286.86796
2475.09072,2312.63857
2475.09072,2295.00605
2476.64506,2320.77666
2476.64506,2303.14414
2478.19939,2322.13301
2478.19939,2309.92588
2479.75373,2312.63857
2479.75373,2327.5584
2481.30807,2324.8457
2481.30807,2338.40918
2482.86241,2342.47822
2482.86241,2330.27109
2482.86241,2338.40918
2484.41675,2335.69648
2484.41675,2345.19092
2485.97109,2341.12187
2485.97109,2347.90361
2487.52543,2346.54727
2487.52543,2343.83457
2487.52543,2343.83457
2487.52543,2346.54727
2489.07977,2353.329
2489.07977,2346.54727
2489.07977,2353.329
2489.07977,2346.54727
2490.6341,2353.329
2490.6341,2353.329
2492.18844,2350.61631
2492.18844,2353.329
2492.18844,2350.61631
2492.18844,2353.329
2493.74278,2351.97266
2493.74278,2351.97266
2495.29712,2353.329
2495.29712,2353.329
2495.29712,2349.25996
2495.29712,2349.25996
2496.85146,2353.329
2496.85146,2349.25996
2496.85146,2353.329
2496.85146,2349.25996
2498.4058,2347.90361
2498.4058,2347.90361
2499.96014,2351.97266
2499.96014,2351.97266
2499.96014,2347.90361
2499.96014,2347.90361
2501.51448,2350.61631
2501.51448,2346.54727
2501.51448,2346.54727
2501.51448,2350.61631
2503.06881,2349.25996
2503.06881,2346.54727
2503.06881,2349.25996
2503.06881,2346.54727
2504.62315,2343.83457
2504.62315,2349.25996
2504.62315,2343.83457
2504.62315,2349.25996
2506.17749,2347.90361
2506.17749,2343.83457
2506.17749,2347.90361
2506.17749,2343.83457
2507.73183,2346.54727
2507.73183,2342.47822
2507.73183,2346.54727
2507.73183,2342.47822
2509.28617,2343.83457
2509.28617,2343.83457
2510.84051,2343.83457
2510.84051,2343.83457
2512.39485,2345.19092
2512.39485,2339.76553
2512.39485,2345.19092
2512.39485,2339.76553
2513.94919,2343.83457
2513.94919,2338.40918
2513.94919,2338.40918
2513.94919,2343.83457
2515.50353,2338.40918
2515.50353,2342.47822
2515.50353,2338.40918
2515.50353,2342.47822
2517.05786,2337.05283
2517.05786,2341.12187
2517.05786,2341.12187
2517.05786,2337.05283
2518.6122,2335.69648
2518.6122,2339.76553
2518.6122,2339.76553
2518.6122,2335.69648
2520.16654,2335.69648
2520.16654,2339.76553
2520.16654,2339.76553
2520.16654,2335.69648
2523.27522,2337.05283
2523.27522,2334.34014
2524.82956,2335.69648
2526.3839,2338.40918
2526.3839,2334.34014
2527.93824,2338.40918
2527.93824,2334.34014
2529.49257,2337.05283
2531.04691,2339.76553
2531.04691,2335.69648
2532.60125,2339.76553
2532.60125,2335.69648
2534.15559,2341.12187
2534.15559,2335.69648
2535.70993,2341.12187
2535.70993,2335.69648
2537.26427,2342.47822
2537.26427,2338.40918
2537.26427,2335.69648
2538.81861,2341.12187
2538.81861,2331.62744
2540.37295,2337.05283
2540.37295,2331.62744
2541.92728,2335.69648
2541.92728,2328.91475
2543.48162,2331.62744
2543.48162,2322.13301
2545.03596,2327.5584
2545.03596,2316.70762
2546.5903,2322.13301
2546.5903,2311.28222
2548.14464,2320.77666
2548.14464,2315.35127
2548.14464,2305.85683
2549.69898,2312.63857
2549.69898,2297.71875
2551.25332,2305.85683
2551.25332,2292.29336
2551.25332,2286.86796
2552.80766,2305.85683
2552.80766,2297.71875
2552.80766,2286.86796
2554.36199,2296.3624
2554.36199,2289.58066
2554.36199,2284.15527
2555.91633,2284.15527
2557.47067,2284.15527
2559.02501,2289.58066
2559.02501,2284.15527
2560.57935,2288.22431
2562.13369,2292.29336
2562.13369,2288.22431
2563.68803,2295.00605
2563.68803,2288.22431
2565.24237,2297.71875
2565.24237,2290.93701
2566.79671,2297.71875
2566.79671,2292.29336
2568.35104,2301.78779
2568.35104,2295.00605
2569.90538,2307.21318
2569.90538,2303.14414
2569.90538,2299.07509
2571.45972,2308.56953
2571.45972,2303.14414
2573.01406,2308.56953
2573.01406,2301.78779
2574.5684,2308.56953
2574.5684,2303.14414
2576.12274,2308.56953
2576.12274,2304.50049
2577.67708,2305.85683
2579.23142,2305.85683
2579.23142,2301.78779
2580.78575,2305.85683
2580.78575,2301.78779
2582.34009,2304.50049
2582.34009,2300.43144
2583.89443,2303.14414
2583.89443,2297.71875
2585.44877,2301.78779
2585.44877,2296.3624
2587.00311,2299.07509
2587.00311,2293.6497
2588.55745,2295.00605
2590.11179,2290.93701
2591.66613,2292.29336
2593.22046,2305.85683
2593.22046,2295.00605
2594.7748,2312.63857
2594.7748,2299.07509
2596.32914,2313.99492
2596.32914,2305.85683
2597.88348,2316.70762
2597.88348,2307.21318
2599.43782,2327.5584
2599.43782,2313.99492
2600.99216,2334.34014
2600.99216,2328.91475
2600.99216,2324.8457
2600.99216,2318.06396
2602.5465,2332.98379
2602.5465,2319.42031
2604.10084,2341.12187
2604.10084,2327.5584
2605.65517,2349.25996
2605.65517,2345.19092
2605.65517,2335.69648
2607.20951,2350.61631
2607.20951,2345.19092
2607.20951,2337.05283
2607.20951,2334.34014
2608.76385,2353.329
2608.76385,2345.19092
2610.31819,2353.329
2611.87253,2358.7544
2611.87253,2350.61631
2613.42687,2361.46709
2613.42687,2353.329
2614.98121,2364.17979
2614.98121,2360.11074
2614.98121,2356.0417
2616.53555,2365.53613
2616.53555,2360.11074
2618.08988,2365.53613
2618.08988,2360.11074
2618.08988,2357.39805
2619.64422,2362.82344
2619.64422,2353.329
2619.64422,2350.61631
2621.19856,2360.11074
2621.19856,2354.68535
2621.19856,2347.90361
2622.7529,2357.39805
2622.7529,2353.329
2622.7529,2342.47822
2624.30724,2349.25996
2624.30724,2337.05283
2625.86158,2337.05283
2627.41592,2341.12187
2627.41592,2330.27109
2628.97026,2335.69648
2628.97026,2327.5584
2630.5246,2331.62744
2630.5246,2320.77666
2632.07893,2331.62744
2632.07893,2319.42031
2633.63327,2324.8457
2633.63327,2316.70762
2635.18761,2322.13301
2635.18761,2315.35127
2636.74195,2318.06396
2636.74195,2312.63857
2638.29629,2318.06396
2638.29629,2311.28222
2639.85063,2315.35127
2639.85063,2309.92588
2641.40497,2313.99492
2641.40497,2307.21318
2642.95931,2313.99492
2642.95931,2308.56953
2644.51364,2313.99492
2644.51364,2309.92588
2644.51364,2307.21318
2646.06798,2313.99492
2646.06798,2307.21318
2647.62232,2315.35127
2647.62232,2312.63857
2647.62232,2308.56953
2649.17666,2316.70762
2649.17666,2312.63857
2649.17666,2309.92588
2650.731,2318.06396
2652.28534,2319.42031
2652.28534,2312.63857
2653.83968,2320.77666
2653.83968,2313.99492
2655.39402,2319.42031
2655.39402,2315.35127
2655.39402,2311.28222
2656.94835,2316.70762
2656.94835,2311.28222
2658.50269,2315.35127
2658.50269,2312.63857
2658.50269,2308.56953
2660.05703,2307.21318
2661.61137,2309.92588
2661.61137,2305.85683
2663.16571,2313.99492
2663.16571,2311.28222
2663.16571,2305.85683
2664.72005,2316.70762
2664.72005,2307.21318
2666.27439,2316.70762
2666.27439,2311.28222
2667.82873,2318.06396
2667.82873,2312.63857
2669.38306,2320.77666
2669.38306,2316.70762
2670.9374,2322.13301
2672.49174,2320.77666
2672.49174,2316.70762
2674.04608,2320.77666
2674.04608,2316.70762
2675.60042,2318.06396
2675.60042,2312.63857
2677.15476,2318.06396
2677.15476,2312.63857
2678.7091,2312.63857
2680.26344,2312.63857
2680.26344,2308.56953
2681.81778,2312.63857
2681.81778,2308.56953
2683.37211,2312.63857
2683.37211,2307.21318
2684.92645,2309.92588
2684.92645,2305.85683
2686.48079,2309.92588
2686.48079,2305.85683
2688.03513,2308.56953
2688.03513,2304.50049
2689.58947,2304.50049
2691.14381,2312.63857
2691.14381,2308.56953
2691.14381,2304.50049
2692.69815,2315.35127
2692.69815,2307.21318
2694.25249,2315.35127
2694.25249,2309.92588
2695.80682,2318.06396
2695.80682,2311.28222
2697.36116,2319.42031
2697.36116,2312.63857
2698.9155,2318.06396
2698.9155,2313.99492
2700.46984,2320.77666
2700.46984,2316.70762
2702.02418,2320.77666
2703.57852,2323.48935
2703.57852,2319.42031
2705.13286,2324.8457
2705.13286,2319.42031
2706.6872,2323.48935
2706.6872,2318.06396
2708.24153,2318.06396
2708.24153,2313.99492
2708.24153,2323.48935
2709.79587,2311.28222
2709.79587,2320.77666
2711.35021,2315.35127
2711.35021,2309.92588
2711.35021,2319.42031
2712.90455,2305.85683
2712.90455,2313.99492
2714.45889,2305.85683
2714.45889,2311.28222
2716.01323,2301.78779
2716.01323,2309.92588
2717.56757,2303.14414
2717.56757,2300.43144
2717.56757,2307.21318
2719.12191,2301.78779
2719.12191,2297.71875
2719.12191,2305.85683
2720.67624,2296.3624
2720.67624,2301.78779
2722.23058,2295.00605
2722.23058,2300.43144
2723.78492,2297.71875
2725.33926,2292.29336
2725.33926,2297.71875
2726.8936,2295.00605
2730.00228,2297.71875
2731.55662,2297.71875
2731.55662,2295.00605
2733.11095,2296.3624
2733.11095,2299.07509
2734.66529,2296.3624
2734.66529,2300.43144
2736.21963,2295.00605
2736.21963,2301.78779
2737.77397,2297.71875
2739.32831,2299.07509
2739.32831,2303.14414
2740.88265,2301.78779
2742.43699,2304.50049
2743.99133,2303.14414
2743.99133,2305.85683
2745.54567,2303.14414
2745.54567,2305.85683
2747.1,2305.85683
2748.65434,2307.21318
2750.20868,2307.21318
2751.76302,2307.21318
2753.31736,2307.21318
2754.8717,2305.85683
2754.8717,2308.56953
2756.42604,2308.56953
2757.98038,2308.56953
2759.53471,2307.21318
2761.08905,2303.14414
2761.08905,2307.21318
2762.64339,2303.14414
2762.64339,2307.21318
2764.19773,2300.43144
2764.19773,2305.85683
2765.75207,2301.78779
2765.75207,2304.50049
2767.30641,2303.14414
2767.30641,2296.3624
2768.86075,2297.71875
2770.41509,2300.43144
2770.41509,2292.29336
2771.96942,2288.22431
2771.96942,2297.71875
2773.52376,2289.58066
2775.0781,2285.51162
2775.0781,2281.44257
2775.0781,2292.29336
2776.63244,2288.22431
2776.63244,2280.08623
2778.18678,2277.37353
2778.18678,2284.15527
2779.74112,2282.79892
2779.74112,2276.01718
2781.29546,2280.08623
2781.29546,2273.30449
2782.8498,2274.66084
2782.8498,2269.23544
2782.8498,2277.37353
2784.40413,2269.23544
2784.40413,2276.01718
2785.95847,2270.59179
2785.95847,2277.37353
2787.51281,2269.23544
2787.51281,2274.66084
2789.06715,2271.94814
2790.62149,2273.30449
2790.62149,2281.44257
2792.17583,2277.37353
2792.17583,2285.51162
2793.73017,2284.15527
2795.28451,2282.79892
2795.28451,2293.6497
2796.83885,2300.43144
2796.83885,2293.6497
2796.83885,2286.86796
2798.39318,2308.56953
2798.39318,2303.14414
2798.39318,2297.71875
2798.39318,2292.29336
2799.94752,2307.21318
2799.94752,2301.78779
2799.94752,2295.00605
2801.50186,2315.35127
2801.50186,2311.28222
2801.50186,2301.78779
2803.0562,2316.70762
2803.0562,2312.63857
2803.0562,2307.21318
2804.61054,2316.70762
2804.61054,2312.63857
2804.61054,2308.56953
2806.16488,2315.35127
2806.16488,2311.28222
2807.71922,2313.99492
2807.71922,2311.28222
2809.27356,2313.99492
2809.27356,2308.56953
2810.82789,2312.63857
2810.82789,2309.92588
2812.38223,2309.92588
2812.38223,2305.85683
2813.93657,2309.92588
2813.93657,2304.50049
2815.49091,2308.56953
2815.49091,2301.78779
2817.04525,2307.21318
2817.04525,2300.43144
2818.59959,2304.50049
2818.59959,2299.07509
2820.15393,2303.14414
2820.15393,2296.3624
2821.70827,2301.78779
2821.70827,2296.3624
2823.2626,2299.07509
2823.2626,2292.29336
2824.81694,2297.71875
2824.81694,2292.29336
2826.37128,2295.00605
2826.37128,2290.93701
2827.92562,2295.00605
2827.92562,2289.58066
2829.47996,2293.6497
2829.47996,2289.58066
2831.0343,2289.58066
2832.58864,2293.6497
2832.58864,2289.58066
2834.14298,2299.07509
2834.14298,2292.29336
2835.69731,2300.43144
2835.69731,2296.3624
2837.25165,2299.07509
2838.80599,2301.78779
2838.80599,2296.3624
2840.36033,2300.43144
2840.36033,2296.3624
2841.91467,2299.07509
2841.91467,2290.93701
2843.46901,2293.6497
2843.46901,2286.86796
2845.02335,2293.6497
2845.02335,2286.86796
2846.57769,2293.6497
2846.57769,2289.58066
2846.57769,2285.51162
2848.13202,2293.6497
2848.13202,2289.58066
2848.13202,2285.51162
2849.68636,2299.07509
2849.68636,2292.29336
2849.68636,2288.22431
2851.2407,2301.78779
2851.2407,2292.29336
2852.79504,2307.21318
2852.79504,2297.71875
2854.34938,2309.92588
2854.34938,2304.50049
2854.34938,2297.71875
2855.90372,2313.99492
2855.90372,2304.50049
2857.45806,2316.70762
2857.45806,2309.92588
2859.0124,2318.06396
2859.0124,2309.92588
2860.56674,2320.77666
2860.56674,2313.99492
2862.12107,2319.42031
2863.67541,2322.13301
2865.22975,2323.48935
2866.78409,2326.20205
2866.78409,2323.48935
2868.33843,2327.5584
2868.33843,2322.13301
2869.89277,2328.91475
2869.89277,2323.48935
2871.44711,2330.27109
2871.44711,2323.48935
2873.00145,2330.27109
2873.00145,2324.8457
2874.55578,2328.91475
2874.55578,2319.42031
2876.11012,2327.5584
2876.11012,2319.42031
2876.11012,2313.99492
2877.66446,2322.13301
2877.66446,2311.28222
2879.2188,2316.70762
2879.2188,2308.56953
2880.77314,2313.99492
2880.77314,2301.78779
2882.32748,2305.85683
2882.32748,2297.71875
2883.88182,2296.3624
2885.43616,2301.78779
2885.43616,2292.29336
2886.99049,2296.3624
2886.99049,2289.58066
2886.99049,2286.86796
2888.54483,2296.3624
2888.54483,2290.93701
2888.54483,2286.86796
2890.09917,2292.29336
2890.09917,2284.15527
2891.65351,2289.58066
2891.65351,2284.15527
2893.20785,2286.86796
2894.76219,2285.51162
2896.31653,2285.51162
2896.31653,2282.79892
2897.87087,2286.86796
2897.87087,2281.44257
2899.4252,2286.86796
2899.4252,2284.15527
2900.97954,2289.58066
2900.97954,2282.79892
2902.53388,2289.58066
2902.53388,2285.51162
2904.08822,2295.00605
2904.08822,2290.93701
2904.08822,2286.86796
2905.64256,2293.6497
2907.1969,2303.14414
2907.1969,2299.07509
2907.1969,2293.6497
2908.75124,2308.56953
2908.75124,2303.14414
2908.75124,2296.3624
2910.30558,2316.70762
2910.30558,2311.28222
2910.30558,2305.85683
2910.30558,2300.43144
2911.85992,2326.20205
2911.85992,2318.06396
2911.85992,2312.63857
2911.85992,2307.21318
2913.41425,2323.48935
2913.41425,2312.63857
2914.96859,2332.98379
2914.96859,2319.42031
2916.52293,2326.20205
2918.07727,2335.69648
2919.63161,2334.34014
2921.18595,2335.69648
2921.18595,2332.98379
2922.74029,2331.62744
2924.29463,2334.34014
2924.29463,2328.91475
2925.84896,2334.34014
2925.84896,2322.13301
2927.4033,2328.91475
2927.4033,2320.77666
2927.4033,2315.35127
2928.95764,2327.5584
2928.95764,2315.35127
2930.51198,2320.77666
2930.51198,2305.85683
2932.06632,2311.28222
2932.06632,2301.78779
2933.62066,2308.56953
2933.62066,2300.43144
2933.62066,2297.71875
2935.175,2304.50049
2935.175,2296.3624
2936.72934,2300.43144
2936.72934,2296.3624
2938.28367,2296.3624
2939.83801,2297.71875
2941.39235,2297.71875
2941.39235,2295.00605
2942.94669,2297.71875
2942.94669,2295.00605
2944.50103,2297.71875
2944.50103,2295.00605
2946.05537,2296.3624
2947.60971,2297.71875
2949.16405,2299.07509
2949.16405,2295.00605
2950.71838,2300.43144
2950.71838,2296.3624
2952.27272,2301.78779
2952.27272,2296.3624
2953.82706,2303.14414
2953.82706,2297.71875
2955.3814,2305.85683
2955.3814,2299.07509
2956.93574,2308.56953
2956.93574,2301.78779
2958.49008,2309.92588
2958.49008,2303.14414
2960.04442,2309.92588
2960.04442,2304.50049
2961.59876,2309.92588
2961.59876,2305.85683
2963.15309,2308.56953
2964.70743,2307.21318
2964.70743,2301.78779
2966.26177,2303.14414
2966.26177,2300.43144
2967.81611,2305.85683
2967.81611,2301.78779
2969.37045,2305.85683
2969.37045,2301.78779
2970.92479,2305.85683
2970.92479,2300.43144
2972.47913,2308.56953
2972.47913,2300.43144
2974.03347,2307.21318
2974.03347,2303.14414
2975.58781,2309.92588
2975.58781,2304.50049
2977.14214,2311.28222
2977.14214,2304.50049
2978.69648,2311.28222
2978.69648,2304.50049
2980.25082,2308.56953
2980.25082,2299.07509
2981.80516,2304.50049
2981.80516,2296.3624
2983.3595,2303.14414
2983.3595,2293.6497
2984.91384,2299.07509
2984.91384,2289.58066
2986.46818,2293.6497
2986.46818,2285.51162
2988.02252,2292.29336
2988.02252,2285.51162
2989.57685,2289.58066
2989.57685,2281.44257
2991.13119,2281.44257
2992.68553,2276.01718
2994.23987,2273.30449
2995.79421,2281.44257
2995.79421,2274.66084
2997.34855,2280.08623
2997.34855,2276.01718
2998.90289,2285.51162
2998.90289,2277.37353
3000.45723,2286.86796
3000.45723,2280.08623
3002.01156,2285.51162
3003.5659,2292.29336
3003.5659,2284.15527
3005.12024,2296.3624
3005.12024,2286.86796
3006.67458,2300.43144
3006.67458,2290.93701
3008.22892,2303.14414
3008.22892,2295.00605
3008.22892,2290.93701
3009.78326,2307.21318
3009.78326,2297.71875
3011.3376,2307.21318
3011.3376,2301.78779
3012.89194,2309.92588
3012.89194,2304.50049
3014.44627,2312.63857
3014.44627,2308.56953
3014.44627,2305.85683
3016.00061,2313.99492
3016.00061,2308.56953
3017.55495,2315.35127
3017.55495,2311.28222
3019.10929,2316.70762
3019.10929,2312.63857
3020.66363,2315.35127
3020.66363,2312.63857
3022.21797,2315.35127
3022.21797,2309.92588
3023.77231,2313.99492
3025.32665,2313.99492
3025.32665,2309.92588
3026.88099,2312.63857
3026.88099,2308.56953
3028.43532,2313.99492
3028.43532,2307.21318
3029.98966,2313.99492
3029.98966,2307.21318
3031.544,2313.99492
3031.544,2308.56953
3033.09834,2319.42031
3033.09834,2309.92588
3034.65268,2322.13301
3034.65268,2313.99492
3036.20702,2327.5584
3036.20702,2324.8457
3036.20702,2319.42031
3037.76136,2326.20205
3037.76136,2319.42031
3039.3157,2330.27109
3039.3157,2324.8457
3040.87003,2330.27109
3040.87003,2326.20205
3042.42437,2331.62744
3042.42437,2327.5584
3043.97871,2331.62744
3043.97871,2327.5584
3045.53305,2334.34014
3045.53305,2330.27109
3047.08739,2335.69648
3047.08739,2331.62744
3048.64173,2337.05283
3048.64173,2330.27109
3050.19607,2338.40918
3050.19607,2332.98379
3051.75041,2339.76553
3051.75041,2334.34014
3053.30474,2341.12187
3053.30474,2335.69648
3054.85908,2339.76553
3056.41342,2337.05283
3057.96776,2341.12187
3057.96776,2337.05283
3059.5221,2338.40918
3061.07644,2339.76553
3061.07644,2335.69648
3062.63078,2339.76553
3062.63078,2334.34014
3064.18512,2342.47822
3064.18512,2334.34014
3065.73945,2343.83457
3065.73945,2335.69648
3067.29379,2347.90361
3067.29379,2338.40918
3068.84813,2353.329
3068.84813,2347.90361
3068.84813,2342.47822
3070.40247,2357.39805
3070.40247,2350.61631
3071.95681,2356.0417
3071.95681,2346.54727
3073.51115,2358.7544
3075.06549,2356.0417
3075.06549,2346.54727
3076.61983,2351.97266
3078.17416,2351.97266
3078.17416,2343.83457
3079.7285,2349.25996
3079.7285,2341.12187
3081.28284,2345.19092
3081.28284,2338.40918
3082.83718,2345.19092
3082.83718,2339.76553
3082.83718,2334.34014
3084.39152,2339.76553
3084.39152,2335.69648
3084.39152,2331.62744
3085.94586,2337.05283
3085.94586,2330.27109
3087.5002,2335.69648
3087.5002,2330.27109
3089.05454,2331.62744
3089.05454,2323.48935
3090.60888,2328.91475
3090.60888,2319.42031
3090.60888,2312.63857
3092.16321,2326.20205
3092.16321,2313.99492
3093.71755,2322.13301
3093.71755,2305.85683
3095.27189,2316.70762
3095.27189,2300.43144
3096.82623,2315.35127
3096.82623,2311.28222
3096.82623,2305.85683
3096.82623,2303.14414
3096.82623,2299.07509
3098.38057,2307.21318
3098.38057,2303.14414
3098.38057,2297.71875
3099.93491,2318.06396
3099.93491,2307.21318
3099.93491,2299.07509
3101.48925,2323.48935
3101.48925,2315.35127
3101.48925,2312.63857
3101.48925,2304.50049
3101.48925,2299.07509
3103.04359,2332.98379
3103.04359,2311.28222
3104.59792,2342.47822
3104.59792,2323.48935
3106.15226,2347.90361
3106.15226,2342.47822
3106.15226,2332.98379
3107.7066,2349.25996
3107.7066,2337.05283
3109.26094,2351.97266
3109.26094,2345.19092
3110.81528,2353.329
3110.81528,2349.25996
3112.36962,2353.329
3113.92396,2354.68535
3115.4783,2356.0417
3115.4783,2349.25996
3117.03263,2356.0417
3117.03263,2350.61631
3118.58697,2354.68535
3118.58697,2349.25996
3118.58697,2345.19092
3120.14131,2350.61631
3120.14131,2343.83457
3121.69565,2347.90361
3121.69565,2342.47822
3123.24999,2346.54727
3123.24999,2337.05283
3124.80433,2342.47822
3124.80433,2331.62744
3124.80433,2323.48935
3126.35867,2342.47822
3126.35867,2337.05283
3126.35867,2324.8457
3127.91301,2334.34014
3127.91301,2319.42031
3127.91301,2313.99492
3129.46734,2324.8457
3129.46734,2316.70762
3129.46734,2312.63857
3129.46734,2303.14414
3131.02168,2316.70762
3131.02168,2312.63857
3131.02168,2308.56953
3131.02168,2300.43144
3132.57602,2312.63857
3132.57602,2303.14414
3132.57602,2299.07509
3134.13036,2305.85683
3134.13036,2299.07509
3135.6847,2300.43144
3137.23904,2301.78779
3138.79338,2309.92588
3138.79338,2303.14414
3140.34772,2309.92588
3140.34772,2305.85683
3141.90206,2309.92588
3141.90206,2307.21318
3143.45639,2308.56953
3145.01073,2308.56953
3146.56507,2309.92588
3146.56507,2307.21318
3148.11941,2305.85683
3148.11941,2309.92588
3149.67375,2309.92588
3149.67375,2307.21318
3151.22809,2309.92588
3151.22809,2307.21318
3152.78243,2309.92588
3152.78243,2307.21318
3154.33677,2309.92588
3154.33677,2307.21318
3155.8911,2309.92588
3155.8911,2307.21318
3157.44544,2309.92588
3158.99978,2312.63857
3158.99978,2308.56953
3160.55412,2313.99492
3160.55412,2309.92588
3162.10846,2313.99492
3162.10846,2311.28222
3163.6628,2315.35127
3163.6628,2311.28222
3165.21714,2318.06396
3165.21714,2312.63857
3166.77148,2318.06396
3166.77148,2312.63857
3168.32581,2320.77666
3168.32581,2313.99492
3169.88015,2323.48935
3169.88015,2319.42031
3169.88015,2313.99492
3171.43449,2324.8457
3171.43449,2318.06396
3172.98883,2327.5584
3172.98883,2319.42031
3174.54317,2328.91475
3174.54317,2322.13301
3176.09751,2330.27109
3176.09751,2324.8457
3177.65185,2331.62744
3177.65185,2326.20205
3179.20619,2332.98379
3179.20619,2327.5584
3180.76052,2335.69648
3180.76052,2328.91475
3182.31486,2335.69648
3182.31486,2331.62744
3183.8692,2337.05283
3183.8692,2332.98379
3185.42354,2338.40918
3185.42354,2334.34014
3186.97788,2338.40918
3186.97788,2334.34014
3188.53222,2339.76553
3188.53222,2335.69648
3190.08656,2339.76553
3190.08656,2335.69648
3191.6409,2341.12187
3191.6409,2337.05283
3193.19523,2339.76553
3194.74957,2342.47822
3194.74957,2338.40918
3196.30391,2343.83457
3196.30391,2339.76553
3197.85825,2343.83457
3197.85825,2339.76553
3199.41259,2343.83457
3199.41259,2339.76553
3200.96693,2343.83457
3202.52127,2343.83457
3204.07561,2343.83457
3205.62995,2343.83457
3207.18428,2343.83457
3207.18428,2339.76553
3208.73862,2343.83457
3208.73862,2339.76553
3210.29296,2341.12187
3211.8473,2346.54727
3211.8473,2342.47822
3213.40164,2347.90361
3213.40164,2343.83457
3214.95598,2349.25996
3214.95598,2345.19092
3216.51032,2350.61631
3216.51032,2346.54727
3218.06466,2351.97266
3218.06466,2346.54727
3219.61899,2351.97266
3221.17333,2350.61631
3222.72767,2353.329
3222.72767,2349.25996
3224.28201,2353.329
3224.28201,2349.25996
3225.83635,2351.97266
3227.39069,2351.97266
3227.39069,2347.90361
3227.39069,2345.19092
3228.94503,2351.97266
3228.94503,2342.47822
3230.49937,2349.25996
3230.49937,2342.47822
3232.0537,2345.19092
3232.0537,2339.76553
3233.60804,2343.83457
3233.60804,2339.76553
3233.60804,2335.69648
3235.16238,2338.40918
3236.71672,2338.40918
3236.71672,2332.98379
3238.27106,2331.62744
3239.8254,2335.69648
3239.8254,2331.62744
3241.37974,2335.69648
3241.37974,2331.62744
3242.93408,2337.05283
3242.93408,2330.27109
3244.48841,2339.76553
3244.48841,2334.34014
3244.48841,2328.91475
3246.04275,2341.12187
3246.04275,2332.98379
3247.59709,2349.25996
3247.59709,2338.40918
3249.15143,2345.19092
3250.70577,2354.68535
3250.70577,2346.54727
3250.70577,2343.83457
3252.26011,2357.39805
3252.26011,2350.61631
3253.81445,2357.39805
3253.81445,2353.329
3255.36879,2357.39805
3255.36879,2354.68535
3256.92313,2356.0417
3258.47746,2357.39805
3258.47746,2354.68535
3260.0318,2357.39805
3260.0318,2354.68535
3261.58614,2356.0417
3263.14048,2357.39805
3263.14048,2353.329
3264.69482,2356.0417
3264.69482,2353.329
3266.24916,2356.0417
3266.24916,2351.97266
3267.8035,2356.0417
3267.8035,2351.97266
3269.35784,2356.0417
3269.35784,2351.97266
3270.91217,2356.0417
3270.91217,2351.97266
3270.91217,2356.0417
3270.91217,2351.97266
3272.46651,2356.0417
3272.46651,2353.329
3272.46651,2356.0417
3272.46651,2353.329
3274.02085,2353.329
3274.02085,2353.329
3275.57519,2353.329
3275.57519,2357.39805
3275.57519,2353.329
3275.57519,2357.39805
3277.12953,2360.11074
3277.12953,2360.11074
3277.12953,2354.68535
3277.12953,2354.68535
3278.68387,2364.17979
3278.68387,2356.0417
3278.68387,2356.0417
3278.68387,2364.17979
3280.23821,2361.46709
3280.23821,2361.46709
3281.79255,2370.96153
3281.79255,2366.89248
3281.79255,2361.46709
3281.79255,2370.96153
3281.79255,2366.89248
3281.79255,2361.46709
3283.34688,2373.67422
3283.34688,2365.53613
3283.34688,2373.67422
3283.34688,2365.53613
3284.90122,2366.89248
3284.90122,2373.67422
3284.90122,2373.67422
3284.90122,2366.89248
3286.45556,2369.60518
3286.45556,2375.03057
3286.45556,2375.03057
3286.45556,2369.60518
3288.0099,2375.03057
3288.0099,2375.03057
3289.56424,2373.67422
3289.56424,2370.96153
3289.56424,2373.67422
3289.56424,2370.96153
3291.11858,2372.31787
3292.67292,2370.96153
3294.22726,2369.60518
3295.78159,2373.67422
3295.78159,2369.60518
3297.33593,2373.67422
3297.33593,2369.60518
3298.89027,2373.67422
3298.89027,2370.96153
3301.99895,2372.31787
3303.55329,2373.67422
3303.55329,2369.60518
3305.10763,2373.67422
3305.10763,2369.60518
3306.66197,2369.60518
3308.2163,2368.24883
3308.2163,2365.53613
3309.77064,2370.96153
3309.77064,2365.53613
3311.32498,2365.53613
3312.87932,2370.96153
3312.87932,2365.53613
3314.43366,2370.96153
3314.43366,2366.89248
3315.988,2373.67422
3315.988,2369.60518
3315.988,2366.89248
3317.54234,2373.67422
3317.54234,2369.60518
3319.09668,2377.74326
3319.09668,2370.96153
3320.65102,2380.45596
3320.65102,2372.31787
3322.20535,2384.525
3322.20535,2379.09961
3322.20535,2373.67422
3323.75969,2387.2377
3323.75969,2379.09961
3325.31403,2389.95039
3325.31403,2380.45596
3326.86837,2392.66309
3326.86837,2389.95039
3326.86837,2384.525
3328.42271,2394.01944
3328.42271,2385.88135
3329.97705,2392.66309
3329.97705,2387.2377
3331.53139,2389.95039
3333.08573,2391.30674
3333.08573,2385.88135
3334.64006,2389.95039
3336.1944,2383.16866
3337.74874,2385.88135
3337.74874,2373.67422
3339.30308,2385.88135
3339.30308,2381.81231
3339.30308,2377.74326
3339.30308,2370.96153
3340.85742,2379.09961
3340.85742,2365.53613
3342.41176,2369.60518
3342.41176,2358.7544
3343.9661,2368.24883
3343.9661,2357.39805
3345.52044,2362.82344
3345.52044,2356.0417
3347.07477,2366.89248
3347.07477,2362.82344
3347.07477,2358.7544
3348.62911,2368.24883
3348.62911,2364.17979
3348.62911,2360.11074
3350.18345,2366.89248
3350.18345,2361.46709
3351.73779,2372.31787
3351.73779,2366.89248
3351.73779,2364.17979
3353.29213,2375.03057
3353.29213,2366.89248
3354.84647,2377.74326
3354.84647,2370.96153
3356.40081,2383.16866
3356.40081,2373.67422
3357.95515,2385.88135
3357.95515,2377.74326
3359.50948,2388.59405
3359.50948,2377.74326
3361.06382,2391.30674
3361.06382,2381.81231
3362.61816,2389.95039
3362.61816,2379.09961
3364.1725,2388.59405
3364.1725,2379.09961
3365.72684,2387.2377
3365.72684,2380.45596
3365.72684,2376.38692
3367.28118,2383.16866
3367.28118,2372.31787
3368.83552,2369.60518
3370.38986,2376.38692
3370.38986,2365.53613
3371.9442,2372.31787
3371.9442,2362.82344
3371.9442,2356.0417
3373.49853,2370.96153
3373.49853,2357.39805
3375.05287,2362.82344
3375.05287,2347.90361
3376.60721,2357.39805
3376.60721,2341.12187
3378.16155,2353.329
3378.16155,2346.54727
3378.16155,2339.76553
3379.71589,2351.97266
3379.71589,2343.83457
3379.71589,2341.12187
3381.27023,2351.97266
3381.27023,2342.47822
3382.82457,2353.329
3382.82457,2346.54727
3384.37891,2354.68535
3384.37891,2346.54727
3385.93324,2357.39805
3385.93324,2350.61631
3387.48758,2357.39805
3387.48758,2351.97266
3389.04192,2356.0417
3390.59626,2358.7544
3392.1506,2358.7544
3393.70494,2360.11074
3393.70494,2356.0417
3395.25928,2360.11074
3396.81362,2358.7544
3396.81362,2350.61631
3398.36795,2357.39805
3398.36795,2353.329
3398.36795,2349.25996
3399.92229,2354.68535
3399.92229,2346.54727
3401.47663,2351.97266
3401.47663,2345.19092
3403.03097,2349.25996
3403.03097,2342.47822
3404.58531,2341.12187
3406.13965,2343.83457
3406.13965,2330.27109
3407.69399,2337.05283
3407.69399,2328.91475
3409.24833,2334.34014
3409.24833,2322.13301
3410.80266,2331.62744
3410.80266,2326.20205
3410.80266,2319.42031
3412.357,2331.62744
3412.357,2319.42031
3413.91134,2331.62744
3413.91134,2323.48935
3413.91134,2319.42031
3415.46568,2323.48935
3417.02002,2335.69648
3417.02002,2326.20205
3418.57436,2338.40918
3418.57436,2331.62744
3420.1287,2341.12187
3420.1287,2332.98379
3421.68304,2337.05283
3423.23737,2341.12187
3423.23737,2338.40918
3424.79171,2342.47822
3424.79171,2338.40918
3426.34605,2339.76553
3427.90039,2343.83457
3427.90039,2339.76553
3429.45473,2343.83457
3429.45473,2339.76553
3431.00907,2342.47822
3431.00907,2338.40918
3432.56341,2342.47822
3432.56341,2338.40918
3434.11775,2342.47822
3435.67209,2341.12187
3435.67209,2338.40918
3435.67209,2334.34014
3437.22642,2339.76553
3437.22642,2332.98379
3438.78076,2337.05283
3438.78076,2327.5584
3440.3351,2335.69648
3440.3351,2322.13301
3441.88944,2328.91475
3441.88944,2315.35127
3443.44378,2328.91475
3443.44378,2324.8457
3443.44378,2315.35127
3444.99812,2319.42031
3444.99812,2312.63857
3446.55246,2323.48935
3446.55246,2312.63857
3448.1068,2324.8457
3448.1068,2316.70762
3448.1068,2312.63857
3449.66113,2326.20205
3449.66113,2316.70762
3451.21547,2330.27109
3451.21547,2320.77666
3452.76981,2330.27109
3452.76981,2326.20205
3452.76981,2323.48935
3454.32415,2331.62744
3454.32415,2326.20205
3455.87849,2331.62744
3457.43283,2334.34014
3457.43283,2330.27109
3458.98717,2335.69648
3458.98717,2331.62744
3460.54151,2335.69648
3460.54151,2332.98379
3462.09584,2332.98379
3463.65018,2338.40918
3463.65018,2334.34014
3465.20452,2338.40918
3465.20452,2334.34014
3466.75886,2337.05283
3466.75886,2334.34014
3468.3132,2339.76553
3469.86754,2339.76553
3469.86754,2335.69648
3471.42188,2341.12187
3471.42188,2337.05283
3472.97622,2342.47822
3472.97622,2338.40918
3474.53055,2343.83457
3474.53055,2338.40918
3476.08489,2345.19092
3476.08489,2341.12187
3477.63923,2347.90361
3477.63923,2342.47822
3479.19357,2347.90361
3479.19357,2343.83457
3480.74791,2349.25996
3480.74791,2345.19092
3482.30225,2349.25996
3482.30225,2345.19092
3483.85659,2346.54727
3485.41093,2351.97266
3485.41093,2347.90361
3486.96527,2350.61631
3488.5196,2350.61631
3490.07394,2350.61631
3491.62828,2349.25996
3491.62828,2346.54727
3493.18262,2349.25996
3493.18262,2345.19092
3494.73696,2347.90361
3494.73696,2341.12187
3496.2913,2346.54727
3496.2913,2341.12187
3497.84564,2345.19092
3497.84564,2338.40918
3499.39998,2342.47822
3499.39998,2337.05283
3499.39998,2331.62744
3500.95431,2338.40918
3500.95431,2334.34014
3500.95431,2327.5584
3502.50865,2334.34014
3502.50865,2326.20205
3504.06299,2330.27109
3504.06299,2323.48935
3505.61733,2327.5584
3505.61733,2323.48935
3507.17167,2326.20205
3507.17167,2320.77666
3508.72601,2324.8457
3508.72601,2318.06396
3510.28035,2322.13301
3510.28035,2316.70762
3511.83469,2320.77666
3511.83469,2315.35127
3513.38902,2319.42031
3513.38902,2313.99492
3514.94336,2316.70762
3514.94336,2312.63857
3516.4977,2316.70762
3516.4977,2311.28222
3518.05204,2313.99492
3518.05204,2309.92588
3519.60638,2312.63857
3519.60638,2308.56953
3521.16072,2309.92588
3522.71506,2309.92588
3522.71506,2307.21318
3524.2694,2308.56953
3525.82373,2308.56953
3527.37807,2305.85683
3528.93241,2308.56953
3528.93241,2303.14414
3530.48675,2307.21318
3530.48675,2301.78779
3532.04109,2305.85683
3532.04109,2303.14414
3532.04109,2300.43144
3533.59543,2304.50049
3533.59543,2297.71875
3535.14977,2303.14414
3535.14977,2297.71875
3536.70411,2300.43144
3536.70411,2296.3624
3538.25844,2300.43144
3538.25844,2296.3624
3539.81278,2297.71875
3541.36712,2297.71875
3542.92146,2303.14414
3542.92146,2299.07509
3544.4758,2304.50049
3546.03014,2307.21318
3546.03014,2301.78779
3547.58448,2311.28222
3547.58448,2303.14414
3549.13882,2316.70762
3549.13882,2311.28222
3549.13882,2305.85683
3550.69316,2320.77666
3550.69316,2313.99492
3550.69316,2309.92588
3552.24749,2323.48935
3552.24749,2313.99492
3553.80183,2327.5584
3553.80183,2318.06396
3555.35617,2328.91475
3555.35617,2320.77666
3556.91051,2330.27109
3556.91051,2324.8457
3558.46485,2332.98379
3558.46485,2326.20205
3560.01919,2335.69648
3560.01919,2328.91475
3561.57353,2335.69648
3561.57353,2330.27109
3563.12787,2337.05283
3563.12787,2331.62744
3564.6822,2339.76553
3564.6822,2335.69648
3566.23654,2341.12187
3566.23654,2335.69648
3567.79088,2342.47822
3569.34522,2343.83457
3569.34522,2339.76553
3570.89956,2343.83457
3570.89956,2339.76553
3572.4539,2342.47822
3574.00824,2342.47822
3574.00824,2335.69648
3575.56258,2338.40918
3575.56258,2334.34014
3577.11691,2334.34014
3578.67125,2337.05283
3578.67125,2332.98379
3580.22559,2337.05283
3580.22559,2332.98379
3581.77993,2337.05283
3581.77993,2332.98379
3583.33427,2338.40918
3583.33427,2334.34014
3584.88861,2339.76553
3584.88861,2334.34014
3586.44295,2339.76553
3587.99729,2339.76553
3587.99729,2335.69648
3587.99729,2330.27109
3589.55162,2337.05283
3589.55162,2328.91475
3591.10596,2332.98379
3591.10596,2326.20205
3592.6603,2327.5584
3592.6603,2323.48935
3594.21464,2327.5584
3594.21464,2322.13301
3595.76898,2322.13301
3597.32332,2326.20205
3598.87766,2326.20205
3598.87766,2322.13301
3600.432,2327.5584
3600.432,2323.48935
3601.98634,2326.20205
3603.54067,2327.5584
3603.54067,2323.48935
3605.09501,2327.5584
3605.09501,2323.48935
3606.64935,2327.5584
3606.64935,2323.48935
3608.20369,2326.20205
3608.20369,2320.77666
3609.75803,2324.8457
3609.75803,2320.77666
3611.31237,2323.48935
3611.31237,2319.42031
3612.86671,2323.48935
3612.86671,2319.42031
3614.42105,2324.8457
3615.97538,2326.20205
3615.97538,2320.77666
3617.52972,2326.20205
3619.08406,2319.42031
3620.6384,2326.20205
3620.6384,2319.42031
3622.19274,2324.8457
3622.19274,2313.99492
3623.74708,2319.42031
3623.74708,2309.92588
3625.30142,2305.85683
3626.85576,2312.63857
3626.85576,2303.14414
3628.41009,2313.99492
3628.41009,2303.14414
3629.96443,2313.99492
3629.96443,2305.85683
3631.51877,2309.92588
3631.51877,2307.21318
3633.07311,2318.06396
3633.07311,2309.92588
3634.62745,2320.77666
3634.62745,2313.99492
3636.18179,2322.13301
3636.18179,2315.35127
3637.73613,2323.48935
3637.73613,2318.06396
3639.29047,2326.20205
3639.29047,2320.77666
3640.8448,2328.91475
3640.8448,2324.8457
3640.8448,2322.13301
3642.39914,2330.27109
3642.39914,2324.8457
3643.95348,2328.91475
3645.50782,2330.27109
3645.50782,2326.20205
3647.06216,2330.27109
3647.06216,2326.20205
3648.6165,2330.27109
3648.6165,2326.20205
3650.17084,2330.27109
3650.17084,2326.20205
3651.72518,2327.5584
3653.27951,2327.5584
3654.83385,2327.5584
3656.38819,2327.5584
3656.38819,2324.8457
3657.94253,2327.5584
3657.94253,2324.8457
3659.49687,2327.5584
3659.49687,2323.48935
3661.05121,2327.5584
3661.05121,2324.8457
3662.60555,2326.20205
3664.15989,2324.8457
3665.71423,2324.8457
3667.26856,2326.20205
3668.8229,2326.20205
3668.8229,2322.13301
3670.37724,2326.20205
3670.37724,2323.48935
3671.93158,2323.48935
3673.48592,2323.48935
3675.04026,2323.48935
3676.5946,2322.13301
3676.5946,2316.70762
3678.14894,2320.77666
3678.14894,2315.35127
3678.14894,2312.63857
3679.70327,2315.35127
3681.25761,2319.42031
3681.25761,2313.99492
3681.25761,2308.56953
3682.81195,2313.99492
3682.81195,2304.50049
3684.36629,2309.92588
3684.36629,2305.85683
3684.36629,2301.78779
3685.92063,2309.92588
3685.92063,2303.14414
3687.47497,2309.92588
3687.47497,2304.50049
3689.02931,2313.99492
3689.02931,2307.21318
3690.58365,2313.99492
3690.58365,2305.85683
3692.13798,2315.35127
3692.13798,2309.92588
3693.69232,2316.70762
3693.69232,2309.92588
3695.24666,2313.99492
3695.24666,2309.92588
3696.801,2315.35127
3698.35534,2311.28222
3699.90968,2311.28222
3699.90968,2307.21318
3701.46402,2307.21318
3703.01836,2313.99492
3703.01836,2307.21318
3704.57269,2313.99492
3704.57269,2309.92588
3706.12703,2318.06396
3706.12703,2312.63857
3706.12703,2308.56953
3707.68137,2319.42031
3707.68137,2313.99492
3709.23571,2320.77666
3709.23571,2312.63857
3710.79005,2319.42031
3712.34439,2318.06396
3712.34439,2309.92588
3713.89873,2313.99492
3713.89873,2305.85683
3715.45307,2313.99492
3715.45307,2305.85683
3717.00741,2307.21318
3717.00741,2301.78779
3718.56174,2311.28222
3718.56174,2303.14414
3718.56174,2300.43144
3720.11608,2307.21318
3720.11608,2301.78779
3721.67042,2312.63857
3721.67042,2304.50049
3723.22476,2319.42031
3723.22476,2313.99492
3723.22476,2309.92588
3724.7791,2319.42031
3724.7791,2311.28222
3726.33344,2322.13301
3726.33344,2315.35127
3727.88778,2323.48935
3727.88778,2318.06396
3729.44212,2324.8457
3729.44212,2320.77666
3730.99645,2326.20205
3730.99645,2320.77666
3732.55079,2330.27109
3732.55079,2322.13301
3734.10513,2335.69648
3734.10513,2331.62744
3734.10513,2324.8457
3735.65947,2338.40918
3735.65947,2326.20205
3737.21381,2351.97266
3737.21381,2343.83457
3737.21381,2330.27109
3738.76815,2361.46709
3738.76815,2353.329
3738.76815,2339.76553
3740.32249,2360.11074
3740.32249,2342.47822
3741.87683,2365.53613
3741.87683,2353.329
3743.43116,2362.82344
3743.43116,2358.7544
3743.43116,2343.83457
3744.9855,2362.82344
3744.9855,2360.11074
3744.9855,2351.97266
3744.9855,2346.54727
3746.53984,2356.0417
3746.53984,2338.40918
3748.09418,2347.90361
3748.09418,2341.12187
3748.09418,2330.27109
3749.64852,2343.83457
3749.64852,2338.40918
3749.64852,2334.34014
3749.64852,2327.5584
3751.20286,2335.69648
3751.20286,2324.8457
3752.7572,2328.91475
3752.7572,2323.48935
3754.31154,2327.5584
3754.31154,2322.13301
3755.86587,2326.20205
3755.86587,2319.42031
3757.42021,2323.48935
3757.42021,2316.70762
3758.97455,2320.77666
3758.97455,2316.70762
3760.52889,2319.42031
3760.52889,2311.28222
3762.08323,2312.63857
3762.08323,2308.56953
3763.63757,2315.35127
3763.63757,2307.21318
3765.19191,2313.99492
3765.19191,2309.92588
3765.19191,2305.85683
3766.74625,2313.99492
3766.74625,2305.85683
3768.30058,2307.21318
3768.30058,2315.35127
3768.30058,2320.77666
3769.85492,2320.77666
3769.85492,2312.63857
3769.85492,2307.21318
3771.40926,2328.91475
3771.40926,2313.99492
3772.9636,2332.98379
3772.9636,2327.5584
3772.9636,2320.77666
3774.51794,2324.8457
3774.51794,2332.98379
3776.07228,2327.5584
3776.07228,2332.98379
3779.18096,2331.62744
3780.7353,2330.27109
3782.28963,2330.27109
3783.84397,2326.20205
3783.84397,2323.48935
3783.84397,2331.62744
3785.39831,2330.27109
3785.39831,2323.48935
3786.95265,2327.5584
3786.95265,2319.42031
3788.50699,2323.48935
3790.06133,2320.77666
3790.06133,2313.99492
3791.61567,2309.92588
3791.61567,2318.06396
3793.17001,2308.56953
3793.17001,2315.35127
3794.72434,2313.99492
3794.72434,2304.50049
3796.27868,2300.43144
3796.27868,2309.92588
3797.83302,2297.71875
3797.83302,2305.85683
3799.38736,2304.50049
3799.38736,2296.3624
3800.9417,2296.3624
3800.9417,2300.43144
3802.49604,2296.3624
3804.05038,2296.3624
3805.60472,2296.3624
3805.60472,2300.43144
3807.15905,2304.50049
3807.15905,2296.3624
3808.71339,2303.14414
3808.71339,2299.07509
3808.71339,2307.21318
3810.26773,2309.92588
3810.26773,2300.43144
3811.82207,2311.28222
3811.82207,2304.50049
3811.82207,2315.35127
3813.37641,2313.99492
3813.37641,2318.06396
3813.37641,2308.56953
3814.93075,2319.42031
3814.93075,2309.92588
3814.93075,2313.99492
3816.48509,2318.06396
3818.03943,2318.06396
3818.03943,2313.99492
3819.59376,2313.99492
3819.59376,2318.06396
3821.1481,2313.99492
3821.1481,2318.06396
3822.70244,2315.35127
3824.25678,2311.28222
3824.25678,2316.70762
3825.81112,2315.35127
3825.81112,2311.28222
3827.36546,2309.92588
3827.36546,2313.99492
3828.9198,2313.99492
3830.47414,2309.92588
3832.02848,2308.56953
3833.58281,2308.56953
3833.58281,2311.28222
3835.13715,2311.28222
3835.13715,2313.99492
3836.69149,2311.28222
3836.69149,2313.99492
3838.24583,2311.28222
3838.24583,2315.35127
3839.80017,2312.63857
3839.80017,2315.35127
3841.35451,2309.92588
3841.35451,2313.99492
3842.90885,2313.99492
3842.90885,2309.92588
3844.46319,2313.99492
3846.01752,2311.28222
3847.57186,2308.56953
3849.1262,2307.21318
3849.1262,2311.28222
3850.68054,2304.50049
3850.68054,2309.92588
3852.23488,2301.78779
3852.23488,2308.56953
3853.78922,2301.78779
3853.78922,2307.21318
3855.34356,2303.14414
3855.34356,2300.43144
3856.8979,2300.43144
3856.8979,2305.85683
3858.45223,2305.85683
3858.45223,2301.78779
3860.00657,2303.14414
3860.00657,2307.21318
3861.56091,2308.56953
3863.11525,2309.92588
3864.66959,2307.21318
3864.66959,2311.28222
3866.22393,2307.21318
3866.22393,2315.35127
3867.77827,2312.63857
3867.77827,2309.92588
3867.77827,2316.70762
3869.33261,2312.63857
3869.33261,2318.06396
3870.88694,2320.77666
3870.88694,2313.99492
3872.44128,2322.13301
3873.99562,2322.13301
3873.99562,2318.06396
3875.54996,2322.13301
3877.1043,2319.42031
3877.1043,2323.48935
3878.65864,2320.77666
3878.65864,2323.48935
3880.21298,2323.48935
3881.76732,2326.20205
3881.76732,2322.13301
3883.32165,2323.48935
3883.32165,2326.20205
3884.87599,2322.13301
3884.87599,2326.20205
3886.43033,2322.13301
3886.43033,2326.20205
3887.98467,2320.77666
3887.98467,2326.20205
3889.53901,2318.06396
3891.09335,2313.99492
3891.09335,2309.92588
3891.09335,2304.50049
3891.09335,2320.77666
3892.64769,2311.28222
3894.20203,2307.21318
3894.20203,2296.3624
3894.20203,2312.63857
3895.75637,2293.6497
3895.75637,2303.14414
3897.3107,2292.29336
3898.86504,2297.71875
3898.86504,2290.93701
3900.41938,2288.22431
3900.41938,2293.6497
3901.97372,2292.29336
3901.97372,2286.86796
3903.52806,2285.51162
3903.52806,2289.58066
3905.0824,2285.51162
3905.0824,2288.22431
3906.63674,2288.22431
3906.63674,2285.51162
3908.19108,2284.15527
3908.19108,2288.22431
3909.74541,2284.15527
3909.74541,2288.22431
3911.29975,2284.15527
3911.29975,2292.29336
3912.85409,2285.51162
3912.85409,2293.6497
3914.40843,2297.71875
3914.40843,2286.86796
3915.96277,2297.71875
3915.96277,2292.29336
3915.96277,2307.21318
3917.51711,2308.56953
3917.51711,2303.14414
3917.51711,2299.07509
3917.51711,2315.35127
3919.07145,2304.50049
3919.07145,2301.78779
3919.07145,2315.35127
3920.62579,2311.28222
3920.62579,2297.71875
3920.62579,2316.70762
3922.18012,2301.78779
3922.18012,2312.63857
3923.73446,2290.93701
3923.73446,2309.92588
3925.2888,2303.14414
3925.2888,2288.22431
3925.2888,2280.08623
3926.84314,2293.6497
3926.84314,2281.44257
3926.84314,2286.86796
3928.39748,2285.51162
3928.39748,2297.71875
3929.95182,2289.58066
3929.95182,2285.51162
3929.95182,2280.08623
3929.95182,2299.07509
3931.50616,2284.15527
3931.50616,2297.71875
3933.0605,2304.50049
3933.0605,2288.22431
3933.0605,2284.15527
3934.61483,2295.00605
3934.61483,2312.63857
3936.16917,2316.70762
3936.16917,2305.85683
3936.16917,2322.13301
3937.72351,2312.63857
3937.72351,2322.13301
3939.27785,2331.62744
3939.27785,2316.70762
3940.83219,2331.62744
3940.83219,2322.13301
3940.83219,2339.76553
3942.38653,2335.69648
3942.38653,2328.91475
3942.38653,2324.8457
3942.38653,2341.12187
3943.94087,2331.62744
3943.94087,2343.83457
3945.49521,2346.54727
3945.49521,2338.40918
3947.04955,2342.47822
3947.04955,2347.90361
3948.60388,2349.25996
3950.15822,2342.47822
3950.15822,2349.25996
3951.71256,2350.61631
3951.71256,2342.47822
3953.2669,2346.54727
3953.2669,2335.69648
3953.2669,2350.61631
3954.82124,2349.25996
3954.82124,2343.83457
3954.82124,2322.13301
3956.37558,2331.62744
3956.37558,2311.28222
3956.37558,2303.14414
3956.37558,2315.35127
3957.92992,2331.62744
3957.92992,2323.48935
3957.92992,2308.56953
3959.48426,2319.42031
3959.48426,2299.07509
3959.48426,2309.92588
3961.03859,2297.71875
3962.59293,2303.14414
3962.59293,2299.07509
3964.14727,2300.43144
3965.70161,2307.21318
3965.70161,2301.78779
3967.25595,2309.92588
3967.25595,2305.85683
3967.25595,2301.78779
3968.81029,2313.99492
3968.81029,2305.85683
3970.36463,2319.42031
3970.36463,2312.63857
3970.36463,2308.56953
3971.91897,2323.48935
3971.91897,2316.70762
3971.91897,2312.63857
3973.4733,2330.27109
3973.4733,2322.13301
3973.4733,2315.35127
3975.02764,2332.98379
3975.02764,2328.91475
3975.02764,2324.8457
3975.02764,2322.13301
