Raman Shift,Intensity
91.55994,774.9752
92.04205,785.8957
92.52417,801.0117
93.00629,816.3635
93.4884,826.4035
93.97052,826.1699
94.45264,814.3582
94.93475,801.2628
95.41687,789.1368
95.89898,779.217
96.3811,770.3372
96.86321,761.2862
97.34533,751.0046
97.82745,738.6723
98.30956,728.5523
98.79168,721.4873
99.2738,715.133
99.75591,708.8219
100.238,702.5427
100.7201,696.5945
101.2023,691.2502
101.6844,686.2726
102.1665,680.8361
102.6486,674.1633
103.1307,667.4081
103.6128,661.5201
104.095,656.4034
104.5771,652.1971
105.0592,649.1932
105.5413,646.9
106.0234,644.7424
106.5055,642.3402
106.9877,639.8126
107.4698,637.8265
107.9519,637.3748
108.434,636.0988
108.9161,633.071
109.3982,628.4854
109.8804,622.907
110.3625,616.4614
110.8446,608.7253
111.3267,602.4814
111.8088,598.2493
112.2909,594.8897
112.7731,592.1132
113.2552,589.7771
113.7373,587.6937
114.2194,585.6286
114.7015,583.5477
115.1836,581.512
115.6658,579.7067
116.1479,577.8557
116.63,575.7106
117.1121,573.1782
117.5942,570.2903
118.0763,566.9841
118.5584,562.7466
119.0406,559.1614
119.5227,557.3122
120.0048,556.5751
120.4869,555.1221
120.969,551.8056
121.4511,547.528
121.9333,544.1794
122.4154,541.9429
122.8975,540.3012
123.3796,538.9961
123.8617,538.0687
124.3438,537.0699
124.826,536.0422
125.3081,534.7374
125.7902,532.7816
126.2723,529.9121
126.7544,526.5056
127.2365,523.3879
127.7187,520.455
128.2008,518.0524
128.6829,516.3663
129.165,515.1425
129.6471,514.0993
130.1292,513.1064
130.6114,512.1434
131.0935,510.8758
131.5756,508.9857
132.0577,507.0748
132.5398,505.3882
133.0219,503.8212
133.5041,502.0669
133.9862,499.7832
134.4683,496.7759
134.9504,494.5756
135.4325,493.5687
135.9146,492.879
136.3968,492.0305
136.8789,490.9706
137.361,489.9306
137.8431,489.247
138.3252,489.0435
138.8073,488.4624
139.2895,487.0775
139.7716,485.4348
140.2537,484.217
140.7358,483.6342
141.2179,483.2589
141.7,482.6286
142.1821,481.7841
142.6643,480.6654
143.1464,479.0898
143.6285,477.1827
144.1106,475.3771
144.5927,473.744
145.0748,472.2923
145.557,470.9513
146.0391,469.7256
146.5212,468.7014
147.0033,467.9889
147.4854,467.6098
147.9675,467.3217
148.4497,467.6978
148.9318,467.7411
149.4139,466.6004
149.896,464.1646
150.3781,461.3545
150.8602,459.6154
151.3424,459.5179
151.8245,459.2655
152.3066,458.625
152.7887,457.825
153.2708,456.9914
153.7529,456.184
154.2351,455.4419
154.7172,454.8736
155.1993,454.8442
155.6814,454.5494
156.1635,453.7701
156.6456,452.7616
157.1278,451.8846
157.6099,451.3353
158.092,450.9594
158.5741,450.0735
159.0562,448.0404
159.5383,446.2791
160.0205,445.2433
160.5026,444.7469
160.9847,444.336
161.4668,443.7271
161.9489,443.037
162.431,442.7465
162.9131,443.2255
163.3953,443.7173
163.8774,443.8646
164.3595,443.6726
164.8416,443.1502
165.3237,442.107
165.8058,440.7657
166.288,439.6519
166.7701,438.8898
167.2522,438.3172
167.7343,437.8091
168.2164,437.397
168.6985,436.9036
169.1807,436.0413
169.6628,435.0782
170.1449,434.3672
170.627,434.1368
171.1091,434.1861
171.5912,434.0729
172.0734,433.7989
172.5555,433.3323
173.0376,432.528
173.5197,431.5832
174.0018,430.7901
174.4839,430.3697
174.9661,430.2399
175.4482,429.8854
175.9303,428.9381
176.4124,428.1849
176.8945,427.8893
177.3766,427.9302
177.8588,428.1086
178.3409,428.3145
178.823,428.5501
179.3051,428.5069
179.7872,427.8223
180.2693,427.2142
180.7515,426.955
181.2336,426.9649
181.7157,427.0099
182.1978,426.9001
182.6799,426.6274
183.162,426.2222
183.6441,425.5616
184.1263,424.9042
184.6084,424.4218
185.0905,424.0897
185.5726,423.7017
186.0547,422.9976
186.5368,421.9001
187.019,421.435
187.5011,422.0921
187.9832,423.0092
188.4653,423.5901
188.9474,423.7665
189.4296,423.7677
189.9117,423.8001
190.3938,423.8583
190.8759,423.8115
191.358,423.697
191.8401,423.4483
192.3223,422.8664
192.8044,421.847
193.2865,420.9233
193.7686,420.8402
194.2507,421.335
194.7328,421.6193
195.215,421.1873
195.6971,420.424
196.1792,420.1832
196.6613,420.7881
197.1434,421.3439
197.6255,420.9822
198.1077,420.0225
198.5898,419.2918
199.0719,419.3627
199.554,420.0474
200.0361,420.5191
200.5182,420.5776
201.0004,420.6777
201.4825,421.1395
201.9646,421.8392
202.4467,422.4591
202.9288,422.7053
203.4109,422.612
203.893,422.7594
204.3752,423.4996
204.8573,424.1227
205.3394,424.358
205.8215,424.2605
206.3036,423.9832
206.7857,423.5684
207.2679,422.9902
207.75,422.7978
208.2321,423.4738
208.7142,424.1158
209.1963,424.4015
209.6784,424.3947
210.1606,424.3429
210.6427,424.4678
211.1248,424.7921
211.6069,425.0764
212.089,425.3234
212.5711,425.5311
213.0533,425.7037
213.5354,425.8369
214.0175,425.9019
214.4996,425.8417
214.9817,425.5933
215.4638,425.7069
215.946,426.436
216.4281,427.2167
216.9102,427.7483
217.3923,428.0501
217.8744,428.3532
218.3565,428.8794
218.8387,429.6685
219.3208,430.3123
219.8029,430.9928
220.285,431.4099
220.7671,431.0621
221.2492,430.0782
221.7314,429.4112
222.2135,430.0003
222.6956,431.9477
223.1777,433.3436
223.6598,433.7653
224.1419,433.9559
224.624,434.5987
225.1062,435.6977
225.5883,436.5235
226.0704,436.2861
226.5525,435.1475
227.0346,434.5385
227.5167,434.7658
227.9989,435.423
228.481,436.1996
228.9631,437.0816
229.4452,438.0546
229.9273,439.2935
230.4094,440.604
230.8916,441.4482
231.3737,441.2793
231.8558,440.8532
232.3379,441.0878
232.82,442.0685
233.3021,443.1057
233.7843,443.696
234.2664,444.0733
234.7485,444.6057
235.2306,445.5144
235.7127,446.5065
236.1948,447.1506
236.677,447.3712
237.1591,447.5699
237.6412,447.8621
238.1233,448.2788
238.6054,448.9243
239.0875,449.9406
239.5697,451.041
240.0518,451.7206
240.5339,451.8531
241.016,451.9748
241.4981,451.9266
241.9802,452.1174
242.4624,453.1414
242.9445,455.3607
243.4266,457.9781
243.9087,459.522
244.3908,459.5312
244.8729,459.7051
245.355,460.7317
245.8372,461.9939
246.3193,462.9483
246.8014,463.4021
247.2835,463.615
247.7656,464.0666
248.2477,464.9116
248.7299,465.6162
249.212,465.961
249.6941,466.2196
250.1762,466.5371
250.6583,466.9696
251.1404,467.5949
251.6226,468.6407
252.1047,470.4834
252.5868,471.8659
253.0689,472.4529
253.551,472.7717
254.0331,473.1592
254.5153,473.7128
254.9974,474.363
255.4795,474.9919
255.9616,475.4981
256.4437,476.221
256.9258,477.2567
257.408,478.401
257.8901,479.5792
258.3722,480.7497
258.8543,481.8531
259.3364,482.7606
259.8185,483.2203
260.3007,484.155
260.7828,485.7138
261.2649,487.529
261.747,489.5605
262.2291,491.7034
262.7112,493.6299
263.1934,494.9342
263.6755,495.3813
264.1576,496.0365
264.6397,496.9108
265.1218,497.9312
265.6039,499.0803
266.0861,500.3387
266.5682,501.6729
267.0503,503.0461
267.5324,504.4423
268.0145,505.9825
268.4966,507.8195
268.9788,509.6313
269.4609,511.3247
269.943,512.8599
270.4251,514.139
270.9072,515.0212
271.3893,515.4718
271.8715,516.4401
272.3536,518.1339
272.8357,520.014
273.3178,522.0181
273.7999,524.0388
274.282,525.8069
274.7642,527.0845
275.2463,527.9422
275.7284,529.2477
276.2105,531.1296
276.6926,533.1967
277.1747,535.5702
277.6568,538.0446
278.1389,540.1234
278.6211,541.4793
279.1032,542.321
279.5853,543.5696
280.0674,545.3967
280.5495,547.338
281.0316,549.4337
281.5138,551.5512
281.9959,553.3755
282.478,554.714
282.9601,555.8685
283.4422,557.6469
283.9243,560.4857
284.4065,563.0432
284.8886,564.8102
285.3707,566.1971
285.8528,567.8688
286.3349,570.0794
286.817,572.419
287.2992,574.1094
287.7813,574.8284
288.2634,576.0189
288.7455,578.4025
289.2276,581.1686
289.7097,583.154
290.1919,584.0651
290.674,584.8481
291.1561,586.8471
291.6382,590.2897
292.1203,593.0707
292.6024,594.5156
293.0846,595.4715
293.5667,596.7287
294.0488,598.3956
294.5309,600.1906
295.013,601.8797
295.4951,603.4573
295.9773,605.0179
296.4594,606.585
296.9415,608.1178
297.4236,609.6318
297.9057,611.1051
298.3878,612.3939
298.87,613.2963
299.3521,613.9101
299.8342,614.8692
300.3163,616.5803
300.7984,618.2491
301.2805,619.398
301.7627,620.095
302.2448,620.6621
302.7269,621.192
303.209,621.7713
303.6911,622.6591
304.1732,624.1316
304.6554,625.4522
305.1375,626.3499
305.6196,626.8553
306.1017,626.9534
306.5838,626.5144
307.0659,625.9022
307.5481,625.8875
308.0302,626.5981
308.5123,627.2433
308.9944,627.4405
309.4765,627.434
309.9586,627.7081
310.4408,628.4406
310.9229,629.2207
311.405,629.3477
311.8871,628.7809
312.3692,628.6144
312.8513,629.6363
313.3335,630.901
313.8156,631.016
314.2977,629.731
314.7798,628.5341
315.2619,629.037
315.744,631.1077
316.2262,632.4447
316.7083,632.3122
317.1904,631.7672
317.6725,631.6916
318.1546,632.0878
318.6367,632.4746
319.1188,632.5856
319.601,632.4005
320.0831,631.9889
320.5652,630.9012
321.0473,630.0357
321.5294,630.2322
322.0115,631.1523
322.4937,631.5333
322.9758,630.6593
323.4579,629.038
323.94,627.9863
324.4221,627.6471
324.9042,627.4313
325.3864,627.1936
325.8685,626.9309
326.3506,626.5867
326.8327,626.1078
327.3148,625.6832
327.7969,625.7559
328.2791,626.4996
328.7612,626.7076
329.2433,625.8762
329.7254,624.5247
330.2075,623.1007
330.6896,621.6815
331.1718,620.5367
331.6539,619.965
332.136,620.027
332.6181,620.2341
333.1002,621.1067
333.5823,621.7137
334.0645,621.0849
334.5466,619.36
335.0287,617.7255
335.5108,617.03
335.9929,617.1514
336.475,617.0709
336.9572,616.5303
337.4393,616.0749
337.9214,616.1711
338.4035,616.5332
338.8856,616.4222
339.3677,615.4358
339.8499,613.9114
340.332,612.7963
340.8141,612.5297
341.2962,611.8248
341.7783,609.8574
342.2604,607.5231
342.7426,606.1441
343.2247,606.1049
343.7068,606.5062
344.1889,606.0995
344.671,604.5193
345.1531,603.1044
345.6353,601.8168
346.1174,600.7413
346.5995,600.2229
347.0816,600.1489
347.5637,599.6893
348.0458,597.9695
348.528,594.8854
349.0101,592.8488
349.4922,592.7255
349.9743,592.5922
350.4564,591.5553
350.9385,589.8679
351.4207,588.2426
351.9028,587.125
352.3849,586.337
352.867,585.0856
353.3491,582.8232
353.8312,580.785
354.3134,579.1326
354.7955,577.7798
355.2776,576.7692
355.7597,576.0934
356.2418,575.3671
356.7239,573.8808
357.2061,570.9821
357.6882,568.6454
358.1703,567.3054
358.6524,566.14
359.1345,564.5536
359.6166,562.5247
360.0987,560.457
360.5808,558.7367
361.063,557.3969
361.5451,556.0722
362.0272,555.3868
362.5093,554.0793
362.9914,551.1595
363.4735,547.3366
363.9557,544.0145
364.4378,542.0662
364.9199,541.1791
365.402,540.0233
365.8841,538.3518
366.3662,536.7415
366.8484,535.4454
367.3305,534.1566
367.8126,532.598
368.2947,530.6821
368.7768,528.4604
369.2589,525.9333
369.7411,522.9081
370.2232,520.1185
370.7053,517.6324
371.1874,515.3246
371.6695,513.1682
372.1516,511.1348
372.6338,509.1201
373.1159,507.0532
373.598,504.9374
374.0801,502.7599
374.5622,500.3218
375.0443,498.0742
375.5265,496.4252
376.0086,494.9912
376.4907,493.166
376.9728,490.5843
377.4549,487.5856
377.937,484.8787
378.4192,482.4731
378.9013,480.3461
379.3834,478.7051
379.8655,477.2064
380.3476,475.6346
380.8297,473.9445
381.3119,472.1059
381.794,470.0017
382.2761,467.638
382.7582,465.5058
383.2403,463.8916
383.7224,462.2569
384.2046,460.1733
384.6867,457.7553
385.1688,455.3652
385.6509,453.1129
386.133,451.0588
386.6151,449.3997
387.0973,448.2444
387.5794,447.1046
388.0615,445.7331
388.5436,444.1817
389.0257,442.4674
389.5078,440.4697
389.99,438.5285
390.4721,437.0641
390.9542,435.9942
391.4363,434.7419
391.9184,433.1525
392.4005,431.2413
392.8827,428.7855
393.3648,425.6717
393.8469,423.3146
394.329,423.0228
394.8111,423.597
395.2932,423.0323
395.7754,420.9669
396.2575,418.5605
396.7396,416.7333
397.2217,415.479
397.7038,414.3488
398.1859,413.5475
398.6681,412.6594
399.1501,411.2877
399.6323,409.5638
400.1144,407.9693
400.5965,406.7491
401.0786,405.8061
401.5607,404.9129
402.0428,404.2617
402.525,403.319
403.0071,401.663
403.4892,399.8131
403.9713,398.4657
404.4534,397.7559
404.9355,397.1557
405.4177,396.0296
405.8998,394.2432
406.3819,392.6105
406.864,391.2545
407.3461,389.9224
407.8282,388.3539
408.3104,386.696
408.7925,385.3229
409.2746,384.4682
409.7567,384.0469
410.2388,383.6572
410.7209,383.6265
411.2031,383.1759
411.6852,382.1818
412.1673,380.7845
412.6494,378.9418
413.1315,376.7167
413.6136,374.5266
414.0958,372.9735
414.5779,372.2252
415.06,371.4165
415.5421,370.5929
416.0242,369.6671
416.5063,368.3484
416.9885,366.8865
417.4706,365.9529
417.9527,366.1985
418.4348,367.0714
418.9169,366.5308
419.399,363.8786
419.8812,361.3578
420.3633,359.673
420.8454,358.4242
421.3275,357.438
421.8096,356.6939
422.2917,355.6932
422.7739,353.59
423.256,350.473
423.7381,348.2104
424.2202,347.5297
424.7023,347.1586
425.1844,346.1792
425.6666,344.6848
426.1487,342.9878
426.6308,341.1136
427.1129,339.1552
427.595,337.2193
428.0771,335.2877
428.5593,333.528
429.0414,332.1432
429.5235,330.9448
430.0056,329.4545
430.4877,327.4069
430.9698,325.6714
431.452,325.1084
431.9341,325.1047
432.4162,324.3525
432.8983,322.4848
433.3804,320.1823
433.8625,318.1893
434.3447,316.5547
434.8268,314.9154
435.3089,313.1336
435.791,311.4486
436.2731,310.1137
436.7552,309.0387
437.2374,307.8617
437.7195,306.3322
438.2016,304.6245
438.6837,303.4375
439.1658,303.8552
439.6479,303.3933
440.1301,301.321
440.6122,298.6227
441.0943,296.093
441.5764,293.966
442.0585,292.1895
442.5406,290.781
443.0227,289.8247
443.5049,288.6048
443.987,286.8503
444.4691,285.1149
444.9512,283.5265
445.4333,282.0901
445.9154,280.8097
446.3976,279.7199
446.8797,278.681
447.3618,277.3406
447.8439,275.5534
448.326,273.8984
448.8081,272.5529
449.2903,271.3119
449.7724,270.1694
450.2545,269.0665
450.7366,267.722
451.2187,265.7153
451.7008,263.2466
452.183,261.2764
452.6651,260.0031
453.1472,258.7947
453.6293,257.1698
454.1114,255.4002
454.5935,253.9096
455.0757,252.9248
455.5578,251.9767
456.0399,250.5919
456.522,248.8859
457.0041,247.3817
457.4862,246.3058
457.9684,245.3078
458.4505,243.8353
458.9326,241.8907
459.4147,240.1688
459.8968,238.9628
460.3789,237.9156
460.8611,236.8884
461.3432,235.79
461.8253,234.2026
462.3074,231.7122
462.7895,228.684
463.2716,226.5998
463.7538,226.1763
464.2359,225.6865
464.718,225.0053
465.2001,224.1223
465.6822,222.9507
466.1643,221.5089
466.6465,220.0281
467.1286,218.776
467.6107,217.7765
468.0928,216.6677
468.5749,215.0181
469.057,213.7232
469.5392,213.4328
470.0213,213.543
470.5034,213.054
470.9855,211.4986
471.4676,209.5967
471.9497,208.765
472.4319,209.3581
472.914,209.4653
473.3961,208.4073
473.8782,207.1262
474.3603,206.148
474.8424,205.4364
475.3246,204.6651
475.8067,203.4108
476.2888,202.0561
476.7709,201.5898
477.253,202.1792
477.7351,202.6103
478.2173,202.2032
478.6994,201.3545
479.1815,200.6938
479.6636,200.2666
480.1457,199.9508
480.6278,199.7693
481.11,199.6367
481.592,199.3997
482.0742,199.0306
482.5563,198.566
483.0384,197.9929
483.5205,197.3212
484.0026,196.8253
484.4847,196.6527
484.9669,196.4841
485.449,196.3059
485.9311,196.0162
486.4132,195.3915
486.8953,194.3506
487.3774,193.1464
487.8596,192.2545
488.3417,192.0282
488.8238,191.0951
489.3059,188.8577
489.788,186.611
490.2701,185.1001
490.7523,184.0937
491.2344,182.9406
491.7165,181.2265
492.1986,179.1893
492.6807,177.512
493.1628,176.3622
493.645,175.1212
494.1271,173.7194
494.6092,172.1483
495.0913,170.2616
495.5734,168.1174
496.0555,166.1164
496.5377,164.5957
497.0198,163.4375
497.5019,162.391
497.984,161.4981
498.4661,160.4755
498.9482,158.9917
499.4304,157.333
499.9125,156.0715
500.3946,155.3681
500.8767,154.7262
501.3588,153.9059
501.8409,152.9747
502.3231,152.0137
502.8052,151.0409
503.2873,150.1255
503.7694,149.3592
504.2515,148.7438
504.7336,148.0095
505.2158,147.0197
505.6979,146.078
506.18,145.2446
506.6621,144.5412
507.1442,144.052
507.6263,143.7949
508.1085,143.5963
508.5906,143.1873
509.0727,142.5135
509.5548,141.8217
510.0369,140.9312
510.519,140.205
511.0012,139.9166
511.4833,139.8751
511.9654,139.7223
512.4475,139.2786
512.9296,138.6415
513.4117,137.901
513.8939,137.0038
514.376,136.4254
514.8581,136.611
515.3402,136.7986
515.8223,136.2249
516.3044,135.0146
516.7866,134.0268
517.2687,133.8092
517.7508,133.8981
518.2329,133.6854
518.715,133.185
519.1971,132.7267
519.6793,132.4855
520.1614,132.3559
520.6435,132.1109
521.1256,131.7541
521.6077,131.3036
522.0898,130.5965
522.572,129.9129
523.0541,129.5663
523.5362,129.5199
524.0183,129.4774
524.5004,129.2313
524.9825,128.8085
525.4647,128.3278
525.9468,127.6322
526.4289,127.1187
526.911,126.9894
527.3931,126.9273
527.8752,126.6827
528.3574,126.2265
528.8395,125.6737
529.3216,125.0729
529.8037,124.4557
530.2858,124.0224
530.7679,123.8332
531.2501,123.6926
531.7322,123.574
532.2143,123.4343
532.6964,123.2013
533.1785,122.847
533.6606,122.5219
534.1428,122.3526
534.6249,122.2761
535.107,122.182
535.5891,122.062
536.0712,121.839
536.5533,121.4304
537.0355,120.8632
537.5176,120.3362
537.9997,119.6498
538.4818,119.2383
538.9639,119.611
539.446,120.147
539.9282,119.9415
540.4103,118.8754
540.8924,117.6742
541.3745,117.1089
541.8566,117.1988
542.3387,117.2561
542.8209,117.4097
543.3029,117.3631
543.785,116.8849
544.2672,116.26
544.7493,115.8286
545.2314,115.6753
545.7135,115.5841
546.1956,115.276
546.6777,114.781
547.1599,114.4918
547.642,114.5162
548.1241,114.5624
548.6062,114.462
549.0883,114.2608
549.5704,114.0153
550.0526,113.722
550.5347,113.4146
551.0168,113.0877
551.4989,112.7655
551.981,112.5013
552.4631,112.3069
552.9453,112.147
553.4274,111.9895
553.9095,111.8338
554.3916,111.7052
554.8737,111.7937
555.3558,111.6795
555.838,111.0177
556.3201,110.1922
556.8022,109.7609
557.2843,109.8247
557.7664,109.9271
558.2485,109.4724
558.7307,108.4308
559.2128,107.7542
559.6949,107.6135
560.177,107.6218
560.6591,107.7477
561.1412,107.8848
561.6234,107.9388
562.1055,107.8955
562.5876,107.657
563.0697,106.9062
563.5518,105.8762
564.0339,105.453
564.5161,105.8478
564.9982,106.2749
565.4803,106.1332
565.9624,105.5557
566.4445,105.1967
566.9266,105.2984
567.4088,105.2731
567.8909,104.8029
568.373,104.1513
568.8551,103.6342
569.3372,103.3125
569.8193,103.0748
570.3015,102.8232
570.7836,102.5603
571.2657,102.3514
571.7478,102.1819
572.2299,102.0925
572.712,102.1831
573.1942,102.2938
573.6763,102.2392
574.1584,102.0108
574.6405,101.8065
575.1226,101.8875
575.6047,102.1471
576.0869,102.1218
576.569,101.7675
577.0511,101.3087
577.5332,100.8037
578.0153,100.2835
578.4974,99.75852
578.9796,99.17966
579.4617,98.82125
579.9438,98.99046
580.4259,99.31392
580.908,99.35275
581.3901,99.09953
581.8723,98.77238
582.3544,98.48724
582.8365,98.27215
583.3186,98.2285
583.8007,98.61833
584.2828,98.77727
584.765,98.61236
585.2471,98.29898
585.7292,97.87804
586.2113,97.40808
586.6934,96.9997
587.1755,96.726
587.6577,96.54967
588.1398,96.43398
588.6219,96.41146
589.104,96.19541
589.5861,95.50124
590.0682,94.8298
590.5504,94.71632
591.0325,95.07444
591.5146,95.35143
591.9967,95.38537
592.4788,95.26713
592.9609,95.0106
593.4431,94.66113
593.9252,94.33725
594.4073,94.08105
594.8894,93.88677
595.3715,93.76363
595.8536,93.7597
596.3358,93.60117
596.8179,93.09904
597.3,92.67567
597.7821,92.52107
598.2642,92.52203
598.7463,92.50911
599.2285,92.42427
599.7106,92.32787
600.1927,92.30396
600.6748,92.34854
601.1569,92.38687
601.639,92.50292
602.1212,92.42422
602.6033,91.69946
603.0854,90.76859
603.5675,90.3736
604.0496,90.77874
604.5317,91.18411
605.0139,91.13847
605.496,90.86629
605.9781,90.66592
606.4602,90.58035
606.9423,90.58183
607.4244,90.67135
607.9066,90.81113
608.3887,90.8287
608.8708,90.65884
609.3529,90.45195
609.835,90.14539
610.3171,89.86123
610.7993,89.68663
611.2814,89.61536
611.7635,89.60341
612.2456,89.65018
612.7277,89.6939
613.2098,89.55581
613.692,89.20802
614.1741,89.01774
614.6562,89.18183
615.1383,89.3887
615.6204,89.29781
616.1025,88.9575
616.5847,88.64159
617.0668,88.33308
617.5489,88.1365
618.031,88.21675
618.5131,88.44033
618.9952,88.55671
619.4774,88.48866
619.9595,88.26894
620.4416,87.91557
620.9237,87.41336
621.4058,86.9911
621.8879,86.66476
622.3701,86.40623
622.8522,86.18229
623.3343,86.03892
623.8164,86.05368
624.2985,86.23038
624.7806,86.44444
625.2628,86.66788
625.7448,86.84138
626.2269,86.7131
626.709,86.23948
627.1912,85.96423
627.6733,86.25493
628.1554,86.772
628.6375,86.83121
629.1196,86.34807
629.6017,85.92583
630.0839,85.5856
630.566,85.3913
631.0481,85.47588
631.5302,85.73439
632.0123,85.94416
632.4944,86.00244
632.9766,85.93914
633.4587,85.76894
633.9408,85.44466
634.4229,85.25369
634.905,85.24361
635.3871,85.31804
635.8693,85.53837
636.3514,85.77339
636.8335,85.78512
637.3156,85.46437
637.7977,85.16273
638.2798,85.17672
638.762,85.36893
639.2441,85.46333
639.7262,85.43306
640.2083,85.4753
640.6904,85.77287
641.1725,86.17577
641.6547,86.17618
642.1368,85.28919
642.6189,84.7084
643.101,84.59136
643.5831,84.63811
644.0652,84.70126
644.5474,84.76421
645.0295,84.87296
645.5116,85.07207
645.9937,85.22803
646.4758,85.06876
646.9579,84.59764
647.4401,84.196
647.9222,83.86942
648.4043,83.73598
648.8864,84.07833
649.3685,84.69209
649.8506,84.90932
650.3328,84.3739
650.8149,83.91241
651.297,83.93787
651.7791,84.16402
652.2612,84.25928
652.7433,84.18736
653.2255,84.07524
653.7076,84.01015
654.1897,83.99187
654.6718,84.03624
655.1539,84.20955
655.636,84.28246
656.1182,84.1013
656.6003,83.91422
657.0824,83.8522
657.5645,83.89726
658.0466,83.97538
658.5287,84.0626
659.0109,84.16494
659.493,84.39139
659.9751,84.63435
660.4572,84.50381
660.9393,83.90376
661.4214,83.32837
661.9036,83.23257
662.3857,83.56458
662.8678,83.76048
663.3499,83.80683
663.832,83.73045
664.3141,83.43889
664.7963,83.09834
665.2784,82.7797
665.7605,82.52895
666.2426,82.44253
666.7247,82.62863
667.2068,82.93044
667.689,83.05461
668.1711,83.00658
668.6532,82.96832
669.1353,82.97587
669.6174,83.01455
670.0995,83.1041
670.5817,83.22691
671.0638,83.23124
671.5459,82.92028
672.028,82.72923
672.5101,82.91457
672.9922,83.21915
673.4744,83.38094
673.9565,83.3617
674.4386,83.24397
674.9207,83.07684
675.4028,82.87987
675.8849,82.69458
676.3671,82.49227
676.8492,82.43874
677.3313,82.67349
677.8134,82.94776
678.2955,83.14951
678.7776,83.24156
679.2598,83.06193
679.7419,82.26592
680.224,81.58501
680.7061,81.50525
681.1882,81.7976
681.6703,82.21091
682.1525,82.64838
682.6346,82.87834
683.1167,82.67187
683.5988,82.14644
684.0809,81.89946
684.563,82.10702
685.0452,82.20891
685.5273,81.96465
686.0094,81.74191
686.4915,81.84505
686.9736,82.15186
687.4557,82.26807
687.9379,81.96313
688.42,81.56731
688.9021,81.33109
689.3842,81.23425
689.8663,81.27694
690.3484,81.45348
690.8306,81.59052
691.3127,81.53347
691.7948,81.3389
692.2769,81.3013
692.759,81.6731
693.2411,81.79369
693.7233,81.39877
694.2054,80.97644
694.6875,80.82857
695.1696,80.89896
695.6517,80.99644
696.1339,81.05442
696.616,81.05822
697.0981,80.93919
697.5802,80.74859
698.0623,80.67094
698.5444,80.73709
699.0266,80.8788
699.5087,81.07265
699.9908,81.28996
700.4729,81.42029
700.955,81.46884
701.4371,81.4132
701.9193,81.12163
702.4014,80.84665
702.8835,80.70166
703.3656,80.70222
703.8477,80.90533
704.3298,81.36294
704.812,81.76936
705.2941,81.63987
705.7762,81.10298
706.2583,80.79871
706.7404,80.80862
707.2225,80.90276
707.7046,80.95847
708.1867,81.00161
708.6688,81.1055
709.1509,81.31158
709.6331,81.46839
710.1152,81.66057
710.5973,81.70834
711.0794,81.34003
711.5615,80.79569
712.0436,80.51008
712.5258,80.63703
713.0079,80.93972
713.49,81.17721
713.9721,81.3562
714.4542,81.54813
714.9363,81.77918
715.4185,81.85088
715.9006,81.60325
716.3827,81.217
716.8648,81.0032
717.3469,80.99168
717.829,80.95415
718.3112,80.73823
718.7933,80.63583
719.2754,80.99858
719.7575,81.48038
720.2396,81.5614
720.7217,81.12473
721.2039,80.47251
721.686,79.77418
722.1681,79.1256
722.6502,78.98894
723.1323,79.43043
723.6144,79.82579
724.0966,79.96775
724.5787,80.00037
725.0608,80.07682
725.5429,80.19724
726.025,80.31726
726.5071,80.43462
726.9893,80.55305
727.4714,80.67336
727.9535,80.79668
728.4356,80.9943
728.9177,81.21982
729.3998,81.23264
729.882,80.78862
730.3641,80.14198
730.8462,79.88943
731.3283,80.04302
731.8104,80.30068
732.2925,80.69442
732.7747,80.96498
733.2568,80.8023
733.7389,80.31675
734.221,80.10389
734.7031,80.24647
735.1852,80.52961
735.6674,81.15218
736.1495,81.70499
736.6316,81.81893
737.1137,81.5635
737.5958,81.18703
738.0779,80.79564
738.5601,80.47374
739.0422,80.33585
739.5243,80.37802
740.0064,80.60903
740.4885,81.08402
740.9706,81.49473
741.4528,81.65229
741.9349,81.64815
742.417,81.67955
742.8991,81.76199
743.3812,81.82523
743.8633,81.87685
744.3455,81.89527
744.8276,81.83189
745.3097,81.74265
745.7918,81.68953
746.2739,81.69826
746.756,81.80853
747.2382,82.16035
747.7203,82.62653
748.2024,82.75594
748.6845,82.53912
749.1666,82.39584
749.6487,82.47659
750.1309,82.65897
750.613,82.82258
751.0951,82.9683
751.5772,83.03499
752.0593,82.77795
752.5414,82.76278
753.0236,83.38301
753.5057,84.10167
753.9878,84.41284
754.4699,84.33212
754.952,84.17983
755.4341,84.08607
755.9163,84.11259
756.3984,84.44465
756.8805,84.99059
757.3626,85.30849
757.8447,85.31454
758.3268,85.29886
758.809,85.45262
759.2911,85.75366
759.7732,86.12453
760.2553,86.53389
760.7374,87.0832
761.2195,87.95033
761.7017,88.76089
762.1838,89.30923
762.6659,89.69535
763.148,90.09061
763.6301,90.5416
764.1122,90.98244
764.5944,91.21156
765.0765,91.47939
765.5586,92.23684
766.0407,93.43681
766.5228,94.75044
767.0049,96.06821
767.4871,97.28165
767.9692,98.19727
768.4513,98.79835
768.9334,99.68478
769.4155,100.9657
769.8976,102.3644
770.3798,103.9517
770.8619,105.5268
771.344,106.8032
771.8261,107.8727
772.3082,109.2342
772.7903,111.3037
773.2725,113.3887
773.7546,114.8696
774.2367,116.1063
774.7188,117.7288
775.2009,119.7542
775.683,121.7492
776.1652,123.4638
776.6473,124.8405
777.1294,125.6235
777.6115,125.6777
778.0936,126.0954
778.5757,127.1745
779.0579,128.2036
779.54,128.8798
780.0221,129.2216
780.5042,129.1754
780.9863,128.6205
781.4684,128.2779
781.9506,128.7366
782.4327,129.0456
782.9148,128.433
783.3969,127.3038
783.879,126.3156
784.3611,125.6631
784.8433,125.2489
785.3254,125.1365
785.8075,125.0987
786.2896,124.3345
786.7717,122.834
787.2538,121.4942
787.736,120.5748
788.2181,119.7557
788.7002,118.7268
789.1823,117.5315
789.6644,116.5759
790.1465,116.0549
790.6286,115.4768
791.1107,114.8468
791.5928,114.1115
792.075,113.0539
792.5571,111.8993
793.0392,111.1756
793.5213,111.1312
794.0034,111.0414
794.4855,110.1363
794.9677,108.8083
795.4498,107.771
795.9319,107.0378
796.414,106.4111
796.8961,105.8064
797.3782,105.2712
797.8604,104.9005
798.3425,104.7065
798.8246,104.3012
799.3067,103.5503
799.7888,102.8271
800.2709,102.2146
800.7531,101.6714
801.2352,101.2074
801.7173,100.8
802.1994,100.35
802.6815,99.66853
803.1636,99.17751
803.6458,99.37943
804.1279,99.71911
804.61,99.48547
805.0921,98.73305
805.5742,97.92274
806.0563,97.30147
806.5385,96.8298
807.0206,96.49458
807.5027,96.28102
807.9848,95.96233
808.4669,95.49461
808.949,95.09634
809.4312,94.87415
809.9133,94.76145
810.3954,94.69581
810.8775,94.70996
811.3596,94.53237
811.8417,94.01474
812.3239,93.49917
812.806,93.01682
813.2881,92.62327
813.7702,92.39558
814.2523,92.31393
814.7344,92.29829
815.2166,92.38177
815.6987,92.36113
816.1808,91.92828
816.6629,91.25536
817.145,90.6669
817.6271,90.22181
818.1093,90.04012
818.5914,90.2239
819.0735,90.50736
819.5556,90.33097
820.0377,89.58719
820.5198,89.05665
821.002,88.79577
821.4841,88.63414
821.9662,88.57124
822.4483,88.53404
822.9304,88.43977
823.4125,88.28954
823.8947,88.1465
824.3768,88.02708
824.8589,87.9146
825.341,87.81771
825.8231,87.7144
826.3052,87.62164
826.7874,87.50478
827.2695,87.22827
827.7516,86.6799
828.2337,86.10743
828.7158,85.8998
829.1979,85.97408
829.6801,85.98792
830.1622,85.91099
830.6443,85.83666
831.1264,85.83151
831.6085,85.78696
832.0906,85.49355
832.5728,84.89143
833.0549,84.48804
833.537,84.48707
834.0191,84.39394
834.5012,83.91869
834.9833,83.45742
835.4655,83.48225
835.9476,83.86047
836.4297,83.85575
836.9118,82.87306
837.3939,82.06208
837.876,82.35133
838.3582,82.94653
838.8403,82.85197
839.3224,82.17309
839.8045,81.57551
840.2866,81.37315
840.7687,81.40762
841.2509,81.60752
841.733,81.88891
842.2151,81.62402
842.6972,80.75407
843.1793,80.22277
843.6614,80.46775
844.1436,80.89931
844.6257,80.80411
845.1078,80.19909
845.5899,79.85682
846.072,79.99089
846.5541,80.0795
847.0363,80.07101
847.5184,80.00984
848.0005,79.92871
848.4826,79.8155
848.9647,79.62232
849.4468,79.31017
849.929,79.04001
850.4111,78.90971
850.8932,78.8545
851.3753,78.82408
851.8574,78.81023
852.3395,78.82253
852.8217,78.85689
853.3038,78.85194
853.7859,78.72289
854.268,78.53052
854.7501,78.48038
855.2322,78.57238
855.7144,78.6895
856.1965,78.84963
856.6786,78.82706
857.1607,78.3623
857.6428,77.65381
858.1249,77.36333
858.6071,77.84761
859.0892,77.97402
859.5713,77.27151
860.0534,76.77003
860.5355,77.06982
861.0176,77.63134
861.4998,77.76386
861.9819,77.40743
862.464,77.08096
862.9461,77.08057
863.4282,77.08153
863.9103,76.76674
864.3925,76.36631
864.8746,76.22745
865.3567,76.35247
865.8388,76.5421
866.3209,76.69356
866.803,76.75123
867.2852,76.58665
867.7673,76.24267
868.2494,75.93491
868.7315,75.67632
869.2136,75.45321
869.6957,75.2556
870.1779,75.10542
870.66,75.04465
871.1421,75.07431
871.6242,75.05245
872.1063,74.94447
872.5884,74.84556
873.0705,74.797
873.5526,74.73786
874.0347,74.62337
874.5168,74.47112
874.999,74.32355
875.4811,74.19074
875.9632,74.05505
876.4453,73.82961
876.9274,73.67768
877.4095,73.87381
877.8917,74.17078
878.3738,74.06436
878.8559,73.4983
879.338,73.01005
879.8201,73.12186
880.3022,73.42859
880.7844,73.15873
881.2665,72.50113
881.7486,72.19395
882.2307,72.33794
882.7128,72.50499
883.1949,72.41994
883.6771,72.21606
884.1592,72.19604
884.6413,72.40614
885.1234,72.44346
885.6055,72.26299
886.0876,72.00845
886.5698,71.63916
887.0519,71.30911
887.534,71.22148
888.0161,71.35981
888.4982,71.45714
888.9803,71.55167
889.4625,71.5407
889.9446,71.27073
890.4267,71.01799
890.9088,71.09022
891.3909,71.29154
891.873,71.16418
892.3552,70.56575
892.8373,70.04438
893.3194,70.03037
893.8015,70.2
894.2836,70.28015
894.7657,70.25565
895.2479,70.06767
895.73,69.73972
896.2121,69.47438
896.6942,69.44279
897.1763,69.49833
897.6584,69.30656
898.1406,68.90146
898.6227,68.63741
899.1048,68.55717
899.5869,68.47738
900.069,68.30045
900.5511,68.11148
901.0333,68.04961
901.5154,68.1244
901.9975,68.10347
902.4796,67.9175
902.9617,67.76456
903.4438,67.69826
903.926,67.66019
904.4081,67.61114
904.8902,67.55974
905.3723,67.53329
905.8544,67.55
906.3365,67.54858
906.8187,67.46494
907.3008,67.41118
907.7829,67.51604
908.265,67.66006
908.7471,67.69686
909.2292,67.59433
909.7114,67.36294
910.1935,66.91854
910.6756,66.49268
911.1577,66.34241
911.6398,66.36893
912.1219,66.43031
912.6041,66.48994
913.0862,66.4938
913.5683,66.41642
914.0504,66.30816
914.5325,66.25401
915.0146,66.23034
915.4968,66.05372
915.9789,65.71493
916.461,65.52139
916.9431,65.57346
917.4252,65.68013
917.9073,65.69711
918.3895,65.63188
918.8716,65.50628
919.3537,65.2831
919.8358,65.08947
920.3179,64.92365
920.8,64.7888
921.2822,64.63657
921.7643,64.54771
922.2464,64.69994
922.7285,65.07237
923.2106,65.19164
923.6927,64.70829
924.1749,64.34859
924.657,64.45753
925.1391,64.63908
925.6212,64.5668
926.1033,64.32369
926.5854,64.12492
927.0676,64.03336
927.5497,63.99979
928.0318,64.06039
928.5139,64.10415
928.996,63.98406
929.4781,63.77467
929.9603,63.59992
930.4424,63.49262
930.9245,63.46941
931.4066,63.54779
931.8887,63.6734
932.3708,63.78143
932.853,63.86308
933.3351,63.87724
933.8172,63.82344
934.2993,63.70647
934.7814,63.51583
935.2635,63.40092
935.7457,63.54932
936.2278,63.90117
936.7099,64.09147
937.192,64.0725
937.6741,64.10345
938.1563,64.23772
938.6384,64.37751
939.1205,64.52156
939.6026,64.59565
940.0847,64.43481
940.5668,63.97641
941.049,63.65673
941.5311,63.54597
942.0132,63.47169
942.4953,63.41356
942.9774,63.37102
943.4595,63.29401
943.9417,63.2394
944.4238,63.36734
944.9059,63.76005
945.388,64.13902
945.8701,64.50806
946.3522,64.7259
946.8344,64.55251
947.3165,64.24912
947.7986,64.21176
948.2807,64.43842
948.7628,64.56403
949.2449,64.32234
949.7271,64.09945
950.2092,64.37869
950.6913,64.84877
951.1734,64.99611
951.6555,64.88222
952.1376,64.82589
952.6198,64.93997
953.1019,65.16449
953.584,65.47863
954.0661,65.81789
954.5482,66.00692
955.0303,66.06894
955.5124,66.17466
955.9945,66.34803
956.4766,66.4249
956.9587,66.2901
957.4409,66.17109
957.923,66.49139
958.4051,67.23885
958.8872,67.56619
959.3693,67.37457
959.8514,67.178
960.3336,67.05691
960.8157,67.02404
961.2978,67.10414
961.7799,67.27215
962.262,67.46092
962.7441,67.67811
963.2263,67.89514
963.7084,68.2698
964.1905,68.42629
964.6726,67.94569
965.1547,67.47276
965.6368,67.68513
966.119,68.42062
966.6011,68.87725
967.0832,68.80064
967.5653,68.76212
968.0474,68.98006
968.5295,69.16295
969.0117,69.1007
969.4938,68.92641
969.9759,68.76789
970.458,68.67262
970.9401,68.77435
971.4222,69.33723
971.9044,69.77794
972.3865,69.60001
972.8686,69.21528
973.3507,69.05637
973.8328,69.06479
974.3149,69.00837
974.7971,68.82156
975.2792,68.62347
975.7613,68.52553
976.2434,68.44947
976.7255,68.37672
977.2076,68.21741
977.6898,67.6115
978.1719,66.66434
978.654,66.11819
979.1361,66.32029
979.6182,66.68381
980.1003,66.46233
980.5825,65.82015
981.0646,65.31007
981.5467,64.91039
982.0288,64.41956
982.5109,63.80028
982.993,63.17685
983.4752,62.62706
983.9573,62.1479
984.4394,61.73048
984.9215,61.37522
985.4036,61.12408
985.8857,60.99638
986.3679,60.87024
986.85,60.73175
987.3321,60.5316
987.8142,60.23667
988.2963,59.84089
988.7784,59.27888
989.2606,58.37364
989.7427,57.97758
990.2248,58.46024
990.7069,58.73638
991.189,58.40319
991.6711,57.79542
992.1533,57.08287
992.6354,56.34163
993.1175,56.04928
993.5996,56.59788
994.0817,56.88882
994.5638,56.80034
995.046,56.58069
995.5281,56.25477
996.0102,55.89444
996.4923,55.51307
996.9744,55.14362
997.4565,54.99062
997.9387,55.2174
998.4208,55.45561
998.9029,55.72217
999.385,55.85768
999.8671,55.66534
1000.349,55.32706
1000.831,55.09089
1001.313,54.98978
1001.796,54.92937
1002.278,54.90083
1002.76,54.85927
1003.242,54.79988
1003.724,54.69984
1004.206,54.42011
1004.688,54.12206
1005.17,54.20677
1005.653,54.71431
1006.135,55.04291
1006.617,54.64444
1007.099,54.13733
1007.581,54.16105
1008.063,54.40406
1008.545,54.40416
1009.027,54.21347
1009.509,54.13261
1009.992,54.2616
1010.474,54.4362
1010.956,54.51863
1011.438,54.55568
1011.92,54.58612
1012.402,54.63559
1012.884,54.85576
1013.366,55.1802
1013.849,55.14016
1014.331,54.54757
1014.813,54.11298
1015.295,54.8889
1015.777,56.21077
1016.259,56.2247
1016.741,55.23762
1017.223,54.73885
1017.705,54.90769
1018.188,55.00079
1018.67,54.62984
1019.152,54.13244
1019.634,53.9951
1020.116,54.12782
1020.598,54.04482
1021.08,53.76007
1021.562,53.69604
1022.044,53.94182
1022.527,54.08118
1023.009,53.8539
1023.491,53.48793
1023.973,53.34083
1024.455,53.40431
1024.937,53.56299
1025.419,53.8344
1025.901,54.05204
1026.384,54.18858
1026.866,54.25475
1027.348,54.25026
1027.83,54.19132
1028.312,54.08364
1028.794,53.91679
1029.276,53.98684
1029.758,54.3996
1030.24,54.66607
1030.723,54.63814
1031.205,54.59172
1031.687,54.74767
1032.169,54.95689
1032.651,54.90575
1033.133,54.56182
1033.615,54.20429
1034.097,53.65656
1034.579,53.50749
1035.062,54.1338
1035.544,54.77837
1036.026,54.91314
1036.508,54.74083
1036.99,54.68108
1037.472,54.75886
1037.954,54.8077
1038.436,54.82178
1038.919,54.81311
1039.401,54.6864
1039.883,54.64447
1040.365,54.91143
1040.847,55.32677
1041.329,55.54285
1041.811,55.5224
1042.293,55.5088
1042.776,55.57113
1043.258,55.55144
1043.74,55.24509
1044.222,55.02365
1044.704,55.25513
1045.186,55.69926
1045.668,55.85223
1046.15,55.62562
1046.632,55.51579
1047.115,55.71747
1047.597,55.84483
1048.079,55.69192
1048.561,55.54327
1049.043,55.56913
1049.525,55.74873
1050.007,56.11263
1050.489,56.70539
1050.971,56.94639
1051.454,56.2742
1051.936,55.84786
1052.418,56.18233
1052.9,56.71569
1053.382,57.10462
1053.864,57.3689
1054.346,57.60276
1054.828,57.82178
1055.311,57.95146
1055.793,57.84605
1056.275,57.81956
1056.757,58.03511
1057.239,58.3146
1057.721,58.58044
1058.203,58.78971
1058.685,58.8387
1059.167,58.72074
1059.65,58.75074
1060.132,59.23214
1060.614,59.60781
1061.096,59.53588
1061.578,59.4077
1062.06,59.49086
1062.542,59.74237
1063.024,60.10151
1063.506,60.53926
1063.989,60.88063
1064.471,61.0081
1064.953,61.10627
1065.435,61.25475
1065.917,61.39872
1066.399,61.41478
1066.881,61.43901
1067.363,61.76681
1067.846,62.37989
1068.328,62.78449
1068.81,62.64683
1069.292,62.53208
1069.774,62.54451
1070.256,62.82584
1070.738,63.70706
1071.22,64.7972
1071.703,65.68736
1072.185,66.24883
1072.667,66.26836
1073.149,65.41574
1073.631,64.59503
1074.113,64.12376
1074.595,63.9434
1075.077,64.2157
1075.559,64.6235
1076.042,64.76323
1076.524,64.62773
1077.006,64.46443
1077.488,64.3569
1077.97,64.23224
1078.452,64.00249
1078.934,63.80278
1079.416,63.72746
1079.898,63.73126
1080.38,63.82274
1080.863,63.93578
1081.345,63.88719
1081.827,63.60711
1082.309,63.2323
1082.791,62.69048
1083.273,62.22517
1083.755,62.0701
1084.237,62.00474
1084.72,61.79145
1085.202,61.45547
1085.684,61.12133
1086.166,60.81668
1086.648,60.56821
1087.13,60.36811
1087.612,60.25044
1088.094,60.38572
1088.577,60.47725
1089.059,60.20274
1089.541,59.67944
1090.023,59.18228
1090.505,58.76498
1090.987,58.38045
1091.469,58.01707
1091.951,57.67226
1092.433,57.31749
1092.916,57.0078
1093.398,56.65593
1093.88,56.44489
1094.362,56.92924
1094.844,58.06998
1095.326,58.4281
1095.808,56.84879
1096.29,55.45948
1096.772,55.01801
1097.255,54.91493
1097.737,54.98587
1098.219,55.01476
1098.701,54.68637
1099.183,54.0406
1099.665,53.50258
1100.147,53.13178
1100.629,52.95369
1101.112,53.21572
1101.594,53.38725
1102.076,53.15427
1102.558,52.739
1103.04,52.27104
1103.522,51.83772
1104.004,51.69657
1104.486,51.9871
1104.969,52.23873
1105.451,52.53764
1105.933,52.56395
1106.415,51.89232
1106.897,51.19355
1107.379,51.15814
1107.861,51.4819
1108.343,51.32627
1108.825,50.49857
1109.307,49.95613
1109.79,49.97869
1110.272,50.01233
1110.754,49.86072
1111.236,49.78196
1111.718,50.14758
1112.2,50.58533
1112.682,50.36842
1113.164,49.44164
1113.647,48.92015
1114.129,49.09907
1114.611,49.19443
1115.093,49.03713
1115.575,48.95538
1116.057,49.20184
1116.539,49.48413
1117.021,49.38905
1117.504,49.00048
1117.986,48.96627
1118.468,49.58559
1118.95,49.83094
1119.432,49.50764
1119.914,49.17668
1120.396,48.98222
1120.878,48.88769
1121.36,48.87346
1121.843,48.92675
1122.325,49.0213
1122.807,49.17882
1123.289,49.24191
1123.771,49.1909
1124.253,49.1045
1124.735,48.97686
1125.217,48.89625
1125.699,48.94697
1126.182,49.01165
1126.664,48.85357
1127.146,48.49788
1127.628,48.47109
1128.11,48.83995
1128.592,48.87424
1129.074,48.4174
1129.556,48.12795
1130.039,48.33424
1130.521,48.65219
1131.003,48.63964
1131.485,48.39238
1131.967,48.20531
1132.449,48.08527
1132.931,48.24286
1133.413,48.67585
1133.896,48.8061
1134.378,48.45792
1134.86,48.11348
1135.342,48.15651
1135.824,48.3747
1136.306,48.35348
1136.788,48.18114
1137.27,48.23126
1137.752,48.45642
1138.234,48.62794
1138.717,48.69381
1139.199,48.61365
1139.681,48.3658
1140.163,48.12185
1140.645,48.09484
1141.127,48.17748
1141.609,48.19378
1142.091,48.15695
1142.574,48.01104
1143.056,47.84256
1143.538,48.01848
1144.02,48.59045
1144.502,48.9734
1144.984,48.66245
1145.466,48.21455
1145.948,48.24186
1146.431,48.44595
1146.913,48.44796
1147.395,48.33818
1147.877,48.35538
1148.359,48.493
1148.841,48.52929
1149.323,48.3579
1149.805,48.15725
1150.287,48.02428
1150.77,47.91952
1151.252,47.73569
1151.734,47.62812
1152.216,47.87744
1152.698,48.31148
1153.18,48.50154
1153.662,48.359
1154.144,48.22111
1154.626,48.29638
1155.109,48.25829
1155.591,47.78286
1156.073,47.39973
1156.555,47.49379
1157.037,47.83744
1157.519,48.2007
1158.001,48.53603
1158.483,48.67092
1158.966,48.48009
1159.448,48.32634
1159.93,48.26318
1160.412,48.19496
1160.894,48.04353
1161.376,47.93929
1161.858,48.0298
1162.34,48.20562
1162.822,48.21189
1163.305,48.02287
1163.787,47.94851
1164.269,48.03996
1164.751,48.09227
1165.233,48.058
1165.715,48.044
1166.197,48.10283
1166.679,48.20032
1167.161,48.30214
1167.644,48.40268
1168.126,48.48934
1168.608,48.5639
1169.09,48.55082
1169.572,48.44409
1170.054,48.35274
1170.536,48.30621
1171.018,48.30204
1171.5,48.34279
1171.983,48.39488
1172.465,48.37325
1172.947,48.33032
1173.429,48.52325
1173.911,48.84893
1174.393,48.87169
1174.875,48.59869
1175.357,48.36475
1175.84,48.29521
1176.322,48.27428
1176.804,48.20124
1177.286,48.13887
1177.768,48.13552
1178.25,48.21442
1178.732,48.54063
1179.214,48.91998
1179.697,48.91697
1180.179,48.5578
1180.661,48.25098
1181.143,48.15838
1181.625,48.18719
1182.107,48.35252
1182.589,48.53516
1183.071,48.67662
1183.553,48.78011
1184.036,48.8544
1184.518,48.89321
1185.0,48.8789
1185.482,48.81099
1185.964,48.72614
1186.446,48.61438
1186.928,48.51615
1187.41,48.44537
1187.892,48.38094
1188.375,48.25024
1188.857,48.18137
1189.339,48.35747
1189.821,48.66949
1190.303,48.79356
1190.785,48.69805
1191.267,48.58239
1191.749,48.35617
1192.232,48.4037
1192.714,48.91705
1193.196,49.31403
1193.678,49.28217
1194.16,49.05629
1194.642,48.91433
1195.124,48.82709
1195.606,48.62867
1196.089,48.33261
1196.571,48.41109
1197.053,48.85863
1197.535,49.10105
1198.017,49.0042
1198.499,48.88203
1198.981,48.92772
1199.463,49.06214
1199.945,49.23482
1200.427,49.38028
1200.91,49.29345
1201.392,49.10829
1201.874,49.18996
1202.356,49.44646
1202.838,49.45565
1203.32,49.14592
1203.802,48.91389
1204.284,49.01685
1204.767,49.18341
1205.249,49.27342
1205.731,49.27209
1206.213,49.02996
1206.695,48.79173
1207.177,48.89065
1207.659,49.23683
1208.141,49.56532
1208.624,49.83381
1209.106,49.90199
1209.588,49.55572
1210.07,49.27641
1210.552,49.23066
1211.034,49.19295
1211.516,48.95903
1211.998,48.76115
1212.48,48.90139
1212.963,49.2598
1213.445,49.37352
1213.927,49.19581
1214.409,48.97955
1214.891,48.66722
1215.373,48.57301
1215.855,48.80397
1216.337,49.01744
1216.819,49.02448
1217.302,48.9732
1217.784,49.05078
1218.266,49.20344
1218.748,49.26069
1219.23,49.24058
1219.712,49.22609
1220.194,49.2216
1220.676,49.25306
1221.159,49.30153
1221.641,49.17848
1222.123,48.77191
1222.605,48.41816
1223.087,48.54261
1223.569,48.80949
1224.051,48.85541
1224.533,48.79237
1225.016,48.67382
1225.498,48.60478
1225.98,48.84007
1226.462,49.3382
1226.944,49.62748
1227.426,49.4774
1227.908,49.2993
1228.39,49.13356
1228.872,49.09882
1229.354,49.41975
1229.837,49.7197
1230.319,49.64014
1230.801,49.37178
1231.283,49.31033
1231.765,49.44199
1232.247,49.24817
1232.729,48.4788
1233.211,48.20471
1233.694,48.65114
1234.176,48.92915
1234.658,48.73228
1235.14,48.508
1235.622,48.60781
1236.104,48.74674
1236.586,48.34921
1237.068,47.61683
1237.551,47.44622
1238.033,47.71103
1238.515,47.851
1238.997,47.84176
1239.479,47.902
1239.961,48.08452
1240.443,48.27161
1240.925,48.40685
1241.407,48.42547
1241.89,48.16711
1242.372,47.8656
1242.854,47.80285
1243.336,47.79023
1243.818,47.48754
1244.3,47.07649
1244.782,47.04217
1245.264,47.42643
1245.746,47.66223
1246.229,47.50838
1246.711,47.37163
1247.193,47.32869
1247.675,47.30146
1248.157,47.26363
1248.639,47.23144
1249.121,47.21052
1249.603,47.21299
1250.085,47.29631
1250.568,47.44011
1251.05,47.20395
1251.532,46.50772
1252.014,46.41218
1252.496,47.02568
1252.978,47.36116
1253.46,47.12389
1253.942,46.85809
1254.425,46.94135
1254.907,47.15259
1255.389,47.21697
1255.871,47.17406
1256.353,47.06685
1256.835,46.92466
1257.317,46.82573
1257.799,46.73586
1258.281,46.51454
1258.764,46.17593
1259.246,45.96706
1259.728,46.03439
1260.21,46.08521
1260.692,45.9305
1261.174,45.79746
1261.656,45.93602
1262.138,45.99223
1262.62,45.47221
1263.103,44.8203
1263.585,44.84394
1264.067,45.4388
1264.549,45.68546
1265.031,45.40836
1265.513,45.41496
1265.995,45.80957
1266.477,46.03608
1266.96,45.9665
1267.442,45.68707
1267.924,45.21041
1268.406,44.88391
1268.888,45.19981
1269.37,45.81271
1269.852,45.931
1270.334,45.70624
1270.817,45.37689
1271.299,45.08298
1271.781,45.24841
1272.263,45.77429
1272.745,45.99534
1273.227,45.65649
1273.709,45.35894
1274.191,45.59631
1274.673,45.77694
1275.156,45.57757
1275.638,45.25283
1276.12,44.83422
1276.602,44.4903
1277.084,44.44906
1277.566,44.62678
1278.048,44.73125
1278.53,44.75208
1279.012,44.78954
1279.495,44.84341
1279.977,44.92002
1280.459,45.04258
1280.941,45.05957
1281.423,44.902
1281.905,44.74531
1282.387,44.72433
1282.869,44.80572
1283.352,45.00047
1283.834,45.2132
1284.316,45.23552
1284.798,45.06952
