Wavenumber (cm⁻¹),Intensity
200.0,892.8204031736154
201.00097751710655,888.821472578648
202.0019550342131,881.3938510060398
203.00293255131965,874.2384660221867
204.0039100684262,866.9669657274515
205.00488758553274,858.4299325541577
206.0058651026393,848.5591337444137
207.00684261974584,841.3097585111204
208.0078201368524,833.5062138139873
209.00879765395894,826.1890505692654
210.00977517106548,820.2733607068943
211.01075268817203,812.1736348475421
212.01173020527858,804.1695269172444
213.01270772238513,797.1101108975215
214.01368523949168,791.6368196915661
215.01466275659823,788.1675555564883
216.01564027370478,782.6654095785931
217.01661779081132,778.9415586050197
218.01759530791787,773.496183038223
219.01857282502445,764.016836540668
220.019550342131,761.1972896342229
221.02052785923755,758.404566652311
222.0215053763441,754.0500320734269
223.02248289345064,750.1496762999852
224.0234604105572,752.3159476643302
225.02443792766374,751.363375930861
226.0254154447703,748.01283033677
227.02639296187684,743.6192975916094
228.02737047898339,739.5783757092878
229.02834799608993,736.6408613505024
230.02932551319648,732.2857375545406
231.03030303030303,730.9254569303571
232.03128054740958,732.2969419444054
233.03225806451613,731.1495198800945
234.03323558162268,728.1326483810152
235.03421309872923,728.8934124636777
236.03519061583577,730.0445846371659
237.03616813294232,729.1689367375503
238.03714565004887,730.4922295945585
239.03812316715542,733.0218942945727
240.03910068426197,733.8599762669552
241.04007820136852,733.8227583677067
242.04105571847506,735.5217902871783
243.0420332355816,736.677649949137
244.0430107526882,740.9961501783195
245.04398826979474,744.7649863442625
246.0449657869013,745.499959854218
247.04594330400784,747.1425595138409
248.04692082111438,750.389140795973
249.04789833822093,753.1852238621233
250.04887585532748,756.5321475848677
251.04985337243403,761.5335045189995
252.05083088954058,762.7758745215773
253.05180840664713,761.0726448772202
254.05278592375367,762.5663976205102
255.05376344086022,767.8557754494784
256.05474095796677,771.5473888398204
257.0557184750733,774.9027416469734
258.05669599217987,778.1291859715245
259.0576735092864,780.1928202246485
260.05865102639297,781.1176865231596
261.0596285434995,785.9682939966134
262.06060606060606,785.8988687792674
263.0615835777126,785.9162946476985
264.06256109481916,788.9729734979115
265.0635386119257,793.1298296494666
266.06451612903226,792.9979480726777
267.0654936461388,795.5110608740716
268.06647116324535,798.5428793542548
269.0674486803519,799.6644271538318
270.06842619745845,802.1214257765037
271.069403714565,801.9709890074034
272.07038123167155,802.5424782709016
273.0713587487781,804.5310286156829
274.07233626588464,805.8828847870884
275.0733137829912,804.8581452199901
276.07429130009774,804.6446630186686
277.0752688172043,804.0010970975994
278.07624633431084,803.6275293601856
279.0772238514174,804.7879154187965
280.07820136852393,803.7787616552745
281.0791788856305,803.3092772643633
282.08015640273703,802.0721797725331
283.0811339198436,799.6536100328414
284.08211143695013,798.1745899988505
285.0830889540567,796.6785056649155
286.0840664711632,792.4320860206132
287.0850439882698,787.3088597019638
288.0860215053764,784.02429310231
289.0869990224829,780.3156626250733
290.0879765395895,775.9759551548972
291.088954056696,772.6106350382196
292.0899315738026,768.3876943582341
293.0909090909091,760.0695560785199
294.09188660801567,754.1721356344422
295.0928641251222,750.5451816367471
296.09384164222877,748.4202411460491
297.0948191593353,745.8901760098322
298.09579667644186,741.2805060855809
299.0967741935484,736.6985847461708
300.09775171065496,732.2913046413508
301.0987292277615,730.1843825844003
302.09970674486806,729.5171016510731
303.1006842619746,726.7057251406611
304.10166177908116,726.4204143916431
305.1026392961877,722.8521984017868
306.10361681329425,720.3847902991008
307.1045943304008,721.8638630810788
308.10557184750735,719.2981667990299
309.1065493646139,720.3309356118748
310.10752688172045,720.5176422517525
311.108504398827,719.2169726362122
312.10948191593354,718.5835008478912
313.1104594330401,716.8494720165909
314.11143695014664,718.3138356470135
315.1124144672532,720.3906257935586
316.11339198435974,721.3825614416036
317.1143695014663,721.733165984777
318.11534701857283,721.3390193321341
319.1163245356794,722.2778518735745
320.11730205278593,727.221492700253
321.1182795698925,732.6427616137285
322.119257086999,730.8315191498866
323.1202346041056,730.6677967696314
324.1212121212121,730.6501999780003
325.1221896383187,731.6042404810089
326.1231671554252,733.7611749600508
327.12414467253177,734.9510068822192
328.1251221896383,735.0562036210105
329.12609970674487,736.5578453670311
330.1270772238514,739.8762405635333
331.12805474095796,742.8951905533241
332.1290322580645,742.1733899840783
333.13000977517106,740.7048638598887
334.1309872922776,742.217861927787
335.13196480938416,742.9054072053066
336.1329423264907,740.4705297790316
337.13391984359725,741.6191594757013
338.1348973607038,741.6530522998817
339.13587487781035,741.7985614899826
340.1368523949169,742.490660865941
341.13782991202345,742.7585720591912
342.13880742913,737.9676434028343
343.13978494623655,739.8946390774678
344.1407624633431,739.855465147166
345.14173998044964,737.3704570998135
346.1427174975562,739.2336234020961
347.14369501466274,738.4148761009537
348.1446725317693,737.6219992689607
349.14565004887584,736.0450980577804
350.1466275659824,733.8841934867676
351.14760508308893,732.7159477865756
352.1485826001955,732.4638948972633
353.14956011730203,728.743922964231
354.1505376344086,726.9690111155719
355.1515151515151,727.1141240237297
356.1524926686217,726.3271875664326
357.1534701857282,726.6100092780182
358.1544477028348,724.5270806665078
359.1554252199413,721.8592789575301
360.15640273704787,720.4288552603742
361.1573802541544,720.1064372685797
362.15835777126097,717.9636751213077
363.1593352883675,717.5252637918824
364.16031280547406,714.9367567724381
365.1612903225806,711.9794989795987
366.16226783968716,714.1210785238823
367.1632453567937,714.8500885477008
368.16422287390026,713.7668858741783
369.1652003910068,712.8247910321879
370.16617790811335,712.0022157069624
371.1671554252199,710.4873276727368
372.16813294232645,711.9823124798581
373.169110459433,711.1272030642051
374.17008797653955,709.3871373992449
375.1710654936461,708.6078322030753
376.1720430107527,708.4223383059776
377.17302052785925,707.8542251004129
378.1739980449658,705.7746107187052
379.17497556207235,703.9579573409588
380.1759530791789,704.3729713088085
381.17693059628544,706.7761778677112
382.177908113392,706.5581613469744
383.17888563049854,708.5641550475955
384.1798631476051,709.3228489985416
385.18084066471164,707.7682643672001
386.1818181818182,706.7805806433972
387.18279569892474,708.9598532822234
388.1837732160313,713.2997822794257
389.18475073313783,712.9383949000613
390.1857282502444,710.0180232773541
391.18670576735093,710.2572277532739
392.1876832844575,713.8355447404774
393.188660801564,715.5748613614921
394.1896383186706,716.1252420524979
395.1906158357771,718.1223633905547
396.1915933528837,721.4761898513813
397.1925708699902,722.5187079001873
398.19354838709677,724.682300497822
399.1945259042033,726.8778156904574
400.19550342130987,729.3390389727817
401.1964809384164,732.0487563872865
402.19745845552296,733.5970345231426
403.1984359726295,731.7633884087477
404.19941348973606,731.3162615398419
405.2003910068426,732.827285377654
406.20136852394916,734.0988953545329
407.2023460410557,730.9858927520614
408.20332355816225,728.8943152486383
409.20430107526886,726.2852963363688
410.2052785923754,724.241977695399
411.20625610948196,722.7755711587643
412.2072336265885,719.5974684812271
413.20821114369505,715.5520412961852
414.2091886608016,711.625675374578
415.21016617790815,708.700934403087
416.2111436950147,706.6980918449286
417.21212121212125,705.0892479134845
418.2130987292278,704.0292500687668
419.21407624633434,705.4125169137225
420.2150537634409,704.507582357205
421.21603128054744,703.5710639846689
422.217008797654,704.7217704223517
423.21798631476054,700.9669237073344
424.2189638318671,701.3217564278391
425.21994134897363,701.6028138212524
426.2209188660802,701.510779837113
427.22189638318673,702.0162767768417
428.2228739002933,700.7571021367295
429.2238514173998,700.125477484766
430.2248289345064,699.5512328745228
431.2258064516129,702.6702435373468
432.2267839687195,706.1461136776155
433.227761485826,704.3046459022531
434.22873900293257,707.3087305029743
435.2297165200391,706.6986757480256
436.23069403714567,707.9211861631663
437.2316715542522,711.449378854243
438.23264907135876,713.0276305597071
439.2336265884653,710.9747871583605
440.23460410557186,711.194145473889
441.2355816226784,713.6217085987037
442.23655913978496,716.394633341361
443.2375366568915,717.8705897187342
444.23851417399806,717.085976226788
445.2394916911046,715.7361233634293
446.24046920821115,718.8225015542339
447.2414467253177,720.0139432286817
448.24242424242425,718.6425943272174
449.2434017595308,723.220573645421
450.24437927663735,725.0547343149665
451.2453567937439,725.0379298248154
452.24633431085044,725.5784488786534
453.247311827957,727.9672184455105
454.24828934506354,731.7099484492841
455.2492668621701,735.0573298521681
456.25024437927664,737.3565187493297
457.2512218963832,742.6609466546146
458.25219941348973,748.4746543736136
459.2531769305963,752.5825143667445
460.25415444770283,759.314782476997
461.2551319648094,761.0842282633226
462.2561094819159,769.1751161052687
463.2570869990225,775.5321483623446
464.258064516129,777.63535758476
465.2590420332356,786.4157228734339
466.2600195503421,796.430548734843
467.26099706744867,803.923276984247
468.2619745845552,811.1990304172866
469.26295210166177,820.7370797041742
470.2639296187683,831.5769876310933
471.26490713587486,841.0311555028168
472.2658846529814,852.9749080493798
473.26686217008796,865.2984925366842
474.2678396871945,878.1403154806792
475.26881720430106,891.0354609847599
476.2697947214076,902.4831781020961
477.27077223851416,913.4527880717161
478.2717497556207,923.026330353356
479.27272727272725,933.7999734721201
480.2737047898338,943.6653036145423
481.27468230694035,949.2864484649979
482.2756598240469,951.5685784900006
483.27663734115345,950.7613668544245
484.27761485826,951.221565668853
485.27859237536654,948.8945722686855
486.2795698924731,943.7703354205414
487.28054740957964,939.5865249295656
488.2815249266862,936.4837521526363
489.2825024437928,937.0559694126343
490.28347996089934,937.2485580269848
491.2844574780059,938.3201352798516
492.28543499511244,943.3020827733593
493.286412512219,952.2591926556859
494.28739002932554,961.5249944925704
495.2883675464321,973.4480996082639
496.28934506353863,990.9234641566931
497.2903225806452,1012.4452057597482
498.29130009775173,1034.993936782969
499.2922776148583,1061.1833837063855
500.2932551319648,1083.6210887612306
501.2942326490714,1106.345180790988
502.2952101661779,1129.334120785712
503.2961876832845,1148.641759546607
504.297165200391,1161.9155996058707
505.29814271749757,1171.660673083891
506.2991202346041,1173.8839886536239
507.30009775171067,1166.3735651287752
508.3010752688172,1152.6981972329838
509.30205278592376,1135.8218302368487
510.3030303030303,1112.5508517722333
511.30400782013686,1083.312912045561
512.3049853372434,1054.0293378807557
513.3059628543499,1023.5678852409935
514.3069403714564,991.7073326203821
515.307917888563,959.9294713987473
516.3088954056695,926.6538291109516
517.3098729227761,899.840626954331
518.3108504398826,876.3747266612837
519.3118279569892,853.0244874074682
520.3128054740957,831.1061212907335
521.3137829912023,814.1317517498619
522.3147605083088,796.8128151941571
523.3157380254154,783.3542455887953
524.3167155425219,769.6068734390909
525.3176930596285,755.7224020484069
526.318670576735,744.5462714693131
527.3196480938416,735.8220193438901
528.3206256109481,726.1697248892368
529.3216031280547,716.3741780327465
530.3225806451612,708.1850790493211
531.3235581622678,702.9080852274074
532.3245356793743,699.4104093340926
533.3255131964809,694.34848599833
534.3264907135874,690.541249715616
535.327468230694,686.1685626636108
536.3284457478005,681.8738211070704
537.3294232649071,679.7381455472482
538.3304007820136,680.9397883623357
539.3313782991202,678.4715001027396
540.3323558162267,679.9406793874671
541.3333333333333,679.6316262739406
542.3343108504398,680.2110314567071
543.3352883675464,684.1063983395387
544.3362658846529,686.87360110988
545.3372434017595,690.154421685429
546.338220918866,690.291917132503
547.3391984359725,694.2602964536256
548.3401759530791,699.4703531508954
549.3411534701856,702.3469824458524
550.3421309872922,705.8640539729141
551.3431085043987,710.8634705517339
552.3440860215054,716.1562313678794
553.345063538612,722.2134966537732
554.3460410557185,726.8864268350649
555.347018572825,729.2348317865778
556.3479960899316,732.9921933416913
557.3489736070381,734.9353990737008
558.3499511241447,738.1524299233351
559.3509286412512,742.086581980635
560.3519061583578,742.6252635586853
561.3528836754643,738.6460495884171
562.3538611925709,734.0481138187788
563.3548387096774,730.160990323919
564.355816226784,722.3529581850584
565.3567937438905,714.2892905134612
566.3577712609971,707.7593736161625
567.3587487781036,701.7428008936748
568.3597262952102,694.6519434210625
569.3607038123167,686.2126176602729
570.3616813294233,680.6255615687354
571.3626588465298,675.1877720734656
572.3636363636364,668.1229518790894
573.3646138807429,661.5856059357245
574.3655913978495,657.4854042270263
575.366568914956,654.4881888484579
576.3675464320626,651.3817553125045
577.3685239491691,647.5275082136375
578.3695014662757,644.0198744937364
579.3704789833822,641.60978691956
580.3714565004888,638.9500773999506
581.3724340175953,636.4551574456517
582.3734115347019,636.3262925390769
583.3743890518084,634.2809903634981
584.375366568915,632.2485630087417
585.3763440860215,632.4865082265536
586.377321603128,630.5947791265932
587.3782991202346,627.3382451945566
588.3792766373411,626.0770924177439
589.3802541544477,625.6355737717419
590.3812316715542,625.3301626689441
591.3822091886608,624.7296414249081
592.3831867057673,622.9293536961643
593.3841642228739,620.8691759276528
594.3851417399804,620.8675868991822
595.386119257087,619.7931286868525
596.3870967741935,618.9787262560973
597.3880742913001,618.8167019769731
598.3890518084066,617.1189646782983
599.3900293255132,617.303076403029
600.3910068426197,617.4787686212549
601.3919843597263,616.5289151246288
602.3929618768328,614.9229760126306
603.3939393939394,613.7554002784534
604.3949169110459,613.5942743152211
605.3958944281525,613.3189491146687
606.396871945259,611.2455985321428
607.3978494623656,611.4787196273353
608.3988269794721,611.5514410172747
609.3998044965787,610.6318820109682
610.4007820136852,610.0275658186473
611.4017595307918,607.8503359990292
612.4027370478983,607.0314418664433
613.4037145650049,607.012790883467
614.4046920821114,607.1499750307945
615.405669599218,608.1085048721756
616.4066471163245,608.9767751482142
617.4076246334312,606.8987417014761
618.4086021505377,608.4107650264413
619.4095796676443,608.1736449606976
620.4105571847508,611.6515645405219
621.4115347018574,612.0258414875003
622.4125122189639,606.4781132155808
623.4134897360705,604.7905560328985
624.414467253177,604.6757695552794
625.4154447702836,606.9205323865552
626.4164222873901,605.4805624092054
627.4173998044967,603.4172048175919
628.4183773216032,603.3961799539649
629.4193548387098,603.9812404025398
630.4203323558163,602.0950988578335
631.4213098729228,601.914236619279
632.4222873900294,600.6159027697736
633.423264907136,599.8637599343875
634.4242424242425,598.9915399263323
635.425219941349,596.8226653864659
636.4261974584556,595.8774952425609
637.4271749755621,597.777821559595
638.4281524926687,596.8804840218836
639.4291300097752,596.2441502493054
640.4301075268818,594.9221197567541
641.4310850439883,592.8744783443767
642.4320625610949,591.9400534371761
643.4330400782014,591.1225594451449
644.434017595308,589.3641275488895
645.4349951124145,590.4028471250232
646.4359726295211,592.3697501851323
647.4369501466276,592.9994231466561
648.4379276637342,592.4057631154875
649.4389051808407,591.6464896566889
650.4398826979473,589.7474155958078
651.4408602150538,590.9378257060843
652.4418377321604,590.8250373264328
653.4428152492669,588.4617042351978
654.4437927663735,586.2078581609499
655.44477028348,586.2482974583745
656.4457478005866,587.0334107501542
657.4467253176931,585.91852784328
658.4477028347997,584.6858853651435
659.4486803519062,585.9830999054919
660.4496578690128,586.4626491159055
661.4506353861193,584.9671268784965
662.4516129032259,584.7342851687829
663.4525904203324,584.4673289674552
664.453567937439,585.2465751830489
665.4545454545455,585.7298145582746
666.455522971652,586.8837130766078
667.4565004887586,586.5326497711116
668.4574780058651,585.056462285845
669.4584555229717,588.441937290909
670.4594330400782,587.927123356799
671.4604105571848,586.1843017162815
672.4613880742913,587.2829258385286
673.4623655913979,587.6009958392159
674.4633431085044,587.2169721904595
675.464320625611,588.3086049575993
676.4652981427175,588.4635228894725
677.4662756598241,589.0208047897122
678.4672531769306,589.9177309844943
679.4682306940372,592.0715754003493
680.4692082111437,594.4341634025992
681.4701857282503,594.0774269290449
682.4711632453568,590.885781595149
683.4721407624634,590.4892843518185
684.4731182795699,591.7933548951385
685.4740957966765,590.7717653290372
686.475073313783,591.0792020905606
687.4760508308896,592.0341096915519
688.4770283479961,591.4267894049876
689.4780058651027,590.3411528622029
690.4789833822092,590.7910083879119
691.4799608993158,591.6495297800324
692.4809384164223,592.3698698617546
693.4819159335289,591.0803629823537
694.4828934506354,589.952961092386
695.483870967742,589.409089712347
696.4848484848485,587.2633840011817
697.485826001955,587.8487417351953
698.4868035190616,587.4898876754376
699.4877810361681,586.9799260004748
700.4887585532747,585.125323434376
701.4897360703812,584.2283308464738
702.4907135874878,585.9586236009857
703.4916911045943,586.2522292940445
704.4926686217009,586.3117551179741
705.4936461388074,585.7540428337411
706.494623655914,584.4088222126315
707.4956011730205,585.5803939556961
708.4965786901271,586.3353855833053
709.4975562072336,583.9864090461392
710.4985337243402,584.322003172338
711.4995112414467,584.0092291646343
712.5004887585533,583.5863304033976
713.5014662756598,582.9588528676776
714.5024437927664,582.7437756042788
715.5034213098729,582.2250272271666
716.5043988269795,581.3092298280799
717.505376344086,581.698168450159
718.5063538611926,582.9925453623697
719.5073313782991,582.6595588108235
720.5083088954057,580.7184798240551
721.5092864125122,579.7113270754801
722.5102639296188,580.5629824103492
723.5112414467253,580.3597798144035
724.5122189638319,577.2669997971364
725.5131964809384,580.3113895488397
726.514173998045,582.1500185040074
727.5151515151515,580.8178718422558
728.516129032258,578.7362680102509
729.5171065493646,579.0565449107369
730.5180840664711,580.3801063691292
731.5190615835777,579.6369313350499
732.5200391006842,580.6042053929706
733.5210166177908,580.6073358316287
734.5219941348973,581.3410598111539
735.5229716520039,581.1949040055086
736.5239491691104,583.0582596872229
737.524926686217,586.0179950362524
738.5259042033235,586.3296716917454
739.5268817204301,585.3790516140184
740.5278592375366,586.590404532744
741.5288367546432,584.9733690195409
742.5298142717497,584.6105807942929
743.5307917888563,585.0160319788579
744.5317693059628,586.2942987548162
745.5327468230694,587.9074917405785
746.5337243401759,586.8519884850838
747.5347018572825,588.1694002072028
748.535679374389,588.5953994504736
749.5366568914956,589.573379047009
750.5376344086021,590.8714636003327
751.5386119257087,592.2430423735518
752.5395894428152,593.0188169516188
