Raman Shift,Intensity 
400,4.841470814
401,4.756111616
402,4.769043758
403,4.814911424
404,4.799129853
405,4.775379447
406,4.812588916
407,4.742259924
408,4.805194299
409,4.702874536
410,4.799321526
411,4.827920352
412,4.798493287
413,4.755453427
414,4.882084848
415,4.806369316
416,4.755054787
417,4.852653805
418,4.783116802
419,4.737111962
420,4.7388804
421,4.861468938
422,4.759124012
423,4.777337189
424,4.885899789
425,4.835911419
426,4.795119513
427,4.752160062
428,4.72825911
429,4.730863184
430,4.873699727
431,4.858029354
432,4.788953361
433,4.714916731
434,4.816578377
435,4.807377467
436,4.716349747
437,4.855761257
438,4.815331693
439,4.690317092
440,4.779916507
441,4.801976116
442,4.891209032
443,4.716627448
444,4.788095073
445,4.815148915
446,4.856748829
447,4.73299699
448,4.791689131
449,4.711262474
450,4.796882068
451,4.796266542
452,4.766583559
453,4.889897877
454,4.828919403
455,4.767142384
456,4.876910405
457,4.778706997
458,4.912675028
459,4.734785418
460,4.81911126
461,4.817025026
462,4.829043392
463,4.866455929
464,4.72970565
465,4.826681647
466,4.758172411
467,4.840246021
468,4.775486191
469,4.876218607
470,4.785094445
471,4.830157399
472,4.745865627
473,4.837733412
474,4.819598449
475,4.805721594
476,4.787613256
477,4.746699885
478,4.789329929
479,4.785818883
480,4.700325469
481,4.819101807
482,4.771176615
483,4.754141509
484,4.738627265
485,4.814967273
486,4.762033532
487,4.750172711
488,4.778175619
489,4.748888859
490,4.761660426
491,4.824687993
492,4.655210617
493,4.84648847
494,4.769416527
495,4.752353497
496,4.848899493
497,4.783770941
498,4.829393112
499,4.694740152
500,4.779750339
501,4.849023958
502,4.913018358
503,4.723690108
504,4.851331805
505,4.81645053
506,4.769751594
507,4.739993898
508,4.81987891
509,4.81659313
510,4.939174339
511,4.768404532
512,4.767276784
513,4.855295728
514,4.865869091
515,4.854226319
516,4.790994445
517,4.787009773
518,4.822385977
519,4.836313981
520,4.712903173
521,4.735565692
522,4.834407292
523,4.747766073
524,4.78054984
525,4.795522778
526,4.842575439
527,4.764374303
528,4.821642658
529,4.75752338
530,4.804414139
531,4.853369308
532,4.726428665
533,4.813611391
534,4.75976912
535,4.767616571
536,4.830580312
537,4.791039167
538,4.784417075
539,4.901115026
540,4.825219848
541,4.888524824
542,4.815788763
543,4.883195567
544,4.799891705
545,4.758316856
546,4.734709401
547,4.884744398
548,4.806471842
549,4.839244778
550,4.909625183
551,4.826142432
552,4.798808422
553,4.755044109
554,4.786171374
555,4.810547256
556,4.706739442
557,4.741406811
558,4.835779019
559,4.794314749
560,4.895665096
561,4.850202804
562,4.806499635
563,4.759258239
564,4.780389856
565,4.764229809
566,4.72226032
567,4.746281759
568,4.826838455
569,4.821480874
570,4.907752484
571,4.75654036
572,4.779792621
573,4.857719898
574,4.826712984
575,4.847391593
576,4.797771464
577,4.761760748
578,4.756508664
579,4.901763359
580,4.664872127
581,4.827131403
582,4.96129092
583,4.811484607
584,4.823479046
585,4.842147628
586,4.799947156
587,4.817934295
588,4.779758036
589,4.779111043
590,4.71387404
591,4.758295941
592,4.826389797
593,4.717675245
594,4.843559128
595,4.81781122
596,4.7715491
597,4.819647763
598,4.809816971
599,4.814074926
600,4.826958435
601,4.865069904
602,4.819752922
603,4.801920203
604,4.773063151
605,4.799228594
606,4.762021178
607,4.665868291
608,4.795603791
609,4.771696555
610,4.850688443
611,4.817173051
612,4.780814289
613,4.855984924
614,4.849233861
615,4.737821783
616,4.793159879
617,4.849009658
618,4.762980431
619,4.756976121
620,4.778539032
621,4.835060441
622,4.844092261
623,4.744512134
624,4.88046341
625,4.820651953
626,4.751564051
627,4.872012298
628,4.827735971
629,4.72078785
630,4.813383879
631,4.782374418
632,4.854566445
633,4.762600489
634,4.75754392
635,4.837649329
636,4.817259406
637,4.865310569
638,4.742966965
639,4.772914919
640,4.862244878
641,4.726763565
642,4.776653076
643,4.720005387
644,4.785670199
645,4.910680747
646,4.761453355
647,4.800603566
648,4.800910561
649,4.881802022
650,4.811634624
651,4.770728748
652,4.688853449
653,4.877752858
654,4.854876975
655,4.84290231
656,4.826036307
657,4.840019767
658,4.847551785
659,4.801808604
660,4.787256882
661,4.902709037
662,4.790617609
663,4.739456051
664,4.796394455
665,4.771623433
666,4.78959056
667,4.813039242
668,4.770348547
669,4.747883548
670,4.871506001
671,4.796732572
672,4.815047646
673,4.836904302
674,4.807286757
675,4.770194395
676,4.819801287
677,4.812907138
678,4.785073865
679,4.753427208
680,4.79210164
681,4.781632258
682,4.768280426
683,4.795195939
684,4.754849616
685,4.806947815
686,4.78938805
687,4.898592923
688,4.826464804
689,4.731623189
690,4.826487119
691,4.785538725
692,4.759750426
693,4.719798851
694,4.798513421
695,4.808406161
696,4.805141799
697,4.829061998
698,4.804989406
699,4.805799894
700,4.779215926
701,4.799872514
702,4.840869946
703,4.827013836
704,4.866130561
705,4.779595295
706,4.825139707
707,4.858391049
708,4.80430659
709,4.81926779
710,4.796550806
711,4.84150409
712,4.876487191
713,4.871961678
714,4.742934514
715,4.821904282
716,4.817883222
717,4.74843176
718,4.826506006
719,4.891499741
720,4.803106216
721,4.869894999
722,4.834619863
723,4.752303128
724,4.766113698
725,4.783520887
726,4.853858673
727,4.849645031
728,4.758664364
729,4.831825635
730,4.705022688
731,4.661552354
732,4.778060165
733,4.900168387
734,4.846332961
735,4.761000702
736,4.899169992
737,4.81905322
738,4.778572095
739,4.759379076
740,4.780770427
741,4.814580443
742,4.786784714
743,4.838719063
744,4.73520507
745,4.782196727
746,4.873891049
747,4.749981242
748,4.915131958
749,4.809966683
750,4.818202697
751,4.743785344
752,4.804385157
753,4.811063296
754,4.734156343
755,4.725125451
756,4.743270413
757,4.76940558
758,4.865440037
759,4.78091689
760,4.8124726
761,4.76827451
762,4.80629873
763,4.85207252
764,4.813304865
765,4.820483453
766,4.73649986
767,4.782059341
768,4.803598004
769,4.860674355
770,4.903371552
771,4.755713991
772,4.847585117
773,4.862625295
774,4.765594831
775,4.841541897
776,4.80136178
777,4.783066317
778,4.867726335
779,4.732766139
780,4.813847041
781,4.85348805
782,4.740441809
783,4.827895928
784,4.814428931
785,4.791153966
786,4.775622789
787,4.734993595
788,4.875810835
789,4.780853286
790,4.818496674
791,4.777173285
792,4.873733713
793,4.815963557
794,4.788556041
795,4.873619424
796,4.829424191
797,4.783051566
798,4.810137101
799,4.74589955
800,4.829531272
801,4.762430293
802,4.829409732
803,4.769731211
804,4.793636471
805,4.759180546
806,4.822375592
807,4.835360811
808,4.75312978
809,4.797927411
810,4.797472446
811,4.850228971
812,4.822678348
813,4.80308044
814,4.801422775
815,4.801272262
816,4.847920481
817,4.748870602
818,4.796703695
819,4.896162086
820,4.846860071
821,4.726445919
822,4.748353127
823,4.794235034
824,4.696762755
825,4.760569384
826,4.810423094
827,4.852817703
828,4.774786145
829,4.741497036
830,4.851429156
831,4.792559822
832,4.752770316
833,4.755525459
834,4.787884151
835,4.746654328
836,4.772727089
837,4.813519456
838,4.685893361
839,4.806251611
840,4.833049208
841,4.897431413
842,4.794879517
843,4.773075035
844,4.826679043
845,4.827325848
846,4.756852327
847,4.843072137
848,4.760242496
849,4.806293549
850,4.866768511
851,4.771237667
852,4.834824257
853,4.852766403
854,4.803964871
855,4.819011288
856,4.787746029
857,4.837241819
858,4.848529423
859,4.780061148
860,4.742997696
861,4.829213225
862,4.708308944
863,4.73613578
864,4.838610096
865,4.844803462
866,4.85680328
867,4.850152838
868,4.854183043
869,4.71583188
870,4.754315145
871,4.9045029
872,4.775161421
873,4.889629167
874,4.801262386
875,4.859443962
876,4.765938164
877,4.759332516
878,4.828457614
879,4.777111901
880,4.881854676
881,4.794347405
882,4.735592373
883,4.798940274
884,4.775458605
885,4.794643357
886,4.803607347
887,4.776469304
888,4.85031725
889,4.828109347
890,4.811971367
891,4.790005655
892,4.851872991
893,4.831409207
894,4.885354495
895,4.767817852
896,4.791103025
897,4.841493363
898,4.822460532
899,4.783631764
900,4.798410214
901,4.847589176
902,4.819151612
903,4.776759058
904,4.814746182
905,4.90931561
906,4.818876453
907,4.848624321
908,4.839946637
909,4.75163968
910,4.732801111
911,4.71540244
912,4.853360037
913,4.816774903
914,4.744852349
915,4.865042412
916,4.815811799
917,4.786075251
918,4.747013304
919,4.851924815
920,4.778887033
921,4.814065347
922,4.758574087
923,4.83435568
924,4.810697154
925,4.77478618
926,4.792132876
927,4.776833337
928,4.813444065
929,4.765443559
930,4.775518031
931,4.765364083
932,4.82695796
933,4.808133175
934,4.797994418
935,4.707682044
936,4.767429804
937,4.726867138
938,4.844575268
939,4.816319108
940,4.819720487
941,4.725998166
942,4.883881132
943,4.766993574
944,4.799016738
945,4.771167106
946,4.80297229
947,4.84787361
948,4.882094843
949,4.72186264
950,4.805721338
951,4.824852225
952,4.89379797
953,4.79141525
954,4.883938777
955,4.755140401
956,4.695535433
957,4.881080864
958,4.776710419
959,4.800447824
960,4.733720594
961,4.742987477
962,4.807524875
963,4.810911646
964,4.893825027
965,4.719475019
966,4.811960027
967,4.775080822
968,4.829279874
969,4.85967598
970,4.890011795
971,4.728104713
972,4.8082948
973,4.766522523
974,4.835788818
975,4.889661152
976,4.84540893
977,4.882427699
978,4.835898099
979,4.813523202
980,4.843241907
981,4.896019644
982,4.779834603
983,4.802998098
984,4.832524188
985,4.773962705
986,4.70141667
987,4.731946117
988,4.793092746
989,4.892466228
990,4.773625202
991,4.73826857
992,4.718999781
993,4.725713122
994,4.853060657
995,4.792095774
996,4.839017373
997,4.809930913
998,4.875526048
999,4.833871122
1000,4.739421716
1001,4.86835834
1002,4.826317032
1003,4.838711196
1004,4.853787206
1005,4.716781799
1006,4.841830378
1007,4.747760482
1008,4.799915113
1009,4.707350059
1010,4.814677622
1011,4.758068284
1012,4.857673482
1013,4.863640927
1014,4.825978146
1015,4.837953534
1016,4.793216643
1017,4.79485018
1018,4.748835026
1019,4.81065498
1020,4.780777198
1021,4.790930484
1022,4.804847025
1023,4.850056853
1024,4.799595494
1025,4.738747951
1026,4.758264966
1027,4.801026916
1028,4.858874794
1029,4.745949031
1030,4.872987334
1031,4.750623311
1032,4.748322311
1033,4.850027092
1034,4.82918141
1035,4.834879219
1036,4.689826177
1037,4.893763396
1038,4.780874677
1039,4.837973027
1040,4.841600743
1041,4.766596206
1042,4.721846525
1043,4.748365968
1044,4.805343181
1045,4.813718994
1046,4.803273393
1047,4.768616527
1048,4.774104574
1049,4.753782405
1050,4.797652784
1051,4.799572979
1052,4.802296953
1053,4.8579189
1054,4.818286327
1055,4.7464802
1056,4.845858056
1057,4.852974705
1058,4.717478965
1059,4.789506299
1060,4.829841773
1061,4.790368353
1062,4.751358389
1063,4.885450181
1064,4.795139147
1065,4.772387215
1066,4.832064545
1067,4.864831835
1068,4.792312495
1069,4.814932341
1070,4.777305154
1071,4.808207582
1072,4.780002349
1073,4.808478205
1074,4.78127994
1075,4.824731166
1076,4.818689716
1077,4.763647985
1078,4.846986744
1079,4.821425914
1080,4.76450541
1081,4.744196811
1082,4.718204751
1083,4.811939435
1084,4.749564499
1085,4.736448483
1086,4.719474477
1087,4.761755894
1088,4.789483577
1089,4.730997598
1090,4.759780717
1091,4.770188191
1092,4.814175732
1093,4.853026298
1094,4.82784623
1095,4.839165747
1096,4.793648835
1097,4.871006144
1098,4.780173654
1099,4.7811096
1100,4.747707643
1101,4.808739279
1102,4.877002034
1103,4.813434771
1104,4.805569227
1105,4.783672455
1106,4.688784537
1107,4.757025672
1108,4.868948723
1109,4.833287153
1110,4.846443074
1111,4.83873174
1112,4.719737489
1113,4.763515127
1114,4.812305195
1115,4.803655852
1116,4.812748498
1117,4.867131232
1118,4.831723221
1119,4.785512431
1120,4.837084075
1121,4.813614296
1122,4.87975839
1123,4.840304087
1124,4.769416408
1125,4.744729917
1126,4.874923794
1127,4.818053673
1128,4.852933031
1129,4.742291829
1130,4.90691526
1131,4.802549121
1132,4.761832448
1133,4.958145666
1134,4.690467577
1135,4.818318612
1136,4.830040459
1137,4.807052988
1138,4.830055869
1139,4.73038281
1140,4.821595081
1141,4.834046263
1142,4.838660254
1143,4.783085156
1144,4.789871922
1145,4.868712407
1146,4.988285546
1147,4.823828885
1148,4.725104249
1149,4.760431128
1150,4.714745543
1151,4.761085518
1152,4.81154448
1153,4.828526911
1154,4.92093855
1155,4.789747098
1156,4.842124103
1157,4.872957321
1158,4.710656962
1159,4.697155924
1160,4.809288547
1161,4.761732667
1162,4.829412732
1163,4.770032914
1164,4.842881761
1165,4.845481366
1166,4.908839768
1167,4.776235911
1168,4.850139958
1169,4.819961947
1170,4.845273087
1171,4.720183087
1172,4.834234625
1173,4.819897713
1174,4.884142077
1175,4.780466955
1176,4.855863876
1177,4.819821366
1178,4.853043612
1179,4.798650937
1180,4.763705055
1181,4.723901128
1182,4.81431339
1183,4.858183045
1184,4.822403138
1185,4.839114447
1186,4.788776157
1187,4.733108687
1188,4.796454851
1189,4.839529861
1190,4.785100915
1191,4.790848052
1192,4.872494116
1193,4.819408045
1194,4.767282337
1195,4.867687202
1196,4.831037695
1197,4.760770083
1198,4.805643371
1199,4.781547223
1200,4.778284395
1201,4.794677253
1202,4.728318539
1203,4.768038953
1204,4.806233308
1205,4.802499769
1206,4.84430686
1207,4.747528607
1208,4.764123498
1209,4.73418449
1210,4.78214998
1211,4.824504684
1212,4.851708255
1213,4.772936914
1214,4.771881643
1215,4.733848894
1216,4.852767494
1217,4.800584305
1218,4.793723003
1219,4.729623832
1220,4.757950608
1221,4.88382084
1222,4.813882854
1223,4.851380204
1224,4.71171712
1225,4.811836403
1226,4.745650985
1227,4.8160097
1228,4.761105348
1229,4.805416705
1230,4.803196688
1231,4.766364772
1232,4.796283637
1233,4.760082677
1234,4.784614559
1235,4.806203847
1236,4.812367109
1237,4.825988765
1238,4.805082166
1239,4.846340381
1240,4.835230814
1241,4.826730718
1242,4.776254308
1243,4.786256178
1244,4.846387732
1245,4.806029536
1246,4.788067265
1247,4.687380689
1248,4.83015027
1249,4.85411045
1250,4.741742931
1251,4.738310115
1252,4.777293607
1253,4.916654477
1254,4.759466022
1255,4.771359421
1256,4.699032792
1257,4.832341339
1258,4.71503404
1259,4.883198534
1260,4.754590129
1261,4.707005012
1262,4.809369153
1263,4.852192061
1264,4.738862654
1265,4.813057212
1266,4.806239273
1267,4.878255189
1268,4.811806239
1269,4.798864322
1270,4.738335264
1271,4.860759327
1272,4.850205562
1273,4.814621811
1274,4.752386439
1275,4.793176894
1276,4.765705368
1277,4.911079348
1278,4.766599206
1279,4.830313624
1280,4.831699665
1281,4.787471748
1282,4.858954444
1283,4.817311843
1284,4.817548691
1285,4.765408283
1286,4.752327349
1287,4.834997457
1288,4.65204034
1289,4.882336737
1290,4.751897369
1291,4.781565377
1292,4.734819479
1293,4.844590263
1294,4.777144923
1295,4.753593979
1296,4.722712856
1297,4.782816522
1298,4.841547543
1299,4.854867283
1300,4.821664187
1301,4.885753861
1302,4.795113545
1303,4.742472629
1304,4.8327257
1305,4.727130485
1306,4.73920905
1307,4.757591592
1308,4.754499409
1309,4.752176736
1310,4.842743938
1311,4.730336202
1312,4.781585219
1313,4.716644281
1314,4.809497182
1315,4.847771926
1316,4.898377002
1317,4.751426896
1318,4.87039692
1319,4.793345119
1320,4.830663603
1321,4.823227318
1322,4.726344876
1323,4.817885499
1324,4.847492982
1325,4.802023593
1326,4.815783676
1327,4.865164016
1328,4.790349439
1329,4.828116737
1330,4.745601897
1331,4.7449631
1332,4.847082605
1333,4.811457032
1334,4.872757856
1335,4.805240632
1336,4.752705842
1337,4.909680961
1338,4.834052616
1339,4.812492023
1340,4.784610009
1341,4.777141826
1342,4.788954974
1343,4.777134042
1344,4.839996484
1345,4.780680348
1346,4.800275873
1347,4.810638812
1348,4.826868696
1349,4.778605414
1350,4.812612006
1351,4.853780584
1352,4.823229615
1353,4.77196384
1354,4.722066337
1355,4.703851044
1356,4.849541677
1357,4.749987084
1358,4.843175357
1359,4.790125956
1360,4.809841405
1361,4.755072244
1362,4.779992529
1363,4.929634753
1364,4.705556126
1365,4.827190465
1366,4.886358552
1367,4.75028301
1368,4.782805496
1369,4.816703782
1370,4.79897785
1371,4.714141186
1372,4.859369372
1373,4.721224727
1374,4.814328999
1375,4.798364922
1376,4.805909881
1377,4.769448602
1378,4.754849881
1379,4.715683062
1380,4.830289473
1381,4.796364093
1382,4.898538648
1383,4.84391372
1384,4.746086664
1385,4.795053672
1386,4.78483719
1387,4.832736781
1388,4.70666611
1389,4.824707917
1390,4.795183699
1391,4.807277379
1392,4.802684306
1393,4.745054003
1394,4.820284937
1395,4.836605384
1396,4.807019591
1397,4.833507513
1398,4.856272995
1399,4.842335204
1400,4.864272704
1401,4.766021506
1402,4.819969234
1403,4.863909352
1404,4.828530017
1405,4.768540322
1406,4.875501946
1407,4.845081673
1408,4.856483224
1409,4.891185821
1410,4.904002232
1411,4.758658695
1412,4.827561933
1413,4.70621052
1414,4.912362413
1415,4.953913192
1416,4.760611977
1417,4.804422448
1418,4.895286202
1419,4.839481296
1420,4.875392095
1421,4.881785285
1422,4.833756864
1423,4.728312566
1424,4.849197338
1425,4.892174158
1426,4.873454885
1427,4.824840253
1428,4.76920234
1429,4.791654988
1430,4.848819019
1431,4.863919384
1432,4.857736934
1433,4.773438572
1434,4.761697568
1435,4.810353246
1436,4.803028524
1437,4.70727823
1438,4.917558846
1439,4.890796968
1440,4.842961187
1441,4.864091205
1442,4.814045953
1443,4.822303224
1444,4.824998985
1445,4.824246606
1446,4.879819659
1447,4.82326841
1448,4.876623967
1449,4.908741277
1450,4.980976294
1451,4.792851363
1452,4.769114589
1453,4.755147379
1454,4.872247798
1455,4.830072648
1456,4.826121979
1457,4.890686536
1458,4.854779438
1459,4.84918611
1460,4.829532819
1461,4.779033804
1462,4.854674358
1463,4.821446145
1464,4.781055835
1465,4.858335554
1466,4.875985174
1467,4.859387549
1468,4.837090254
1469,4.906878687
1470,4.921420044
1471,4.94658492
1472,4.842826752
1473,4.839649565
1474,4.890941855
1475,4.886903853
1476,4.892150877
1477,4.922531689
1478,4.802502067
1479,4.966029034
1480,4.89668982
1481,4.900854635
1482,4.944233919
1483,4.766256524
1484,4.860970173
1485,4.930451586
1486,4.879267553
1487,4.923649319
1488,4.949723075
1489,4.936796075
1490,4.923560083
1491,4.919880766
1492,4.974496576
1493,4.873376165
1494,4.854611341
1495,4.883267112
1496,4.907941251
1497,4.920844088
1498,4.890685072
1499,4.850818489
1500,4.85836916
1501,4.968761954
1502,5.004066336
1503,4.954719741
1504,4.94628601
1505,4.938293525
1506,5.014499728
1507,4.941953837
1508,4.89306287
1509,4.851985125
1510,5.017939815
1511,4.898053421
1512,5.031090889
1513,4.987626557
1514,4.975740714
1515,4.951348363
1516,4.990094336
1517,4.952566291
1518,4.974358177
1519,4.957960621
1520,4.919925372
1521,4.931752568
1522,4.994176488
1523,4.897888988
1524,5.040307318
1525,5.007633332
1526,4.952335535
1527,4.980494091
1528,5.025902053
1529,5.130082941
1530,4.935959317
1531,4.964993436
1532,4.981540799
1533,4.963792076
1534,5.012353771
1535,5.077694327
1536,4.89586634
1537,4.997010415
1538,4.996883186
1539,5.068147814
1540,5.020712178
1541,4.989161481
1542,5.037489154
1543,5.036650474
1544,4.973447745
1545,4.974901927
1546,5.060936269
1547,5.065944852
1548,5.063908016
1549,5.043490894
1550,4.949802337
1551,5.043663911
1552,5.016206578
1553,5.063611081
1554,5.098937097
1555,5.067198971
1556,5.015126834
1557,5.080413255
1558,4.96400853
1559,5.066501306
1560,5.02576571
1561,5.101846071
1562,5.058360486
1563,5.098258018
1564,5.080860536
1565,4.97880718
1566,5.028816171
1567,5.130898395
1568,5.207573339
1569,5.057498235
1570,5.119081797
1571,5.052315298
1572,5.081910978
1573,5.144098219
1574,5.039937764
1575,5.079774195
1576,5.016413101
1577,5.086965895
1578,5.179747433
1579,5.07413976
1580,5.091030559
1581,5.155452756
1582,5.122056551
1583,5.031091929
1584,5.127477595
1585,5.124529377
1586,5.114512694
1587,5.036771252
1588,5.131235909
1589,5.123501749
1590,5.097222616
1591,4.98717619
1592,5.132206889
1593,5.177609688
1594,5.118198873
1595,5.084380521
1596,5.175115874
1597,5.209848294
1598,5.15010436
1599,5.030584762
1600,5.137030098
1601,5.115190645
1602,5.095864252
1603,5.125940093
1604,5.107219009
1605,5.14811964
1606,5.143452125
1607,5.073651822
1608,5.032219718
1609,5.089702449
1610,5.082637396
1611,5.024437621
1612,5.047717334
1613,5.020891901
1614,5.040425374
1615,5.081571977
1616,5.085270975
1617,5.070329047
1618,5.133444504
1619,5.114686923
1620,5.173070785
1621,5.145233402
1622,5.065106673
1623,5.123323491
1624,5.104727859
1625,5.116141479
1626,5.084053793
1627,5.025169374
1628,5.05127291
1629,5.125401196
1630,5.097017101
1631,5.174569169
1632,5.106366393
1633,5.120945247
1634,5.092307261
1635,5.09886568
1636,5.061480378
1637,5.072168908
1638,5.062126182
1639,5.059934617
1640,5.120310452
1641,5.046788788
1642,5.037377211
1643,5.11509046
1644,5.047139475
1645,5.094613951
1646,5.0544502
1647,5.093839114
1648,5.003297779
1649,5.021400808
1650,5.030837566
1651,4.956604693
1652,4.961950825
1653,5.082974866
1654,5.041878576
1655,5.035871499
1656,5.062751013
1657,4.994971492
1658,5.139536103
1659,5.008151466
1660,4.948062107
1661,5.016854876
1662,5.102226466
1663,5.015188684
1664,5.005603322
1665,5.055550733
1666,5.039617579
1667,5.091788577
1668,4.994504429
1669,4.910361747
1670,4.93317385
1671,4.951911166
1672,5.129128973
1673,5.005857688
1674,4.951799318
1675,4.986510063
1676,5.055713147
1677,4.933022241
1678,4.899227177
1679,4.952216684
1680,4.950409996
1681,5.060580339
1682,4.948126098
1683,5.074768818
1684,4.91737068
1685,4.976972671
1686,4.991656344
1687,4.918576174
1688,4.935632201
1689,5.013915044
1690,5.000561206
1691,4.946786085
1692,4.976217991
1693,4.97490528
1694,4.981380391
1695,4.956417943
1696,4.94263966
1697,5.087322015
1698,4.982351711
1699,4.923743574
1700,5.00356504
1701,4.887943005
1702,4.927598375
1703,4.937019955
1704,4.982789802
1705,4.902643316
1706,4.987626059
1707,4.892660813
1708,4.851046896
1709,4.912232797
1710,4.904524382
1711,4.888693971
1712,4.874162639
1713,4.939812481
1714,4.980652619
1715,4.909747862
1716,4.942443725
1717,4.87762363
1718,4.877399789
1719,4.854853008
1720,4.888400672
1721,4.869883357
1722,4.952785619
1723,4.768552734
1724,4.942717621
1725,4.875354974
1726,4.807233037
1727,4.98877125
1728,4.765263707
1729,4.895901253
1730,4.824857792
1731,4.853456591
1732,4.878836219
1733,4.867957702
1734,4.898869604
1735,4.800247446
1736,4.877986423
1737,4.867995724
1738,4.848147664
1739,4.901685472
1740,4.827200266
1741,4.888080967
1742,4.846395156
1743,4.944845905
1744,4.893372675
1745,4.804520983
1746,4.848112046
1747,4.875667448
1748,4.751075437
1749,4.912690599
1750,4.927952661
1751,4.935604153
1752,4.81029687
1753,4.876556039
1754,4.972487408
1755,4.80010875
1756,4.791127875
1757,4.723077574
1758,4.859180183
1759,4.827660462
1760,4.879843365
1761,4.90822552
1762,4.823356124
1763,4.853324771
1764,4.921415782
1765,4.815769305
1766,4.854142043
1767,4.828631226
1768,4.929603216
1769,4.842685266
1770,4.831946318
1771,4.782550484
1772,4.819804798
1773,4.842516176
1774,4.811392555
1775,4.783162374
1776,4.785030783
1777,4.790725096
1778,4.744180969
1779,4.843569724
1780,4.783625028
1781,4.871052668
1782,4.856237342
1783,4.829858125
1784,4.799921381
1785,4.760499408
1786,4.843243894
1787,4.817620151
1788,4.860552653
1789,4.818657636
1790,4.853371167
1791,4.820379901
1792,4.867597059
1793,4.787285795
1794,4.867029531
1795,4.786409553
1796,4.85631176
1797,4.846048666
1798,4.790375767
1799,4.866966945
1800,4.764174154
1801,4.757745657
1802,4.794147177
1803,4.820941199
1804,4.839597494
1805,4.829652616
1806,4.809307471
1807,4.853405123
1808,4.765747108
1809,4.780137599
1810,4.816284213
1811,4.782126642
1812,4.818430836
1813,4.769277658
1814,4.825745471
1815,4.778006642
1816,4.78407224
1817,4.746192778
1818,4.792491782
1819,4.768962868
1820,4.819667154
1821,4.724963264
1822,4.874397179
1823,4.751634435
1824,4.756577455
1825,4.86249445
1826,4.7734548
1827,4.731418195
1828,4.767650757
1829,4.867797082
1830,4.801433584
1831,4.827898121
1832,4.788572678
1833,4.792668509
1834,4.854695709
1835,4.831296772
1836,4.863240878
1837,4.878890632
1838,4.822094942
1839,4.757988434
1840,4.685507271
1841,4.742125344
1842,4.869428233
1843,4.791177992
1844,4.853763207
1845,4.853748817
1846,4.818083459
1847,4.858439954
1848,4.911307726
1849,4.691018657
1850,4.802428233
1851,4.761177352
1852,4.812481596
1853,4.756499162
1854,4.747241355
1855,4.741911634
1856,4.846927303
1857,4.80671089
1858,4.796664446
1859,4.784330386
1860,4.87860966
1861,4.813301038
1862,4.764664575
1863,4.704952615
1864,4.831376515
1865,4.841971506
1866,4.789613884
1867,4.758985734
1868,4.815800442
1869,4.77627728
1870,4.784534149
1871,4.790508806
1872,4.857132512
1873,4.867002144
1874,4.822183952
1875,4.775671362
1876,4.777064476
1877,4.834746953
1878,4.87625976
1879,4.860889005
1880,4.766706715
1881,4.827679833
1882,4.754987546
1883,4.820468965
1884,4.766718059
1885,4.838007988
1886,4.857955276
1887,4.721227314
1888,4.788726614
1889,4.860930857
1890,4.852975533
1891,4.868572461
1892,4.78514837
1893,4.771848562
1894,4.794341157
1895,4.75292054
1896,4.843492906
1897,4.802785447
1898,4.825786615
1899,4.683592172
1900,4.870926105
1901,4.762012344
1902,4.820772488
1903,4.910741504
1904,4.798146987
1905,4.810834709
1906,4.798695196
1907,4.862641422
1908,4.799681846
1909,4.914993301
1910,4.844197426
1911,4.828790712
1912,4.819770699
1913,4.8017977
1914,4.816536524
1915,4.776576764
1916,4.758610483
1917,4.761627461
1918,4.789577691
1919,4.840242093
1920,4.820152465
1921,4.870890054
1922,4.789097938
1923,4.774323189
1924,4.891055047
1925,4.785754809
1926,4.799508397
1927,4.830479816
1928,4.875435588
1929,4.786564204
1930,4.701829183
1931,4.83396885
1932,4.776370986
1933,4.876241606
1934,4.707868601
1935,4.781637232
1936,4.81421619
1937,4.707439691
1938,4.770862454
1939,4.760038326
1940,4.806739567
1941,4.802321307
1942,4.799138258
1943,4.75839495
1944,4.840831412
1945,4.889698227
1946,4.832484148
1947,4.81235807
1948,4.836631987
1949,4.748253642
1950,4.857111267
1951,4.823892557
1952,4.799843009
1953,4.814490592
1954,4.779765146
1955,4.826993553
1956,4.767934019
1957,4.897479094
1958,4.852559028
1959,4.793725042
1960,4.732012369
1961,4.751159156
1962,4.885176118
1963,4.755923
1964,4.829634152
1965,4.816612389
1966,4.756087253
1967,4.794639833
1968,4.814556037
1969,4.830354468
1970,4.844564788
1971,4.881759773
1972,4.8284208
1973,4.689578142
1974,4.738666929
1975,4.823636301
1976,4.75823231
1977,4.784085845
1978,4.862201118
1979,4.771861076
1980,4.854289974
1981,4.867627321
1982,4.763194634
1983,4.801818834
1984,4.766522207
1985,4.703284777
1986,4.785028057
1987,4.809512549
1988,4.77059932
1989,4.852421274
1990,4.814551663
1991,4.792660395
1992,4.888908755
1993,4.848063866
1994,4.774013186
1995,4.811442806
1996,4.721647674
1997,4.722579354
1998,4.813427116
1999,4.896723902
2000,4.70567957
2001,4.758009801
2002,4.797827948
2003,4.86497621
2004,4.887693012
2005,4.859968408
2006,4.861146051
2007,4.788283871
2008,4.783532604
2009,4.815474081
2010,4.865796786
2011,4.875306246
2012,4.863062655
2013,4.796154554
2014,4.800501694
2015,4.768175647
2016,4.7328403
2017,4.710501127
2018,4.888832649
2019,4.843741121
2020,4.889724613
2021,4.76852286
2022,4.764945009
2023,4.810688616
2024,4.80082263
2025,4.800052141
2026,4.780726631
2027,4.768003027
2028,4.724085538
2029,4.870038651
2030,4.802987256
2031,4.852125994
2032,4.820530005
2033,4.784760146
2034,4.846599289
2035,4.789607225
2036,4.76728503
2037,4.715052396
2038,4.771236651
2039,4.80037673
2040,4.76752674
2041,4.72490802
2042,4.820402787
2043,4.825974944
2044,4.746314525
2045,4.789295577
2046,4.83055985
2047,4.674377943
2048,4.840396947
2049,4.815312042
2050,4.753308938
2051,4.842424258
2052,4.831831421
2053,4.783088456
2054,4.732477079
2055,4.827640171
2056,4.786196458
2057,4.761474007
2058,4.838146135
2059,4.776182056
2060,4.772602126
2061,4.758248061
2062,4.779852479
2063,4.699570652
2064,4.789458246
2065,4.894185991
2066,4.847919756
2067,4.736404988
2068,4.722800754
2069,4.75429062
2070,4.756091398
2071,4.852776072
2072,4.693836577
2073,4.851151967
2074,4.879602692
2075,4.7257637
2076,4.791645159
2077,4.718435954
2078,4.843183654
2079,4.882011441
2080,4.851667104
2081,4.779096386
2082,4.77514978
2083,4.839958057
2084,4.881417422
2085,4.852857623
2086,4.845559341
2087,4.785403374
2088,4.816534728
2089,4.757979187
2090,4.797608651
2091,4.86620781
2092,4.902232858
2093,4.797266164
2094,4.86031145
2095,4.82107188
2096,4.772161627
2097,4.804722819
2098,4.716808359
2099,4.827660482
2100,4.776319601
2101,4.826389106
2102,4.851330429
2103,4.77070842
2104,4.804620702
2105,4.892539887
2106,4.796858304
2107,4.869428002
2108,4.77746315
2109,4.683082902
2110,4.722836932
2111,4.779230544
2112,4.802057305
2113,4.876903281
2114,4.788307054
2115,4.720783934
2116,4.807193803
2117,4.739094002
2118,4.768056344
2119,4.797169101
2120,4.786195585
2121,4.91222444
2122,4.68633473
2123,4.81742973
2124,4.879046421
2125,4.761458297
2126,4.72340563
2127,4.770288629
2128,4.695174894
2129,4.723718438
2130,4.749042155
2131,4.793875728
2132,4.698738975
2133,4.871609118
2134,4.772130751
2135,4.799398031
2136,4.78280963
2137,4.683508853
2138,4.843942227
2139,4.739445591
2140,4.845890992
2141,4.783947517
2142,4.77287612
2143,4.832781209
2144,4.858802185
2145,4.750607643
2146,4.819306558
2147,4.815129086
2148,4.807493385
2149,4.827345918
2150,4.867196522
2151,4.833658915
2152,4.798652674
2153,4.791872519
2154,4.803505526
2155,4.807954758
2156,4.80151751
2157,4.796594195
2158,4.822260783
2159,4.756856685
2160,4.843437018
2161,4.783132553
2162,4.827793787
2163,4.900069635
2164,4.862719109
2165,4.765223011
2166,4.822377395
2167,4.817172999
2168,4.72047074
2169,4.81766472
2170,4.832218744
2171,4.807827264
2172,4.755919445
2173,4.744397639
2174,4.807513146
2175,4.898669735
2176,4.78818794
2177,4.799561788
2178,4.726621464
2179,4.777711191
2180,4.78977805
2181,4.804085062
2182,4.851401807
2183,4.765762332
2184,4.770334478
2185,4.760191065
2186,4.8162797
2187,4.826662053
2188,4.878961815
2189,4.783408543
2190,4.816499293
2191,4.735350436
2192,4.728759501
2193,4.758068955
2194,4.717915485
2195,4.870829542
2196,4.790082536
2197,4.702297291
2198,4.828944416
2199,4.866007884
2200,4.82190503
2201,4.737952859
2202,4.818581479
2203,4.743321322
2204,4.843510953
2205,4.773085087
2206,4.841626219
2207,4.683767357
2208,4.815251372
2209,4.832154402
2210,4.748850147
2211,4.811945055
2212,4.738537722
2213,4.826425238
2214,4.72561627
2215,4.825689226
2216,4.722880231
2217,4.792174832
2218,4.820775284
2219,4.718680338
2220,4.854256836
2221,4.822227446
2222,4.869250755
2223,4.813640156
2224,4.734312832
2225,4.803663025
2226,4.729176441
2227,4.857148821
2228,4.858056211
2229,4.78976131
2230,4.886823814
2231,4.75956558
2232,4.783622196
2233,4.794554048
2234,4.79888197
2235,4.639320071
2236,4.754014363
2237,4.828666428
2238,4.81355971
2239,4.791747474
2240,4.911298797
2241,4.793289404
2242,4.775789075
2243,4.89449973
2244,4.747639257
2245,4.744297336
2246,4.717556406
2247,4.764245886
2248,4.790169849
2249,4.780965349
2250,4.824335297
2251,4.706094297
2252,4.834635369
2253,4.766297423
2254,4.794523901
2255,4.774870661
2256,4.867135596
2257,4.772325657
2258,4.812790262
2259,4.801584296
2260,4.752816924
2261,4.861284538
2262,4.797614507
2263,4.711737782
2264,4.754709149
2265,4.833635489
2266,4.94915347
2267,4.819584446
2268,4.863489971
2269,4.792675529
2270,4.754458256
2271,4.776020811
2272,4.779764444
2273,4.755075825
2274,4.809759366
2275,4.757732504
2276,4.808306355
2277,4.760836692
2278,4.780841517
2279,4.80350246
2280,4.794538202
2281,4.843187729
2282,4.821622522
2283,4.742470619
2284,4.892409537
2285,4.833178563
2286,4.788970786
2287,4.79999162
2288,4.810290332
2289,4.78206262
2290,4.883345951
2291,4.888292932
2292,4.790944018
2293,4.782600829
2294,4.707556352
2295,4.81623341
2296,4.814729855
2297,4.777686958
2298,4.824341674
2299,4.751952267
2300,4.885159003
2301,4.774008858
2302,4.82243758
2303,4.776973968
2304,4.816170818
2305,4.794297138
2306,4.793053397
2307,4.809016382
2308,4.818671945
2309,4.840175533
2310,4.767165113
2311,4.69082384
2312,4.79038523
2313,4.78606864
2314,4.836958906
2315,4.815538301
2316,4.84302536
2317,4.797207083
2318,4.888887841
2319,4.869720677
2320,4.819403374
2321,4.772781092
2322,4.775334353
2323,4.803539066
2324,4.872418877
2325,4.825090615
2326,4.763053954
2327,4.718570571
2328,4.879701491
2329,4.857943806
2330,4.74207734
2331,4.801921038
2332,4.89318106
2333,4.827740073
2334,4.885639557
2335,4.755020142
2336,4.849281374
2337,4.789702494
2338,4.740566603
2339,4.782193725
2340,4.754046544
2341,4.89517043
2342,4.802820226
2343,4.808739165
2344,4.734792794
2345,4.784648153
2346,4.789348645
2347,4.786355456
2348,4.835413181
2349,4.796490748
2350,4.786692892
2351,4.790076637
2352,4.723322134
2353,4.810423132
2354,4.754986647
2355,4.802266032
2356,4.754793665
2357,4.738372614
2358,4.832190975
2359,4.872006065
2360,4.842692255
2361,4.684172677
2362,4.783835289
2363,4.778860465
2364,4.847701253
2365,4.785237378
2366,4.802263849
2367,4.782515243
2368,4.774356903
2369,4.799735162
2370,4.828615128
2371,4.84636841
2372,4.759257641
2373,4.831786542
2374,4.739871036
2375,4.847951711
2376,4.824558507
2377,4.837370445
2378,4.768567678
2379,4.788953301
2380,4.789842146
2381,4.755021299
2382,4.79425257
2383,4.859048937
2384,4.81580029
2385,4.823493085
2386,4.834203693
2387,4.783945426
2388,4.852549346
2389,4.829460497
2390,4.781918854
2391,4.855887545
2392,4.840188125
2393,4.764084437
2394,4.712817255
2395,4.818373559
2396,4.829352964
2397,4.81012835
2398,4.805997308
2399,4.802660427
2400,4.82842602
2401,4.707783732
2402,4.808302278
2403,4.802815596
2404,4.856429155
2405,4.792875888
2406,4.774717176
2407,4.834289891
2408,4.77785759
2409,4.766713728
2410,4.696493756
2411,4.773415223
2412,4.769472211
2413,4.885573903
2414,4.802297853
2415,4.893964567
2416,4.782073444
2417,4.740315236
2418,4.738096106
2419,4.857030117
2420,4.769837893
2421,4.741710104
2422,4.728917265
2423,4.808101086
2424,4.820144553
2425,4.862889618
2426,4.78098123
2427,4.851914417
2428,4.80262044
2429,4.867557404
2430,4.866229845
2431,4.844303551
2432,4.785473615
2433,4.865620051
2434,4.734756766
2435,4.708943395
2436,4.728887418
2437,4.833712666
2438,4.767899348
2439,4.856953051
2440,4.753284963
2441,4.785721091
2442,4.774856578
2443,4.822286957
2444,4.855005881
2445,4.796091552
2446,4.800606667
2447,4.806395366
2448,4.834927076
2449,4.745415249
2450,4.780098525
2451,4.727364518
2452,4.819816305
2453,4.826193956
2454,4.705133869
2455,4.772848379
2456,4.696131402
2457,4.788451988
2458,4.874332058
2459,4.793069575
2460,4.759841513
2461,4.858013851
2462,4.893952122
2463,4.856515158
2464,4.798488055
2465,4.841869099
2466,4.746124167
2467,4.794304283
2468,4.856333451
2469,4.751826001
2470,4.780204748
2471,4.673448729
2472,4.848803864
2473,4.848156392
2474,4.760974069
2475,4.827732234
2476,4.831770381
2477,4.866871561
2478,4.845501743
2479,4.828747515
2480,4.776864566
2481,4.800506206
2482,4.856649858
2483,4.843574249
2484,4.747011087
2485,4.671179915
2486,4.778471123
2487,4.817672747
2488,4.822069874
2489,4.814618045
2490,4.704970161
2491,4.82260166
2492,4.864845545
2493,4.742042491
2494,4.729502058
2495,4.801055007
2496,4.864169763
2497,4.75659485
2498,4.751583715
2499,4.758118548
2500,4.821970926
2501,4.79991257
2502,4.814720378
2503,4.82608805
2504,4.726333854
2505,4.769228163
2506,4.863867271
2507,4.794461033
2508,4.820928737
2509,4.861295855
2510,4.725803661
2511,4.801425576
2512,4.791085522
2513,4.834974661
2514,4.804983187
2515,4.794021562
2516,4.775067468
2517,4.7560478
2518,4.778693103
2519,4.822288546
2520,4.81376035
2521,4.661696601
2522,4.887289925
2523,4.694693294
2524,4.742623159
2525,4.777793079
2526,4.87819201
2527,4.814413056
2528,4.875694351
2529,4.759221119
2530,4.754248694
2531,4.742550263
2532,4.737248437
2533,4.856026974
2534,4.787725208
2535,4.775349029
2536,4.83133606
2537,4.701772486
2538,4.799113058
2539,4.90054248
2540,4.859575791
2541,4.727419443
2542,4.711513821
2543,4.822734398
2544,4.813478834
2545,4.767137337
2546,4.845168759
2547,4.867346148
2548,4.760370025
2549,4.781792516
2550,4.872304889
2551,4.72951605
2552,4.788080596
2553,4.767134794
2554,4.83121712
2555,4.767908633
2556,4.748926966
2557,4.801099577
2558,4.7656947
2559,4.816019525
2560,4.774008203
2561,4.798555021
2562,4.904517272
2563,4.774845068
2564,4.785180987
2565,4.732162214
2566,4.808296173
2567,4.82917392
2568,4.82251526
2569,4.766894889
2570,4.739107851
2571,4.772150647
2572,4.789030632
2573,4.778812397
2574,4.758690328
2575,4.820993104
2576,4.809627407
2577,4.771278354
2578,4.74693883
2579,4.878483909
2580,4.887800574
2581,4.783329784
2582,4.687118106
2583,4.828724984
2584,4.773266797
2585,4.758577726
2586,4.81184838
2587,4.788579549
2588,4.811712954
2589,4.779043963
2590,4.749056986
2591,4.872860976
2592,4.860282235
2593,4.817709553
2594,4.777638681
2595,4.799870789
2596,4.764058878
2597,4.804280943
2598,4.81647828
2599,4.794864632
2600,4.703050953
2601,4.765755029
2602,4.791085056
2603,4.803879947
2604,4.825453372
2605,4.797394883
2606,4.879442503
2607,4.795793066
2608,4.696523669
2609,4.747969478
2610,4.794380159
2611,4.872816542
2612,4.748743688
2613,4.767249903
2614,4.804297024
2615,4.746984716
2616,4.887720218
2617,4.779135437
2618,4.891151013
2619,4.759570413
2620,4.769002105
2621,4.801864182
2622,4.844407165
2623,4.754271566
2624,4.771871115
2625,4.711521324
2626,4.851552905
2627,4.717887104
2628,4.787555514
2629,4.781618727
2630,4.750692882
2631,4.776001638
2632,4.807419903
2633,4.735975065
2634,4.808923321
2635,4.759486131
2636,4.775276318
2637,4.818804474
2638,4.767913882
2639,4.793668668
2640,4.803662698
2641,4.755728174
2642,4.787070494
2643,4.788315608
2644,4.776945001
2645,4.817816811
2646,4.83029285
2647,4.694387121
2648,4.8058443
2649,4.855070627
2650,4.853664598
2651,4.822745648
2652,4.740715575
2653,4.810574298
2654,4.804012711
2655,4.898780094
2656,4.874292791
2657,4.735105229
2658,4.771102494
2659,4.760556853
2660,4.831909405
2661,4.685056298
2662,4.75911318
2663,4.806166204
2664,4.747609795
2665,4.947853543
2666,4.802299246
2667,4.849609135
2668,4.840314141
2669,4.778638783
2670,4.794821314
2671,4.792780252
2672,4.715882454
2673,4.733326807
2674,4.797436968
2675,4.758733766
2676,4.833130553
2677,4.823665567
2678,4.826006432
2679,4.781784449
2680,4.802898218
2681,4.768095358
2682,4.876530467
2683,4.871576765
2684,4.727025327
2685,4.872587774
2686,4.727354647
2687,4.820929578
2688,4.763935107
2689,4.828574974
2690,4.811917193
2691,4.771635787
2692,4.813656591
2693,4.822684588
2694,4.802621851
2695,4.869959477
2696,4.842827895
2697,4.768826525
2698,4.821604331
2699,4.8087292
2700,4.768698232
2701,4.803466677
2702,4.75753091
2703,4.838841417
2704,4.872638282
2705,4.793236463
2706,4.819993199
2707,4.807401439
2708,4.791116814
2709,4.783128938
2710,4.740976193
2711,4.694557112
2712,4.852991499
2713,4.826577725
2714,4.794556597
2715,4.774735045
2716,4.769211533
2717,4.691751394
2718,4.803942525
2719,4.828089766
2720,4.803627885
2721,4.750642072
2722,4.802567229
2723,4.768443867
2724,4.872519366
2725,4.690004621
2726,4.876900091
2727,4.759944303
2728,4.803516806
2729,4.725864175
2730,4.819542254
2731,4.868093119
2732,4.749904548
2733,4.772579121
2734,4.817258643
2735,4.789325079
2736,4.849725216
2737,4.688845341
2738,4.791869606
2739,4.775975977
2740,4.768402586
2741,4.722742462
2742,4.794889074
2743,4.872133681
2744,4.764364687
2745,4.836169513
2746,4.76974767
2747,4.763564886
2748,4.863052733
2749,4.840981405
2750,4.800793349
2751,4.815321368
2752,4.836033571
2753,4.742639698
2754,4.803512971
2755,4.684168026
2756,4.753689484
2757,4.860330796
2758,4.810998582
2759,4.907455178
2760,4.885178909
2761,4.772472865
2762,4.749145174
2763,4.821675194
2764,4.759465022
2765,4.895990482
2766,4.763154081
2767,4.806170103
2768,4.81637433
2769,4.857577237
2770,4.823810719
2771,4.709205292
2772,4.829858915
2773,4.800733742
2774,4.788683373
2775,4.817609623
2776,4.834608279
2777,4.801563916
2778,4.836477271
2779,4.834420303
2780,4.795630907
2781,4.812568511
2782,4.835397706
2783,4.750250305
2784,4.812175377
2785,4.871816843
2786,4.791440328
2787,4.765386867
2788,4.841602309
2789,4.823413337
2790,4.74142493
2791,4.771660409
2792,4.800170054
2793,4.831217674
2794,4.657195718
2795,4.865344113
2796,4.740628925
2797,4.829966209
2798,4.773052944
2799,4.676429324
2800,4.810827612
2801,4.769757745
2802,4.730357691
2803,4.812175908
2804,4.820212271
2805,4.829011885
2806,4.804091724
2807,4.89170872
2808,4.872483287
2809,4.914236738
2810,4.784311453
2811,4.808174176
2812,4.802883958
2813,4.840099739
2814,4.737749272
2815,4.83059371
2816,4.837596328
2817,4.769429442
2818,4.768583127
2819,4.814540201
2820,4.789615996
2821,4.833379251
2822,4.750778806
2823,4.798298384
2824,4.762749275
2825,4.756264826
2826,4.776342853
2827,4.75256463
2828,4.760701873
2829,4.773798121
2830,4.711850694
2831,4.81073138
2832,4.869972217
2833,4.799331522
2834,4.792563711
2835,4.793557808
2836,4.77838014
2837,4.80588595
2838,4.796976465
2839,4.901456624
2840,4.732042547
2841,4.789364906
2842,4.779544175
2843,4.821947248
2844,4.838118853
2845,4.760622355
2846,4.755179481
2847,4.754709425
2848,4.786193838
2849,4.762014218
2850,4.732540088
2851,4.905430811
2852,4.787036579
2853,4.833811597
2854,4.783553566
2855,4.836528495
2856,4.837085914
2857,4.857953615
2858,4.775909791
2859,4.841423253
2860,4.84075058
2861,4.934375749
2862,4.884258052
2863,4.78549227
2864,4.851409402
2865,4.811681935
2866,4.842490919
2867,4.862934704
2868,4.763804396
2869,4.735095246
2870,4.829739894
2871,4.757143165
2872,4.742944995
2873,4.827779185
2874,4.770764749
2875,4.832006908
2876,4.732701851
2877,4.837267379
2878,4.847206465
2879,4.801144088
2880,4.730381073
2881,4.848686583
2882,4.793033148
2883,4.733638991
2884,4.710706877
2885,4.749217674
2886,4.801314372
2887,4.804399333
2888,4.693624056
2889,4.734083788
2890,4.748864446
2891,4.735765928
2892,4.832099324
2893,4.851284647
2894,4.738797802
2895,4.761065211
2896,4.77723437
2897,4.837147971
2898,4.803586281
2899,4.842899254
2900,4.837452265
2901,4.76645844
2902,4.795733248
2903,4.763684596
2904,4.818698621
2905,4.761252363
2906,4.848621228
2907,4.794406108
2908,4.819616495
2909,4.766813953
2910,4.840771578
2911,4.845966086
2912,4.854709646
2913,4.787078147
2914,4.841570125
2915,4.813868609
2916,4.813603334
2917,4.811499594
2918,4.750660893
2919,4.851544014
2920,4.755704491
2921,4.747771783
2922,4.775442902
2923,4.795197399
2924,4.81979705
2925,4.759552259
2926,4.811522822
2927,4.738164123
2928,4.790974668
2929,4.831939523
2930,4.859963339
2931,4.930927971
2932,4.80300812
2933,4.811854245
2934,4.783516176
2935,4.850980347
2936,4.726668588
2937,4.786936487
2938,4.774171952
2939,4.874662495
2940,4.768638104
2941,4.842286288
2942,4.748821738
2943,4.75999579
2944,4.835902264
2945,4.761082997
2946,4.835844326
2947,4.847469206
2948,4.849952711
2949,4.745489378
2950,4.844339279
2951,4.782182571
2952,4.769162158
2953,4.824669917
2954,4.826608044
2955,4.86163018
2956,4.867350023
2957,4.782306116
2958,4.7075356
2959,4.795233681
2960,4.796648052
2961,4.702187848
2962,4.870612556
2963,4.808853176
2964,4.79347704
2965,4.891457022
2966,4.778664594
2967,4.74031199
2968,4.729082067
2969,4.782473899
2970,4.718370171
2971,4.761227786
2972,4.69769071
2973,4.730904574
2974,4.804997305
2975,4.914861105
2976,4.735763674
2977,4.769788101
2978,4.822171079
2979,4.876303326
2980,4.850699881
2981,4.744557848
2982,4.887607089
2983,4.906425123
2984,4.825833076
2985,4.734147745
2986,4.695058637
2987,4.784272781
2988,4.859935935
2989,4.758230026
2990,4.732845485
2991,4.829075588
2992,4.830901553
2993,4.795917412
2994,4.797872536
2995,4.872870602
2996,4.825735456
2997,4.773393534
2998,4.892604919
2999,4.745263543
3000,4.877658197
3001,4.819543163
3002,4.764070587
3003,4.82542999
3004,4.756764825
3005,4.811204392
3006,4.796181063
3007,4.800140512
3008,4.777338499
3009,4.798972831
3010,4.667832778
3011,4.797506407
3012,4.853168433
3013,4.843414127
3014,4.830115703
3015,4.834766637
3016,4.874225876
3017,4.819729358
3018,4.740495791
3019,4.789679414
3020,4.893227237
3021,4.806349661
3022,4.76738102
3023,4.750411294
3024,4.835747211
3025,4.794765132
3026,4.770522024
3027,4.85759116
3028,4.797863723
3029,4.816193844
3030,4.824431931
3031,4.831796925
3032,4.802421216
3033,4.851428761
3034,4.788208249
3035,4.817073962
3036,4.777901866
3037,4.801677446
3038,4.813159986
3039,4.805821653
3040,4.884199867
3041,4.725178411
3042,4.815166273
3043,4.801725577
3044,4.766890714
3045,4.790955503
3046,4.818754329
3047,4.823517084
3048,4.80687809
3049,4.870084083
3050,4.864247776
3051,4.815204061
3052,4.83303586
3053,4.831547517
3054,4.856930427
3055,4.797045097
3056,4.8431957
3057,4.770572185
3058,4.714496727
3059,4.767394223
3060,4.853027951
3061,4.766865396
3062,4.857935229
3063,4.757498518
3064,4.848247057
3065,4.861750977
3066,4.801749097
3067,4.868537728
3068,4.859350814
3069,4.772379522
3070,4.769590963
3071,4.798010941
3072,4.842705275
3073,4.77528483
3074,4.80068279
3075,4.853619001
3076,4.773705012
3077,4.779778834
3078,4.836133837
3079,4.822496302
3080,4.814311732
3081,4.726671567
3082,4.934754761
3083,4.797563482
3084,4.810393317
3085,4.824877562
3086,4.781486746
3087,4.824063728
3088,4.794578885
3089,4.932053204
3090,4.832601671
3091,4.948819479
3092,4.84541791
3093,4.746919579
3094,4.802546352
3095,4.743254119
3096,4.766482579
3097,4.771917305
3098,4.818014963
3099,4.835525421
3100,4.814487489
3101,4.802197221
3102,4.801647864
3103,4.697741584
3104,4.79739534
3105,4.869210713
3106,4.847198839
3107,4.777041742
3108,4.754261895
3109,4.711755144
3110,4.798154914
3111,4.750645245
3112,4.750118751
3113,4.820448349
3114,4.753655019
3115,4.827043031
3116,4.846351549
3117,4.82977094
3118,4.853592974
3119,4.754865128
3120,4.832184851
3121,4.7908014
3122,4.699402663
3123,4.833825509
3124,4.73192151
3125,4.803911271
3126,4.737455728
3127,4.759406673
3128,4.829296966
3129,4.86405361
3130,4.909577053
3131,4.7528234
3132,4.839127123
3133,4.834334655
3134,4.777778063
3135,4.802273075
3136,4.744897791
3137,4.785647229
3138,4.839975951
3139,4.881099469
3140,4.754305621
3141,4.80372901
3142,4.811590567
3143,4.748048821
3144,4.742844952
3145,4.770022775
3146,4.780472428
3147,4.819936675
3148,4.814595548
3149,4.828864164
3150,4.850429911
3151,4.744883943
3152,4.807129475
3153,4.823058927
3154,4.763115625
3155,4.850592706
3156,4.789621608
3157,4.868375251
3158,4.821301237
3159,4.742747104
3160,4.886589563
3161,4.811914533
3162,4.735423737
3163,4.7907584
3164,4.824411845
3165,4.779701173
3166,4.831910512
3167,4.885387432
3168,4.789594302
3169,4.850179911
3170,4.745903617
3171,4.919622776
3172,4.84527778
3173,4.798775106
3174,4.836047164
3175,4.792458164
3176,4.809312905
3177,4.825508321
3178,4.884856065
3179,4.824475898
3180,4.742434543
3181,4.889866383
3182,4.791043631
3183,4.782076125
3184,4.742550162
3185,4.758613528
3186,4.868927029
3187,4.830992574
3188,4.722722887
3189,4.768765256
3190,4.79134343
3191,4.781485807
3192,4.804419852
3193,4.75228703
3194,4.816454967
3195,4.857086344
3196,4.776149738
3197,4.791887116
3198,4.829123905
3199,4.821226106
3200,4.769535376
3201,4.80353911
3202,4.743704501
3203,4.878253774
3204,4.841340896
3205,4.873458256
3206,4.740229949
3207,4.779565426
3208,4.804699887
3209,4.714478961
3210,4.734147005
3211,4.755443526
3212,4.744047416
3213,4.802721942
3214,4.835742304
3215,4.821400048
3216,4.860345586
3217,4.881953891
3218,4.794138776
3219,4.788456895
3220,4.704192338
3221,4.770800004
3222,4.804186769
3223,4.76213516
3224,4.854237605
3225,4.759193006
3226,4.756127719
3227,4.837933366
3228,4.770787163
3229,4.905541083
3230,4.798007544
3231,4.755014296
3232,4.816862026
3233,4.781682489
3234,4.800205888
3235,4.794309594
3236,4.873720748
3237,4.783939743
3238,4.853634524
3239,4.806217864
3240,4.82958327
3241,4.840496032
3242,4.764721863
3243,4.729034988
3244,4.763511023
3245,4.823560693
3246,4.802777608
3247,4.798837414
3248,4.824468048
3249,4.919771383
3250,4.802678479
3251,4.745816982
3252,4.751753721
3253,4.839167422
3254,4.871951338
3255,4.819809151
3256,4.846780533
3257,4.794931418
3258,4.753334254
3259,4.773818941
3260,4.806793081
3261,4.76794719
3262,4.880711041
3263,4.865241
3264,4.760947939
3265,4.896492902
3266,4.783773477
3267,4.763536821
3268,4.804570635
3269,4.846233726
3270,4.774240982
3271,4.866215059
3272,4.731502011
3273,4.755498723
3274,4.85131457
3275,4.807190006
3276,4.796937841
3277,4.802271901
3278,4.728022343
3279,4.822331413
3280,4.783726695
3281,4.838916506
3282,4.815381802
3283,4.726667011
3284,4.793172058
3285,4.877360134
3286,4.784812366
3287,4.855295429
3288,4.770236554
3289,4.809040401
3290,4.798045428
3291,4.820545588
3292,4.76051314
3293,4.751822784
3294,4.650842387
3295,4.763527598
3296,4.857030456
3297,4.740356833
3298,4.76167573
3299,4.859107659
3300,4.800571156
3301,4.814689278
3302,4.787542492
3303,4.826777314
3304,4.809048009
3305,4.882349815
3306,4.873638642
3307,4.794997976
3308,4.745110767
3309,4.718564494
3310,4.65156664
3311,4.712740845
3312,4.795740931
3313,4.785425263
3314,4.842929168
3315,4.737472721
3316,4.899197896
3317,4.809808114
3318,4.726872443
3319,4.87257704
3320,4.862849577
3321,4.780590536
3322,4.854037628
3323,4.754599026
3324,4.735431942
3325,4.731117131
3326,4.885794623
3327,4.764556559
3328,4.789664353
3329,4.742542961
3330,4.835257576
3331,4.737858966
3332,4.76283373
3333,4.821658777
3334,4.792538206
3335,4.777192861
3336,4.791955706
3337,4.880731115
3338,4.753816019
3339,4.77228183
3340,4.83083736
3341,4.737215109
3342,4.764386966
3343,4.826465889
3344,4.804465461
3345,4.784539976
3346,4.804063671
3347,4.726071736
3348,4.799497449
3349,4.792584092
3350,4.807930699
3351,4.725742065
3352,4.816337476
3353,4.738512339
3354,4.766879665
3355,4.846614601
3356,4.793768697
3357,4.791467683
3358,4.897152886
3359,4.84686088
3360,4.777188511
3361,4.721915025
3362,4.855243027
3363,4.797618733
3364,4.763568292
3365,4.763863508
3366,4.845553542
3367,4.731539873
3368,4.729529747
3369,4.816963454
3370,4.795353455
3371,4.873395945
3372,4.804751582
3373,4.767153084
3374,4.780930672
3375,4.72249062
3376,4.783363533
3377,4.882551049
3378,4.749952803
3379,4.712481506
3380,4.727921363
3381,4.787570512
3382,4.763578585
3383,4.761994412
3384,4.790003862
3385,4.876562148
3386,4.808971044
3387,4.794405609
3388,4.8443069
3389,4.774681092
3390,4.818554432
3391,4.802266087
3392,4.748767357
3393,4.785618619
3394,4.784262731
3395,4.752248759
3396,4.832172114
3397,4.734328255
3398,4.766245791
3399,4.758460187
3400,4.731726881
3401,4.748283641
3402,4.760061421
3403,4.774974614
3404,4.883723129
3405,4.808419734
3406,4.893166758
3407,4.834483865
3408,4.790348264
3409,4.779094098
3410,4.810282415
3411,4.820795427
3412,4.812536548
3413,4.738068404
3414,4.835942559
3415,4.815222368
3416,4.850297543
3417,4.820999032
3418,4.702649973
3419,4.776209331
3420,4.69939083
3421,4.793268952
3422,4.681607004
3423,4.81394618
3424,4.790222419
3425,4.859984191
3426,4.735501252
3427,4.769966158
3428,4.816317244
3429,4.870849011
3430,4.844283223
3431,4.757302437
3432,4.742410492
3433,4.816894047
3434,4.887837533
3435,4.774180247
3436,4.813507209
3437,4.835192807
3438,4.845410419
3439,4.768075124
3440,4.827798106
3441,4.835064349
3442,4.724786069
3443,4.807586079
3444,4.768201357
3445,4.867413372
3446,4.715928821
3447,4.785256014
3448,4.836539688
3449,4.788714475
3450,4.87640074
3451,4.787066355
3452,4.750807759
3453,4.860231944
3454,4.77313459
3455,4.827083912
3456,4.716451281
3457,4.804571275
3458,4.858930947
3459,4.763937882
3460,4.893389694
3461,4.828799164
3462,4.813476305
3463,4.91082906
3464,4.775986523
3465,4.85571257
3466,4.833095228
3467,4.814399896
3468,4.825036356
3469,4.817677442
3470,4.802894153
3471,4.755155267
3472,4.854548208
3473,4.893986655
3474,4.801497861
3475,4.82876026
3476,4.805333885
3477,4.787938561
3478,4.932324224
3479,4.7730985
3480,4.826017373
3481,4.736636582
3482,4.808880259
3483,4.759268304
3484,4.803237987
3485,4.787813801
3486,4.730196023
3487,4.783186572
3488,4.811848572
3489,4.756190654
3490,4.771631952
3491,4.700801783
3492,4.712368575
3493,4.791559469
3494,4.838199099
3495,4.822328751
3496,4.809867941
3497,4.850765745
3498,4.794838996
3499,4.801866851
3500,4.796779024
3501,4.785769252
3502,4.723322831
3503,4.806625411
3504,4.824998361
3505,4.823749631
3506,4.78418045
3507,4.748153066
3508,4.805019634
3509,4.754865663
3510,4.852921222
3511,4.742363091
3512,4.864937486
3513,4.817949461
3514,4.766816125
3515,4.780428056
3516,4.818949488
3517,4.771367811
3518,4.807826776
3519,4.846003319
3520,4.833347543
3521,4.924786225
3522,4.81460171
3523,4.827139408
3524,4.754757625
3525,4.804476147
3526,4.793675431
3527,4.847468593
3528,4.740740302
3529,4.790436227
3530,4.835881732
3531,4.775367825
3532,4.806558614
3533,4.86617948
3534,4.79594649
3535,4.714975626
3536,4.831899222
3537,4.785005802
3538,4.747723931
3539,4.783038624
3540,4.833651214
3541,4.806056948
3542,4.820862735
3543,4.83812097
3544,4.844993478
3545,4.758758098
3546,4.822463843
3547,4.836690639
3548,4.780182415
3549,4.78156421
3550,4.766763292
3551,4.804691089
3552,4.814851203
3553,4.810630144
3554,4.934572961
3555,4.789136951
3556,4.840554779
3557,4.675299847
3558,4.738652574
3559,4.822958286
3560,4.845696339
3561,4.811594545
3562,4.872764236
3563,4.810521241
3564,4.804332921
3565,4.826097821
3566,4.746670662
3567,4.728573346
3568,4.778850697
3569,4.8402263
3570,4.696933673
3571,4.749080272
3572,4.780148499
3573,4.875578747
3574,4.844725368
3575,4.870831823
3576,4.825017771
3577,4.798853612
3578,4.813015296
3579,4.911763483
3580,4.730455171
3581,4.757640654
3582,4.803305875
3583,4.82493103
3584,4.854252444
3585,4.703096389
3586,4.758475521
3587,4.776067694
3588,4.873181114
3589,4.788409465
3590,4.776686861
3591,4.844925564
3592,4.839016057
3593,4.791254943
3594,4.851496383
3595,4.751343805
3596,4.767548462
3597,4.905639409
3598,4.819917747
3599,4.746070238
3600,4.766281026
3601,4.870487158
3602,4.834454271
3603,4.80380759
3604,4.821116593
3605,4.779295104
3606,4.738886764
3607,4.799079753
3608,4.838581015
3609,4.766022896
3610,4.853592773
3611,4.806152845
3612,4.778094021
3613,4.811299189
3614,4.806485738
3615,4.719527214
3616,4.83300924
3617,4.786026551
3618,4.821516788
3619,4.826958182
3620,4.802278097
3621,4.737260816
3622,4.782817733
3623,4.801697369
3624,4.840922571
3625,4.746083165
3626,4.807268654
3627,4.804717463
3628,4.814659405
3629,4.797417353
3630,4.887055814
3631,4.815316797
3632,4.778713601
3633,4.778827117
3634,4.785257037
3635,4.763715521
3636,4.776279384
3637,4.78275848
3638,4.861359827
3639,4.79591149
3640,4.799141495
3641,4.833648455
3642,4.85091921
3643,4.711006991
3644,4.812773191
3645,4.779421685
3646,4.7073321
3647,4.814474678
3648,4.750529755
3649,4.767643808
3650,4.812016782
3651,4.864329053
3652,4.794150794
3653,4.743271218
3654,4.791457445
3655,4.778559019
3656,4.738116427
3657,4.855803001
3658,4.795598407
3659,4.772508537
3660,4.83207787
3661,4.795310379
3662,4.636512885
3663,4.800420007
3664,4.82624629
3665,4.821266326
3666,4.742674893
3667,4.825061158
3668,4.754598956
3669,4.848428812
3670,4.860316398
3671,4.812183693
3672,4.766572273
3673,4.759319076
3674,4.879205812
3675,4.812524596
3676,4.758955782
3677,4.749184568
3678,4.847677544
3679,4.882798939
3680,4.809839632
3681,4.829783634
3682,4.88557761
3683,4.783509843
3684,4.722126545
3685,4.783929881
3686,4.696788701
3687,4.876209133
3688,4.759330241
3689,4.728169689
3690,4.784295057
3691,4.805079436
3692,4.721377597
3693,4.86024382
3694,4.839627891
3695,4.781290099
3696,4.687899546
3697,4.791752535
3698,4.707394194
3699,4.77649402
3700,4.839996431
3701,4.76649391
3702,4.865531998
3703,4.751930309
3704,4.696997945
3705,4.790022019
3706,4.838721633
3707,4.806196586
3708,4.825978537
3709,4.739286344
3710,4.942028524
3711,4.784921843
3712,4.756883869
3713,4.77265784
3714,4.719220795
3715,4.839259327
3716,4.845792278
3717,4.783773223
3718,4.80621087
3719,4.808897916
3720,4.845716072
3721,4.755645868
3722,4.7652101
3723,4.786404562
3724,4.758122961
3725,4.811321429
3726,4.768090706
3727,4.782759704
3728,4.793774652
3729,4.780415369
3730,4.847537673
3731,4.651736333
3732,4.805592494
3733,4.875082818
3734,4.762251611
3735,4.837701765
3736,4.871996004
3737,4.894015081
3738,4.801325864
3739,4.852588123
3740,4.858842035
3741,4.830583083
3742,4.810662052
3743,4.813160186
3744,4.848133748
3745,4.787211403
3746,4.858741833
3747,4.82720267
3748,4.771774347
3749,4.806669539
3750,4.795210325
3751,4.873801928
3752,4.783752707
3753,4.745612788
3754,4.817479244
3755,4.77019324
3756,4.901644371
3757,4.876650252
3758,4.724976621
3759,4.779567489
3760,4.785118573
3761,4.792671016
3762,4.694959089
3763,4.82319617
3764,4.694161131
3765,4.826293174
3766,4.809789013
3767,4.879691022
3768,4.79784128
3769,4.833836189
3770,4.920266566
3771,4.822734505
3772,4.840992642
3773,4.706888467
3774,4.831038432
3775,4.712751376
3776,4.8189267
3777,4.849925675
3778,4.842849771
3779,4.875491175
3780,4.832199326
3781,4.718763315
3782,4.856355615
3783,4.762937086
3784,4.786355684
3785,4.82530082
3786,4.80284323
3787,4.791145874
3788,4.734208921
3789,4.749013697
3790,4.815574205
3791,4.789947596
3792,4.727917114
3793,4.825241405
3794,4.815828164
3795,4.761732225
3796,4.780251464
3797,4.759907783
3798,4.808600215
3799,4.755776338
3800,4.786180324
3801,4.831630887
3802,4.805907202
3803,4.804146052
3804,4.762865482
3805,4.807382264
3806,4.748364042
3807,4.760688679
3808,4.812316774
3809,4.775694739
3810,4.854887094
3811,4.844111672
3812,4.832062933
3813,4.740247576
3814,4.715254403
3815,4.818938022
3816,4.866653136
3817,4.734557518
3818,4.874554662
3819,4.840084475
3820,4.744320176
3821,4.783648318
3822,4.804116717
3823,4.773044148
3824,4.76691733
3825,4.79714989
3826,4.702970703
3827,4.81556231
3828,4.733779803
3829,4.693698998
3830,4.798344443
3831,4.799630647
3832,4.865852251
3833,4.752402757
3834,4.804916739
3835,4.828125752
3836,4.817597199
3837,4.878268287
3838,4.871391013
3839,4.885239064
3840,4.827328614
3841,4.795828208
3842,4.766781649
3843,4.757206985
3844,4.74884288
3845,4.887660528
3846,4.783037977
3847,4.79404195
3848,4.705297704
3849,4.81459011
3850,4.771246334
3851,4.866585496
3852,4.809051607
3853,4.804041928
3854,4.737919696
3855,4.819313195
3856,4.740970027
3857,4.740892849
3858,4.829605496
3859,4.78949693
3860,4.76306078
3861,4.777830689
3862,4.695592842
3863,4.774122538
3864,4.859493416
3865,4.769498553
3866,4.777499464
3867,4.824174859
3868,4.809783015
3869,4.791523535
3870,4.853026458
3871,4.771709857
3872,4.76737371
3873,4.824845695
3874,4.858049076
3875,4.842345691
3876,4.711669971
3877,4.727266985
3878,4.698423157
3879,4.729319988
3880,4.801879349
3881,4.791663411
3882,4.758618098
3883,4.769412806
3884,4.784611887
3885,4.745246876
3886,4.852219119
3887,4.773347892
3888,4.798199623
3889,4.77741614
3890,4.81750382
3891,4.682355702
3892,4.843707831
3893,4.720927447
3894,4.818642333
3895,4.755072863
3896,4.823226042
3897,4.788571465
3898,4.764729521
3899,4.809373069
3900,4.80093437
3901,4.788822495
3902,4.858161421
3903,4.801618152
3904,4.700141618
3905,4.736852574
3906,4.797831882
3907,4.843027505
3908,4.731787842
3909,4.823557596
3910,4.851117629
3911,4.760277535
3912,4.814659797
3913,4.730857033
3914,4.790801896
3915,4.771014769
3916,4.823912307
3917,4.745332191
3918,4.745256765
3919,4.754161587
3920,4.796424144
3921,4.739681237
3922,4.792323537
3923,4.804078024
3924,4.71691777
3925,4.781107029
3926,4.851606602
3927,4.844784139
3928,4.789478935
3929,4.886755116
3930,4.762964092
3931,4.825645892
3932,4.758164823
3933,4.773862864
3934,4.911371182
3935,4.741449321
3936,4.792313363
3937,4.735209822
3938,4.739250025
3939,4.816960176
3940,4.750507
3941,4.824032857
3942,4.784696986
3943,4.848116693
3944,4.689242452
3945,4.797202162
3946,4.91583607
3947,4.765962687
3948,4.856026825
3949,4.886387646
3950,4.880358843
3951,4.744532515
3952,4.86729317
3953,4.916948362
3954,4.848229267
3955,4.87985962
3956,4.80416413
3957,4.782974355
3958,4.798025259
3959,4.825430522
3960,4.81438196
3961,4.752071066
3962,4.830966029
3963,4.80339397
3964,4.81349809
3965,4.837658843
3966,4.805520278
3967,4.791044898
3968,4.851862112
3969,4.808893112
3970,4.831012505
3971,4.832155012
3972,4.792081432
3973,4.738436082
3974,4.835359706
3975,4.799899113
3976,4.8344603
3977,4.749026444
3978,4.759866629
3979,4.754808484
3980,4.722560627
3981,4.777409942
3982,4.866375234
3983,4.778984021
3984,4.77199321
3985,4.679528995
3986,4.830660418
3987,4.752564138
3988,4.792494647
3989,4.780049739
3990,4.792839494
3991,4.819549697
3992,4.76628803
3993,4.858252667
3994,4.890203206
3995,4.806237626
3996,4.852340523
3997,4.752734266
3998,4.796956465
3999,4.811540358
4000,4.802846299
