Wavenumber (cm⁻¹),Intensity
200.0,287.0530348682846
201.00097751710655,283.35432830772754
202.0019550342131,280.5634793437111
203.00293255131965,276.4062158262898
204.0039100684262,271.05291605076604
205.00488758553274,266.95307088517717
206.0058651026393,263.30837120985075
207.00684261974584,258.8605071769343
208.0078201368524,254.41198309696318
209.00879765395894,251.02216764229814
210.00977517106548,247.91366138977756
211.01075268817203,243.8232864678055
212.01173020527858,240.18197208230612
213.01270772238513,236.8903046785174
214.01368523949168,232.04823462691644
215.01466275659823,229.55051680879293
216.01564027370478,225.6591471846555
217.01661779081132,221.23363226357972
218.01759530791787,218.48826957008112
219.01857282502445,215.1239579518613
220.019550342131,212.38468529330476
221.02052785923755,209.63204616757938
222.0215053763441,206.68252270287027
223.02248289345064,204.31511166898375
224.0234604105572,202.47284240228325
225.02443792766374,200.49622248417086
226.0254154447703,198.96701388171599
227.02639296187684,198.49528237354778
228.02737047898339,197.9311411491108
229.02834799608993,197.41567974309666
230.02932551319648,196.68133770636896
231.03030303030303,195.96220464445324
232.03128054740958,196.01782592921901
233.03225806451613,196.4348229720778
234.03323558162268,197.46510501899579
235.03421309872923,198.18186108204515
236.03519061583577,197.88138870332082
237.03616813294232,199.1572878101731
238.03714565004887,200.04080938694207
239.03812316715542,201.45971350591645
240.03910068426197,203.51838116770003
241.04007820136852,204.96563375355822
242.04105571847506,207.17379663404424
243.0420332355816,208.53648308358086
244.0430107526882,210.42571090792302
245.04398826979474,213.7261963279543
246.0449657869013,215.1923156652135
247.04594330400784,216.11888025689174
248.04692082111438,218.7597278951265
249.04789833822093,222.58993903790912
250.04887585532748,225.27220345249475
251.04985337243403,227.46064609452418
252.05083088954058,231.96442875094567
253.05180840664713,236.52838883631264
254.05278592375367,239.15525508610003
255.05376344086022,241.62690234034346
256.05474095796677,242.33525855986446
257.0557184750733,244.09569746356513
258.05669599217987,247.1756776478814
259.0576735092864,250.10719152834733
260.05865102639297,253.40490457255373
261.0596285434995,256.2565956353994
262.06060606060606,258.7300504667082
263.0615835777126,261.11388361001264
264.06256109481916,263.75747132995656
265.0635386119257,266.7893955177161
266.06451612903226,270.2518930110873
267.0654936461388,272.84952380026044
268.06647116324535,274.1650274319971
269.0674486803519,277.2932732853152
270.06842619745845,278.93941002252075
271.069403714565,281.0508234644252
272.07038123167155,284.13430518588933
273.0713587487781,286.53840465678115
274.07233626588464,288.5229642874334
275.0733137829912,290.3013103369697
276.07429130009774,291.3332893689895
277.0752688172043,291.88677943272376
278.07624633431084,293.75148562149775
279.0772238514174,293.12944568280847
280.07820136852393,293.0678486407524
281.0791788856305,293.8037780042836
282.08015640273703,293.29022138380503
283.0811339198436,291.56237751955996
284.08211143695013,291.08234212259293
285.0830889540567,289.5199526679812
286.0840664711632,286.12455107065597
287.0850439882698,282.7280305748129
288.0860215053764,279.7373873184745
289.0869990224829,276.20960807811133
290.0879765395895,271.7601002732422
291.088954056696,267.6377313474792
292.0899315738026,266.293534617792
293.0909090909091,259.6700036808658
294.09188660801567,252.79239313203482
295.0928641251222,248.06046305540897
296.09384164222877,243.81744538939785
297.0948191593353,237.8791856225703
298.09579667644186,233.7515976230984
299.0967741935484,230.4985351332543
300.09775171065496,226.89965216058434
301.0987292277615,223.00569638858008
302.09970674486806,220.0878830212454
303.1006842619746,217.866738898814
304.10166177908116,214.93663541160632
305.1026392961877,211.50396465776964
306.10361681329425,209.58432774909707
307.1045943304008,206.62023829679245
308.10557184750735,204.4661712110062
309.1065493646139,202.71015474531734
310.10752688172045,200.5038743267024
311.108504398827,199.1598455890706
312.10948191593354,198.35788865125144
313.1104594330401,196.58581791332034
314.11143695014664,194.42109359516434
315.1124144672532,193.27788066472786
316.11339198435974,192.44116781563957
317.1143695014663,192.20215180396616
318.11534701857283,191.83897883498045
319.1163245356794,191.0244736430487
320.11730205278593,190.2342971075956
321.1182795698925,190.74075448764702
322.119257086999,189.62487518773253
323.1202346041056,188.9527322139637
324.1212121212121,189.54322841294086
325.1221896383187,188.59198432466866
326.1231671554252,188.53380937613483
327.12414467253177,187.9505529158944
328.1251221896383,187.63953663542338
329.12609970674487,188.4994369530664
330.1270772238514,189.1770822530867
331.12805474095796,188.5639623512388
332.1290322580645,188.30476316451546
333.13000977517106,188.68637700519253
334.1309872922776,188.88285908902378
335.13196480938416,188.37560501690734
336.1329423264907,188.3055692269464
337.13391984359725,188.66830154120106
338.1348973607038,189.1251015115322
339.13587487781035,189.36552236312176
340.1368523949169,188.8452302356727
341.13782991202345,188.1987745321209
342.13880742913,188.2369057669454
343.13978494623655,188.6948203188113
344.1407624633431,188.14739168629916
345.14173998044964,187.61044425293545
346.1427174975562,187.22708965072772
347.14369501466274,186.88736968960944
348.1446725317693,186.72438114217226
349.14565004887584,186.91373064275857
350.1466275659824,185.80866427372672
351.14760508308893,186.18422932794581
352.1485826001955,186.82271537587164
353.14956011730203,186.12372413341922
354.1505376344086,185.2869916456453
355.1515151515151,184.73405305953122
356.1524926686217,184.88291420696717
357.1534701857282,184.84036522164052
358.1544477028348,184.11053563762565
359.1554252199413,184.0521684750429
360.15640273704787,184.01035855211896
361.1573802541544,184.38723488596543
362.15835777126097,184.50203102810838
363.1593352883675,184.06808975851618
364.16031280547406,185.20554660108516
365.1612903225806,185.66065572060407
366.16226783968716,185.6429925764865
367.1632453567937,185.45346331618168
368.16422287390026,185.30665953577866
369.1652003910068,186.51140583590484
370.16617790811335,186.69528719756735
371.1671554252199,186.9915772305209
372.16813294232645,187.42188865250858
373.169110459433,187.30461690725429
374.17008797653955,188.48510232779617
375.1710654936461,189.30103904360664
376.1720430107527,189.92988274886088
377.17302052785925,190.45046457609368
378.1739980449658,190.47755339068263
379.17497556207235,189.9380397775657
380.1759530791789,190.55787846171532
381.17693059628544,191.6741253143272
382.177908113392,192.39916405879865
383.17888563049854,192.65287159713645
384.1798631476051,193.88292031670258
385.18084066471164,195.38860584097392
386.1818181818182,196.79959162188155
387.18279569892474,197.89924247389894
388.1837732160313,198.56345574892998
389.18475073313783,199.0920368879797
390.1857282502444,200.51758923279408
391.18670576735093,201.5581622428594
392.1876832844575,202.49822428725494
393.188660801564,204.88626721959952
394.1896383186706,205.62762624004998
395.1906158357771,206.4694840426263
396.1915933528837,207.11596604061774
397.1925708699902,207.3740723872703
398.19354838709677,207.8218563897197
399.1945259042033,208.83354170964716
400.19550342130987,210.13723379513007
401.1964809384164,211.2349180489683
402.19745845552296,212.10737625107893
403.1984359726295,212.98634576773213
404.19941348973606,212.44406844387467
405.2003910068426,214.70667534193328
406.20136852394916,216.1307401162193
407.2023460410557,215.6374178571146
408.20332355816225,215.8158092345662
409.20430107526886,214.8201791173472
410.2052785923754,214.3903095783294
411.20625610948196,213.0170614065458
412.2072336265885,210.69092966769477
413.20821114369505,209.45324157184993
414.2091886608016,209.31249682508687
415.21016617790815,208.82151703100007
416.2111436950147,207.59594954229448
417.21212121212125,206.4278675805975
418.2130987292278,205.98459183534004
419.21407624633434,204.3136908578123
420.2150537634409,204.6856342821393
421.21603128054744,203.90625331765898
422.217008797654,202.38357663965266
423.21798631476054,202.7971293300145
424.2189638318671,202.80534027265065
425.21994134897363,202.58802735198705
426.2209188660802,202.84475338879696
427.22189638318673,203.1246402162944
428.2228739002933,202.86697465286585
429.2238514173998,203.4169558984672
430.2248289345064,204.86095141958918
431.2258064516129,204.43953368528815
432.2267839687195,203.77967827201098
433.227761485826,205.24332566399082
434.22873900293257,205.5364850970917
435.2297165200391,206.19765131853288
436.23069403714567,207.17664414478205
437.2316715542522,207.95046060289752
438.23264907135876,208.31932990890093
439.2336265884653,208.76566451801474
440.23460410557186,209.56769768084524
441.2355816226784,211.09410620180975
442.23655913978496,212.22994631863733
443.2375366568915,212.45312680793523
444.23851417399806,212.76022202310966
445.2394916911046,214.1655759368988
446.24046920821115,214.83724546658954
447.2414467253177,215.42845446896823
448.24242424242425,216.7311407019793
449.2434017595308,218.3954220343427
450.24437927663735,218.04776321081326
451.2453567937439,219.39200017626123
452.24633431085044,220.83889251016294
453.247311827957,221.71577615097468
454.24828934506354,223.71223334320786
455.2492668621701,226.53578088768523
456.25024437927664,229.18826141953647
457.2512218963832,231.53137097319623
458.25219941348973,233.79336144957207
459.2531769305963,236.36155703801168
460.25415444770283,239.77715879296002
461.2551319648094,244.64725078770115
462.2561094819159,248.760583825326
463.2570869990225,252.597667218606
464.258064516129,257.64867986028867
465.2590420332356,263.0067363996265
466.2600195503421,265.94821101459627
467.26099706744867,271.20043482351474
468.2619745845552,276.98760883177874
469.26295210166177,281.76016044581735
470.2639296187683,288.58268735480925
471.26490713587486,295.45670046876603
472.2658846529814,301.6435232125537
473.26686217008796,308.6649941571558
474.2678396871945,316.213576234574
475.26881720430106,321.86327472371084
476.2697947214076,328.65066811814364
477.27077223851416,334.1446254440545
478.2717497556207,339.80688289132155
479.27272727272725,345.60915867802873
480.2737047898338,349.7448963821526
481.27468230694035,351.9327294907847
482.2756598240469,353.6747413312152
483.27663734115345,354.55614669267294
484.27761485826,354.2826272226855
485.27859237536654,353.1828760063652
486.2795698924731,352.03828382747525
487.28054740957964,351.34787912154445
488.2815249266862,350.81699881377966
489.2825024437928,350.8999476258865
490.28347996089934,351.6117909167959
491.2844574780059,352.91558460675174
492.28543499511244,358.0386261218485
493.286412512219,363.75162702811485
494.28739002932554,370.185143280589
495.2883675464321,377.80103211258273
496.28934506353863,386.6918550222098
497.2903225806452,398.2423696977609
498.29130009775173,410.2326158928348
499.2922776148583,422.894804623644
500.2932551319648,436.92648359279883
501.2942326490714,451.8329518527513
502.2952101661779,465.813351822273
503.2961876832845,480.2249079189834
504.297165200391,491.6549985438826
505.29814271749757,499.9521041862141
506.2991202346041,505.33468340757474
507.30009775171067,507.10833155818983
508.3010752688172,505.55503462490464
509.30205278592376,498.39909537689755
510.3030303030303,488.6797950538365
511.30400782013686,476.9036708227464
512.3049853372434,461.7288786629984
513.3059628543499,443.66018108829905
514.3069403714564,424.09283313329036
515.307917888563,404.62506962209073
516.3088954056695,386.16486036426784
517.3098729227761,369.3175624178132
518.3108504398826,354.32403815875296
519.3118279569892,338.26065639663517
520.3128054740957,324.27634555414284
521.3137829912023,311.38522889247474
522.3147605083088,299.12854521169805
523.3157380254154,288.3436008311436
524.3167155425219,280.21988004307946
525.3176930596285,272.1989285450208
526.318670576735,265.28956719443704
527.3196480938416,258.9742416498935
528.3206256109481,252.81988544205154
529.3216031280547,247.8572670349848
530.3225806451612,243.78380392436333
531.3235581622678,239.69430421108953
532.3245356793743,235.27982408739263
533.3255131964809,231.89205511748779
534.3264907135874,230.4229596461029
535.327468230694,227.9902972372421
536.3284457478005,225.63928764003552
537.3294232649071,224.9892829400763
538.3304007820136,224.54481066560191
539.3313782991202,223.3687117077595
540.3323558162267,223.44564732593727
541.3333333333333,223.78117322132337
542.3343108504398,223.90321819672118
543.3352883675464,224.2526811430625
544.3362658846529,225.50448875612003
545.3372434017595,227.27344653547127
546.338220918866,227.59188890147104
547.3391984359725,228.89854416163135
548.3401759530791,230.7981135660152
549.3411534701856,232.64325420176237
550.3421309872922,234.44103934850008
551.3431085043987,236.69050789355677
552.3440860215054,239.11073146716987
553.345063538612,240.97249343224485
554.3460410557185,242.48226840880045
555.347018572825,244.52252928475804
556.3479960899316,247.2863269601895
557.3489736070381,249.3777518194775
558.3499511241447,251.26809961980047
559.3509286412512,252.5871692856664
560.3519061583578,253.44780019586844
561.3528836754643,254.1180783422681
562.3538611925709,254.52997557334592
563.3548387096774,253.8772152152098
564.355816226784,251.96932081681587
565.3567937438905,250.65980087114795
566.3577712609971,249.33589006624075
567.3587487781036,246.8179352220643
568.3597262952102,243.40892076446264
569.3607038123167,239.25258293622463
570.3616813294233,235.40193638646738
571.3626588465298,232.9009281336966
572.3636363636364,230.4018479638776
573.3646138807429,226.93489157717238
574.3655913978495,224.95756813872103
575.366568914956,222.93418040554585
576.3675464320626,221.77226353524603
577.3685239491691,220.12476370607325
578.3695014662757,217.97120533315567
579.3704789833822,216.8409112409195
580.3714565004888,215.11863042920925
581.3724340175953,213.7730197954818
582.3734115347019,212.86745495777168
583.3743890518084,212.78960780748451
584.375366568915,212.84280088329345
585.3763440860215,211.5983126873245
586.377321603128,211.3183602123773
587.3782991202346,211.05382010430904
588.3792766373411,210.41132411371072
589.3802541544477,210.0361123382647
590.3812316715542,210.30093245326378
591.3822091886608,209.95498498565357
592.3831867057673,209.07423997988204
593.3841642228739,209.08832223191425
594.3851417399804,209.16158720024382
595.386119257087,208.55798242478167
596.3870967741935,207.8908547845113
597.3880742913001,208.13214104813517
598.3890518084066,208.86221833852096
599.3900293255132,209.156142383913
600.3910068426197,209.4203330701681
601.3919843597263,209.57149931225123
602.3929618768328,208.81354937519808
603.3939393939394,207.81073043691427
604.3949169110459,208.2646910317621
605.3958944281525,208.51092772438034
606.396871945259,208.4442511306128
607.3978494623656,208.4472282772726
608.3988269794721,208.12600825354133
609.3998044965787,207.55410868126842
610.4007820136852,207.92944342519885
611.4017595307918,208.55752284725733
612.4027370478983,209.1402313742033
613.4037145650049,209.49596135690973
614.4046920821114,208.96754292437598
615.405669599218,209.23176291504436
616.4066471163245,209.8903357479486
617.4076246334312,209.7752255002399
618.4086021505377,209.3388458445387
619.4095796676443,209.5330118318906
620.4105571847508,209.90739302860592
621.4115347018574,210.00786583887876
622.4125122189639,211.0109354908258
623.4134897360705,211.42352872422154
624.414467253177,210.89904621136097
625.4154447702836,210.75047891434167
626.4164222873901,212.29187962950465
627.4173998044967,212.1936940682429
628.4183773216032,212.72708680593195
629.4193548387098,212.98034861994898
630.4203323558163,212.92662932336393
631.4213098729228,213.31116609589077
632.4222873900294,213.37469558639165
633.423264907136,213.4329226395679
634.4242424242425,212.44054391142276
635.425219941349,212.40281292232612
636.4261974584556,213.09255813282675
637.4271749755621,212.97109255331077
638.4281524926687,213.18865740847866
639.4291300097752,212.43747618891197
640.4301075268818,212.45492754882872
641.4310850439883,212.70088944445726
642.4320625610949,212.64586486824606
643.4330400782014,212.60933949063676
644.434017595308,212.87622118102394
645.4349951124145,213.41893923276365
646.4359726295211,213.93877273564684
647.4369501466276,213.88696837539572
648.4379276637342,213.7194475963846
649.4389051808407,213.8697500647724
650.4398826979473,213.29458922776956
651.4408602150538,213.5894291948532
652.4418377321604,213.6909520407317
653.4428152492669,213.7034307167418
654.4437927663735,213.42984173578327
655.44477028348,212.79107498555825
656.4457478005866,213.02042530686555
657.4467253176931,213.6482739720711
658.4477028347997,213.82025635788602
659.4486803519062,214.4092755851873
660.4496578690128,215.08306199630042
661.4506353861193,214.89911869018385
662.4516129032259,214.67672707910958
663.4525904203324,216.4162000459663
664.453567937439,216.09765131358543
665.4545454545455,215.93183516245222
666.455522971652,216.42626988134148
667.4565004887586,216.41642086914877
668.4574780058651,215.89901447832403
669.4584555229717,216.2760705485512
670.4594330400782,217.3076380274022
671.4604105571848,218.51825636484077
672.4613880742913,219.18163980410728
673.4623655913979,219.0008453606454
674.4633431085044,218.73922339654044
675.464320625611,219.72387671508022
676.4652981427175,220.6264583306473
677.4662756598241,220.80452689461612
678.4672531769306,221.86248622463273
679.4682306940372,223.22694162102425
680.4692082111437,222.3679754791628
681.4701857282503,222.79124153174357
682.4711632453568,223.0467411262392
683.4721407624634,222.97755273884235
684.4731182795699,223.8686336814966
685.4740957966765,225.16071403279437
686.475073313783,225.3127382268801
687.4760508308896,225.88532139501282
688.4770283479961,226.27158075380135
689.4780058651027,226.0744046305843
690.4789833822092,226.3630499838703
691.4799608993158,227.23084422771183
692.4809384164223,227.8317251388567
693.4819159335289,227.8569103326052
694.4828934506354,227.17975382291107
695.483870967742,228.02696147633674
696.4848484848485,228.21312914168644
697.485826001955,227.92964048731488
698.4868035190616,228.18338011230193
699.4877810361681,228.33525030651305
700.4887585532747,228.98801144118787
701.4897360703812,228.97147781626205
702.4907135874878,229.31858931903426
703.4916911045943,229.85806267835227
704.4926686217009,229.88533813168317
705.4936461388074,229.56194049217643
706.494623655914,229.92813100213448
707.4956011730205,229.60967807338497
708.4965786901271,229.94580456878236
709.4975562072336,229.93005047850892
710.4985337243402,229.76913020071643
711.4995112414467,230.48269923110504
712.5004887585533,231.03202074862162
713.5014662756598,230.63141397253344
714.5024437927664,229.48337586276887
715.5034213098729,229.9971306100501
716.5043988269795,230.97486635285142
717.505376344086,230.83571892905815
718.5063538611926,230.621818715905
719.5073313782991,231.17053454260775
720.5083088954057,231.6721612851116
721.5092864125122,231.73114875000076
722.5102639296188,232.3135121237669
723.5112414467253,232.7831562058954
724.5122189638319,231.95692775055696
725.5131964809384,232.02681782487542
726.514173998045,231.98119667307597
727.5151515151515,232.50466835561588
728.516129032258,232.21660113482008
729.5171065493646,232.17539238215912
730.5180840664711,233.59412925507348
731.5190615835777,234.8152654753975
732.5200391006842,234.21853776405487
733.5210166177908,234.58932920233508
734.5219941348973,234.50320471671773
735.5229716520039,234.5597959856117
736.5239491691104,235.32888926286367
737.524926686217,236.2507263019013
738.5259042033235,236.69056506381838
739.5268817204301,236.68197003031094
740.5278592375366,237.41265698693581
741.5288367546432,239.09441865881897
