Raman Shift,Intensity
209.0,7.435
210.0,14.9
211.0,19.055
212.0,23.219
213.0,23.777
214.0,22.231
215.0,21.57
216.0,23.917
217.0,26.46
218.0,25.063
219.0,23.476
220.0,21.639
221.0,18.868
222.0,16.342
223.0,16.33
224.0,15.854
225.0,13.252
226.0,9.749
227.0,7.014
228.0,5.705
229.0,4.267
230.0,3.102
231.0,1.799
232.0,0.898
233.0,0.145
234.0,0.535
235.0,0.779
236.0,1.202
237.0,1.017
238.0,0.89
239.0,0.861
240.0,0.906
241.0,0.722
242.0,0.711
243.0,2.006
244.0,3.559
245.0,5.069
246.0,8.182
247.0,13.197
248.0,18.233
249.0,24.696
250.0,31.05
251.0,41.56
252.0,53.639
253.0,68.649
254.0,88.295
255.0,108.262
256.0,133.846
257.0,159.619
258.0,183.112
259.0,205.443
260.0,222.922
261.0,228.997
262.0,235.232
263.0,223.504
264.0,210.944
265.0,192.728
266.0,170.723
267.0,149.093
268.0,128.263
269.0,107.587
270.0,89.761
271.0,72.611
272.0,58.588
273.0,47.275
274.0,36.774
275.0,29.689
276.0,22.63
277.0,17.073
278.0,11.71
279.0,7.281
280.0,3.869
281.0,1.117
282.0,1.355
283.0,1.571
284.0,0.7
285.0,0.441
286.0,1.217
287.0,1.604
288.0,1.951
289.0,1.307
290.0,0.763
291.0,0.311
292.0,0.054
293.0,0.72
294.0,1.765
295.0,2.633
296.0,2.674
297.0,2.634
298.0,3.175
299.0,3.814
300.0,4.367
301.0,4.78
302.0,4.98
303.0,5.628
304.0,5.931
305.0,5.95
306.0,5.905
307.0,5.854
308.0,5.757
309.0,5.732
310.0,5.85
311.0,6.006
312.0,5.693
313.0,5.157
314.0,4.83
315.0,4.767
316.0,4.579
317.0,3.646
318.0,2.722
319.0,3.264
320.0,4.173
321.0,4.271
322.0,3.511
323.0,2.827
324.0,2.506
325.0,2.175
326.0,2.192
327.0,2.286
328.0,1.984
329.0,1.343
330.0,0.761
331.0,0.824
332.0,0.929
333.0,1.278
334.0,1.511
335.0,1.347
336.0,0.954
337.0,0.66
338.0,0.669
339.0,0.62
340.0,0.942
341.0,1.273
342.0,0.827
343.0,0.068
344.0,0.316
345.0,0.84
346.0,1.846
347.0,0.677
348.0,0.519
349.0,0.244
350.0,0.688
351.0,1.307
352.0,1.362
353.0,1.343
354.0,2.079
355.0,2.779
356.0,2.115
357.0,1.057
358.0,0.576
359.0,0.687
360.0,0.908
361.0,2.298
362.0,3.694
363.0,3.151
364.0,2.058
365.0,1.308
366.0,0.886
367.0,0.981
368.0,2.357
369.0,3.563
370.0,3.464
371.0,3.426
372.0,4.091
373.0,4.741
374.0,4.77
375.0,4.389
376.0,4.057
377.0,3.491
378.0,2.875
379.0,2.56
380.0,2.203
381.0,1.781
382.0,1.278
383.0,0.919
384.0,1.345
385.0,1.768
386.0,0.601
387.0,0.738
388.0,0.762
389.0,0.021
390.0,0.375
391.0,0.133
392.0,0.609
393.0,0.661
394.0,0.715
395.0,0.108
396.0,0.72
397.0,1.965
398.0,3.656
399.0,5.105
400.0,5.679
401.0,6.36
402.0,9.37
403.0,12.24
404.0,14.975
405.0,17.999
406.0,20.611
407.0,22.088
408.0,23.701
409.0,27.475
410.0,31.361
411.0,33.377
412.0,34.954
413.0,36.633
414.0,38.417
415.0,39.677
416.0,39.059
417.0,38.57
418.0,37.352
419.0,36.235
420.0,34.325
421.0,32.12
422.0,30.021
423.0,28.027
424.0,25.869
425.0,22.317
426.0,18.859
427.0,16.272
428.0,13.857
429.0,11.787
430.0,10.04
431.0,8.891
432.0,7.964
433.0,6.721
434.0,4.493
435.0,2.253
436.0,1.845
437.0,1.885
438.0,1.735
439.0,1.356
440.0,0.935
441.0,0.449
442.0,0.08
443.0,0.199
444.0,0.462
445.0,0.323
446.0,1.495
447.0,1.627
448.0,0.78
449.0,0.121
450.0,0.144
451.0,0.346
452.0,0.482
453.0,0.55
454.0,0.877
455.0,1.244
456.0,1.762
457.0,2.439
458.0,2.94
459.0,3.052
460.0,3.106
461.0,3.895
462.0,4.104
463.0,4.094
464.0,4.328
465.0,4.3
466.0,3.825
467.0,3.531
468.0,3.849
469.0,4.094
470.0,2.577
471.0,1.074
472.0,1.28
473.0,2.085
474.0,2.454
475.0,2.371
476.0,2.272
477.0,2.218
478.0,2.196
479.0,1.761
480.0,1.343
481.0,1.632
482.0,2.126
483.0,2.395
484.0,2.48
485.0,2.718
486.0,3.282
487.0,3.83
488.0,3.973
489.0,4.132
490.0,4.089
491.0,3.835
492.0,3.577
493.0,3.338
494.0,3.117
495.0,2.904
496.0,2.693
497.0,2.493
498.0,2.436
499.0,2.468
500.0,2.309
501.0,2.1
502.0,1.876
503.0,1.24
504.0,0.107
505.0,0.588
506.0,0.155
507.0,0.802
508.0,0.533
509.0,0.228
510.0,0.242
511.0,0.341
512.0,0.177
513.0,0.22
514.0,0.369
515.0,0.053
516.0,0.45
517.0,0.825
518.0,1.18
519.0,0.731
520.0,0.137
521.0,0.055
522.0,0.188
523.0,0.424
524.0,0.629
525.0,0.801
526.0,0.949
527.0,1.079
528.0,1.181
529.0,1.124
530.0,1.313
531.0,1.775
532.0,1.753
533.0,1.34
534.0,1.248
535.0,1.71
536.0,1.964
537.0,1.401
538.0,0.939
539.0,0.914
540.0,0.891
541.0,0.86
542.0,0.828
543.0,1.032
544.0,1.459
545.0,1.612
546.0,1.163
547.0,0.761
548.0,0.761
549.0,0.759
550.0,0.754
551.0,0.747
552.0,0.422
553.0,0.038
554.0,0.046
555.0,0.393
556.0,0.694
557.0,0.672
558.0,0.734
559.0,1.292
560.0,1.905
561.0,1.641
562.0,1.157
563.0,1.289
564.0,1.699
565.0,1.908
566.0,1.837
567.0,1.619
568.0,1.072
569.0,0.597
570.0,0.919
571.0,1.261
572.0,0.762
573.0,0.185
574.0,0.069
575.0,0.214
576.0,0.132
577.0,0.145
578.0,0.255
579.0,0.063
580.0,0.06
581.0,0.192
582.0,0.44
583.0,0.24
584.0,0.025
585.0,0.166
586.0,0.409
587.0,0.373
588.0,0.158
589.0,0.092
590.0,0.206
591.0,0.263
592.0,0.379
593.0,0.593
594.0,0.397
595.0,0.195
596.0,0.369
597.0,0.655
598.0,0.628
599.0,0.473
600.0,0.328
601.0,0.194
602.0,0.231
603.0,0.581
604.0,0.865
605.0,0.782
606.0,0.718
607.0,1.132
608.0,1.568
609.0,1.263
610.0,0.811
611.0,0.675
612.0,0.716
613.0,0.551
614.0,0.162
615.0,0.077
616.0,0.643
617.0,1.093
618.0,0.769
619.0,0.482
620.0,0.64
621.0,0.825
622.0,1.026
623.0,1.283
624.0,0.965
625.0,0.286
626.0,0.066
627.0,0.34
628.0,0.628
629.0,0.93
630.0,1.245
631.0,1.574
632.0,1.92
633.0,0.894
634.0,0.126
635.0,0.415
636.0,1.266
637.0,0.863
638.0,0.123
639.0,0.124
640.0,0.759
641.0,1.306
642.0,1.283
643.0,1.286
644.0,1.286
645.0,1.287
646.0,1.338
647.0,1.468
648.0,1.536
649.0,1.53
650.0,1.831
651.0,2.264
652.0,2.14
653.0,1.679
654.0,1.598
655.0,1.947
656.0,2.14
657.0,1.969
658.0,1.865
659.0,2.182
660.0,2.533
661.0,2.294
662.0,1.971
663.0,2.288
664.0,2.575
665.0,2.399
666.0,2.044
667.0,1.633
668.0,1.164
669.0,0.846
670.0,0.716
671.0,0.536
672.0,0.301
673.0,0.001
674.0,0.377
675.0,0.785
676.0,0.796
677.0,0.904
678.0,0.716
679.0,0.457
680.0,0.199
681.0,0.963
682.0,1.703
683.0,2.412
684.0,3.539
685.0,5.129
686.0,7.285
687.0,10.382
688.0,13.623
689.0,17.23
690.0,21.095
691.0,27.444
692.0,33.925
693.0,40.502
694.0,47.267
695.0,56.602
696.0,66.51
697.0,75.823
698.0,84.96
699.0,92.21
700.0,98.226
701.0,102.084
702.0,103.559
703.0,102.609
704.0,97.167
705.0,91.144
706.0,83.02
707.0,74.782
708.0,65.043
709.0,55.552
710.0,47.14
711.0,38.888
712.0,32.252
713.0,25.817
714.0,20.783
715.0,16.192
716.0,12.525
717.0,9.387
718.0,6.377
719.0,3.546
720.0,1.515
721.0,0.598
722.0,0.172
723.0,0.613
724.0,0.977
725.0,0.988
726.0,0.998
727.0,0.62
728.0,0.287
729.0,0.007
730.0,0.262
731.0,0.481
732.0,0.663
733.0,1.529
734.0,2.595
735.0,3.634
736.0,4.647
737.0,5.634
738.0,6.573
739.0,7.168
740.0,7.295
741.0,7.804
742.0,9.129
743.0,10.295
744.0,10.814
745.0,11.312
746.0,11.432
747.0,11.556
748.0,11.668
749.0,11.908
750.0,11.287
751.0,10.611
752.0,10.742
753.0,11.004
754.0,10.534
755.0,9.835
756.0,8.839
757.0,7.873
758.0,7.025
759.0,6.288
760.0,5.865
761.0,6.175
762.0,5.928
763.0,4.811
764.0,3.842
765.0,3.207
766.0,2.57
767.0,1.93
768.0,1.35
769.0,1.186
770.0,1.001
771.0,0.354
772.0,0.296
773.0,0.504
774.0,0.715
775.0,0.301
776.0,1.496
777.0,1.549
778.0,1.297
779.0,1.04
780.0,0.78
781.0,0.818
782.0,1.031
783.0,1.505
784.0,2.193
785.0,2.424
786.0,2.143
787.0,2.034
788.0,2.035
789.0,1.93
790.0,1.722
791.0,1.904
792.0,2.111
793.0,2.237
794.0,1.964
795.0,1.741
796.0,1.955
797.0,2.145
798.0,1.397
799.0,0.652
800.0,0.371
801.0,0.114
802.0,0.292
803.0,0.525
804.0,0.37
805.0,0.143
806.0,0.051
807.0,0.063
808.0,0.208
809.0,0.488
810.0,0.466
811.0,0.261
812.0,0.329
813.0,0.618
814.0,0.659
815.0,0.454
816.0,0.256
817.0,0.068
818.0,0.24
819.0,1.01
820.0,1.171
821.0,0.086
822.0,0.588
823.0,0.132
824.0,0.742
825.0,0.958
826.0,1.102
827.0,0.84
828.0,0.623
829.0,0.836
830.0,1.007
831.0,0.696
832.0,0.377
833.0,0.535
834.0,0.689
835.0,0.367
836.0,0.004
837.0,0.49
838.0,0.768
839.0,0.923
840.0,1.008
841.0,0.712
842.0,0.344
843.0,0.347
844.0,0.438
845.0,0.824
846.0,1.341
847.0,1.194
848.0,0.69
849.0,0.782
850.0,1.245
851.0,1.124
852.0,0.493
853.0,0.499
854.0,1.094
855.0,1.054
856.0,0.508
857.0,0.168
858.0,0.177
859.0,0.293
860.0,0.658
861.0,0.84
862.0,0.714
863.0,0.749
864.0,1.088
865.0,1.275
866.0,1.186
867.0,0.884
868.0,0.21
869.0,0.107
870.0,0.782
871.0,1.267
872.0,0.547
873.0,0.034
874.0,0.163
875.0,0.371
876.0,0.617
877.0,0.803
878.0,0.557
879.0,0.31
880.0,0.061
881.0,0.149
882.0,0.09
883.0,0.302
884.0,0.011
885.0,0.371
886.0,0.131
887.0,0.112
888.0,0.361
889.0,0.508
890.0,0.255
891.0,0.035
892.0,0.304
893.0,0.597
894.0,1.373
895.0,2.182
896.0,2.071
897.0,1.844
898.0,2.612
899.0,3.474
900.0,3.454
901.0,3.26
902.0,4.044
903.0,4.976
904.0,4.616
905.0,4.093
906.0,4.019
907.0,4.028
908.0,4.478
909.0,5.02
910.0,5.164
911.0,5.259
912.0,5.791
913.0,6.422
914.0,6.24
915.0,5.908
916.0,5.616
917.0,5.314
918.0,5.026
919.0,4.749
920.0,4.077
921.0,3.322
922.0,2.577
923.0,1.841
924.0,1.575
925.0,1.554
926.0,1.286
927.0,0.677
928.0,0.372
929.0,0.171
930.0,0.04
931.0,0.167
932.0,0.029
933.0,0.314
934.0,0.597
935.0,0.877
936.0,0.738
937.0,0.507
938.0,0.27
939.0,0.027
940.0,0.227
941.0,0.502
942.0,0.043
943.0,0.726
944.0,0.541
945.0,0.203
946.0,0.723
947.0,1.341
948.0,1.537
949.0,1.664
950.0,1.783
951.0,1.894
952.0,2.453
953.0,3.053
954.0,3.182
955.0,3.207
956.0,2.608
957.0,1.82
958.0,1.758
959.0,1.82
960.0,1.87
961.0,1.848
962.0,1.414
963.0,0.968
964.0,1.019
965.0,1.074
966.0,1.133
967.0,1.192
968.0,1.25
969.0,1.308
970.0,1.365
971.0,1.371
972.0,0.93
973.0,0.568
974.0,0.652
975.0,0.654
976.0,0.23
977.0,0.096
978.0,0.01
979.0,0.083
980.0,0.357
981.0,0.603
982.0,0.699
983.0,0.925
984.0,1.517
985.0,1.95
986.0,2.032
987.0,1.762
988.0,0.824
989.0,0.271
990.0,0.348
991.0,0.634
992.0,1.216
993.0,1.088
994.0,0.136
995.0,0.316
996.0,0.264
997.0,0.047
998.0,0.594
999.0,0.849
1000.0,0.884
1001.0,0.918
1002.0,0.951
1003.0,0.984
1004.0,1.015
1005.0,1.044
1006.0,1.075
1007.0,1.105
1008.0,1.136
1009.0,0.763
1010.0,0.277
1011.0,0.466
1012.0,0.852
1013.0,0.937
1014.0,0.981
1015.0,1.514
1016.0,2.083
1017.0,1.642
1018.0,1.223
1019.0,1.795
1020.0,2.321
1021.0,2.38
1022.0,2.438
1023.0,2.504
1024.0,2.614
1025.0,2.677
1026.0,2.471
1027.0,1.5
1028.0,0.941
1029.0,1.211
1030.0,1.318
1031.0,0.914
1032.0,0.886
1033.0,1.443
1034.0,1.747
1035.0,1.786
1036.0,1.543
1037.0,1.041
1038.0,0.532
1039.0,0.015
1040.0,0.534
1041.0,1.548
1042.0,1.025
1043.0,0.043
1044.0,0.293
1045.0,0.363
1046.0,0.005
1047.0,0.407
1048.0,0.325
1049.0,0.205
1050.0,0.078
1051.0,0.015
1052.0,0.362
1053.0,0.734
1054.0,1.093
1055.0,1.287
1056.0,1.12
1057.0,1.11
1058.0,1.464
1059.0,1.725
1060.0,1.864
1061.0,1.744
1062.0,1.517
1063.0,1.894
1064.0,2.769
1065.0,3.022
1066.0,2.858
1067.0,3.046
1068.0,3.425
1069.0,3.414
1070.0,3.282
1071.0,3.595
1072.0,3.998
1073.0,3.444
1074.0,2.821
1075.0,3.245
1076.0,3.681
1077.0,3.09
1078.0,2.599
1079.0,2.545
1080.0,2.446
1081.0,1.952
1082.0,1.63
1083.0,1.636
1084.0,1.628
1085.0,1.615
1086.0,1.332
1087.0,0.808
1088.0,0.614
1089.0,0.627
1090.0,0.273
1091.0,0.227
1092.0,0.117
1093.0,0.672
1094.0,0.29
1095.0,0.193
1096.0,0.155
1097.0,0.113
1098.0,0.068
1099.0,0.02
1100.0,0.033
1101.0,0.242
1102.0,0.834
1103.0,1.432
1104.0,2.037
1105.0,2.138
1106.0,1.704
1107.0,1.803
1108.0,2.438
1109.0,2.716
1110.0,2.838
1111.0,2.884
1112.0,2.954
1113.0,3.524
1114.0,4.168
1115.0,3.264
1116.0,2.557
1117.0,3.269
1118.0,3.769
1119.0,3.454
1120.0,3.322
1121.0,3.553
1122.0,3.326
1123.0,2.517
1124.0,2.3
1125.0,2.576
1126.0,2.495
1127.0,2.246
1128.0,2.005
1129.0,1.771
1130.0,1.07
1131.0,0.329
1132.0,0.72
1133.0,1.349
1134.0,1.165
1135.0,1.088
1136.0,1.418
1137.0,1.374
1138.0,0.638
1139.0,0.155
1140.0,0.054
1141.0,0.377
1142.0,1.228
1143.0,0.914
1144.0,0.161
1145.0,0.324
1146.0,0.682
1147.0,0.028
1148.0,0.626
1149.0,0.179
1150.0,0.728
1151.0,0.44
1152.0,0.332
1153.0,0.56
1154.0,0.781
1155.0,0.995
1156.0,1.191
1157.0,1.4
1158.0,1.203
1159.0,0.858
1160.0,0.501
1161.0,0.146
1162.0,0.31
1163.0,0.39
1164.0,0.161
1165.0,0.276
1166.0,0.41
1167.0,0.533
1168.0,0.64
1169.0,0.756
1170.0,0.869
1171.0,0.606
1172.0,0.175
1173.0,0.184
1174.0,0.28
1175.0,0.943
1176.0,1.561
1177.0,1.053
1178.0,0.7
1179.0,0.758
1180.0,1.047
1181.0,1.664
1182.0,1.987
1183.0,2.078
1184.0,1.783
1185.0,1.318
1186.0,0.851
1187.0,0.382
1188.0,0.434
1189.0,0.417
1190.0,0.065
1191.0,0.235
1192.0,0.355
1193.0,0.709
1194.0,0.759
1195.0,0.809
1196.0,0.857
1197.0,0.501
1198.0,0.006
1199.0,0.483
1200.0,1.008
1201.0,0.508
1202.0,0.236
1203.0,0.817
1204.0,0.997
1205.0,0.492
1206.0,0.226
1207.0,0.132
1208.0,0.171
1209.0,0.23
1210.0,0.274
1211.0,0.314
1212.0,0.355
1213.0,0.395
1214.0,0.424
1215.0,0.65
1216.0,1.237
1217.0,1.55
1218.0,1.593
1219.0,1.27
1220.0,0.768
1221.0,0.725
1222.0,0.767
1223.0,0.333
1224.0,0.058
1225.0,0.008
1226.0,0.041
1227.0,0.089
1228.0,0.138
1229.0,0.186
1230.0,0.235
1231.0,0.323
1232.0,0.871
1233.0,1.444
1234.0,1.491
1235.0,1.417
1236.0,0.915
1237.0,0.412
1238.0,0.092
1239.0,0.029
1240.0,0.598
1241.0,0.768
1242.0,0.804
1243.0,0.84
1244.0,0.812
1245.0,0.298
1246.0,0.053
1247.0,0.022
1248.0,0.275
1249.0,0.855
1250.0,1.068
1251.0,1.096
1252.0,1.593
1253.0,2.106
1254.0,0.966
1255.0,0.256
1256.0,0.833
1257.0,0.951
1258.0,0.422
1259.0,0.602
1260.0,1.187
1261.0,0.881
1262.0,0.309
1263.0,0.91
1264.0,1.281
1265.0,0.747
1266.0,0.422
1267.0,0.442
1268.0,0.461
1269.0,0.48
1270.0,0.502
1271.0,0.53
1272.0,0.549
1273.0,0.475
1274.0,0.063
1275.0,0.002
1276.0,1.125
1277.0,0.991
1278.0,0.11
1279.0,0.491
1280.0,1.613
1281.0,1.715
1282.0,1.722
1283.0,1.727
1284.0,1.31
1285.0,0.199
1286.0,0.063
1287.0,0.621
1288.0,0.736
1289.0,0.734
1290.0,0.691
1291.0,0.677
1292.0,0.672
1293.0,1.134
1294.0,2.181
1295.0,1.604
1296.0,0.082
1297.0,0.584
1298.0,1.625
1299.0,1.609
1300.0,1.442
1301.0,0.862
1302.0,0.547
1303.0,0.529
1304.0,0.51
1305.0,0.49
1306.0,0.471
1307.0,0.531
1308.0,1.073
1309.0,1.01
1310.0,0.132
1311.0,0.026
1312.0,1.066
1313.0,0.814
1314.0,0.283
1315.0,0.824
1316.0,1.224
1317.0,1.202
1318.0,1.18
1319.0,1.158
1320.0,1.136
1321.0,1.117
1322.0,1.1
1323.0,1.084
1324.0,1.068
1325.0,1.053
1326.0,0.962
1327.0,0.597
1328.0,0.02
1329.0,0.078
1330.0,0.001
1331.0,1.119
1332.0,1.531
1333.0,0.388
1334.0,0.175
1335.0,0.733
1336.0,0.901
1337.0,0.971
1338.0,1.531
1339.0,1.651
1340.0,0.509
1341.0,0.212
1342.0,0.776
1343.0,0.922
1344.0,0.919
1345.0,0.889
1346.0,0.886
1347.0,0.884
1348.0,0.882
1349.0,0.881
1350.0,0.478
1351.0,0.092
1352.0,0.123
1353.0,0.096
1354.0,1.231
1355.0,1.858
1356.0,1.854
1357.0,1.454
1358.0,0.879
1359.0,0.844
1360.0,0.842
1361.0,0.842
1362.0,0.588
1363.0,0.023
1364.0,0.256
1365.0,0.837
1366.0,0.874
1367.0,0.83
1368.0,0.774
1369.0,0.786
1370.0,0.8
1371.0,0.815
1372.0,0.831
1373.0,0.288
1374.0,0.002
1375.0,0.596
1376.0,0.623
1377.0,0.079
1378.0,0.102
1379.0,0.135
1380.0,0.735
1381.0,1.174
1382.0,1.2
1383.0,0.913
1384.0,0.368
1385.0,0.758
1386.0,1.323
1387.0,1.355
1388.0,1.387
1389.0,1.42
1390.0,1.1
1391.0,0.556
1392.0,0.012
1393.0,0.271
1394.0,0.911
1395.0,1.36
1396.0,0.807
1397.0,0.657
1398.0,0.684
1399.0,0.152
1400.0,0.025
1401.0,1.214
1402.0,1.501
1403.0,0.951
1404.0,0.863
1405.0,0.894
1406.0,0.925
1407.0,0.956
1408.0,0.98
1409.0,1.238
1410.0,1.89
1411.0,0.911
1412.0,0.007
1413.0,0.042
1414.0,0.432
1415.0,1.051
1416.0,1.231
1417.0,1.246
1418.0,0.706
1419.0,0.361
1420.0,0.405
1421.0,0.449
1422.0,0.493
1423.0,0.537
1424.0,0.466
1425.0,0.07
1426.0,0.248
1427.0,1.465
1428.0,0.857
1429.0,0.141
1430.0,0.491
1431.0,1.117
1432.0,1.157
1433.0,1.583
1434.0,2.208
1435.0,2.272
1436.0,2.309
1437.0,2.346
1438.0,2.382
1439.0,2.417
1440.0,1.954
1441.0,1.536
1442.0,2.158
1443.0,1.989
1444.0,0.843
1445.0,0.062
1446.0,0.402
1447.0,0.794
1448.0,1.359
1449.0,0.79
1450.0,1.006
1451.0,1.621
1452.0,1.666
1453.0,1.691
1454.0,1.716
1455.0,1.741
1456.0,1.766
1457.0,1.265
1458.0,0.82
1459.0,0.847
1460.0,0.873
1461.0,0.897
1462.0,0.718
1463.0,0.752
1464.0,0.906
1465.0,1.061
1466.0,1.09
1467.0,1.12
1468.0,1.149
1469.0,1.179
1470.0,1.207
1471.0,1.235
1472.0,1.263
1473.0,1.316
1474.0,1.94
1475.0,1.918
1476.0,0.742
1477.0,0.378
1478.0,0.396
1479.0,0.182
1480.0,0.175
1481.0,1.024
1482.0,1.444
1483.0,1.476
1484.0,1.477
1485.0,1.628
1486.0,2.256
1487.0,2.127
1488.0,1.557
1489.0,0.982
1490.0,0.571
1491.0,0.979
1492.0,1.191
1493.0,1.17
1494.0,0.565
1495.0,0.249
1496.0,0.812
1497.0,0.646
1498.0,0.006
1499.0,0.521
1500.0,0.0
