Raman Shift,Intensity
214.3785040343428,-39.121
224.78145843945092,-169.523
235.01908334044856,-182.563
245.41130867789616,190.387
255.63837774522108,-114.754
265.8602158678186,-65.201
276.23642015571386,-612.89
286.44772684514464,-753.724
296.8132434111685,-23.472
307.0140349346475,54.769
317.209615658554,101.714
327.399989574551,-482.488
337.7442627077253,-169.523
347.9241537664129,23.472
358.09885002992814,226.9
368.2683554736213,185.171
378.5914504125685,-365.126
388.7505051753542,-842.397
398.90438108190574,57.377
409.0530820913264,117.362
419.196612158652,284.277
429.3349752349313,-299.925
439.626465572117,-195.603
449.75442592354375,-41.729
459.8772311743669,-203.427
469.994885259468,-367.734
480.1073921097559,-503.352
490.2147556521086,-206.035
500.31697980943136,232.116
510.41406850063504,-550.297
520.5060256406359,-375.558
530.5928551403995,-242.548
540.6745609068894,164.307
550.7511468431039,323.397
560.8226168481124,112.146
570.888974816975,-44.337
580.9502246408374,5.216
590.8492821665859,-206.035
600.9004070215597,-396.422
610.9464353206786,-36.513
620.9873709393651,370.342
631.0232177491416,-584.201
641.0539796175653,-78.241
650.9230482019848,2.608
660.9437310766662,-422.503
670.9593405290361,-28.688
680.9698804110958,584.201
690.8190579752118,44.337
700.8195493193562,-122.578
710.8149825658329,15.648
720.805361551138,-117.362
730.6347081696804,-70.417
740.6150689503047,-54.769
750.4345613154874,-266.02
760.404918953056,148.658
770.3702413346182,357.302
780.174941402227,-119.97
790.1302832356378,-112.146
799.925166080895,-39.121
809.8705423523497,-239.94
819.6556227125038,-289.493
829.5910483782136,-331.221
839.3663409610526,323.397
849.2918309472952,-284.277
859.0573504311833,430.327
868.972919634427,59.985
878.7286806683987,-39.121
888.6343439553166,-138.226
898.3803611591502,302.533
908.12155022542,-125.186
918.0124213310264,242.548
927.743888384779,-93.889
937.4705381077074,-59.985
947.3466501411676,594.633
957.0635996041163,258.196
966.7757425107702,-91.281
976.6371284824854,-10.432
986.3395928168538,30.498
996.0372613373548,-69.436
1005.7301375988682,-251.801
1015.5719657306544,-458.155
1025.255192198514,-630.058
1034.9336371072422,-709.076
1044.6073039976543,-636.767
1054.2761964070742,-354.694
1063.9403178693246,44.337
1073.5996719147442,44.337
1083.4074711432768,-294.709
1093.057225399156,-10.432
1102.70222286418,7.824
1112.3424670547538,310.357
1121.9779614837898,174.739
1131.6087096607444,359.91
1141.2347150916105,-13.04
1150.855981278939,-104.322
1160.4725117218331,135.618
1170.0843099159465,-5.216
1179.6913793534914,-315.573
1189.293723523253,-86.065
1198.739039559725,258.196
1208.3320185130287,-245.156
1217.9202825891407,326.005
1227.5038352631818,-172.131
1237.0826800068826,-284.277
1246.6568202885535,159.091
1256.226259573108,-216.467
1265.639216696829,5.216
1275.1993388504195,341.653
1284.7547703264208,213.859
1294.3055145761757,-234.724
1303.7000868433097,203.427
1313.241541245312,-117.362
1322.778318700337,36.513
1332.310422646282,-352.086
1341.686663866676,133.01
1351.2095051416618,198.211
1360.727683146746,-106.93
1370.0902294598782,-208.643
1379.5991650801443,-88.673
1388.9526223370776,221.684
1398.4523290278594,-297.317
1407.7967104575073,96.498
1417.287201648047,299.925
1426.7730533080105,-297.317
1436.1038095471376,-49.553
1445.5804658554116,414.679
1454.9021792800197,-310.357
1464.369653600741,487.704
1473.6823373500883,10.432
1482.9905472474493,-127.794
1492.444310209452,169.523
1501.7435100404182,1019.744
1511.1881242589734,-39.121
1520.4783270994303,-1099.049
1529.764072276041,-1619.174
1539.1950247490097,-1714.529
1548.4717924494323,-1500.156
1557.7441121511074,-1091.09
1567.1614324998736,-602.372
1576.4247941832873,-710.892
1585.6837175051332,-710.892
1594.9382056544855,-710.892
1604.3374199708342,-710.892
1613.5829759239496,-710.892
1622.8241063047317,-710.892
1632.0608142900164,-710.892
1641.2931030535765,-710.892
1650.6697762525291,-710.892
1659.8931649322622,-229.508
1669.1121439444323,-315.573
1678.3267164506542,307.749
1687.53688560953,-127.794
1696.7426545766284,-216.467
1705.9440265045123,146.05
1715.1410045427183,312.965
1724.3335918377925,-242.548
1733.5217915332687,161.699
1742.705606769683,279.06
1751.8850406845886,234.724
1761.0600964125188,341.653
1770.230777085024,216.467
1779.397085830693,-273.844
1788.55902577511,276.452
1797.7166000408906,-114.754
1806.8698117476447,-112.146
1816.0186640120735,-20.864
1825.163159947857,-459.015
1834.1559155330324,-122.578
1843.29177827917,140.834
1852.4232939699289,792.845
1861.550465707216,-247.764
1870.673296589972,208.643
1879.644751645923,-117.362
1888.758979994156,307.749
1897.8688767172423,148.658
1906.974444902422,-464.231
1915.9289277003045,-119.97
1925.025917750907,779.804
1934.118588458099,15.648
1943.060390766601,143.442
1952.144501554074,266.02
1961.2243021666216,599.85
1970.153450902042,75.633
1979.224709758193,-328.613
1988.1454604369865,88.673
1997.208189584475,26.08
2006.120554048888,-385.99
2015.1747655127983,-318.181
2024.0787555828572,-312.965
2033.12446136566,219.075
2042.0200888391555,375.558
2051.057300920809,-156.482
2059.9445775734057,-140.834
2068.9733079113576,140.834
2077.852245496608,-430.327
2086.8725060258803,143.442
2095.743116275291,-26.08
2104.6096010526526,-166.915
2113.6172135316083,-276.452
2122.4753884816528,5.216
2131.329446630596,-221.684
2140.324437642892,-461.623
2149.170203423979,260.804
2158.011861050589,49.553
2166.994257105456,691.131
2175.8276397748195,-101.714
2184.656922912145,-783.122
2193.48210937062,-1111.342
2202.303202000803,-1170.648
2211.2647105948345,-1045.317
2220.077557114586,-819.622
2228.886318388424,-577.84
2237.6909972563008,-404.246
2246.4915965555265,-224.292
2255.2881191208,234.724
2264.0805677841927,-344.261
2272.8689453751285,-422.503
2281.6532547204406,-7.824
2290.5774032157133,-396.422
2299.353517963282,378.166
2308.125572976198,-195.603
2316.893571070781,631.146
2325.6575150607823,177.347
2334.273835606975,164.307
2343.029746164546,-31.296
2351.781610997117,-404.246
2360.5294329081007,-200.819
2369.273214698267,-122.578
2378.0129591658333,393.814
2386.7486691064114,-764.156
2395.48034731306,-284.277
2404.2079965762314,-73.025
2412.788641914361,323.397
2421.5083075861257,-526.824
2430.2239526247795,445.975
2438.9355798105607,-112.146
2447.64319192111,336.437
2456.204142101211,-104.322
2464.9037980916983,-174.739
2473.5994472792227,130.402
2482.148638712344,-367.734
2490.836348166158,-711.995
2499.5200590665554,383.382
2508.0575159626023,-44.337
2516.7333034706826,-114.754
2525.405100652257,166.915
2533.930847154741,568.553
2542.5947372405863,112.146
2551.112711590584,735.468
2559.768705390503,179.955
2568.2789182109263,88.673
2576.927026515033,206.035
2585.5711635713087,-318.181
2594.069721988235,975.407
2602.5644435408976,307.749
2611.196813145194,-247.764
2619.683804921093,229.508
2628.3083212822166,-119.97
2636.7875938271245,-46.945
2645.404267656864,-138.226
2653.875831497382,-349.478
2662.343576738021,-20.864
2670.948539131641,83.457
2679.408591378582,-117.362
2687.8648328054915,-657.226
2696.4581076233444,26.08
2704.906671724595,297.317
2713.351432764532,-409.462
2721.792393310454,39.121
2730.370143142005,190.387
2738.8034471581705,-91.281
2747.232958411034,-146.05
2755.658679458633,57.377
2764.220946338093,119.97
2772.639031576786,474.664
2781.053334313052,-73.025
2789.463857095703,652.01
2797.8706024712737,-239.94
2806.2735729839987,219.075
2814.672771175843,23.472
2823.0681995864725,156.482
2831.459860753297,117.362
2839.847757211428,-39.121
2848.231891493713,-232.116
2856.612266130724,-279.06
2864.988883650767,-440.759
2873.3617465798743,36.513
2881.7308574418275,-226.9
2890.096218758139,-156.482
2898.457833048058,299.925
2906.815702828586,-106.93
2915.169830614461,-88.673
2923.5202189181878,224.292
2931.8668702499926,156.482
2940.209787117892,169.523
2948.41001618022,-268.628
2956.7455337723804,339.045
2965.077324369493,52.161
2973.405390470638,122.578
2981.7297345726547,-177.347
2989.9117125592966,182.563
2998.2286820744484,-75.633
3006.5419370261297,-117.362
3014.8514799023105,91.281
3023.0189130185245,-13.04
3031.3211009634906,101.714
3039.619584242202,-333.829
3047.776149306213,232.116
3056.067292329164,-86.065
3064.2166442633534,320.789
3072.500456765243,378.166
3080.780576892153,-190.387
3088.919096831967,-365.126
3097.1919010483834,219.075
3105.3232317767324,169.523
3113.588729774354,-44.337
3121.712880813,289.493
3129.9710822664056,339.045
3138.0880631202745,-224.292
3146.338977686973,-52.161
3154.448797844241,273.844
3162.692435164703,140.834
3170.7951040967964,-208.643
3178.894230970407,169.523
3187.127000956163,182.563
3195.218990740796,-221.684
3203.3074454664093,-54.769
3211.5293695924192,-88.673
3219.610701328027,-513.784
3227.688504985643,70.417
3235.899604670318,-831.965
3243.9702993997853,166.915
3252.03747301393,41.729
3260.1011278165533,-263.412
3268.297848330192,33.905
3276.354412870096,-362.518
3284.407465536773,-67.809
3292.4570086259846,-7.824
3300.5030444314834,20.864
3308.545575245,-323.397
3316.720827896272,453.799
3324.756296283769,106.93
3332.788266581294,-286.885
3340.816741072602,-122.578
3348.8417220394404,-146.05
3356.8632117615925,555.513
3364.8812125168406,-391.206
3372.895726580995,636.362
3380.906756227865,229.508
3388.91430372934,114.754
3396.918371355256,54.769
3404.9189613735507,-333.829
3412.9160760501472,-731.861
3420.909717649003,-1029.198
3428.8998884321263,-1218.305
3436.886590659553,-1291.638
3444.734546370892,-1241.66
3452.714376952972,-1060.829
3460.690745709508,-741.607
3468.663654892749,-276.452
3476.633106752961,159.091
3484.5991035384795,-46.945
3492.4267178764712,-505.96
3500.385869715596,359.91
3508.341573175334,83.457
3516.293830496281,-542.473
3524.1079469444667,571.161
3532.0533770164475,385.99
3539.9953676218797,396.422
3547.7993978646555,31.296
3555.734574435446,-88.673
3563.666318194715,101.714
3571.460281747888,-289.493
3579.385224652753,93.889
3587.30674138396,-49.553
3595.090657713052,393.814
3603.00538673612,-20.864
3610.782634691175,-49.553
3618.6905847266535,339.045
3626.461172873067,-54.769
3634.362352626544,203.427
3642.1262895150494,560.729
3650.020707677235,67.809
3657.778001843908,-229.508
3665.665667090652,-13.04
3673.416327056992,-127.794
3681.163701429177,-164.307
3689.041282322214,211.251
3696.782035212709,62.593
3704.6528847781447,-179.955
3712.3870246721344,-161.699
3720.117889469839,156.482
3727.845481251112,54.769
3735.702951367959,-370.342
3743.4239470074463,-33.905
3751.141675895298,106.93
3758.989119491133,-65.201
3766.700264858686,-125.186
3774.408149723422,-247.933
3782.1127761528696,-448.891
3789.814146212797,-660.989
3797.644959575024,-817.152
3805.339767031168,-850.307
3813.03132434014,-693.379
3820.7196335607214,-279.295
3828.404696749953,459.015
3836.086515963114,991.056
3843.76509325378,-260.804
3851.4404306737633,-99.106
3859.112530273167,114.754
3866.7813941003615,-169.523
3874.4470242019815,73.025
3882.109422622947,-479.88
3889.7685914064414,-146.05
3897.4245325939337,-672.875
3905.0772482251705,-151.266
3912.7267403381848,138.226
3920.373010969284,-172.131
3928.016062153074,378.166
3935.655895922435,532.04
3943.292514308545,318.181
3950.925919340858,-78.241
3958.424585178429,161.699
3966.051624900327,65.201
3973.675457311714,-172.131
3981.296084435249,-453.799
3988.913508291902,-49.553
3996.396478310664,174.739
4004.007556831755,-271.236
4011.615438103967,-96.498
4019.220124141517,-479.88
4026.690583777876,688.523
4034.288940385857,-192.995
4041.8841077570687,-221.684
4049.3452186808136,-367.734
4056.934068499933,114.754
4064.519735065173,-159.091
4071.971514814119,370.342
4079.550875675057,-302.533
4086.996462302253,23.472
4094.5695253181984,-125.186
4102.008926541021,-263.412
4109.575699558212,438.151
4117.008923081237,41.729
4124.569413932906,-138.226
4131.996467447912,-292.101
4139.550683954272,443.367
4146.971575140262,67.809
4154.519525108568,174.739
4161.93426163181,-57.377
4169.475952856366,104.322
4228.011654085007,41.729
4235.396210255021,472.055
4242.907210725418,-41.729
4250.415076793586,-28.688
4257.7904449892885,182.563
4265.292102093408,-70.417
4272.790630641473,-109.517
4280.156827999919,95.548
4287.649159161061,413.101
4295.138367597785,711.472
4302.4954112134365,858.982
4309.978433811593,723.963
4317.329402006981,174.739
4324.8062464273535,-477.272
4332.151146724958,-7.824
4339.621820615692,-187.779
4346.960660525576,485.096
4354.425171522191,-166.915
4361.757958542046,375.558
4369.216314267462,581.593
4376.543055882612,-255.588
4383.9952639471885,80.849
4391.315967630617,-20.864
4398.762035632179,466.839
4406.07670884455,-190.387
4413.516644368407,13.04
4420.825294558097,-539.865
4428.130962180556,-302.533
4435.561739780205,-39.121
4442.861395497304,57.377
4450.1580741507205,242.548
4457.579710724684,229.508
4464.870388562711,78.241
4472.158094827057,226.9
4479.570607232323,75.633
4486.852323743988,-208.643
4494.131074158497,62.593
4501.534479210626,-70.417
4508.807250907994,312.965
4516.077061971264,-101.714
4523.3439142079005,-594.633
4530.735219799091,-41.729
4537.996107969229,-138.226
4545.254042757973,18.256
4552.509025966887,62.593
4559.888261734326,-2.608
4567.13729547953,-232.116
4574.383383072374,339.045
4581.626526308552,1974.287
4588.866726982291,-213.859
4596.103986886381,122.578
4603.338307812148,-161.699
4610.69653172473,292.101
4617.92492857972,551.525
4625.150391852971,517.952
4632.372923329975,301.21
4639.592524794789,11.131
4646.809198030001,-242.454
4654.022944816745,-349.715
4661.233766934747,-200.819
4668.441666162253,104.322
4675.646644276094,-70.417
4682.8487030516335,-359.91
4690.047844262837,122.578
4697.244069682201,57.377
4704.437381080781,-32.454
4711.627780228235,16.128
4718.815268892759,147.305
4725.999848841122,305.269
4733.181521838655,434.2
4740.3602896492885,478.287
4747.536154035501,381.715
4754.583300303697,88.673
4761.753413983191,-172.131
4768.9206294863325,315.573
4776.084948569973,-49.553
4783.246372989488,65.201
4790.404904498872,-226.9
4797.435032206777,49.553
4804.5878338284165,-297.317
4811.73774776268,375.558
4818.884775757928,226.9
4826.028919561082,148.658
4833.044920461813,-219.075
4840.183351639585,-258.196
4847.3189038270575,-153.874
4854.451578765569,-534.648
4861.456318765864,255.588
4868.58329482688,-558.121
4875.707398824052,226.9
4882.703723295803,-417.287
4889.822138682386,-487.704
4896.937687177771,-558.121
4903.925611277555,213.859
4911.035481404608,185.171
4918.142489800703,151.266
4925.122028648751,20.864
4932.223368894192,-245.156
4939.197342363797,255.588
4946.293021236786,453.799
4953.385846941688,192.995
4960.35146024984,-166.915
4967.43863475923,730.252
4974.398699333346,-23.472
4981.480229398396,771.98
4988.43475186592,-268.628
4995.510644227063,-571.161
5002.459631204903,-352.086
5009.529892591847,281.668
5016.473350686378,198.211
5023.537987818112,146.05
5030.475923625207,13.04
5037.534943210041,357.302
5044.467363315067,706.779
5051.397052412052,-297.317
5058.447683028528,-438.151
5065.371866252855,138.226
5072.416896017057,33.905
5079.335579928018,310.357
5086.251540943114,114.754
5093.288206657562,-133.01
5100.198678149784,401.638
5107.106431592307,169.523
5114.134748143202,-57.377
5121.037021830118,245.156
5127.93658230202,237.332
5134.833431158368,-252.98
5141.85065500065,-352.086
5148.742037069234,401.638
5155.630712341699,-10.432
5162.516682412504,2.608
5169.522839786696,-331.221
5176.403355996677,383.382
5183.281171809234,114.754
5190.156288813778,70.417
5197.028708598496,-18.256
5204.021081907653,-57.377
5210.888063918697,114.754
5217.752353495271,234.724
5224.613952220541,-1150.146
5231.472861676462,302.533
5238.329083443728,62.593
5245.182619101804,-44.337
5252.033470228904,769.372
5258.881638402017,252.98
5265.727125196914,-260.804
5272.569932188097,46.945
5279.532181775125,-182.563
5286.369586094326,425.111
5293.204315354014,-179.955
5300.036371123795,226.9
5306.865754971979,169.523
5313.692468465706,-237.332
5320.516513170878,-28.688
5327.216103720151,341.653
5334.034863128356,133.01
5340.850958410447,-1400.518
5347.664391127459,-59.985
5354.475162839211,-33.905
5361.283275104273,252.98
5368.088729480027,18.256
5374.891527522632,-59.985
5381.6916707870405,-185.171
5388.489160826968,-200.819
5395.162686039381,505.96
5401.954921596684,-65.201
5408.744508555763,-49.553
5415.531448465517,-336.437
5422.31574287366,320.789
5428.976315601984,1022.352
5435.7553708175255,101.714
5442.531785139763,607.674
5449.305560111599,216.467
5456.076697274744,206.035
5462.724355191152,-148.658
5469.490268392445,221.684
5476.253548375513,-242.548
5482.893493883399,156.482
5489.651558992991,125.186
5496.406995464167,419.895
5503.039241977291,104.322
5509.789472642318,-57.377
5516.5370792381145,206.035
5523.161640139158,438.151
5529.904049975114,198.211
5536.643840300443,54.769
5543.260728941095,443.367
5549.995331531944,-41.729
5556.607128017575,1275.332
5563.336548861262,-41.729
5569.943259067753,279.06
5576.667504142417,385.99
5583.269133936614,-28.688
5589.988209211173,-148.658
5596.58476445092,-247.764
5603.298675885118,41.729
5609.890162419251,672.875
5616.598915963696,388.598
5623.185339632037,10.432
5629.888941228186,519.0
5636.470307861637,542.473
5643.16876344182,49.553
5649.745078862296,-112.146
5656.438394349752,130.402
5663.009664370256,383.382
5669.578436568787,-159.091
5676.264076103718,584.201
5682.827811578958,-427.719
5689.3890535265455,211.251
5696.067030305661,297.317
5702.623244186747,-177.347
5709.176968824671,-67.809
5715.847296014435,993.664
5722.39600122282,10.432
5728.942221462719,-177.347
5735.4859581482815,318.181
5742.146121627004,-318.181
5748.684850350968,-36.513
5755.221099782248,112.146
5761.754871330697,670.267
5768.404894310675,-336.437
5774.933669330552,83.457
5781.459970716278,-73.025
5787.983799873429,495.528
5794.505158206499,-78.241
5801.142549523138,130.402
5807.658925557145,-268.628
5814.172834999641,-200.819
5820.684279250832,15.648
5827.193259709879,44.337
5833.699777774898,-490.312
5840.203834842934,219.075
5846.7054323099655,362.518
5853.204571570954,375.558
5859.701254019747,125.186
5866.195481049195,-2.608
5872.687254051074,174.739
5879.176574416102,-133.01
5885.663443533944,26.08
5892.14786279323,310.357
5898.629833581537,286.885
5905.109357285379,245.156
5911.586435290243,57.377
5918.061068980562,-65.201
5924.533259739736,537.257
5931.003008950094,385.99
5937.470317992949,13.04
5943.935188248557,266.02
5950.397621096134,404.246
5956.857617913869,578.985
5963.315180078898,-312.965
5969.7703089673305,693.739
5976.105705888956,104.322
5982.556016527509,-86.065
5989.003897986593,211.251
5995.449351638199,451.191
6001.8923788532775,388.598
6008.215900781644,320.789
6014.654123287393,159.091
6021.089923438405,375.558
6027.523302601519,380.774
6033.954262142564,-36.513
6040.265942433929,260.804
6046.692110755517,584.201
6053.115863521547,187.779
6059.420472023492,10.432
6065.839441620141,5.216
6072.255999718647,26.08
6078.553548309683,-174.739
6084.965331270854,216.467
6091.374706782226,-190.387
6097.665207314269,388.598
6104.06981570238,-127.794
6110.472020679961,-57.377
6116.755484978421,-198.211
6123.152930828903,31.296
6129.431725134898,-5.216
6135.824417162912,-7.824
6142.098546680769,5.216
6148.486490183052,-443.367
6154.872039648391,153.874
6161.139160374798,-59.985
6167.519969269015,114.754
6173.782438208022,198.211
6180.158511808193,-641.578
6186.416334137088,-49.553
6192.787677712448,328.613
6199.040858600842,-117.362
6205.291741972564,628.538
6211.656022022646,260.804
6217.902271670246,203.427
6224.261834810408,409.462
6230.503455884398,135.618
6236.742785809074,498.136
6243.095304999864,237.332
6249.330014038809,-41.729
6255.677829386121,-70.417
6261.907922670827,-991.056
6268.1357311500615,-2347.237
6274.476522051649,-179.955
6280.699722436162,378.166
6286.920641805642,495.528
6293.139281413962,80.849
6299.470738832184,-67.809
6305.684780516531,-86.065
6311.896546218988,638.97
6318.106037189755,119.97
6324.428181717434,-62.593
6330.633084905065,542.473
6336.835717129172,114.754
6343.036079636258,852.83
6349.234173671932,-268.628
6355.544716640681,135.618
6361.738235515753,242.548
6367.929489673777,135.884
6374.118480356665,-100.47
6380.305208805476,-382.57
6386.489676260331,-626.469
6392.671883960451,-748.221
6398.851833144166,-663.877
6405.143905470883,-289.493
6411.319299566196,375.558
6417.492438877496,829.357
6423.663324639478,-190.387
6429.831958085924,36.513
6435.998340449718,-23.472
6442.162472962846,636.362
6448.324356856407,-96.498
6454.483993360576,558.121
6460.641383704664,49.553
6466.79652911704,-362.518
6472.949430825232,7.824
6479.100090055821,266.02
6485.248508034543,148.658
6491.280888225534,229.508
6497.424868822251,117.362
6503.5666118162335,417.287
6509.706118429633,172.131
6515.843389883739,359.91
6521.978427398899,15.648
6528.111232194642,148.658
6534.241805489546,-75.633
6540.256680928833,-534.648
6546.382836142315,62.593
6552.506763482961,294.709
6558.628464165849,-28.688
6564.747939405184,-2.608
6570.751928194237,276.452
6576.866997341494,20.864
6582.979844660076,172.131
6589.090471360658,140.834
6595.0857801617385,393.814
6601.192010321647,354.694
6607.296023467985,-39.121
6613.39782080795,-912.814
6619.384468430493,-206.035
6625.481878753591,125.186
6631.577076864334,610.282
6637.5572509579,143.442
6643.64806916556,5.216
6649.623946782151,-232.116
6655.71038980603,109.538
6661.794626582923,761.548
6667.764048126817,26.08
6673.843916808139,237.332
6679.809053455574,36.513
6685.884558743659,119.97
6691.957863728712,208.643
6697.916561697035,-258.196
6703.985510351609,156.482
6709.939934962422,271.236
6716.004531971987,127.794
6721.954687820689,372.95
6728.014937863976,-88.673
6733.960829539363,44.337
6739.904610751524,-59.985
6745.95836937274,-378.166
6751.897893261092,578.985
6757.947316561804,370.342
6763.8825876987685,680.699
6769.927680334353,78.241
6775.858703285812,539.865
6781.787623684751,529.432
6787.826249230238,276.452
6793.750928258974,550.297
6799.673508107371,-101.714
6805.705676935038,73.025
6811.624022213946,234.724
6817.540271677499,15.648
6823.5659941374615,86.065
6829.478015817709,86.065
6835.387945040406,161.699
6841.407231460638,-172.131
6847.312939671727,138.226
6853.216558775894,78.241
6859.118089881435,109.538
6865.017534095896,234.724
6871.026143398485,498.136
6876.921377827312,203.427
6882.814528703813,367.734
6888.705597132364,46.945
6894.594584216582,-545.081
6900.592544785228,255.588
6906.477333270021,357.302
6912.360043737404,-187.779
6918.240677287846,156.482
6924.119235021055,166.915
6929.995718035963,-5.216
6935.870127430717,505.96
6941.742464302697,-216.467
6947.6127297485,-148.658
6953.480924863958,135.618
6959.347050744116,302.533
6965.21110848328,-1890.83
6971.073099174937,39.121
6976.93302391185,-75.633
6982.79088378598,206.035
6988.64667988853,237.332
6994.500413309928,239.94
7000.35208513985,-86.065
7006.201696467178,401.638
7012.049248380063,649.402
7017.894741965851,612.89
7023.738178311156,169.523
7029.579558501813,404.246
7035.418883622879,161.699
7041.2561547586665,578.985
7047.091372992727,159.091
7052.924539407839,310.357
7058.645653010426,-57.377
7064.474757695687,258.196
7070.301813785409,62.593
7076.126822359336,114.754
7081.949784496486,-146.05
7087.660891581778,453.799
7093.479802640664,-109.538
7099.296670474898,385.99
7105.111496160462,177.347
7110.814624476749,485.096
7116.625407570507,-75.633
7122.434151718757,331.221
7128.2408579944895,-73.025
7133.936024250346,44.337
7139.73869639702,187.779
7145.53933386541,-169.523
7151.22854892195,526.824
7157.025158582874,372.95
7162.819736753059,125.186
7168.503009933542,-41.729
7174.293566604632,568.553
7180.082094965896,234.724
7185.759435574095,281.668
7191.54394873148,260.804
7197.2173519438,-109.538
7202.997854073568,550.297
7208.667323984642,670.267
7214.443819257263,130.402
7220.109359956041,331.221
7225.881852536215,226.9
7231.54346810597,646.794
7237.311962152613,685.915
7242.969656670975,445.975
7248.734156337254,589.417
7254.387933876205,503.352
7260.148443309525,785.02
7265.798307935409,28.688
7271.554831277448,164.307
7277.20078705097,93.889
7282.953328437674,519.0
7288.59537941395,425.111
7294.235498085545,88.673
7299.982093204053,-192.995
7305.618313131272,239.94
7311.252603748333,610.282
7316.993261813666,597.241
7322.623659726734,498.136
7328.252131317968,237.332
7333.9868615261075,406.854
7339.611446441268,-7.824
7345.234108016753,135.618
7350.962919544712,401.638
7356.581700459581,-203.427
7362.198561010817,-234.724
7367.813502182726,417.287
7373.426524958988,-52.161
7379.145517410223,305.141
7384.7546694986595,331.221
7390.361906157261,485.096
7395.967228366993,18.256
7401.570637108154,-93.889
7407.279835705631,229.508
7412.879383697611,346.869
7418.477021176703,252.98
7424.072749120482,-119.97
7429.666568505905,-41.729
7435.258480309247,1155.362
7440.848485506111,738.076
7446.436585071431,-187.779
7452.022779979503,326.005
7457.607071203925,-388.598
7463.296794702215,198.211
7468.877244915177,735.468
7474.455794380043,401.638
7480.032444067743,451.191
7485.607194948596,730.252
7491.18004799222,86.065
7496.751004167574,1056.257
7502.2129850032,125.186
7507.7801867781745,86.065
7513.345494569261,341.653
7518.908909342786,195.603
7524.470432064445,427.719
7530.03006369928,401.638
7535.587805211653,701.563
7541.1436575652915,362.518
7546.697621723266,96.498
7552.249698647978,461.623
7557.693172648,602.458
7563.241514237732,-62.593
7568.787971459049,539.865
7574.332545271769,-156.482
7579.87523663506,714.603
7585.416046507413,125.186
7590.848475703144,252.98
7596.385561603231,299.925
7601.920768865631,93.889
7607.454098446255,279.06
7612.879194899509,195.603
7618.4088080453,-39.121
7623.936546354853,495.528
7629.462410781522,169.523
7634.880189328982,662.442
7640.402344837916,-78.241
7645.9226293018255,365.126
7651.334937948188,143.442
7656.851519109852,-174.739
7662.260197498763,232.116
7667.773079083498,599.85
7673.284094334183,192.995
7678.687316594296,138.226
7684.194637864675,391.206
7689.7000956236625,474.664
7695.097870006797,362.518
7700.599639370841,500.744
7705.993798107356,-250.372
7711.491882781789,505.96
7716.882429503323,539.865
7722.376833188511,117.362
7727.763771521855,266.02
7733.254497913214,-33.905
7738.637831480286,472.055
7744.124884268305,59.985
7749.504616686187,745.9
7754.987999556393,109.538
7760.364134437317,459.015
7765.738489349154,805.885
7771.216392021717,326.005
7776.587154788423,148.658
7782.061396717661,323.397
7787.428570939446,573.769
7792.793969640064,1009.312
7798.262745065967,-555.513
7803.624560595526,-153.874
7808.984603262106,67.809
7814.447920368751,1794.332
7819.804385227417,409.462
7825.159079875983,133.01
7830.616946831127,464.231
7835.968069024231,-127.794
7841.317423654822,211.251
7846.665011598543,349.478
7852.115636126822,255.588
7857.459658723532,339.045
7862.801917273948,370.342
7868.142412651388,388.598
7873.481145728587,594.633
7878.922746278997,709.387
7884.257922859626,816.317
7889.59133977185,565.945
7894.922997886111,406.854
7900.252898072242,-36.513
7905.581041199541,-20.864
7910.907428136696,505.96
7916.336446752692,349.478
7921.65928952102,135.618
7926.980378718883,-65.201
7932.29971521271,555.513
7937.617299868325,701.563
7942.933133550996,273.844
7948.247217125423,192.995
7953.559551455743,466.839
7958.870137405502,57.377
7964.178975837705,122.578
7969.486067614758,344.261
7974.791413598527,459.015
7980.0950146503055,354.694
7985.396871630804,185.171
7990.696985400187,459.015
7995.995356818043,83.457
8001.291986743403,-31.296
8006.586876034729,286.885
8011.880025549901,161.699
8017.067699705829,563.337
8022.357406311574,130.402
8027.645375694708,524.216
8032.931608710882,-226.9
8038.216106215201,67.809
8043.498869062179,153.874
8048.779898105804,383.382
8053.955695240969,-359.91
8059.233293192043,399.03
8064.509159881611,-305.141
8069.783296161415,161.699
8074.952338977277,550.297
8080.223050878609,203.427
8085.492034905405,172.131
8090.759291907168,86.065
8095.921593616502,565.945
8101.185432936367,320.789
8106.447547759821,396.422
8111.604810570996,46.945
8116.863512715307,15.648
8122.120492886879,432.935
8127.272724173963,813.709
8132.526296659391,466.839
8137.778149690843,5.216
8142.925356813517,610.282
8148.173807142077,93.889
8153.4205405305,-224.292
8158.562730834117,177.347
8163.806066493191,-101.714
8168.944927307508,526.824
8174.184868536668,1212.739
8179.32040309432,268.628
8184.55695318873,135.618
8189.689164718173,-10.432
8194.922326968728,419.895
8200.051218694258,245.156
8205.280996387602,464.231
8210.406571529322,393.814
8215.632967947844,166.915
8220.7552297217,430.327
8225.978248143558,443.367
8231.097199761349,568.553
8236.316843460441,-787.628
8241.43248812982,680.699
8246.546496881761,430.327
8251.76110130029,234.724
8256.871807891675,385.99
8261.98088093357,229.508
8267.190453365733,365.126
8272.296229025691,485.096
8277.400373499535,164.307
8282.604921225458,412.071
8287.705773086778,383.382
8292.804996120794,610.282
8298.004526406577,422.503
8303.100461588281,435.543
8308.194770296956,1275.332
8313.28745331115,31.296
8318.48031600209,135.618
8323.569717486189,237.332
8328.657495624051,174.739
8333.743651192239,86.065
8338.828184966831,-552.905
8344.012739449463,438.151
8349.093999566121,526.824
8354.17364022991,881.518
8359.251662214898,130.402
8364.328066294685,10.432
8369.402853242376,-229.508
8374.476023830553,839.789
8379.547578831349,-122.578
8384.718901354245,782.412
8389.787195221597,344.261
8394.853875830348,709.387
8399.91894395064,268.628
8404.98240035212,399.03
8410.044245803958,-521.608
8415.104481074803,281.668
8420.163106932847,751.116
8425.220124145773,219.075
8430.275533480788,312.965
8435.32933570461,67.809
8440.381531583458,-114.754
8445.432121883085,727.644
8450.48110736873,226.9
8455.528488805172,305.141
8460.473367100913,312.965
8465.51757477424,393.814
8470.560180674485,104.322
8475.601185564497,-125.186
8480.64059020661,159.091
8485.67839536271,798.061
8490.714601794163,242.548
8495.749210261878,985.84
8500.681576948675,722.427
8505.713023691114,641.578
8510.742874734438,-109.538
8515.771130837642,464.231
8520.797792759218,-323.397
8525.722375497866,743.292
8530.745883175656,477.272
8535.7677989293,-46.945
8540.788123515384,263.412
8545.706498587671,404.246
8550.723674892208,200.819
8555.739262280982,-26.08
8560.652997083213,86.065
8565.665440644778,237.332
8570.676297538128,505.96
8575.585398634048,318.181
8580.593116146138,-119.97
8585.599249233324,31.296
8590.503723174297,213.859
8595.506721317797,837.181
8600.508137275468,346.869
8605.40799060051,404.246
8610.406276043708,445.975
8615.303062904772,245.156
8620.298220771765,65.201
8625.191944046568,871.086
8630.18397727198,388.598
8635.074639834631,318.181
8640.063551349394,341.653
8644.951156070434,370.342
8649.936948801806,315.573
8654.821498548154,511.176
8659.804175419777,185.171
8664.685673054784,281.668
8669.665236986599,211.251
8674.543685370048,271.236
8679.520139278378,709.387
8684.395541266465,-83.457
8689.2694364983,109.538
8694.241246509358,26.08
8699.112099609058,521.608
8703.981448060618,273.844
8708.948620671701,-221.684
8713.81493124642,654.618
8718.779005433622,638.741
8723.642280973501,638.741
8728.504055374753,638.741
8733.364329332315,638.741
8738.32224658698,638.741
8743.179491154478,638.741
8748.035237374625,638.741
8752.889485940628,638.741
8757.8412577103,638.741
8762.692482517024,638.741
8767.542211760752,638.741
8772.39044613298,638.741
8777.336083836857,638.741
8782.18130006664,638.741
8787.02502351089,638.741
8791.867254859393,638.741
8796.707994801498,638.741
8801.547244026118,638.741
8806.385003221756,638.741
8811.319956958603,638.741
8816.154707786565,638.741
8820.987970662514,638.741
8825.819746273257,638.741
8830.650035305174,638.741
8835.478838444196,638.741
8840.306156375878,638.741
8845.131989785303,638.741
8849.956339357173,638.741
8854.779205775758,638.741
8859.60058972489,638.741
8864.420491888006,638.741
8869.238912948098,638.741
8874.055853587757,638.741
8878.871314489159,587.015
8883.685296334032,498.138
8888.497799803714,403.266
8893.308825579123,333.546
8898.118374340735,320.127
8902.926446768637,394.166
8907.634964476681,586.809
8912.440116370435,738.076
8917.243793954342,328.613
8922.045997906822,268.628
8926.846728905857,638.97
8931.645987629043,1317.061
8936.443774753548,505.96
8941.142221650607,1225.779
8945.937097605834,336.437
8950.73050397759,219.075
8955.522441441404,777.196
8960.215160665939,213.859
8965.004192282166,5.216
8969.791757000756,1048.433
8974.577855495572,198.211
8979.26485751475,868.478
8984.048055470721,333.829
8988.829789208343,683.307
8993.51251749025,406.854
8998.291354655303,320.789
9003.068729603765,831.965
9007.747189991118,357.302
9012.521672326067,537.257
9017.294694442531,440.759
9021.968892767374,59.985
9026.739026222178,185.171
9031.41039612206,-985.84
9036.17764353675,226.9
9040.943434050514,224.292
9045.610551571128,-65.201
9050.373459984672,735.468
9055.037755503963,263.412
9059.797784430888,516.392
9064.45926050758,391.206
9069.216412558366,352.086
9073.87507174812,352.086
9078.629349530078,521.608
9083.285194385431,811.101
9088.036600502714,331.221
9092.689633573158,667.659
9097.438170626783,153.874
9102.088394458704,435.543
9106.73722909284,-86.065
9111.481482183284,378.166
9116.12751137963,539.865
9120.868901881862,326.005
9125.512128179163,0.0
9130.153968412898,685.915
9134.891084617178,440.759
9139.53012574118,18.256
9144.167782675046,456.407
9148.9006303586,599.85
9153.535491965213,505.96
9158.168971251744,589.417
9162.801068836525,487.704
9167.528243916331,665.051
9172.157551197888,983.232
9176.785478643267,406.854
9181.412026869286,13.04
9186.13353953768,670.267
9190.757302472506,203.427
9195.37968804908,237.332
9200.000696882766,1131.89
9204.620329588544,1043.217
9209.334785850184,260.804
9213.951639506451,430.327
9218.567118890363,432.935
9223.181224615444,341.653
9227.79395729483,286.885
9232.40531754132,586.809
9237.015305967328,344.261
9241.623923184923,513.784
9246.23116980579,740.684
9250.932987640888,-164.307
9255.537466379788,1051.041
9260.140576367572,610.282
9264.742318214474,289.493
9269.342692530376,706.779
9273.941699924766,451.191
9278.539341006806,787.628
9283.135616385269,834.573
9287.730526668583,508.568
9292.324072464791,498.136
9296.91625438162,352.086
9301.411444872112,211.251
9306.00092923447,247.764
9310.589051525738,826.749
9315.175812352172,839.789
9319.761212319692,678.091
9324.345252033823,305.141
9328.927932099774,652.01
9333.509253122353,438.151
9338.08921570604,-18.256
9342.572446701386,224.292
9347.149722488744,239.94
9351.7256416359,70.417
9356.300204745894,328.613
9360.873412421412,203.427
9365.350032145325,310.357
9369.920558965528,372.95
9374.489732144635,1382.262
9379.05755228394,-127.794
9383.528899030936,352.086
9388.09404305015,294.709
9392.657835818722,646.794
9397.125240831178,406.854
9401.6863610176,492.92
9406.246131739394,247.764
9410.80455359534,23.472
9415.266701898625,1442.247
9419.822455888205,519.0
9424.281993052333,652.01
9428.835081516963,294.709
9433.38682407955,383.382
9437.84243511156,268.628
9442.391515668474,213.859
9446.84452129656,526.824
9451.390942182352,623.322
9455.93602012123,419.895
9460.385108237591,419.895
9464.927530014324,341.653
9469.374018445214,151.266
9473.913786387537,13.04
9478.35767741084,164.307
9482.894793843763,474.664
9487.33608973474,276.452
9491.87055698055,399.03
9496.30926001177,459.015
9500.74668109923,766.764
9505.277192831463,466.839
9509.71202445114,281.668
9514.23989277796,730.252
9518.672137195834,352.086
9523.103102466685,631.146
9527.62702390948,445.975
9532.05540536064,341.653
9536.57668916292,192.995
9541.002489053764,555.513
9545.42701258622,461.623
9549.850260312329,260.804
9554.36630345335,164.307
9558.78697410632,-774.588
9563.206370618926,-1337.925
9567.718482324255,508.568
9572.13530512818,177.347
9576.550855454823,672.875
9580.965133854,1509.849
9585.47202083257,2255.707
9589.883729992052,2876.847
9594.294168883298,3339.665
9598.703338054846,3610.56
9603.111238054931,3655.937
9607.611613766734,3442.19
9612.016950092931,2935.718
9616.421018902103,2102.926
9620.823820741218,910.206
9625.225356156909,-41.729
9629.625625695517,779.804
9634.02462990307,532.04
9638.422369325252,412.071
9642.81884450748,-2.608
9647.21405599481,805.885
9651.701478874824,938.895
9656.094137748323,31.296
9660.485534571855,743.292
9664.875669889248,237.332
9669.264544244,845.005
9673.65215817932,526.824
9678.03851223808,560.729
9682.423606962846,169.523
9686.807442895892,586.809
9691.19002057915,524.216
9695.478134071804,745.9
9699.858223622705,519.0
9704.23705653629,294.709
9708.614633353289,479.88
9712.990954614088,490.312
9717.36602085878,904.99
9721.739832627154,519.0
9726.112390458671,396.422
9730.483694892511,422.503
9734.760779687776,393.814
9739.129605581998,232.116
9743.497179682729,665.051
9747.863502527893,792.845
9752.228574655115,1470.935
9756.499562339395,1682.187
9760.862161224974,698.955
9765.223510992222,294.709
9769.583612177565,717.211
9773.849736751828,1030.5
9778.207368918504,1044.884
9782.563754099236,848.596
9786.918892829211,529.871
9791.18016259473,176.938
9795.532836519418,-121.97
9799.884265585692,-278.619
9804.14190615754,-204.78
9808.490873566669,187.779
9812.83859770701,740.684
9817.09261371952,539.865
9821.437879345483,-284.277
9825.689490172908,101.714
9830.032299369228,127.794
9834.373867936378,438.151
9838.621861899856,346.869
9842.960977171238,672.875
9847.206571054325,563.337
9851.543235108787,232.116
9855.786430944943,-10.789
9860.12064585897,-120.236
9864.361445679362,-128.11
9868.693213527116,-66.302
9872.931619360628,33.297
9877.26094221391,138.797
9881.49695608711,218.306
9885.823836015392,239.94
9890.057459952584,318.181
9894.289902518456,732.86
9898.613135046206,229.508
9902.843190697367,292.101
9907.163985452502,555.513
9911.391656207565,565.945
9915.61814808206,370.342
9919.935303126713,409.462
9924.15941311792,453.799
9928.38234571751,615.498
9932.695865648708,532.04
9936.91641937277,1178.835
9941.135797191648,443.367
9945.445686598703,685.915
9949.662688544726,774.588
9953.878516069532,7.824
9958.09316966365,153.874
9962.398234183594,698.955
9966.61051589339,333.829
9970.821625153134,1006.704
9975.031562452265,284.277
9979.240328279942,388.598
9983.53937957713,388.598
9987.745778488254,307.749
9991.95100740443,86.065
9996.155066813732,169.523
10000.357957203963,198.211
10004.55967906266,396.422
10008.760232877092,466.839
10013.050897176752,354.694
10017.249090997648,31.296
10021.446118245014,203.427
10025.641979405023,732.86
10029.83667496358,453.799
10034.03020540632,323.397
10038.222571218605,646.794
10042.413772885537,490.312
10046.603810891938,824.141
10050.79268572236,1345.749
10054.980397861098,560.729
10059.16694779218,380.774
10063.352335999334,576.377
10067.536562966066,672.875
10071.719629175575,417.287
10075.90153511081,727.644
10080.082281254454,466.839
10084.26186808891,430.327
10088.440296096323,459.015
10092.52676786215,372.95
10096.702904826674,26.08
10100.877884398516,547.689
10105.051707058765,453.799
10109.224373288234,683.307
10113.395883567471,323.397
10117.475590772649,589.417
10121.64481569536,242.548
10125.812886097472,-127.794
10129.979802458443,526.824
10134.145565257517,385.99
10138.219652237512,1254.468
10142.383134400929,294.709
10146.545464428116,547.689
10150.706642797257,250.372
10154.776246850048,563.337
10158.935148346747,-83.457
10163.092899607942,526.824
10167.159152430871,326.005
10171.314629631466,192.995
10175.468958016776,114.754
10179.531863747628,505.96
10183.683920879565,13.04
10187.834830614069,706.779
10191.894393383842,594.633
10196.043034667582,148.658
10200.190529969435,378.166
10204.246753902304,187.779
10208.391983551395,529.432
10212.44599199288,396.422
10216.588957845182,711.995
10220.640752609928,618.106
10224.781456519388,628.538
10228.831039420063,383.382
10232.969483238625,393.814
10237.016856085897,289.493
10241.15304166346,508.568
10245.19820626604,284.277
10249.332135450502,529.432
10253.375093615126,286.885
10257.506768252357,417.287
10261.547521783785,936.287
10265.58718577827,67.809
10269.715494418666,696.347
10273.752956473523,790.237
10277.87901516247,326.005
10281.91427707755,657.226
10285.948451675904,206.035
10290.0711512271,795.453
10294.10312837192,605.066
10298.13401952729,980.624
10302.253364041218,459.015
10306.282060424935,508.568
10310.309672144327,824.141
10314.425665714796,691.131
10318.451085340042,435.543
10322.475421623927,-44.337
10326.498675003731,305.141
10330.610215200984,75.633
10334.631280043344,346.869
10338.651263301725,15.648
10342.670165412448,432.935
10346.687986811625,-229.508
10350.704727935088,182.563
10354.80961387438,529.432
10358.824171771252,824.141
10362.837650708272,315.573
10366.850051120337,511.176
10370.86137344214,592.025
10374.871618108127,607.674
10378.880785552512,344.261
10382.888876209276,242.548
10386.984923052532,678.091
10390.990837530662,440.759
10394.995676531347,831.965
10398.999440487634,472.055
10403.00212983234,477.272
10407.003744998048,589.417
10411.004286417105,578.985
10415.003754521616,-159.091
10419.002149743475,315.573
10422.999472514348,638.97
10426.995723265634,571.161
10430.990902428544,284.277
10434.985010434026,482.488
10438.889325180557,190.387
10442.881315942828,229.508
10446.872236829608,576.377
10450.86208827093,161.699
10454.85087069661,704.171
10458.838584536235,479.88
10462.82523021915,487.704
10466.810808174472,365.126
10470.706785742112,404.246
10474.690253232264,409.462
10478.672654271297,524.216
10482.653989287404,276.452
10486.634258708573,597.241
10490.525047770485,511.176
10494.50321094102,333.829
10498.480309789697,93.889
10502.45634474356,396.422
10506.342995080442,140.834
10510.316927143493,5.216
10514.2897965821,-106.93
10518.261603822417,563.337
10522.144122034457,-318.181
10526.113829736623,599.85
10530.082476508169,785.02
10533.961905709137,459.015
10537.92845544769,539.865
10541.89394552126,573.769
10545.770289396216,592.025
10549.733684937964,179.955
10553.607981637546,273.844
10557.569284306495,432.935
10561.52952941227,49.553
10565.400746905443,589.417
10569.35890163298,558.121
10573.22807600992,91.281
10577.184142013864,469.447
10581.05127489159,331.221
10585.005253824836,782.412
10588.87034681866,526.824
10592.822240332363,511.176
10596.685295055897,573.769
10600.635104799476,-31.296
10604.496122864624,1017.136
10608.443850485746,560.729
10612.302833502728,401.638
10616.160811022752,451.191
10620.10543022464,15.648
10623.9613750996,109.538
10627.903916281392,-93.889
10631.757830117263,370.342
10635.61074043666,297.317
10639.550179321655,782.412
10643.401060998756,842.397
10647.250940343372,602.458
10651.187280591832,346.869
10655.035133687184,-169.523
10658.881985632182,946.719
10662.815230898605,396.422
10666.660058983602,130.402
10670.50388709854,292.101
10674.346715633475,331.221
10678.275847672114,247.764
10682.116655520924,117.362
10685.956464967534,341.653
10689.795276401208,701.563
10693.633090210977,477.272
10697.557095575656,555.513
10701.39289265285,-354.694
10705.227693280882,599.85
10709.061497847986,362.518
10712.894306742182,565.945
10716.726120351308,-130.402
10720.55693906298,-268.628
10724.386763264632,519.0
10728.302600658342,-80.849
10732.130414421008,62.593
10735.957234843503,-182.563
10739.783062312445,-182.563
10743.60789721425,-339.045
10747.431739935131,-117.362
10751.254590861114,-127.794
10755.076450378,-359.91
10758.897318871408,503.352
10762.717196726757,-443.367
10766.536084329256,-380.774
10770.353982063916,490.312
10774.170890315563,425.111
10777.98680946881,432.935
10781.801739908076,57.377
10785.615682017564,36.513
10789.341989100834,597.241
10793.153978142976,581.593
10796.964979998098,492.92
10800.774995049622,795.453
10804.58402368077,252.98
10808.392066274577,83.457
10812.199123213884,161.699
10816.005194881312,474.664
10819.723813349112,164.307
10823.52793799081,151.266
10827.331078498672,-419.895
10831.133235254529,-169.523
10834.848029253728,245.156
10838.64824198676,-469.447
10842.447472103491,-143.442
10846.24571998498,539.865
10849.956695412544,148.658
10853.753002267928,-349.478
10857.548328021428,612.89
10861.342673053316,641.578
10865.049835794096,443.367
10868.842242790466,290.489
10872.63367019626,202.608
10876.337982712816,161.008
10880.12747431772,146.974
10883.82989575329,141.791
10887.617453039476,126.74
10891.404032613404,83.108
10895.103609289945,-7.824
10898.88825677408,-96.498
10902.585945994537,5.216
10906.368662867266,15.648
10910.150403901262,328.613
10913.845253813895,75.633
10917.62506645972,-46.945
10921.318032531915,23.472
10925.095918264182,-474.664
10928.787001936307,26.08
10932.562962228116,172.131
10936.252164939066,258.196
10939.940438510435,-419.895
10943.713524449233,-419.895
10947.399919206764,-28.688
10951.171083372872,250.372
10954.855600751816,159.091
10958.62484461311,362.518
10962.307486047235,252.98
10965.989200819247,54.769
10969.755577991731,-268.628
10973.435418958636,-62.593
10977.114334320191,15.648
10980.877848072992,-140.834
10984.554891765896,185.171
10988.231010908596,292.101
10991.991664505884,234.724
10995.665914113146,542.473
10999.33924022374,83.457
11003.011643185791,730.252
11006.768495629847,133.01
11010.439031890255,-31.296
11014.108646053544,-938.895
11017.777338467138,419.895
11021.530395518184,2.608
11025.197224058184,127.794
11028.863131897786,156.482
11032.528119383707,78.241
11036.192186862492,391.206
11039.855334680517,-36.513
11043.602720353196,96.498
11047.264008520897,-260.804
11050.924378073953,422.503
11054.58382935806,333.829
11058.242362718707,-101.714
11061.899978501227,276.452
11065.556677050785,-281.668
11069.21245871235,-23.472
11072.867323830738,268.628
11076.521272750586,148.658
11080.174305816368,-459.015
11083.826423372368,-151.266
11087.477625762698,49.553
11091.127913331318,299.925
11094.777286422,80.849
11098.425745378345,292.101
11102.073290543767,-203.427
11105.719922261547,-109.538
11109.36564087477,365.126
11113.010446726335,-93.889
11116.654340159006,576.377
11120.29732151534,445.975
11123.93939113774,250.372
11127.580549368427,-62.593
11131.22079654947,-33.905
11134.77550763161,-289.493
11138.413954906267,221.684
11142.051492148485,104.322
11145.688119699626,380.774
11149.323837900913,187.779
11152.958647093375,177.347
11156.508048620988,-346.869
11160.141061938251,130.402
11163.773167260852,-78.241
11167.40436492916,-133.01
11170.950240228543,177.347
11174.579644697213,459.015
11178.208142523734,292.101
11181.751381744987,148.658
11185.378088371155,-109.538
11189.003889365817,232.116
11192.628785068173,-133.01
11196.16850723805,179.955
11199.79161440632,696.347
11203.413817290922,281.668
11206.950910239968,234.724
11210.571326582844,-461.623
11214.10667518314,326.005
11217.725306305692,161.699
11221.343034819707,-73.025
11224.875759069631,-138.226
11228.49170435076,273.844
11232.022687482247,219.075
11235.636850848638,-49.553
11239.166094148528,-41.729
11242.778476917028,-5.216
11246.305981670925,-62.593
11249.91658515709,-20.864
11253.442352649325,-326.005
11257.05117816741,886.734
11260.575209681025,805.885
11264.182258544,302.533
11267.704555360804,336.437
11271.309828880325,292.101
11274.83039228086,-23.472
11278.350099642112,344.261
11281.952723030843,315.573
11285.470698886753,482.488
11288.987819646914,-229.508
11292.587795825824,-54.769
11296.103186988752,-109.538
11299.70139304264,-174.739
11303.215055883851,435.543
11306.727865201254,-239.94
11310.23982130582,396.422
11313.834511810855,357.302
11317.34474212601,425.111
11320.8541201677,-28.688
11324.446172200132,216.467
11327.953826352135,438.151
11331.460629168672,490.312
11334.96658095964,70.417
11338.471682034791,-237.332
11342.059356881087,284.277
11345.562737216636,427.719
11349.06526777208,276.452
11352.566948856567,86.065
11356.067780779093,140.834
11359.56776384851,-258.196
11363.1502007606,258.196
11366.648466857394,18.256
11370.145885034064,221.684
11373.642455598843,36.513
11377.138178859836,-385.99
11380.633055125,393.814
11384.1270847021,143.442
11387.620267898808,-52.161
11391.112605022612,138.226
11394.60409638087,370.342
11398.094742280777,203.427
11401.584543029392,-28.688
11405.073498933603,70.417
11408.561610300185,-448.583
11412.048877435727,-2.608
11415.5353006467,195.603
11419.020880239405,-198.211
11422.505616520008,328.613
11425.989509794525,-198.211
11429.472560368817,159.091
11432.954768548592,-161.699
11436.43613463944,109.538
11439.916658946764,-224.292
11443.313501961433,-485.096
11446.79236364179,-169.523
11450.270384446749,-119.97
11453.74756468115,-474.664
11457.22390464968,112.146
11460.699404656869,-401.638
11464.091344754375,109.538
11467.565185732994,13.04
11471.038187655771,266.02
11474.51035082668,-78.241
11477.981675549512,920.639
11481.369541233144,31.296
11484.839209915755,-140.834
11488.30804105362,-399.03
11491.693473394258,305.141
11495.16065027576,-135.618
11498.626990514544,242.548
11502.092494413417,-445.975
11505.474679896604,276.452
11508.938531918346,2756.7
11512.401548500471,539.865
11515.78130675673,323.397
11519.242673239612,-99.106
11522.620821260369,-153.874
11526.080538823127,333.829
11529.5394224415,23.472
11532.915147579475,701.563
11536.372384051368,78.241
11539.74650183491,187.779
11543.202092336618,-31.296
11546.574603913472,99.106
11550.028549620163,-117.362
11553.399456136987,-46.945
11556.85175822272,39.121
11560.221060825072,281.668
11563.67172046279,73.025
11567.039420295116,88.673
11570.488438656655,-500.744
11573.854536862347,-18.256
11577.301915118398,-297.317
11580.666412839755,-526.824
11584.030120381583,-273.844
11587.475050538147,-39.121
11590.837159300165,-151.266
11594.280452266124,70.417
11597.64096338792,244.707
11601.000685734118,271.888
11604.441534950183,198.096
11607.79966135666,69.48
11611.156999826935,-67.823
11614.59540789372,-167.668
11617.951152122365,-183.914
11621.306109253032,-70.417
11624.66027956261,135.618
11628.09544335218,159.091
11631.44802167594,23.472
11634.799814015252,-52.161
11638.15082064648,151.266
11641.58274474832,266.02
11644.932161645294,-260.804
11648.280793669244,-490.312
11651.62864109602,328.613
11654.975704201344,-537.257
11658.403590030808,-109.538
11661.749066206958,70.417
11665.093758894744,-96.498
11668.43766836938,-391.206
11671.780794905935,-198.211
11675.12313877933,-62.593
11678.4647002644,-91.281
11681.805479635816,-211.251
11685.145477168146,-192.995
11688.484693135812,70.417
11691.904543291126,130.402
11695.24217790648,119.97
11698.579031786354,652.01
11701.915105204676,-119.97
11705.25039843522,-182.563
11708.584911751648,216.467
11711.918645427471,-109.538
11715.251599736104,625.93
11718.502511651865,-169.523
11721.83392703817,232.116
11725.164563870054,-52.161
11728.4944224204,-333.829
11731.823502961994,44.337
11735.15180576744,-503.352
11738.479331109273,-135.618
11741.806079259855,-1416.166
11745.132050491462,357.302
11748.457245076206,378.166
11751.70058915004,-135.618
11755.024250183047,-101.714
11758.34713537819,28.688
11761.669245007088,224.292
11764.990579341233,179.955
11768.230158619372,10.432
11771.549962071174,-83.457
11774.86899103535,-586.809
11778.187245782876,-440.759
11781.423821624776,-232.116
11784.740547618409,226.9
11788.05650020102,5.216
11791.371679643096,-542.473
11794.605256223578,-344.261
11797.91890903626,190.387
11801.231789512534,-59.985
11804.46312397414,-96.498
11807.774479408556,-526.824
11811.085063309589,-1272.724
11814.314157983485,-521.608
11817.623218427994,336.437
11820.850827315822,245.156
11824.158365355152,75.633
11827.4651331948,-404.246
11830.690506166697,135.618
11833.995753182851,735.901
11837.219642936305,1104.333
11840.52337017791,1279.163
11843.745777735792,1298.638
11847.047986250807,1201.0
11850.26891263506,1024.496
11853.569603470474,807.373
11856.789049702087,587.873
11860.088223903953,404.246
11863.30619100298,190.387
11866.603849616356,-164.307
11869.820338601929,99.106
11873.11648267094,41.729
11876.331494561222,-151.266
11879.545777396996,-122.578
11882.839660941268,260.804
11886.052468201013,-352.086
11889.26454715598,-125.186
11892.55617250015,-153.874
11895.766777396242,213.859
11899.056892350098,151.266
11902.26602420178,-636.362
11905.474428998024,10.432
11908.682106985869,328.613
11911.969222890988,93.889
11915.17542984806,-70.417
11918.380910743392,-88.673
11921.66577540321,-391.206
11924.869786778698,172.131
11928.07307283808,680.699
11931.27563382762,-33.905
11934.477469993468,-67.809
11937.758600089848,219.075
11940.95896924119,80.849
11944.158614312782,-195.603
11947.35753555032,-5.216
11950.55573319941,346.869
11953.753207505528,-302.533
11957.029868231695,-39.121
11960.225878519712,-234.724
11963.42116620667,-138.226
11966.615731537608,127.794
11969.809574757444,-127.794
11973.002696111003,-3127.042
11976.195095842992,-172.131
11979.386774197992,148.658
11982.577731420495,143.442
11985.767967754866,-331.221
11988.957483445382,33.905
11992.146278736183,-200.819
11995.334353871312,-119.97
11998.521709094712,106.93
12001.708344650193,-109.538
12004.894260781464,195.603
12008.079457732136,-237.332
12011.2639357457,112.146
12014.44769506553,-54.769
12017.630735934905,-495.528
12020.81305859698,250.372
12023.994663294816,359.91
12027.175550271351,-88.673
12030.27622427429,148.658
12033.455694464548,276.452
12036.634447655608,-185.171
12039.812484089987,-219.075
12042.989804010074,143.442
12046.166407658158,-263.412
12049.26290681064,234.724
12052.4380965329,232.116
12055.612570703324,-555.513
12058.786329563762,-774.588
12061.880055974125,505.96
12065.052402807443,-7.824
12068.224035049663,-185.171
12071.394952942192,328.613
12074.485910333004,31.296
12077.655418093736,-91.281
12080.824212222367,146.05
12083.913099633974,279.06
12087.080485047096,7.824
12090.247157544738,-508.568
12093.333977055809,-331.221
