Raman Shift,Intensity
97.182,16613.0
98.416,16870.0
99.649,17482.0
100.883,18317.0
102.116,18611.0
103.349,19083.0
104.582,19688.0
105.815,19862.0
107.047,20267.0
108.28,20353.0
109.512,20077.0
110.744,19819.0
111.976,19415.0
113.208,19186.0
114.44,19186.0
115.671,18852.0
116.903,18401.0
118.134,18480.0
119.365,18562.0
120.596,18368.0
121.827,18411.0
123.058,18583.0
124.288,18520.0
125.519,18814.0
126.749,18992.0
127.979,19417.0
129.209,19666.0
130.439,20140.0
131.668,20551.0
132.898,20820.0
134.127,21474.0
135.356,21719.0
136.585,22712.0
137.814,22775.0
139.043,23067.0
140.271,22698.0
141.5,22576.0
142.728,22302.0
143.956,21939.0
145.184,21662.0
146.412,21407.0
147.639,21185.0
148.867,20732.0
150.094,20772.0
151.321,20369.0
152.549,20557.0
153.775,20569.0
155.002,20651.0
156.229,20651.0
157.455,20666.0
158.681,20723.0
159.908,20920.0
161.134,21131.0
162.359,21353.0
163.585,21375.0
164.811,21797.0
166.036,21930.0
167.261,22217.0
168.486,22775.0
169.711,23111.0
170.936,23293.0
172.161,23529.0
173.385,24232.0
174.61,24400.0
175.834,24963.0
177.058,25319.0
178.282,25858.0
179.505,26276.0
180.729,26747.0
181.952,26871.0
183.176,27179.0
184.399,27218.0
185.622,26685.0
186.845,26496.0
188.067,25940.0
189.29,25629.0
190.512,24955.0
191.734,24475.0
192.956,24149.0
194.178,23696.0
195.4,23302.0
196.622,23031.0
197.843,22766.0
199.064,22600.0
200.286,22684.0
201.507,22598.0
202.727,22685.0
203.948,22579.0
205.169,22542.0
206.389,22690.0
207.609,22723.0
208.829,22699.0
210.049,22858.0
211.269,22691.0
212.489,22942.0
213.708,23044.0
214.928,23013.0
216.147,23394.0
217.366,23539.0
218.585,23525.0
219.803,23619.0
221.022,24168.0
222.24,24056.0
223.459,24159.0
224.677,24129.0
225.895,24038.0
227.112,24142.0
228.33,23941.0
229.548,23704.0
230.765,23808.0
231.982,23628.0
233.199,23467.0
234.416,23268.0
235.633,23534.0
236.849,23330.0
238.066,23098.0
239.282,23154.0
240.498,22813.0
241.714,22983.0
242.93,22719.0
244.146,22860.0
245.361,22841.0
246.577,22932.0
247.792,22833.0
249.007,22611.0
250.222,22965.0
251.437,22834.0
252.651,22932.0
253.866,22773.0
255.08,22785.0
256.294,22857.0
257.508,23104.0
258.722,23019.0
259.936,23129.0
261.149,22986.0
262.363,23050.0
263.576,23013.0
264.789,23159.0
266.002,23147.0
267.215,23091.0
268.427,23022.0
269.64,23282.0
270.852,23252.0
272.064,23135.0
273.276,23268.0
274.488,23316.0
275.7,23362.0
276.912,23418.0
278.123,23392.0
279.334,23300.0
280.545,23559.0
281.756,23690.0
282.967,23531.0
284.178,23620.0
285.388,23533.0
286.598,23501.0
287.809,23761.0
289.019,23700.0
290.229,23707.0
291.438,23975.0
292.648,23748.0
293.857,23849.0
295.067,23771.0
296.276,23689.0
297.485,23688.0
298.693,23974.0
299.902,24013.0
301.111,24093.0
302.319,23926.0
303.527,24140.0
304.735,24161.0
305.943,24092.0
307.151,24270.0
308.358,24253.0
309.566,24065.0
310.773,24160.0
311.98,24337.0
313.187,24131.0
314.394,24447.0
315.601,24271.0
316.807,24408.0
318.013,24328.0
319.22,24422.0
320.426,24342.0
321.631,24507.0
322.837,24307.0
324.043,24412.0
325.248,24736.0
326.454,24617.0
327.659,24678.0
328.864,24947.0
330.068,24542.0
331.273,24802.0
332.478,24876.0
333.682,24569.0
334.886,24752.0
336.09,24771.0
337.294,24840.0
338.498,24962.0
339.701,24798.0
340.905,24866.0
342.108,25000.0
343.311,25059.0
344.514,25066.0
345.717,24978.0
346.92,25023.0
348.122,25048.0
349.324,25274.0
350.527,25289.0
351.729,25123.0
352.931,25295.0
354.132,25293.0
355.334,25472.0
356.535,25489.0
357.737,25297.0
358.938,25672.0
360.139,25479.0
361.34,25571.0
362.54,25587.0
363.741,25577.0
364.941,25543.0
366.141,25619.0
367.341,25707.0
368.541,25792.0
369.741,25801.0
370.94,25920.0
372.14,25815.0
373.339,25790.0
374.538,25835.0
375.737,25756.0
376.936,25900.0
378.135,25874.0
379.333,25841.0
380.531,25902.0
381.73,25882.0
382.928,26002.0
384.126,25973.0
385.323,26052.0
386.521,26007.0
387.718,25930.0
388.916,26095.0
390.113,26153.0
391.31,26248.0
392.506,26289.0
393.703,26319.0
394.9,26258.0
396.096,26394.0
397.292,26383.0
398.488,26510.0
399.684,26299.0
400.88,26308.0
402.075,26488.0
403.271,26503.0
404.466,26493.0
405.661,26691.0
406.856,26756.0
408.051,26548.0
409.245,26788.0
410.44,26761.0
411.634,26512.0
412.828,26637.0
414.022,26806.0
415.216,26915.0
416.41,26884.0
417.603,26755.0
418.797,26833.0
419.99,26703.0
421.183,26968.0
422.376,26867.0
423.569,26882.0
424.761,26876.0
425.954,26872.0
427.146,27068.0
428.338,27087.0
429.53,26984.0
430.722,27170.0
431.914,27219.0
433.105,27344.0
434.297,27195.0
435.488,27390.0
436.679,27127.0
437.87,27319.0
439.061,27006.0
440.251,27347.0
441.442,27379.0
442.632,27427.0
443.822,27646.0
445.012,27385.0
446.202,27433.0
447.391,27469.0
448.581,27525.0
449.77,27636.0
450.96,27562.0
452.149,27446.0
453.337,27699.0
454.526,27626.0
455.715,27746.0
456.903,27654.0
458.091,27750.0
459.28,27768.0
460.467,27646.0
461.655,27599.0
462.843,27840.0
464.03,27914.0
465.218,28063.0
466.405,28103.0
467.592,27780.0
468.779,27963.0
469.965,28056.0
471.152,28082.0
472.338,28197.0
473.525,28176.0
474.711,28245.0
475.897,28039.0
477.082,28063.0
478.268,28048.0
479.454,28532.0
480.639,28415.0
481.824,28231.0
483.009,28319.0
484.194,28527.0
485.378,28394.0
486.563,28455.0
487.747,28565.0
488.932,28565.0
490.116,28319.0
491.3,28333.0
492.483,28806.0
493.667,28531.0
494.85,28417.0
496.034,28627.0
497.217,28784.0
498.4,28669.0
499.582,28897.0
500.765,28751.0
501.948,28609.0
503.13,29098.0
504.312,28754.0
505.494,28556.0
506.676,28988.0
507.858,28702.0
509.039,28971.0
510.221,28923.0
511.402,29042.0
512.583,29050.0
513.764,29162.0
514.945,29217.0
516.125,29086.0
517.306,29222.0
518.486,29020.0
519.666,29040.0
520.846,29126.0
522.026,29131.0
523.206,29303.0
524.385,29247.0
525.565,29426.0
526.744,29508.0
527.923,29390.0
529.102,29407.0
530.281,29497.0
531.459,29553.0
532.638,29609.0
533.816,29594.0
534.994,29580.0
536.172,29484.0
537.35,29686.0
538.527,29890.0
539.705,29502.0
540.882,29903.0
542.059,29679.0
543.236,29748.0
544.413,29679.0
545.59,29723.0
546.766,29687.0
547.943,29896.0
549.119,29828.0
550.295,29890.0
551.471,29847.0
552.647,30064.0
553.822,29766.0
554.998,30077.0
556.173,30139.0
557.348,30191.0
558.523,29933.0
559.698,30263.0
560.873,30179.0
562.047,30276.0
563.222,30087.0
564.396,30299.0
565.57,30149.0
566.744,30609.0
567.917,30351.0
569.091,30445.0
570.264,30305.0
571.438,30575.0
572.611,30460.0
573.784,30479.0
574.957,30618.0
576.129,30385.0
577.302,30573.0
578.474,30535.0
579.646,30911.0
580.818,30735.0
581.99,30604.0
583.162,30508.0
584.333,30654.0
585.504,30654.0
586.676,30716.0
587.847,30758.0
589.018,30804.0
590.188,30995.0
591.359,31034.0
592.529,31049.0
593.7,30919.0
594.87,30896.0
596.04,30962.0
597.209,31173.0
598.379,31150.0
599.549,30951.0
600.718,31198.0
601.887,31039.0
603.056,30921.0
604.225,31162.0
605.394,31209.0
606.562,31186.0
607.73,31306.0
608.899,31226.0
610.067,31409.0
611.235,31556.0
612.402,31215.0
613.57,31086.0
614.737,31367.0
615.905,31569.0
617.072,31468.0
618.239,31638.0
619.406,31473.0
620.572,31363.0
621.739,31496.0
622.905,31673.0
624.071,31652.0
625.237,31802.0
626.403,31699.0
627.569,31529.0
628.734,31785.0
629.9,31853.0
631.065,31808.0
632.23,31863.0
633.395,31902.0
634.56,31983.0
635.724,32054.0
636.889,31692.0
638.053,32019.0
639.217,31770.0
640.381,31887.0
641.545,31931.0
642.708,32213.0
643.872,32190.0
645.035,32225.0
646.198,32407.0
647.361,32082.0
648.524,32415.0
649.687,32410.0
650.849,32088.0
652.012,32317.0
653.174,32312.0
654.336,32262.0
655.498,32347.0
656.66,32269.0
657.821,32376.0
658.983,32485.0
660.144,32501.0
661.305,32350.0
662.466,32409.0
663.627,32536.0
664.787,32501.0
665.948,32327.0
667.108,32602.0
668.268,32668.0
669.428,32685.0
670.588,32568.0
671.748,32763.0
672.907,32945.0
674.067,32780.0
675.226,32831.0
676.385,32917.0
677.544,32906.0
678.703,32894.0
679.861,32759.0
681.02,33081.0
682.178,32891.0
683.336,33027.0
684.494,33179.0
685.652,32975.0
686.809,33192.0
687.967,33210.0
689.124,32980.0
690.281,33234.0
691.438,32955.0
692.595,33324.0
693.752,33105.0
694.908,33107.0
696.065,33198.0
697.221,33480.0
698.377,33359.0
699.533,33319.0
700.688,33279.0
701.844,33476.0
702.999,33463.0
704.155,33638.0
705.31,33666.0
706.465,33304.0
707.619,33575.0
708.774,33414.0
709.929,33582.0
711.083,33706.0
712.237,33454.0
713.391,33500.0
714.545,33872.0
715.698,33808.0
716.852,33710.0
718.005,33609.0
719.158,33732.0
720.311,33677.0
721.464,33922.0
722.617,33939.0
723.77,33909.0
724.922,33799.0
726.074,34038.0
727.226,33788.0
728.378,33950.0
729.53,33911.0
730.681,34163.0
731.833,33880.0
732.984,34010.0
734.135,34225.0
735.286,34278.0
736.437,34067.0
737.588,34071.0
738.738,34216.0
739.888,34233.0
741.039,34199.0
742.189,34351.0
743.338,34375.0
744.488,34422.0
745.638,34304.0
746.787,34442.0
747.936,34577.0
749.085,34648.0
750.234,34681.0
751.383,34490.0
752.531,34653.0
753.68,34805.0
754.828,34642.0
755.976,34814.0
757.124,34725.0
758.272,34693.0
759.419,34851.0
760.567,34889.0
761.714,34758.0
762.861,34653.0
764.008,34797.0
765.155,34993.0
766.302,35259.0
767.448,35049.0
768.595,35001.0
769.741,35108.0
770.887,35045.0
772.033,34830.0
773.178,35245.0
774.324,35273.0
775.469,35152.0
776.614,35173.0
777.759,35217.0
778.904,35304.0
780.049,35357.0
781.194,35178.0
782.338,35338.0
783.482,35500.0
784.626,35582.0
785.77,35391.0
786.914,35627.0
788.058,35345.0
789.201,35773.0
790.345,35647.0
791.488,35449.0
792.631,35686.0
793.773,35836.0
794.916,35836.0
796.059,35554.0
797.201,35723.0
798.343,35812.0
799.485,35782.0
800.627,35521.0
801.769,36105.0
802.91,35718.0
804.052,35904.0
805.193,35810.0
806.334,36029.0
807.475,35965.0
808.616,35860.0
809.756,36003.0
810.897,35952.0
812.037,36199.0
813.177,36031.0
814.317,36146.0
815.457,36077.0
816.596,36118.0
817.736,36320.0
818.875,36056.0
820.014,36236.0
821.153,36311.0
822.292,36331.0
823.431,36385.0
824.569,36462.0
825.707,36465.0
826.846,36603.0
827.984,36306.0
829.122,36614.0
830.259,36809.0
831.397,36520.0
832.534,36776.0
833.671,36581.0
834.808,36685.0
835.945,36572.0
837.082,36946.0
838.219,36798.0
839.355,36907.0
840.491,36641.0
841.627,37049.0
842.763,36922.0
843.899,37132.0
845.035,37098.0
846.17,37216.0
847.306,37063.0
848.441,37269.0
849.576,37212.0
850.71,37179.0
851.845,37227.0
852.98,37271.0
854.114,37343.0
855.248,37144.0
856.382,37520.0
857.516,37393.0
858.65,37099.0
859.783,37578.0
860.917,37267.0
862.05,37470.0
863.183,37523.0
864.316,37567.0
865.448,37370.0
866.581,37541.0
867.713,37566.0
868.846,37599.0
869.978,37805.0
871.11,37778.0
872.241,37597.0
873.373,37629.0
874.505,37776.0
875.636,37837.0
876.767,37740.0
877.898,37723.0
879.029,37796.0
880.159,37825.0
881.29,37851.0
882.42,38000.0
883.55,37733.0
884.68,38120.0
885.81,38057.0
886.94,38269.0
888.069,37925.0
889.199,38254.0
890.328,38266.0
891.457,38403.0
892.586,38128.0
893.714,38480.0
894.843,38272.0
895.971,38254.0
897.1,38433.0
898.228,38571.0
899.356,38256.0
900.483,38330.0
901.611,38513.0
902.738,38516.0
903.866,38575.0
904.993,38394.0
906.12,38760.0
907.246,38506.0
908.373,38617.0
909.5,38427.0
910.626,38869.0
911.752,38720.0
912.878,38626.0
914.004,38811.0
915.129,38733.0
916.255,38934.0
917.38,38913.0
918.505,38772.0
919.63,38954.0
920.755,38930.0
921.88,38850.0
923.004,39207.0
924.129,39002.0
925.253,39008.0
926.377,39347.0
927.501,39302.0
928.625,39526.0
929.748,39372.0
930.872,39102.0
931.995,39273.0
933.118,39325.0
934.241,39344.0
935.364,39433.0
936.486,39383.0
937.609,39571.0
938.731,39624.0
939.853,39473.0
940.975,39486.0
942.097,39419.0
943.218,39953.0
944.34,39573.0
945.461,39796.0
946.582,39636.0
947.703,40097.0
948.824,39663.0
949.945,40266.0
951.065,39862.0
952.186,40209.0
953.306,40046.0
954.426,39862.0
955.546,40154.0
956.665,40001.0
957.785,39991.0
958.904,40239.0
960.023,40186.0
961.142,40217.0
962.261,40459.0
963.38,40342.0
964.499,40386.0
965.617,40498.0
966.735,40130.0
967.853,40565.0
968.971,40332.0
970.089,40468.0
971.207,40696.0
972.324,40473.0
973.441,40581.0
974.558,40554.0
975.675,40392.0
976.792,40525.0
977.909,40835.0
979.025,40739.0
980.141,40974.0
981.258,40923.0
982.374,40782.0
983.489,41101.0
984.605,41147.0
985.72,40888.0
986.836,41187.0
987.951,41138.0
989.066,41200.0
990.181,41089.0
991.295,41219.0
992.41,41287.0
993.524,41130.0
994.639,41287.0
995.753,41311.0
996.866,41209.0
997.98,41336.0
999.094,41664.0
1000.207,41359.0
1001.32,41416.0
1002.433,41505.0
1003.546,41471.0
1004.659,41868.0
1005.772,41886.0
1006.884,41782.0
1007.996,42032.0
1009.108,41721.0
1010.22,41889.0
1011.332,42073.0
1012.444,41816.0
1013.555,41946.0
1014.666,42188.0
1015.777,41996.0
1016.888,42014.0
1017.999,42174.0
1019.11,42290.0
1020.22,42351.0
1021.331,42583.0
1022.441,42374.0
1023.551,42667.0
1024.661,42501.0
1025.77,42557.0
1026.88,42811.0
1027.989,42823.0
1029.098,42466.0
1030.207,42767.0
1031.316,42818.0
1032.425,42953.0
1033.533,42820.0
1034.642,43020.0
1035.75,43223.0
1036.858,43360.0
1037.966,43269.0
1039.073,43231.0
1040.181,43356.0
1041.288,43672.0
1042.396,43578.0
1043.503,44004.0
1044.61,43997.0
1045.716,44236.0
1046.823,44456.0
1047.929,44746.0
1049.036,45145.0
1050.142,45370.0
1051.248,45870.0
1052.353,46500.0
1053.459,47312.0
1054.564,48113.0
1055.67,48737.0
1056.775,49981.0
1057.88,50669.0
1058.985,51489.0
1060.089,52049.0
1061.194,52176.0
1062.298,51926.0
1063.402,51110.0
1064.506,50544.0
1065.61,49260.0
1066.713,48469.0
1067.817,47909.0
1068.92,47080.0
1070.023,46590.0
1071.126,46110.0
1072.229,45846.0
1073.332,45726.0
1074.435,45412.0
1075.537,45007.0
1076.639,45037.0
1077.741,44914.0
1078.843,44888.0
1079.945,44800.0
1081.046,44707.0
1082.148,44758.0
1083.249,44719.0
1084.35,44917.0
1085.451,44524.0
1086.551,44777.0
1087.652,44899.0
1088.752,44891.0
1089.853,44754.0
1090.953,44732.0
1092.053,44928.0
1093.152,44713.0
1094.252,44985.0
1095.351,44861.0
1096.451,45050.0
1097.55,44984.0
1098.649,45055.0
1099.748,44878.0
1100.846,45068.0
1101.945,45257.0
1103.043,45202.0
1104.141,45508.0
1105.239,45051.0
1106.337,45104.0
1107.434,45007.0
1108.532,45361.0
1109.629,45367.0
1110.726,45248.0
1111.823,45338.0
1112.92,45175.0
1114.017,45467.0
1115.113,45529.0
1116.21,45485.0
1117.306,45454.0
1118.402,45597.0
1119.498,45407.0
1120.593,46085.0
1121.689,45641.0
1122.784,45902.0
1123.879,45927.0
1124.974,45990.0
1126.069,46037.0
1127.164,46001.0
1128.259,46044.0
1129.353,45877.0
1130.447,45962.0
1131.541,46263.0
1132.635,46317.0
1133.729,46337.0
1134.822,46164.0
1135.916,46298.0
1137.009,46054.0
1138.102,46301.0
1139.195,46435.0
1140.288,46574.0
1141.38,46517.0
1142.473,46459.0
1143.565,46456.0
1144.657,46943.0
1145.749,46616.0
1146.841,46731.0
1147.932,46802.0
1149.024,46630.0
1150.115,46748.0
1151.206,46787.0
1152.297,47110.0
1153.388,46535.0
1154.479,47286.0
1155.569,47337.0
1156.659,47064.0
1157.75,47107.0
1158.839,47117.0
1159.929,47320.0
1161.019,47107.0
1162.108,47154.0
1163.198,47324.0
1164.287,47579.0
1165.376,47556.0
1166.465,47460.0
1167.553,47331.0
1168.642,47569.0
1169.73,47657.0
1170.818,47728.0
1171.906,47996.0
1172.994,47888.0
1174.082,47928.0
1175.17,47781.0
1176.257,47658.0
1177.344,47948.0
1178.431,47863.0
1179.518,48172.0
1180.605,48347.0
1181.691,48145.0
1182.778,48234.0
1183.864,48394.0
1184.95,48273.0
1186.036,48408.0
1187.122,48289.0
1188.207,48384.0
1189.292,48438.0
1190.378,48414.0
1191.463,48641.0
1192.548,48695.0
1193.632,48641.0
1194.717,48730.0
1195.801,48631.0
1196.886,48814.0
1197.97,49092.0
1199.054,48691.0
1200.137,48809.0
1201.221,48959.0
1202.305,49145.0
1203.388,48916.0
1204.471,49264.0
1205.554,49130.0
1206.637,49175.0
1207.719,49299.0
1208.802,49265.0
1209.884,49202.0
1210.966,49518.0
1212.048,49146.0
1213.13,49556.0
1214.212,49525.0
1215.293,49591.0
1216.374,49700.0
1217.456,49583.0
1218.536,49921.0
1219.617,49890.0
1220.698,50066.0
1221.778,49851.0
1222.859,50069.0
1223.939,50245.0
1225.019,49947.0
1226.099,50258.0
1227.178,49614.0
1228.258,49730.0
1229.337,50050.0
1230.417,50104.0
1231.496,50253.0
1232.574,50307.0
1233.653,50373.0
1234.732,50504.0
1235.81,50508.0
1236.888,50650.0
1237.966,50468.0
1239.044,50612.0
1240.122,50257.0
1241.199,50691.0
1242.277,50697.0
1243.354,50766.0
1244.431,50624.0
1245.508,50890.0
1246.585,50898.0
1247.661,50858.0
1248.738,50926.0
1249.814,51226.0
1250.89,50857.0
1251.966,51231.0
1253.042,50752.0
1254.117,50873.0
1255.193,51031.0
1256.268,51029.0
1257.343,50836.0
1258.418,50686.0
1259.493,51027.0
1260.567,51076.0
1261.642,51405.0
1262.716,51401.0
1263.79,51484.0
1264.864,51776.0
1265.938,51862.0
1267.011,51567.0
1268.085,51611.0
1269.158,51407.0
1270.231,51751.0
1271.304,51752.0
1272.377,51969.0
1273.45,51787.0
1274.522,52218.0
1275.594,51963.0
1276.666,51894.0
1277.738,52137.0
1278.81,51935.0
1279.882,51986.0
1280.953,51821.0
1282.025,52077.0
1283.096,52143.0
1284.167,52179.0
1285.238,52512.0
1286.308,52338.0
1287.379,52087.0
1288.449,52539.0
1289.519,52291.0
1290.589,52948.0
1291.659,52757.0
1292.729,52729.0
1293.798,52761.0
1294.868,52742.0
1295.937,52834.0
1297.006,52636.0
1298.075,53196.0
1299.143,52598.0
1300.212,52650.0
1301.28,53127.0
1302.348,53227.0
1303.416,53177.0
1304.484,53265.0
1305.552,53131.0
1306.62,53136.0
1307.687,53000.0
1308.754,53146.0
1309.821,53222.0
1310.888,53180.0
1311.955,53458.0
1313.021,53845.0
1314.088,53731.0
1315.154,53608.0
1316.22,53765.0
1317.286,54217.0
1318.352,54025.0
1319.417,53864.0
1320.483,54237.0
1321.548,54121.0
1322.613,54266.0
1323.678,54138.0
1324.743,54219.0
1325.807,54225.0
1326.872,54165.0
1327.936,54754.0
1329.0,54531.0
1330.064,54552.0
1331.128,54286.0
1332.191,54634.0
1333.255,54569.0
1334.318,54626.0
1335.381,54730.0
1336.444,54773.0
1337.507,54757.0
1338.569,54619.0
1339.632,54845.0
1340.694,55005.0
1341.756,55039.0
1342.818,55299.0
1343.88,55338.0
1344.941,55273.0
1346.003,55375.0
1347.064,55281.0
1348.125,55202.0
1349.186,55351.0
1350.247,55360.0
1351.308,55744.0
1352.368,55701.0
1353.428,55405.0
1354.489,55807.0
1355.549,55558.0
1356.608,55870.0
1357.668,55805.0
1358.727,55838.0
1359.787,55957.0
1360.846,56051.0
1361.905,55753.0
1362.964,56036.0
1364.022,55867.0
1365.081,55943.0
1366.139,56117.0
1367.197,56361.0
1368.255,56063.0
1369.313,56286.0
1370.371,56178.0
1371.428,56052.0
1372.486,56275.0
1373.543,56407.0
1374.6,56714.0
1375.657,56122.0
1376.713,56746.0
1377.77,56489.0
1378.826,56304.0
1379.882,56588.0
1380.938,56880.0
1381.994,56676.0
1383.05,56991.0
1384.106,56922.0
1385.161,56842.0
1386.216,57037.0
1387.271,56660.0
1388.326,56895.0
1389.381,56701.0
1390.435,57138.0
1391.49,57294.0
1392.544,57223.0
1393.598,57164.0
1394.652,57287.0
1395.705,57499.0
1396.759,57077.0
1397.812,57522.0
1398.866,57406.0
1399.919,57498.0
1400.972,57482.0
1402.024,57657.0
1403.077,57861.0
1404.129,57801.0
1405.181,57540.0
1406.233,57830.0
1407.285,58015.0
1408.337,58074.0
1409.389,57996.0
1410.44,57918.0
1411.491,58012.0
1412.542,58200.0
1413.593,58042.0
1414.644,58150.0
1415.695,58151.0
1416.745,58098.0
1417.795,58364.0
1418.845,58479.0
1419.895,58582.0
1420.945,58551.0
1421.995,58427.0
1423.044,58555.0
1424.093,58886.0
1425.142,58938.0
1426.191,58864.0
1427.24,59264.0
1428.289,59113.0
1429.337,59018.0
1430.385,59083.0
1431.433,59283.0
1432.481,59002.0
1433.529,59265.0
1434.577,59148.0
1435.624,59220.0
1436.672,59247.0
1437.719,59428.0
1438.766,59058.0
1439.812,59416.0
1440.859,59327.0
1441.905,59089.0
1442.952,59262.0
1443.998,59485.0
1445.044,59493.0
1446.09,59342.0
1447.135,59637.0
1448.181,59554.0
1449.226,59616.0
1450.271,59483.0
1451.316,59813.0
1452.361,59537.0
1453.405,59689.0
1454.45,59738.0
1455.494,59729.0
1456.538,60105.0
1457.582,59849.0
1458.626,60236.0
1459.67,59706.0
1460.713,59891.0
1461.757,60375.0
1462.8,60348.0
1463.843,60139.0
1464.886,60376.0
1465.928,60561.0
1466.971,60388.0
1468.013,60289.0
1469.055,60438.0
1470.097,60373.0
1471.139,60553.0
1472.181,60664.0
1473.222,60629.0
1474.263,60974.0
1475.305,60747.0
1476.346,60843.0
1477.386,60813.0
1478.427,60815.0
1479.468,61039.0
1480.508,61091.0
1481.548,60903.0
1482.588,61148.0
1483.628,60997.0
1484.668,61534.0
1485.707,61174.0
1486.747,61326.0
1487.786,61059.0
1488.825,61590.0
1489.864,61409.0
1490.902,61420.0
1491.941,61745.0
1492.979,61500.0
1494.017,61893.0
1495.055,61405.0
1496.093,61274.0
1497.131,61816.0
1498.168,61843.0
1499.206,62043.0
1500.243,62003.0
1501.28,61895.0
1502.317,61746.0
1503.354,61887.0
1504.39,62026.0
1505.426,62053.0
1506.463,62098.0
1507.499,61925.0
1508.535,62301.0
1509.57,62215.0
1510.606,62069.0
1511.641,62101.0
1512.676,62211.0
1513.711,62262.0
1514.746,62321.0
1515.781,62476.0
1516.816,62566.0
1517.85,62417.0
1518.884,62624.0
1519.918,62655.0
1520.952,62745.0
1521.986,62712.0
1523.019,62846.0
1524.053,62955.0
1525.086,62970.0
1526.119,62794.0
1527.152,63143.0
1528.185,63007.0
1529.217,63053.0
1530.25,63146.0
1531.282,63043.0
1532.314,63253.0
1533.346,63254.0
1534.377,63136.0
1535.409,63155.0
1536.44,63163.0
1537.472,63200.0
1538.503,63544.0
1539.534,63416.0
1540.564,63589.0
1541.595,63758.0
1542.625,63739.0
1543.656,63608.0
1544.686,63953.0
1545.716,63694.0
1546.745,63860.0
1547.775,63641.0
1548.804,63692.0
1549.834,63827.0
1550.863,64165.0
1551.892,63671.0
1552.92,64251.0
1553.949,64156.0
1554.977,64288.0
1556.006,64265.0
1557.034,64482.0
1558.062,64462.0
1559.089,64360.0
1560.117,64413.0
1561.144,64752.0
1562.172,64546.0
1563.199,64301.0
1564.226,64635.0
1565.252,64597.0
1566.279,64607.0
1567.305,64723.0
1568.332,65083.0
1569.358,64982.0
1570.384,65392.0
