Raman shift,Intensity
755.67159,900.72809
757.73905,902.14424
759.80651,904.97653
761.87398,907.10076
763.94144,909.22498
766.0089,911.3492
768.07636,913.47342
770.14383,915.59764
772.21129,917.01378
774.27875,917.72186
776.34621,920.55415
778.41368,923.38645
780.48114,924.80259
782.5486,928.34296
784.61606,930.46718
786.68353,934.00755
788.75099,934.00755
790.81845,933.29948
792.88591,930.46718
794.95338,928.34296
797.02084,925.51067
799.0883,922.67837
801.15576,919.84608
803.22323,917.01378
805.29069,913.47342
807.35815,909.93305
809.42561,907.10076
811.49308,902.85231
813.56054,900.72809
815.628,898.60387
817.69546,896.47965
819.76293,897.18773
819.76293,887.98277
819.76293,887.2747
819.76293,886.56662
819.76293,885.85855
821.83039,900.02002
821.83039,888.69084
823.89785,890.81506
823.89785,894.35543
823.89785,903.56039
823.89785,889.39892
823.89785,890.10699
825.96531,904.26846
825.96531,897.8958
825.96531,895.77158
825.96531,906.39268
825.96531,918.42993
825.96531,919.138
825.96531,892.23121
825.96531,892.93929
825.96531,893.64736
825.96531,891.52314
825.96531,895.06351
825.96531,900.72809
825.96531,896.47965
825.96531,897.18773
828.03278,902.14424
828.03278,898.60387
828.03278,899.31195
828.03278,900.02002
828.03278,910.64112
828.03278,901.43617
828.03278,902.85231
828.03278,903.56039
828.03278,904.97653
828.03278,905.68461
828.03278,906.39268
828.03278,910.64112
828.03278,907.80883
828.03278,919.84608
828.03278,908.5169
828.03278,909.22498
828.03278,917.72186
830.10024,907.10076
830.10024,909.93305
830.10024,912.76534
830.10024,919.84608
830.10024,912.05727
830.10024,917.01378
830.10024,913.47342
830.10024,911.3492
830.10024,914.18149
832.1677,917.01378
832.1677,919.84608
832.1677,915.59764
832.1677,916.30571
832.1677,914.18149
832.1677,914.88956
834.23516,921.26223
834.23516,919.84608
836.30262,920.55415
836.30262,919.84608
836.30262,924.09452
838.37009,925.51067
838.37009,921.26223
838.37009,921.9703
840.43755,922.67837
840.43755,927.63489
840.43755,921.9703
840.43755,931.88333
840.43755,932.5914
842.50501,933.29948
842.50501,934.00755
842.50501,931.17525
842.50501,929.75911
842.50501,934.71562
842.50501,929.05103
842.50501,922.67837
842.50501,923.38645
842.50501,924.09452
842.50501,925.51067
842.50501,924.80259
844.57247,931.17525
844.57247,926.21874
844.57247,926.92681
844.57247,927.63489
844.57247,935.4237
844.57247,929.05103
844.57247,930.46718
844.57247,934.71562
846.63994,928.34296
846.63994,936.13177
846.63994,932.5914
848.7074,937.54792
848.7074,936.83984
848.7074,938.96406
848.7074,934.00755
850.77486,935.4237
850.77486,938.25599
852.84232,936.13177
854.90979,936.13177
856.97725,935.4237
859.04471,935.4237
861.11217,935.4237
863.17964,936.13177
869.38202,941.08828
869.38202,940.38021
871.44949,936.83984
871.44949,937.54792
871.44949,939.67214
873.51695,936.83984
873.51695,938.96406
873.51695,938.25599
875.58441,936.83984
877.65187,936.13177
879.71934,934.00755
879.71934,935.4237
879.71934,934.71562
881.7868,921.9703
881.7868,934.00755
883.85426,931.17525
883.85426,917.01378
883.85426,932.5914
883.85426,933.29948
883.85426,931.88333
883.85426,914.18149
883.85426,921.26223
883.85426,916.30571
883.85426,922.67837
883.85426,917.72186
883.85426,918.42993
883.85426,914.88956
883.85426,919.138
885.92172,912.76534
885.92172,923.38645
885.92172,930.46718
885.92172,929.05103
885.92172,915.59764
885.92172,919.84608
885.92172,920.55415
885.92172,913.47342
885.92172,924.80259
887.98919,912.05727
887.98919,927.63489
887.98919,925.51067
887.98919,924.09452
887.98919,929.75911
887.98919,919.138
887.98919,928.34296
890.05665,926.92681
890.05665,912.05727
890.05665,926.21874
890.05665,917.01378
892.12411,912.05727
892.12411,914.18149
892.12411,918.42993
894.19157,911.3492
894.19157,912.05727
896.25904,912.05727
896.25904,909.93305
898.3265,912.05727
898.3265,911.3492
898.3265,909.93305
898.3265,909.22498
898.3265,910.64112
898.3265,908.5169
900.39396,906.39268
900.39396,909.22498
902.46142,904.97653
902.46142,906.39268
902.46142,907.10076
902.46142,907.80883
902.46142,908.5169
902.46142,904.26846
902.46142,905.68461
902.46142,904.97653
904.52889,900.02002
904.52889,903.56039
904.52889,901.43617
904.52889,904.26846
906.59635,902.85231
906.59635,900.72809
906.59635,899.31195
906.59635,902.14424
906.59635,902.85231
908.66381,901.43617
908.66381,898.60387
910.73127,897.18773
910.73127,897.8958
910.73127,901.43617
912.79874,902.14424
914.8662,903.56039
916.93366,904.26846
919.00112,904.97653
921.06859,904.26846
923.13605,902.14424
925.20351,900.72809
927.27097,899.31195
929.33844,897.18773
931.4059,896.47965
933.47336,897.18773
935.54082,899.31195
937.60829,901.43617
939.67575,904.26846
941.74321,907.10076
943.81067,917.72186
943.81067,909.93305
945.87814,912.76534
945.87814,918.42993
947.9456,915.59764
947.9456,920.55415
950.01306,922.67837
950.01306,919.138
952.08052,924.09452
952.08052,921.9703
954.14799,925.51067
954.14799,924.80259
956.21545,926.92681
956.21545,926.92681
958.28291,929.05103
958.28291,929.05103
960.35037,931.17525
960.35037,931.17525
962.41784,932.5914
962.41784,932.5914
964.4853,934.00755
964.4853,934.00755
966.55276,934.00755
966.55276,934.00755
968.62022,933.29948
968.62022,933.29948
970.68769,932.5914
970.68769,932.5914
972.75515,931.88333
972.75515,931.88333
974.82261,931.17525
974.82261,931.17525
976.89007,929.75911
976.89007,929.75911
978.95754,928.34296
978.95754,928.34296
981.025,926.21874
981.025,926.21874
983.09246,924.09452
985.15992,923.38645
987.22739,922.67837
989.29485,921.26223
991.36231,919.84608
993.42977,918.42993
995.49724,917.72186
997.5647,918.42993
999.63216,920.55415
1001.69962,921.9703
1003.76709,924.09452
1005.83455,925.51067
1007.90201,926.92681
1009.96947,929.75911
1012.03694,932.5914
1014.1044,936.13177
1016.17186,938.25599
1018.23932,939.67214
1020.30679,939.67214
1022.37425,937.54792
1024.44171,934.00755
1026.50917,932.5914
1028.57663,930.46718
1030.6441,927.63489
1032.71156,927.63489
1034.77902,929.05103
1036.84648,931.17525
1038.91395,934.00755
1040.98141,936.83984
1043.04887,938.96406
1045.11633,942.50443
1047.1838,945.33672
1049.25126,946.0448
1051.31872,946.75287
1053.38618,946.75287
1055.45365,946.75287
1057.52111,944.62865
1059.58857,941.08828
1061.65603,937.54792
1063.7235,934.71562
1065.79096,931.88333
1067.85842,930.46718
1069.92588,927.63489
1071.99335,924.80259
1074.06081,925.51067
1076.12827,926.92681
1078.19573,924.80259
1078.19573,906.39268
1078.19573,927.63489
1080.2632,926.92681
1080.2632,906.39268
1080.2632,930.46718
1082.33066,933.29948
1082.33066,906.39268
1082.33066,929.75911
1084.39812,934.71562
1084.39812,906.39268
1084.39812,931.17525
1086.46558,931.88333
1086.46558,906.39268
1086.46558,934.71562
1088.53305,929.75911
1088.53305,906.39268
1088.53305,932.5914
1090.60051,928.34296
1090.60051,906.39268
1090.60051,930.46718
1092.66797,926.92681
1092.66797,928.34296
1092.66797,906.39268
1094.73543,906.39268
1094.73543,925.51067
1094.73543,924.80259
1096.8029,924.80259
1096.8029,922.67837
1096.8029,905.68461
1098.87036,923.38645
1098.87036,919.84608
1098.87036,902.85231
1100.93782,917.01378
1100.93782,902.14424
1100.93782,921.9703
1103.00528,912.76534
1103.00528,919.84608
1105.07275,918.42993
1105.07275,909.93305
1107.14021,907.80883
1109.20767,906.39268
1111.27513,904.97653
1113.3426,900.72809
1113.3426,902.85231
1115.41006,900.72809
1115.41006,899.31195
1117.47752,900.72809
1117.47752,899.31195
1119.54498,899.31195
1119.54498,900.72809
1121.61245,898.60387
1121.61245,900.72809
1123.67991,897.8958
1123.67991,900.72809
1125.74737,897.18773
1125.74737,900.02002
1127.81483,896.47965
1127.81483,900.02002
1129.8823,895.77158
1131.94976,895.06351
1134.01722,894.35543
1136.08468,894.35543
1138.15215,895.77158
1140.21961,897.18773
1140.21961,900.72809
1142.28707,902.14424
1142.28707,898.60387
1144.35453,900.72809
1144.35453,903.56039
1146.422,904.97653
1146.422,902.14424
1148.48946,904.26846
1148.48946,906.39268
1150.55692,907.10076
1150.55692,907.10076
1152.62438,909.93305
1152.62438,909.93305
1152.62438,917.01378
1154.69185,918.42993
1154.69185,912.76534
1154.69185,912.76534
1156.75931,914.18149
1156.75931,914.18149
1156.75931,919.138
1158.82677,915.59764
1158.82677,919.138
1158.82677,915.59764
1160.89423,917.01378
1160.89423,919.138
1160.89423,917.01378
1162.9617,917.01378
1162.9617,919.138
1162.9617,917.01378
1165.02916,916.30571
1165.02916,919.138
1165.02916,916.30571
1167.09662,915.59764
1167.09662,915.59764
1169.16408,914.18149
1169.16408,914.18149
1171.23155,913.47342
1171.23155,913.47342
1173.29901,912.05727
1173.29901,912.05727
1175.36647,912.05727
1175.36647,912.05727
1177.43393,912.05727
1177.43393,912.05727
1179.5014,912.76534
1179.5014,912.76534
1181.56886,913.47342
1181.56886,913.47342
1183.63632,914.18149
1185.70378,915.59764
1187.77125,917.01378
1189.83871,919.138
1191.90617,920.55415
1193.97363,922.67837
1196.0411,924.80259
1198.10856,926.21874
1200.17602,927.63489
1202.24348,929.05103
1204.31095,930.46718
1206.37841,931.17525
1208.44587,931.17525
1210.51333,930.46718
1212.5808,929.75911
1214.64826,928.34296
1216.71572,926.92681
1218.78318,925.51067
1220.85064,922.67837
1222.91811,921.26223
1224.98557,919.138
1227.05303,917.72186
1229.12049,917.01378
1231.18796,912.05727
1231.18796,917.72186
1231.18796,911.3492
1231.18796,913.47342
1231.18796,912.76534
1233.25542,919.138
1233.25542,914.18149
1233.25542,919.84608
1235.32288,921.9703
1235.32288,918.42993
1235.32288,917.72186
1235.32288,917.01378
1235.32288,916.30571
1235.32288,915.59764
1235.32288,914.88956
1235.32288,919.84608
1237.39034,923.38645
1237.39034,930.46718
1237.39034,920.55415
1237.39034,929.75911
1237.39034,929.05103
1239.45781,930.46718
1239.45781,931.17525
1239.45781,924.80259
1239.45781,921.26223
1239.45781,928.34296
1241.52527,921.9703
1241.52527,922.67837
1241.52527,923.38645
1241.52527,924.09452
1241.52527,925.51067
1241.52527,926.92681
1241.52527,927.63489
1241.52527,931.17525
1241.52527,931.88333
1241.52527,932.5914
1243.59273,926.92681
1243.59273,932.5914
1243.59273,924.80259
1243.59273,929.05103
1243.59273,926.21874
1245.66019,932.5914
1245.66019,931.88333
1247.72766,933.29948
1247.72766,933.29948
1247.72766,932.5914
1249.79512,932.5914
1249.79512,938.96406
1249.79512,938.25599
1249.79512,936.83984
1249.79512,937.54792
1249.79512,936.13177
1249.79512,936.13177
1249.79512,936.13177
1251.86258,943.92058
1251.86258,944.62865
1251.86258,935.4237
1251.86258,932.5914
1251.86258,939.67214
1251.86258,940.38021
1251.86258,938.25599
1251.86258,943.2125
1251.86258,938.25599
1253.93004,946.0448
1253.93004,934.71562
1253.93004,940.38021
1253.93004,932.5914
1253.93004,933.29948
1253.93004,940.38021
1253.93004,945.33672
1253.93004,941.08828
1253.93004,942.50443
1255.99751,948.87709
1255.99751,934.00755
1255.99751,941.79636
1255.99751,946.75287
1255.99751,941.79636
1255.99751,941.79636
1255.99751,947.46095
1255.99751,949.58517
1255.99751,950.29324
1255.99751,948.16902
1258.06497,951.00131
1258.06497,951.70939
1258.06497,943.92058
1258.06497,943.92058
1260.13243,951.70939
1260.13243,946.75287
1260.13243,946.75287
1262.19989,948.87709
1262.19989,951.70939
1262.19989,948.87709
1264.26736,951.70939
1264.26736,951.00131
1264.26736,955.24975
1264.26736,954.54168
1264.26736,953.83361
1264.26736,953.12553
1264.26736,952.41746
1264.26736,951.00131
1266.33482,953.12553
1266.33482,955.24975
1266.33482,953.12553
1268.40228,953.83361
1268.40228,955.24975
1268.40228,953.83361
1268.40228,955.95783
1270.46974,955.95783
1270.46974,955.24975
1270.46974,955.24975
1272.53721,955.24975
1272.53721,955.24975
1272.53721,955.24975
1274.60467,955.95783
1274.60467,955.24975
1274.60467,955.95783
1276.67213,954.54168
1276.67213,955.95783
1276.67213,954.54168
1278.73959,952.41746
1278.73959,952.41746
1278.73959,955.95783
1280.80706,955.24975
1280.80706,954.54168
1280.80706,953.83361
1280.80706,951.00131
1280.80706,952.41746
1280.80706,951.00131
1280.80706,951.00131
1280.80706,953.12553
1282.87452,952.41746
1282.87452,949.58517
1282.87452,948.87709
1282.87452,951.70939
1282.87452,945.33672
1282.87452,944.62865
1282.87452,943.92058
1282.87452,943.2125
1282.87452,950.29324
1282.87452,948.87709
1282.87452,948.16902
1282.87452,948.87709
1284.94198,947.46095
1284.94198,947.46095
1284.94198,940.38021
1284.94198,947.46095
1284.94198,946.0448
1284.94198,942.50443
1287.00944,941.79636
1287.00944,939.67214
1287.00944,945.33672
1287.00944,945.33672
1287.00944,941.08828
1287.00944,946.75287
1289.07691,938.96406
1289.07691,936.83984
1289.07691,937.54792
1289.07691,943.92058
1289.07691,938.25599
1289.07691,943.92058
1291.14437,943.2125
1291.14437,943.2125
1293.21183,944.62865
1293.21183,944.62865
1295.27929,946.0448
1295.27929,946.0448
1297.34676,948.16902
1297.34676,948.16902
1299.41422,949.58517
1299.41422,949.58517
1301.48168,951.70939
1301.48168,951.70939
1303.54914,953.12553
1303.54914,953.12553
1305.61661,953.83361
1305.61661,953.83361
1307.68407,953.83361
1307.68407,953.83361
1309.75153,952.41746
1309.75153,952.41746
1311.81899,951.70939
1311.81899,951.70939
1313.88646,950.29324
1313.88646,950.29324
1315.95392,948.16902
1315.95392,948.16902
1318.02138,946.0448
1318.02138,946.0448
1320.08884,943.92058
1320.08884,943.92058
1322.15631,941.79636
1322.15631,941.79636
1324.22377,939.67214
1324.22377,939.67214
1326.29123,936.83984
1326.29123,936.83984
1328.35869,935.4237
1328.35869,935.4237
1330.42616,933.29948
1330.42616,933.29948
1332.49362,931.17525
1332.49362,931.17525
1334.56108,929.05103
1336.62854,927.63489
1338.69601,926.92681
1340.76347,926.92681
1342.83093,928.34296
1344.89839,929.05103
1346.96586,931.88333
1349.03332,934.71562
1351.10078,937.54792
1353.16824,938.96406
1355.23571,941.08828
1357.30317,942.50443
1359.37063,941.79636
1359.37063,933.29948
1361.43809,939.67214
1363.50556,936.83984
1365.57302,934.00755
1367.64048,931.17525
1369.70794,927.63489
1371.77541,924.09452
1373.84287,920.55415
1375.91033,919.138
1377.97779,919.138
1380.04526,921.9703
1382.11272,924.09452
1384.18018,926.21874
1386.24764,928.34296
1388.31511,931.88333
1390.38257,935.4237
1392.45003,938.25599
1394.51749,940.38021
1396.58496,941.08828
1398.65242,939.67214
1400.71988,937.54792
1402.78734,935.4237
1404.85481,932.5914
1406.92227,929.05103
1408.98973,925.51067
1411.05719,923.38645
1413.12465,919.84608
1415.19212,917.72186
1417.25958,916.30571
1419.32704,915.59764
1421.3945,916.30571
1423.46197,917.01378
1425.52943,918.42993
1427.59689,919.138
1429.66435,920.55415
1431.73182,921.9703
1433.79928,923.38645
1435.86674,924.80259
1437.9342,926.21874
1440.00167,927.63489
1442.06913,929.05103
1444.13659,930.46718
1446.20405,931.17525
1448.27152,931.17525
1450.33898,929.75911
1452.40644,928.34296
1454.4739,925.51067
1456.54137,922.67837
1458.60883,920.55415
1460.67629,917.72186
1462.74375,914.18149
1464.81122,910.64112
1466.87868,907.80883
1468.94614,904.26846
1471.0136,901.43617
1473.08107,900.72809
1475.14853,902.14424
1477.21599,908.5169
1479.28345,914.88956
1481.35092,919.138
1483.41838,924.09452
1485.48584,929.75911
1487.5533,938.25599
1489.62077,943.92058
1491.68823,951.00131
1493.75569,952.41746
1495.82315,953.83361
1497.89062,953.83361
1499.95808,953.12553
1502.02554,950.29324
1504.093,946.0448
1506.16047,942.50443
1508.22793,939.67214
1510.29539,936.83984
1512.36285,934.71562
1514.43032,936.13177
1516.49778,921.26223
1516.49778,920.55415
1516.49778,923.38645
1516.49778,922.67837
1516.49778,921.9703
1516.49778,942.50443
1516.49778,924.09452
1518.56524,958.79012
1518.56524,959.4982
1518.56524,960.20627
1518.56524,924.80259
1518.56524,945.33672
1518.56524,957.37397
1518.56524,958.08205
1518.56524,956.6659
1520.6327,984.98884
1520.6327,985.69692
1520.6327,981.44847
1520.6327,946.0448
1520.6327,982.15655
1520.6327,982.86462
1520.6327,983.57269
1520.6327,929.05103
1520.6327,925.51067
1520.6327,986.40499
1520.6327,984.28077
1520.6327,928.34296
1520.6327,926.21874
1520.6327,926.92681
1520.6327,927.63489
1520.6327,931.17525
1520.6327,960.91434
1520.6327,971.53544
1520.6327,970.82737
1520.6327,970.1193
1520.6327,969.41122
1520.6327,961.62242
1520.6327,930.46718
1520.6327,963.03856
1520.6327,962.33049
1520.6327,929.75911
1520.6327,955.95783
1522.70017,942.50443
1522.70017,943.2125
1522.70017,931.88333
1522.70017,940.38021
1522.70017,932.5914
1522.70017,933.29948
1522.70017,939.67214
1522.70017,955.24975
1522.70017,953.83361
1522.70017,934.00755
1522.70017,934.71562
1522.70017,935.4237
1522.70017,936.13177
1522.70017,951.00131
1522.70017,950.29324
1522.70017,949.58517
1522.70017,948.87709
1522.70017,948.16902
1522.70017,947.46095
1522.70017,946.75287
1522.70017,941.08828
1522.70017,972.24352
1522.70017,944.62865
1522.70017,943.92058
1522.70017,963.74664
1522.70017,938.25599
1522.70017,951.00131
1522.70017,987.82114
1522.70017,987.11306
1522.70017,936.83984
1522.70017,937.54792
1522.70017,968.70315
1522.70017,941.79636
1522.70017,980.7404
1522.70017,938.96406
1524.76763,952.41746
1524.76763,964.45471
1524.76763,972.95159
1524.76763,951.70939
1524.76763,954.54168
1524.76763,953.12553
1524.76763,946.0448
1524.76763,957.37397
1524.76763,989.23728
1524.76763,988.52921
1524.76763,974.36774
1524.76763,973.65967
1524.76763,980.03233
1524.76763,945.33672
1524.76763,967.99508
1526.83509,963.74664
1526.83509,976.49196
1526.83509,967.287
1526.83509,966.57893
1526.83509,965.87086
1526.83509,965.16278
1526.83509,975.07581
1526.83509,979.32425
1526.83509,978.61618
1526.83509,977.90811
1526.83509,977.20003
1526.83509,989.94536
1526.83509,975.78389
1526.83509,992.77765
1526.83509,997.73416
1526.83509,994.90187
1526.83509,993.48572
1526.83509,994.1938
1526.83509,997.02609
1526.83509,996.31802
1528.90255,995.60994
1528.90255,999.85839
1528.90255,992.06958
1528.90255,998.44224
1528.90255,999.15031
1528.90255,990.65343
1528.90255,1000.56646
1530.97002,991.3615
1530.97002,1001.27453
1533.03748,1001.98261
1535.10494,1001.98261
1537.1724,1001.98261
1539.23987,1001.27453
1541.30733,1000.56646
1543.37479,1000.56646
1545.44225,1001.27453
1547.50972,1001.98261
1549.57718,1002.69068
1551.64464,1001.98261
1551.64464,1001.27453
1551.64464,1000.56646
1551.64464,999.85839
1551.64464,999.15031
1551.64464,998.44224
1551.64464,997.73416
1551.64464,997.02609
1553.7121,997.02609
1553.7121,996.31802
1553.7121,995.60994
1555.77957,997.02609
1555.77957,994.90187
1555.77957,994.1938
1555.77957,993.48572
1555.77957,992.77765
1557.84703,992.06958
1557.84703,991.3615
1559.91449,990.65343
1559.91449,989.94536
1559.91449,989.23728
1559.91449,988.52921
1559.91449,987.82114
1559.91449,987.11306
1561.98195,986.40499
1561.98195,985.69692
1561.98195,984.98884
1564.04942,984.28077
1564.04942,969.41122
1566.11688,965.87086
1566.11688,983.57269
1566.11688,982.86462
1566.11688,982.15655
1566.11688,981.44847
1566.11688,980.7404
1566.11688,980.03233
1568.18434,979.32425
1568.18434,963.03856
1568.18434,977.90811
1568.18434,974.36774
1568.18434,973.65967
1570.2518,976.49196
1570.2518,977.20003
1570.2518,975.07581
1570.2518,975.78389
1570.2518,972.95159
1570.2518,978.61618
1570.2518,960.20627
1570.2518,970.82737
1570.2518,952.41746
1570.2518,967.99508
1570.2518,957.37397
1570.2518,964.45471
1570.2518,953.12553
1572.31927,970.1193
1572.31927,965.87086
1572.31927,965.16278
1572.31927,969.41122
1572.31927,963.74664
1572.31927,956.6659
1572.31927,968.70315
1572.31927,958.08205
1572.31927,960.91434
1572.31927,960.20627
1572.31927,959.4982
1572.31927,958.79012
1572.31927,971.53544
1572.31927,972.24352
1572.31927,951.00131
1572.31927,951.70939
1572.31927,955.24975
1572.31927,954.54168
1572.31927,953.83361
1572.31927,958.79012
1572.31927,967.287
1574.38673,955.95783
1574.38673,963.03856
1574.38673,950.29324
1574.38673,962.33049
1574.38673,961.62242
1574.38673,966.57893
1574.38673,956.6659
1574.38673,946.75287
1574.38673,946.0448
1574.38673,945.33672
1574.38673,943.2125
1574.38673,943.92058
1576.45419,944.62865
1576.45419,942.50443
1576.45419,941.79636
1576.45419,941.08828
1576.45419,940.38021
1576.45419,953.12553
1576.45419,947.46095
1576.45419,948.16902
1576.45419,949.58517
1578.52165,948.87709
1578.52165,939.67214
