Raman Shift,Intensity 
400,14.47265229
401,14.34454152
402,14.43099896
403,14.34660215
404,14.36573108
405,14.33061735
406,14.37864273
407,14.36529073
408,14.37694717
409,14.38287332
410,14.42699164
411,14.4186713
412,14.43553635
413,14.38916442
414,14.45904072
415,14.44906553
416,14.37317342
417,14.38013578
418,14.32245156
419,14.42097162
420,14.36151502
421,14.38438909
422,14.33883585
423,14.50282315
424,14.41501141
425,14.41436275
426,14.38160054
427,14.39081539
428,14.40222211
429,14.39332645
430,14.36177662
431,14.44176629
432,14.49037537
433,14.42186212
434,14.38233304
435,14.41541339
436,14.40962881
437,14.27173558
438,14.44285261
439,14.36048906
440,14.40449878
441,14.42026963
442,14.32384283
443,14.39271686
444,14.41878819
445,14.43138523
446,14.40764463
447,14.25700232
448,14.41269651
449,14.42430877
450,14.49422034
451,14.3954299
452,14.39441076
453,14.43438055
454,14.41107954
455,14.40668761
456,14.30901257
457,14.41571566
458,14.41322549
459,14.33370113
460,14.34235533
461,14.36109353
462,14.47250674
463,14.41332821
464,14.34357313
465,14.43640965
466,14.37609061
467,14.33662107
468,14.36565538
469,14.37623879
470,14.30277916
471,14.32814735
472,14.50218979
473,14.34003937
474,14.45736794
475,14.51475087
476,14.35048546
477,14.43001966
478,14.43413347
479,14.34297384
480,14.34421966
481,14.40008813
482,14.41888895
483,14.43319992
484,14.38266989
485,14.42432401
486,14.33394742
487,14.34847221
488,14.418048
489,14.37117233
490,14.42901182
491,14.37429649
492,14.47275801
493,14.29282572
494,14.4231762
495,14.39254712
496,14.43566731
497,14.42125842
498,14.31634918
499,14.45045699
500,14.37038539
501,14.43516021
502,14.45143731
503,14.36443055
504,14.48181784
505,14.4058553
506,14.35822398
507,14.39167193
508,14.38457893
509,14.31956494
510,14.35724637
511,14.3735694
512,14.47781751
513,14.3958463
514,14.33512213
515,14.41642997
516,14.3760187
517,14.38068443
518,14.40033122
519,14.40162008
520,14.52289877
521,14.35176106
522,14.44244919
523,14.40592562
524,14.39695861
525,14.3799798
526,14.4494773
527,14.37766565
528,14.32925437
529,14.33522017
530,14.39886821
531,14.41453296
532,14.42355583
533,14.45200239
534,14.35672757
535,14.39542723
536,14.32901699
537,14.47746019
538,14.35784449
539,14.41626484
540,14.40081621
541,14.47558571
542,14.38478638
543,14.38957395
544,14.40177653
545,14.42782589
546,14.44234763
547,14.40834818
548,14.41411164
549,14.32770135
550,14.36973721
551,14.378539
552,14.33751952
553,14.44242499
554,14.44422487
555,14.41173966
556,14.45914827
557,14.32148954
558,14.41473857
559,14.35507452
560,14.32883849
561,14.40111086
562,14.43569144
563,14.34978478
564,14.40406744
565,14.2842923
566,14.41796151
567,14.39517164
568,14.44608897
569,14.41105206
570,14.39849215
571,14.34035104
572,14.35264798
573,14.37062894
574,14.36575351
575,14.40882794
576,14.47373442
577,14.31575517
578,14.42946539
579,14.38243047
580,14.46787561
581,14.43920368
582,14.48434226
583,14.36139293
584,14.37925017
585,14.35731475
586,14.42611867
587,14.26926883
588,14.40686437
589,14.37407519
590,14.34309453
591,14.4764909
592,14.46372559
593,14.40168041
594,14.29690991
595,14.33847499
596,14.37142474
597,14.35043036
598,14.37350694
599,14.35559844
600,14.49290329
601,14.32832316
602,14.38287877
603,14.35566
604,14.41266815
605,14.36762943
606,14.35369529
607,14.37239086
608,14.374041
609,14.36508225
610,14.45559123
611,14.35617252
612,14.41780973
613,14.41191326
614,14.35650298
615,14.35073371
616,14.33345412
617,14.45979332
618,14.46771584
619,14.43975783
620,14.37261428
621,14.4479607
622,14.41327895
623,14.38662732
624,14.3965231
625,14.31163244
626,14.3720127
627,14.41279851
628,14.50032833
629,14.36210075
630,14.34939768
631,14.34387983
632,14.4522146
633,14.48440293
634,14.4449022
635,14.4038404
636,14.35344039
637,14.41967897
638,14.41000984
639,14.44392484
640,14.45783037
641,14.48852068
642,14.38822562
643,14.33517199
644,14.37705873
645,14.43116878
646,14.38835884
647,14.38151482
648,14.30983003
649,14.30296894
650,14.3577694
651,14.36090768
652,14.47492202
653,14.40958808
654,14.45473424
655,14.44973456
656,14.40369137
657,14.41327406
658,14.3501466
659,14.38718613
660,14.38214471
661,14.45430412
662,14.37791401
663,14.3945083
664,14.41317285
665,14.4058599
666,14.36336452
667,14.37809512
668,14.40722967
669,14.37668129
670,14.46703192
671,14.41725002
672,14.44083849
673,14.37222845
674,14.46868048
675,14.40552613
676,14.36925486
677,14.48590686
678,14.39697142
679,14.33267593
680,14.48008605
681,14.38229459
682,14.37785344
683,14.40388092
684,14.43897601
685,14.48689108
686,14.45228089
687,14.34536485
688,14.30859749
689,14.37578181
690,14.38242953
691,14.42916874
692,14.40728635
693,14.336097
694,14.33292271
695,14.39786733
696,14.33369772
697,14.42160493
698,14.49091167
699,14.36157897
700,14.2975073
701,14.38892822
702,14.46246398
703,14.35530202
704,14.38899939
705,14.37467398
706,14.30865277
707,14.47957982
708,14.32709812
709,14.36235378
710,14.44589631
711,14.37361773
712,14.42940536
713,14.38199339
714,14.42704138
715,14.47405529
716,14.4739961
717,14.3858168
718,14.40167499
719,14.40788467
720,14.42479205
721,14.36720193
722,14.41439228
723,14.36212748
724,14.40995714
725,14.43943404
726,14.41990717
727,14.34103554
728,14.42586769
729,14.39110033
730,14.36718482
731,14.43663348
732,14.37959524
733,14.38052309
734,14.45871514
735,14.41226189
736,14.39691043
737,14.38021087
738,14.42767427
739,14.35899169
740,14.41038592
741,14.36462651
742,14.48903043
743,14.37650658
744,14.33260687
745,14.47486477
746,14.45653694
747,14.3910816
748,14.44042053
749,14.4058194
750,14.34371137
751,14.40278419
752,14.39591385
753,14.41363728
754,14.46420067
755,14.40790607
756,14.40191253
757,14.29892375
758,14.41969902
759,14.31020194
760,14.39819186
761,14.37576833
762,14.35931315
763,14.45110153
764,14.42395278
765,14.39472618
766,14.37937324
767,14.41824658
768,14.43918554
769,14.41414276
770,14.38482204
771,14.27092933
772,14.47321529
773,14.44990866
774,14.41044068
775,14.45769271
776,14.26827889
777,14.35360908
778,14.52208133
779,14.34242249
780,14.36299893
781,14.32876909
782,14.48460059
783,14.40470526
784,14.41431031
785,14.42413619
786,14.34097999
787,14.45018246
788,14.47317141
789,14.44205963
790,14.40275169
791,14.4163984
792,14.46332271
793,14.43380603
794,14.37374243
795,14.40733153
796,14.35971414
797,14.49930915
798,14.35640752
799,14.40399197
800,14.37272897
801,14.45765597
802,14.37511493
803,14.52422797
804,14.5399747
805,14.35194662
806,14.35568684
807,14.3231884
808,14.43964779
809,14.37491411
810,14.40983827
811,14.45063397
812,14.4270433
813,14.30059056
814,14.4274104
815,14.37577933
816,14.43555971
817,14.35303136
818,14.34017468
819,14.46277383
820,14.4049887
821,14.39537652
822,14.45467291
823,14.38539992
824,14.44036587
825,14.43440043
826,14.40185926
827,14.51550222
828,14.43749991
829,14.37606827
830,14.36707806
831,14.33725157
832,14.43702717
833,14.39637045
834,14.40561167
835,14.41602904
836,14.43415105
837,14.34689832
838,14.4238763
839,14.35030827
840,14.46580206
841,14.47989384
842,14.36188469
843,14.33836392
844,14.43202644
845,14.37185409
846,14.39677329
847,14.46801076
848,14.3941568
849,14.47640986
850,14.41006482
851,14.3815392
852,14.51351552
853,14.46084157
854,14.47293144
855,14.50679947
856,14.41952639
857,14.51905647
858,14.43429202
859,14.42919103
860,14.50305519
861,14.46241889
862,14.55923114
863,14.41069414
864,14.42990916
865,14.49542759
866,14.43704174
867,14.49358381
868,14.44747771
869,14.43422257
870,14.49978359
871,14.45152112
872,14.51704334
873,14.53689713
874,14.47290704
875,14.41071615
876,14.49720915
877,14.49760786
878,14.45043773
879,14.55702936
880,14.49022578
881,14.47198197
882,14.4919205
883,14.52284055
884,14.47021041
885,14.4653465
886,14.49690117
887,14.52829694
888,14.4869579
889,14.52794627
890,14.5271692
891,14.53412506
892,14.51634467
893,14.52234193
894,14.48042742
895,14.52730937
896,14.47005885
897,14.49814813
898,14.47722503
899,14.57734641
900,14.51757528
901,14.53002493
902,14.61499233
903,14.59917225
904,14.52639868
905,14.561189
906,14.61207127
907,14.6948861
908,14.56436646
909,14.55852684
910,14.53923385
911,14.74717949
912,14.60597858
913,14.6376681
914,14.61259709
915,14.57268587
916,14.54586154
917,14.61411084
918,14.68115488
919,14.63760331
920,14.63530811
921,14.66272771
922,14.63313459
923,14.63214279
924,14.61944939
925,14.69252521
926,14.63294009
927,14.63707257
928,14.64676428
929,14.57639822
930,14.57310765
931,14.71275326
932,14.71581748
933,14.67123516
934,14.6557803
935,14.73960619
936,14.75105511
937,14.71533779
938,14.66194629
939,14.73207797
940,14.70164695
941,14.6059505
942,14.71106905
943,14.80566053
944,14.78273348
945,14.72735272
946,14.65500919
947,14.63465663
948,14.70656508
949,14.74475568
950,14.74141817
951,14.80488573
952,14.86360859
953,14.73484568
954,14.78211991
955,14.88573484
956,14.74518345
957,14.82940092
958,14.86417384
959,14.80819616
960,14.83345566
961,14.74896644
962,14.73091481
963,14.80353747
964,14.84863491
965,14.83526578
966,14.7562532
967,14.85286229
968,14.82095616
969,14.79812635
970,14.90825918
971,14.78983108
972,14.78462774
973,14.79075221
974,14.83389595
975,14.84752012
976,14.83761067
977,14.90944588
978,14.77691825
979,14.92317752
980,14.82035696
981,14.80541199
982,14.94166388
983,14.86726741
984,14.92795133
985,14.90401669
986,14.91509077
987,14.93910886
988,14.88051522
989,14.87736477
990,14.9228399
991,14.86209544
992,14.92970801
993,14.88361799
994,14.87597357
995,14.83504697
996,14.93973542
997,14.9202435
998,14.88693122
999,15.01767524
1000,14.81824569
1001,14.99041516
1002,14.88951541
1003,14.94634506
1004,14.88611149
1005,14.92520211
1006,14.94431844
1007,14.8704274
1008,14.8936958
1009,14.93500159
1010,14.86090447
1011,14.98520126
1012,14.98730583
1013,14.90023407
1014,14.87093302
1015,14.86646313
1016,14.94827299
1017,14.87257675
1018,14.89398214
1019,14.87461289
1020,14.89645958
1021,14.89358433
1022,14.86835059
1023,14.91765115
1024,14.83890404
1025,14.82090302
1026,14.78000647
1027,14.86721153
1028,14.95124128
1029,14.825093
1030,14.90050827
1031,14.93569871
1032,14.81197371
1033,14.8500353
1034,14.85678141
1035,14.89872621
1036,14.87671672
1037,14.87307553
1038,14.89751693
1039,14.88729487
1040,14.87443908
1041,14.79370069
1042,14.83962503
1043,14.81885721
1044,14.78498494
1045,14.83684631
1046,14.74709104
1047,14.82984429
1048,14.85614415
1049,14.89175016
1050,14.85009666
1051,14.82944921
1052,14.77969715
1053,14.78715953
1054,14.86098588
1055,14.76703675
1056,14.73808519
1057,14.8690845
1058,14.77363269
1059,14.78673861
1060,14.76573898
1061,14.74442767
1062,14.65781825
1063,14.7962605
1064,14.79191808
1065,14.67608305
1066,14.72618766
1067,14.7574704
1068,14.76247098
1069,14.74173284
1070,14.77061362
1071,14.68744792
1072,14.76672972
1073,14.71495596
1074,14.71438108
1075,14.77238996
1076,14.70777645
1077,14.78346443
1078,14.67740837
1079,14.66931391
1080,14.73878052
1081,14.77582695
1082,14.621748
1083,14.71000102
1084,14.77116498
1085,14.74549005
1086,14.69710995
1087,14.63518316
1088,14.62866084
1089,14.67637746
1090,14.73872054
1091,14.70115411
1092,14.52841309
1093,14.60798464
1094,14.59091233
1095,14.66546152
1096,14.61325191
1097,14.63284927
1098,14.69582245
1099,14.61119945
1100,14.67241923
1101,14.63712837
1102,14.56652606
1103,14.59141884
1104,14.55362439
1105,14.62803486
1106,14.62116577
1107,14.56346423
1108,14.62629501
1109,14.63743264
1110,14.54446832
1111,14.54707372
1112,14.5623435
1113,14.56430824
1114,14.50457865
1115,14.46222356
1116,14.67052423
1117,14.57185865
1118,14.62927025
1119,14.5664938
1120,14.56163265
1121,14.48912531
1122,14.58819977
1123,14.50585939
1124,14.51981955
1125,14.46083655
1126,14.54284622
1127,14.53376862
1128,14.59129063
1129,14.5611071
1130,14.53662455
1131,14.61100584
1132,14.42002025
1133,14.48359245
1134,14.56728371
1135,14.53525125
1136,14.50171601
1137,14.5280616
1138,14.50601956
1139,14.49603306
1140,14.4528531
1141,14.43482907
1142,14.39864379
1143,14.4542766
1144,14.50241081
1145,14.4116694
1146,14.50088364
1147,14.45307097
1148,14.50291345
1149,14.44963489
1150,14.49354493
1151,14.44142761
1152,14.34365931
1153,14.43286819
1154,14.3946553
1155,14.39804491
1156,14.49051065
1157,14.45694809
1158,14.39020455
1159,14.46366224
1160,14.38278529
1161,14.44172388
1162,14.48524205
1163,14.39193093
1164,14.34137419
1165,14.5004563
1166,14.42457083
1167,14.44012057
1168,14.36698818
1169,14.45620822
1170,14.46725757
1171,14.42257081
1172,14.49083203
1173,14.37096614
1174,14.36585372
1175,14.44763546
1176,14.44391994
1177,14.36280903
1178,14.40559424
1179,14.37677185
1180,14.42183197
1181,14.40527698
1182,14.44985781
1183,14.3981537
1184,14.3651882
1185,14.46951565
1186,14.40651063
1187,14.45352825
1188,14.43639635
1189,14.38726354
1190,14.44708203
1191,14.47850801
1192,14.39504127
1193,14.45879601
1194,14.38754041
1195,14.47854068
1196,14.42726526
1197,14.45377598
1198,14.38203358
1199,14.39440779
1200,14.35695619
1201,14.40504262
1202,14.40196911
1203,14.42877644
1204,14.37730241
1205,14.48452244
1206,14.43341396
1207,14.44065277
1208,14.40696955
1209,14.4650877
1210,14.34747787
1211,14.40140426
1212,14.42117589
1213,14.37874363
1214,14.38133952
1215,14.31534245
1216,14.40728481
1217,14.40410644
1218,14.39436018
1219,14.46616926
1220,14.35041918
1221,14.44560796
1222,14.42097867
1223,14.34982568
1224,14.44739028
1225,14.43263277
1226,14.36435298
1227,14.39477793
1228,14.43213667
1229,14.3980648
1230,14.48921325
1231,14.3452585
1232,14.48597515
1233,14.42275436
1234,14.42486671
1235,14.35925133
1236,14.40807242
1237,14.4837786
1238,14.43671983
1239,14.3348821
1240,14.45540876
1241,14.36099216
1242,14.35314538
1243,14.4244327
1244,14.47851622
1245,14.34429876
1246,14.37668066
1247,14.31490211
1248,14.37918358
1249,14.38163349
1250,14.33316356
1251,14.40871845
1252,14.40732759
1253,14.42143387
1254,14.43020922
1255,14.4038877
1256,14.42553092
1257,14.40600976
1258,14.44664806
1259,14.35889759
1260,14.3593531
1261,14.3125742
1262,14.38288995
1263,14.39906707
1264,14.40409503
1265,14.38169558
1266,14.37248989
1267,14.44748323
1268,14.42236896
1269,14.42699049
1270,14.32758345
1271,14.3830638
1272,14.34267381
1273,14.29117272
1274,14.45367767
1275,14.31696837
1276,14.4540852
1277,14.4160339
1278,14.34009764
1279,14.40707221
1280,14.33246376
1281,14.41085339
1282,14.39701193
1283,14.38445471
1284,14.44879706
1285,14.3894546
1286,14.43445733
1287,14.3756036
1288,14.37659486
1289,14.3314874
1290,14.42857821
1291,14.45118935
1292,14.39392804
1293,14.49007545
1294,14.4952505
1295,14.48246458
1296,14.40195822
1297,14.40537971
1298,14.4673507
1299,14.37752842
1300,14.41673346
1301,14.36514006
1302,14.27411986
1303,14.42942984
1304,14.42442486
1305,14.48410169
1306,14.49064467
1307,14.37696254
1308,14.45950831
1309,14.4084085
1310,14.3032965
1311,14.31917458
1312,14.42807636
1313,14.42553525
1314,14.40906665
1315,14.4264862
1316,14.32934866
1317,14.46174313
1318,14.33952163
1319,14.41661362
1320,14.45508111
1321,14.37005667
1322,14.45214735
1323,14.33018788
1324,14.31676478
1325,14.4201872
1326,14.35890282
1327,14.36354232
1328,14.38113657
1329,14.4597117
1330,14.28783691
1331,14.43488501
1332,14.41108478
1333,14.34007543
1334,14.39503631
1335,14.41091065
1336,14.45378802
1337,14.38624875
1338,14.368235
1339,14.34543055
1340,14.40884074
1341,14.30817057
1342,14.48309989
1343,14.48633702
1344,14.3808747
1345,14.39434197
1346,14.42547294
1347,14.40303149
1348,14.46563728
1349,14.43013171
1350,14.4688649
1351,14.38979695
1352,14.37628057
1353,14.38572713
1354,14.3247041
1355,14.36703045
1356,14.43284484
1357,14.43353539
1358,14.40577966
1359,14.43848494
1360,14.43183097
1361,14.370207
1362,14.39938501
1363,14.43188907
1364,14.43524711
1365,14.43564573
1366,14.39766378
1367,14.36406678
1368,14.38177022
1369,14.39272694
1370,14.38969208
1371,14.39887059
1372,14.3438376
1373,14.46943734
1374,14.34186752
1375,14.36092618
1376,14.46277941
1377,14.39228372
1378,14.44540719
1379,14.36835731
1380,14.37729804
1381,14.32897606
1382,14.41387128
1383,14.38647953
1384,14.39008599
1385,14.49771637
1386,14.37007678
1387,14.42399167
1388,14.40763305
1389,14.40125931
1390,14.37483834
1391,14.41569342
1392,14.39114899
1393,14.37370358
1394,14.38344774
1395,14.39517111
1396,14.37337446
1397,14.33448443
1398,14.42666204
1399,14.38058781
1400,14.40462136
1401,14.35562822
1402,14.36886684
1403,14.38538778
1404,14.39030978
1405,14.40759292
1406,14.38882795
1407,14.41363228
1408,14.38549076
1409,14.36693965
1410,14.38862399
1411,14.43371434
1412,14.41234071
1413,14.36336961
1414,14.31620494
1415,14.43355321
1416,14.38290529
1417,14.33076973
1418,14.37051434
1419,14.32072819
1420,14.4384861
1421,14.42644851
1422,14.45108715
1423,14.42729967
1424,14.28503266
1425,14.39093933
1426,14.46146802
1427,14.48026366
1428,14.32194861
1429,14.41269793
1430,14.50044875
1431,14.47256694
1432,14.3512238
1433,14.40270852
1434,14.36458626
1435,14.44986028
1436,14.43046932
1437,14.40161067
1438,14.47981578
1439,14.38990084
1440,14.40211238
1441,14.421627
1442,14.3578555
1443,14.43581975
1444,14.4091797
1445,14.44677338
1446,14.25987358
1447,14.40214329
1448,14.36148305
1449,14.36881017
1450,14.41430381
1451,14.35725373
1452,14.31451977
1453,14.41770053
1454,14.35752335
1455,14.43969896
1456,14.48848459
1457,14.32932497
1458,14.42189383
1459,14.40611888
1460,14.34668956
1461,14.40394804
1462,14.48965438
1463,14.48289359
1464,14.38330154
1465,14.4317141
1466,14.35813282
1467,14.42454476
1468,14.49013004
1469,14.39252213
1470,14.4466532
1471,14.33581749
1472,14.42499033
1473,14.36747866
1474,14.43562402
1475,14.419821
1476,14.35106415
1477,14.41243395
1478,14.42977944
1479,14.45698632
1480,14.41083134
1481,14.3616496
1482,14.52517042
1483,14.45556465
1484,14.39632858
1485,14.43043117
1486,14.48767858
1487,14.473338
1488,14.32289477
1489,14.45733168
1490,14.37933118
1491,14.34880574
1492,14.36952996
1493,14.41242514
1494,14.39612991
1495,14.44426832
1496,14.42398225
1497,14.31786091
1498,14.40645393
1499,14.35688591
1500,14.4333231
1501,14.47267454
1502,14.43922293
1503,14.39059211
1504,14.35429624
1505,14.44860236
1506,14.3597309
1507,14.39662828
1508,14.34511237
1509,14.3821849
1510,14.44771048
1511,14.3168559
1512,14.39338494
1513,14.43073188
1514,14.36496113
1515,14.39562954
1516,14.3517679
1517,14.3406136
1518,14.42680793
1519,14.31977225
1520,14.3825426
1521,14.39222024
1522,14.4886979
1523,14.36976772
1524,14.3923477
1525,14.33762183
1526,14.4221895
1527,14.34841385
1528,14.44184104
1529,14.44430382
1530,14.36712926
1531,14.37563837
1532,14.44153791
1533,14.30792111
1534,14.35126117
1535,14.32338068
1536,14.3238862
1537,14.41006903
1538,14.43691812
1539,14.39010239
1540,14.29623238
1541,14.45026491
1542,14.32416625
1543,14.34341487
1544,14.48234805
1545,14.44247273
1546,14.37626576
1547,14.4170439
1548,14.38565377
1549,14.51528525
1550,14.41166891
1551,14.43984886
1552,14.38415293
1553,14.42809507
1554,14.41162508
1555,14.4432913
1556,14.37161065
1557,14.3997454
1558,14.43641881
1559,14.42483089
1560,14.31958908
1561,14.39748296
1562,14.28337531
1563,14.36851736
1564,14.44541787
1565,14.36100652
1566,14.45760256
1567,14.33900245
1568,14.38900796
1569,14.38832937
1570,14.47884701
1571,14.39126252
1572,14.40318583
1573,14.45743635
1574,14.38267305
1575,14.46995073
1576,14.45855805
1577,14.45255211
1578,14.39015628
1579,14.33913597
1580,14.43184436
1581,14.40233823
1582,14.32649927
1583,14.41206228
1584,14.44750254
1585,14.37013382
1586,14.43379108
1587,14.37689818
1588,14.51763797
1589,14.35419304
1590,14.39622374
1591,14.39057132
1592,14.42221811
1593,14.36469444
1594,14.3449331
1595,14.42642086
1596,14.47526076
1597,14.46774395
1598,14.4552871
1599,14.31328965
1600,14.32591178
1601,14.43233283
1602,14.40724245
1603,14.42292401
1604,14.39864896
1605,14.43837968
1606,14.53655978
1607,14.48185329
1608,14.39387098
1609,14.34415992
1610,14.44377139
1611,14.32467066
1612,14.31942609
1613,14.34908616
1614,14.34425943
1615,14.33531589
1616,14.29692793
1617,14.35999611
1618,14.4193334
1619,14.39300495
1620,14.36651842
1621,14.32783843
1622,14.48009044
1623,14.41931746
1624,14.347656
1625,14.42140996
1626,14.3409293
1627,14.37610768
1628,14.39114651
1629,14.29241429
1630,14.5021955
1631,14.35986246
1632,14.38956535
1633,14.3975038
1634,14.32924515
1635,14.37468664
1636,14.43262958
1637,14.39426624
1638,14.42464627
1639,14.44242636
1640,14.43041526
1641,14.33424042
1642,14.3920436
1643,14.43108832
1644,14.43755135
1645,14.48071371
1646,14.36292413
1647,14.35703342
1648,14.34833637
1649,14.35100019
1650,14.44844242
1651,14.46601347
1652,14.42171434
1653,14.42627903
1654,14.35390367
1655,14.38041907
1656,14.45975681
1657,14.40654942
1658,14.3583999
1659,14.3660098
1660,14.34350445
1661,14.44899312
1662,14.42369117
1663,14.45139247
1664,14.49874996
1665,14.41221729
1666,14.3490999
1667,14.43470574
1668,14.49608635
1669,14.50603927
1670,14.3474704
1671,14.44327955
1672,14.39254639
1673,14.36453449
1674,14.28133772
1675,14.42741027
1676,14.37707746
1677,14.22453612
1678,14.34465857
1679,14.51119473
1680,14.41836864
1681,14.45492531
1682,14.37996902
1683,14.31793
1684,14.37152126
1685,14.44384884
1686,14.32087053
1687,14.3371896
1688,14.40484166
1689,14.38353856
1690,14.42240576
1691,14.41785581
1692,14.38406495
1693,14.44307257
1694,14.34488526
1695,14.49441226
1696,14.37847445
1697,14.45472469
1698,14.33859456
1699,14.40165477
1700,14.39088548
1701,14.41337886
1702,14.4006731
1703,14.34464367
1704,14.35555573
1705,14.32972156
1706,14.38713067
1707,14.3803253
1708,14.4025155
1709,14.34383023
1710,14.41551245
1711,14.38213283
1712,14.38089719
1713,14.39186713
1714,14.36481749
1715,14.36716852
1716,14.45074494
1717,14.33332215
1718,14.4431867
1719,14.36544681
1720,14.5028737
1721,14.40194381
1722,14.43757934
1723,14.40616871
1724,14.37494874
1725,14.31408555
1726,14.33297896
1727,14.433617
1728,14.3405503
1729,14.40877152
1730,14.27869938
1731,14.38847253
1732,14.37546918
1733,14.3904758
1734,14.39801134
1735,14.46847562
1736,14.47993511
1737,14.39167095
1738,14.36970435
1739,14.40980925
1740,14.38307468
1741,14.25975276
1742,14.31586198
1743,14.44002781
1744,14.47255147
1745,14.43218974
1746,14.30254657
1747,14.42854757
1748,14.35087079
1749,14.35982005
1750,14.35572008
1751,14.40550457
1752,14.39584581
1753,14.39519631
1754,14.44539706
1755,14.33018063
1756,14.3822281
1757,14.32350033
1758,14.37902697
1759,14.33626269
1760,14.39373922
1761,14.40124054
1762,14.41392478
1763,14.36288879
1764,14.43831688
1765,14.33034877
1766,14.40705427
1767,14.31198119
1768,14.39321201
1769,14.40847341
1770,14.48275765
1771,14.43065913
1772,14.37842177
1773,14.36977555
1774,14.42856754
1775,14.51159469
1776,14.34076887
1777,14.32779138
1778,14.48311765
1779,14.50808661
1780,14.46863432
1781,14.28888503
1782,14.45314875
1783,14.45078885
1784,14.35297761
1785,14.37081872
1786,14.38967048
1787,14.45903923
1788,14.3882218
1789,14.37792086
1790,14.4216031
1791,14.27877794
1792,14.38928685
1793,14.36597763
1794,14.44368023
1795,14.40829771
1796,14.41391037
1797,14.36841528
1798,14.31409635
1799,14.40516482
1800,14.33768528
1801,14.4157213
1802,14.39258408
1803,14.44793678
1804,14.40575062
1805,14.40041287
1806,14.37894208
1807,14.43520591
1808,14.3259661
1809,14.39685564
1810,14.38339296
1811,14.44765646
1812,14.43717295
1813,14.40288812
1814,14.37566564
1815,14.45912527
1816,14.36084831
1817,14.4727421
1818,14.36907824
1819,14.38686239
1820,14.38205235
1821,14.38476908
1822,14.44005944
1823,14.39194739
1824,14.42246089
1825,14.47372264
1826,14.43680302
1827,14.29792456
1828,14.44092885
1829,14.34126798
1830,14.45474432
1831,14.44762133
1832,14.42914062
1833,14.37331292
1834,14.39739547
1835,14.4301823
1836,14.30279695
1837,14.39006599
1838,14.46696488
1839,14.47880634
1840,14.41594855
1841,14.41273761
1842,14.41017495
1843,14.52050083
1844,14.35978945
1845,14.42896586
1846,14.31872392
1847,14.34838929
1848,14.4019202
1849,14.44643836
1850,14.39148786
1851,14.4203437
1852,14.30986035
1853,14.42297646
1854,14.35859998
1855,14.44970019
1856,14.35632874
1857,14.4772226
1858,14.47235425
1859,14.47540982
1860,14.39879564
1861,14.4249789
1862,14.41648191
1863,14.41211049
1864,14.40211128
1865,14.4874328
1866,14.3965459
1867,14.4050669
1868,14.37832052
1869,14.44953195
1870,14.3281457
1871,14.39745841
1872,14.36831582
1873,14.37696578
1874,14.31781677
1875,14.31947565
1876,14.50087792
1877,14.40531102
1878,14.4081526
1879,14.40149797
1880,14.35469878
1881,14.35073972
1882,14.40950127
1883,14.39609045
1884,14.42878133
1885,14.36150772
1886,14.38193588
1887,14.38629292
1888,14.43624253
1889,14.39057804
1890,14.43394837
1891,14.47889314
1892,14.42593131
1893,14.36077324
1894,14.36360222
1895,14.45341818
1896,14.31130191
1897,14.39995845
1898,14.33374573
1899,14.39527001
1900,14.45160538
1901,14.49100755
1902,14.44040872
1903,14.45058304
1904,14.21938168
1905,14.37077914
1906,14.409334
1907,14.41810447
1908,14.38936923
1909,14.36796194
1910,14.3703502
1911,14.36254305
1912,14.38883667
1913,14.37353142
1914,14.35968596
1915,14.4649376
1916,14.35842057
1917,14.34400169
1918,14.3893997
1919,14.39196892
1920,14.42408416
1921,14.43071208
1922,14.40019524
1923,14.41705929
1924,14.38584729
1925,14.46405486
1926,14.35320331
1927,14.44148404
1928,14.52752836
1929,14.37132662
1930,14.37179953
1931,14.39376287
1932,14.29877047
1933,14.42280426
1934,14.37958519
1935,14.34238637
1936,14.33162422
1937,14.37555702
1938,14.46744844
1939,14.40180402
1940,14.33142678
1941,14.3618085
1942,14.40154374
1943,14.40590958
1944,14.43580567
1945,14.3553475
1946,14.39863091
1947,14.41520643
1948,14.29870083
1949,14.41256445
1950,14.36624654
1951,14.42384174
1952,14.37097161
1953,14.41786033
1954,14.38967502
1955,14.44658354
1956,14.36701763
1957,14.36806144
1958,14.33878514
1959,14.44721721
1960,14.35542782
1961,14.46770962
1962,14.42325796
1963,14.43973044
1964,14.44801638
1965,14.45201228
1966,14.44411119
1967,14.30686603
1968,14.4214545
1969,14.41557222
1970,14.40681194
1971,14.4549172
1972,14.36325592
1973,14.37971615
1974,14.36883231
1975,14.36023665
1976,14.4150056
1977,14.37756842
1978,14.42071253
1979,14.44870736
1980,14.42021717
1981,14.4491255
1982,14.43496746
1983,14.48981517
1984,14.42676359
1985,14.50466088
1986,14.46581646
1987,14.35384174
1988,14.41531454
1989,14.42211831
1990,14.30470131
1991,14.35683733
1992,14.33560657
1993,14.36835242
1994,14.36516656
1995,14.39464204
1996,14.39255144
1997,14.33457121
1998,14.42947808
1999,14.37787579
2000,14.34596016
2001,14.41823588
2002,14.46237742
2003,14.5162326
2004,14.40053263
2005,14.34343937
2006,14.45282536
2007,14.37026249
2008,14.52476384
2009,14.36246312
2010,14.39331405
2011,14.35550415
2012,14.40316382
2013,14.43177957
2014,14.45862782
2015,14.45750466
2016,14.31184195
2017,14.42832785
2018,14.44684086
2019,14.37287143
2020,14.37120547
2021,14.34393819
2022,14.34817938
2023,14.42891227
2024,14.43019229
2025,14.37931917
2026,14.41652666
2027,14.45257842
2028,14.38582766
2029,14.31722432
2030,14.33395841
2031,14.37052016
2032,14.36844235
2033,14.36828082
2034,14.48756179
2035,14.40656124
2036,14.4655207
2037,14.4008461
2038,14.51940656
2039,14.37172425
2040,14.42459113
2041,14.46618475
2042,14.39479863
2043,14.46347177
2044,14.4976447
2045,14.4030959
2046,14.39485552
2047,14.34230188
2048,14.36726932
2049,14.40294215
2050,14.41144409
2051,14.45159564
2052,14.45464179
2053,14.33094018
2054,14.37502283
2055,14.32348331
2056,14.38029396
2057,14.36392224
2058,14.41167013
2059,14.4136129
2060,14.43652413
2061,14.3903752
2062,14.33784011
2063,14.40017509
2064,14.38644545
2065,14.3512634
2066,14.39370908
2067,14.38965431
2068,14.478676
2069,14.38081228
2070,14.44239483
2071,14.44500991
2072,14.40699847
2073,14.38566564
2074,14.39267652
2075,14.42342652
2076,14.47537265
2077,14.36752163
2078,14.34368904
2079,14.38082926
2080,14.28246608
2081,14.30109289
2082,14.465075
2083,14.4200331
2084,14.42589956
2085,14.49395151
2086,14.3992612
2087,14.38222339
2088,14.50876652
2089,14.43036577
2090,14.30883971
2091,14.39205974
2092,14.34391696
2093,14.38001626
2094,14.42401167
2095,14.29715139
2096,14.29818143
2097,14.44316462
2098,14.44741355
2099,14.41703033
2100,14.35278262
2101,14.42569829
2102,14.3714224
2103,14.32371236
2104,14.34387709
2105,14.36519916
2106,14.43349511
2107,14.35772983
2108,14.32680058
2109,14.44058333
2110,14.41078816
2111,14.46403795
2112,14.47253246
2113,14.43853757
2114,14.46203378
2115,14.419197
2116,14.4348528
2117,14.38081204
2118,14.36087277
2119,14.39472259
2120,14.35663326
2121,14.50020383
2122,14.37079771
2123,14.36555674
2124,14.37989654
2125,14.40361391
2126,14.38958877
2127,14.42639418
2128,14.41691285
2129,14.37660312
2130,14.44989896
2131,14.36303132
2132,14.37641664
2133,14.33178509
2134,14.41246774
2135,14.43066312
2136,14.37114531
2137,14.42512058
2138,14.38572919
2139,14.46095629
2140,14.49295162
2141,14.36861359
2142,14.45562923
2143,14.39519788
2144,14.42961116
2145,14.41914024
2146,14.35623953
2147,14.38278445
2148,14.3738427
2149,14.36803855
2150,14.45489562
2151,14.34184695
2152,14.49279545
2153,14.41566757
2154,14.38718654
2155,14.39011038
2156,14.43891142
2157,14.38909623
2158,14.48297838
2159,14.43623163
2160,14.38791908
2161,14.42091559
2162,14.41218439
2163,14.44014332
2164,14.33694843
2165,14.50732094
2166,14.33517522
2167,14.40850588
2168,14.36831841
2169,14.39298042
2170,14.36190413
2171,14.34752993
2172,14.37028103
2173,14.36526041
2174,14.3118366
2175,14.37328168
2176,14.36634454
2177,14.39371696
2178,14.43390054
2179,14.33078573
2180,14.37246058
2181,14.3851332
2182,14.36640321
2183,14.40885803
2184,14.36244979
2185,14.41489472
2186,14.43615196
2187,14.356715
2188,14.44559962
2189,14.40206615
2190,14.3224647
2191,14.3516091
2192,14.40144482
2193,14.46140529
2194,14.40672749
2195,14.3766835
2196,14.31754708
2197,14.40922149
2198,14.4253294
2199,14.41216518
2200,14.47958645
2201,14.35558745
2202,14.32060092
2203,14.46634462
2204,14.41956832
2205,14.40484429
2206,14.35327698
2207,14.36590382
2208,14.42303067
2209,14.37732919
2210,14.25117355
2211,14.31841816
2212,14.4326147
2213,14.39544354
2214,14.27187636
2215,14.51224059
2216,14.38531484
2217,14.40756817
2218,14.36552771
2219,14.36274696
2220,14.38804657
2221,14.38615531
2222,14.39975335
2223,14.44182015
2224,14.42474158
2225,14.38298005
2226,14.46908255
2227,14.38735642
2228,14.44741197
2229,14.33743776
2230,14.3769381
2231,14.41460416
2232,14.39944531
2233,14.43220954
2234,14.36080174
2235,14.41238771
2236,14.42271967
2237,14.44856569
2238,14.39570893
2239,14.38653434
2240,14.43194202
2241,14.3710432
2242,14.43179807
2243,14.44680173
2244,14.41775289
2245,14.3018485
2246,14.30624326
2247,14.44194787
2248,14.53325178
2249,14.40189624
2250,14.42758072
2251,14.40781302
2252,14.32602628
2253,14.35677271
2254,14.40589448
2255,14.38051999
2256,14.36969889
2257,14.40659646
2258,14.34402408
2259,14.32193084
2260,14.356463
2261,14.42008108
2262,14.3899113
2263,14.33871511
2264,14.42271397
2265,14.42039734
2266,14.38902416
2267,14.52565027
2268,14.39497776
2269,14.40489739
2270,14.41856726
2271,14.36510921
2272,14.37750521
2273,14.45485094
2274,14.41863042
2275,14.32711243
2276,14.36294966
2277,14.42143414
2278,14.40546303
2279,14.37271114
2280,14.36209344
2281,14.40731546
2282,14.37485181
2283,14.32163309
2284,14.4776693
2285,14.48599
2286,14.42874771
2287,14.37493529
2288,14.36755192
2289,14.39222852
2290,14.34391372
2291,14.39927639
2292,14.34967264
2293,14.41052927
2294,14.42551972
2295,14.3838905
2296,14.43516945
2297,14.35528798
2298,14.44285325
2299,14.40424017
2300,14.35098971
2301,14.44780014
2302,14.45302605
2303,14.33841813
2304,14.41273492
2305,14.42237792
2306,14.36334222
2307,14.48830525
2308,14.42529089
2309,14.47730642
2310,14.32221435
2311,14.38172616
2312,14.3849123
2313,14.42776519
2314,14.37018961
2315,14.37461126
2316,14.4167838
2317,14.39152243
2318,14.39580428
2319,14.32483589
2320,14.40190648
2321,14.35467406
2322,14.33682538
2323,14.32525585
2324,14.4386625
2325,14.42978057
2326,14.43757366
2327,14.3938484
2328,14.47403958
2329,14.43028083
2330,14.44226068
2331,14.30744482
2332,14.36654031
2333,14.42287792
2334,14.37863074
2335,14.38681719
2336,14.41148838
2337,14.3931344
2338,14.40789263
2339,14.39398095
2340,14.43968517
2341,14.39590247
2342,14.47913418
2343,14.41722842
2344,14.4170819
2345,14.48769476
2346,14.3918299
2347,14.47386711
2348,14.40430406
2349,14.36508528
2350,14.41375397
2351,14.41822384
2352,14.44267953
2353,14.31802978
2354,14.38134973
2355,14.44748815
2356,14.42141321
2357,14.35103664
2358,14.5044804
2359,14.37030644
2360,14.42348102
2361,14.4552708
2362,14.51628432
2363,14.35885845
2364,14.39496548
2365,14.40968555
2366,14.35485676
2367,14.47539686
2368,14.41202666
2369,14.46323316
2370,14.41707598
2371,14.38156994
2372,14.37219258
2373,14.38352572
2374,14.43324684
2375,14.42258793
2376,14.30466713
2377,14.37858785
2378,14.43468893
2379,14.40203827
2380,14.39811707
2381,14.45518425
2382,14.37166561
2383,14.44185648
2384,14.38972765
2385,14.34332369
2386,14.37441614
2387,14.35535865
2388,14.465232
2389,14.35939093
2390,14.32914603
2391,14.4358032
2392,14.33097459
2393,14.45427784
2394,14.42853631
2395,14.40125887
2396,14.40655004
2397,14.36809448
2398,14.36823764
2399,14.35276846
2400,14.36529644
2401,14.36365657
2402,14.45203189
2403,14.35080842
2404,14.43005705
2405,14.43106172
2406,14.39461888
2407,14.34299489
2408,14.36311273
2409,14.37452636
2410,14.38658603
2411,14.4160633
2412,14.40460104
2413,14.41098447
2414,14.40550627
2415,14.4409286
2416,14.41226756
2417,14.36862722
2418,14.30262505
2419,14.29113564
2420,14.3261716
2421,14.34825953
2422,14.45322
2423,14.35909527
2424,14.45446826
2425,14.44919145
2426,14.41215261
2427,14.3065889
2428,14.36707512
2429,14.47580675
2430,14.37237019
2431,14.34226833
2432,14.35758993
2433,14.35306477
2434,14.37135143
2435,14.40890345
2436,14.37030159
2437,14.41189332
2438,14.40863814
2439,14.31609883
2440,14.35660961
2441,14.46817097
2442,14.35741753
2443,14.42376554
2444,14.37554664
2445,14.37782643
2446,14.42676469
2447,14.45717305
2448,14.37311892
2449,14.37909342
2450,14.34629861
2451,14.35949065
2452,14.40589386
2453,14.31475364
2454,14.54240318
2455,14.41414673
2456,14.37219745
2457,14.41067061
2458,14.31741771
2459,14.39762824
2460,14.51068967
2461,14.40013238
2462,14.42433977
2463,14.34336594
2464,14.3665464
2465,14.48290809
2466,14.34950693
2467,14.51805453
2468,14.29061889
2469,14.38795569
2470,14.35277627
2471,14.41966146
2472,14.42965514
2473,14.37579392
2474,14.35793529
2475,14.3793877
2476,14.36721124
2477,14.37182033
2478,14.40594901
2479,14.45932406
2480,14.38508977
2481,14.45097217
2482,14.38082236
2483,14.43054684
2484,14.36939992
2485,14.43644775
2486,14.44233291
2487,14.44076751
2488,14.3636831
2489,14.39319401
2490,14.43273896
2491,14.33651655
2492,14.4361516
2493,14.39812644
2494,14.42675198
2495,14.3954617
2496,14.41820243
2497,14.4948981
2498,14.40362145
2499,14.4560219
2500,14.29825173
2501,14.34941137
2502,14.46544623
2503,14.44431496
2504,14.42380779
2505,14.42774602
2506,14.33624374
2507,14.42717264
2508,14.33712485
2509,14.42640949
2510,14.46935755
2511,14.37840943
2512,14.25916068
2513,14.37999266
2514,14.40953216
2515,14.39932889
2516,14.46909873
2517,14.34560734
2518,14.37613308
2519,14.41109011
2520,14.39397482
2521,14.43363462
2522,14.4522439
2523,14.3697758
2524,14.41470748
2525,14.42882785
2526,14.32638334
2527,14.45399478
2528,14.4138163
2529,14.38755922
2530,14.3784077
2531,14.39099851
2532,14.40597271
2533,14.46298266
2534,14.48847285
2535,14.43081928
2536,14.37396526
2537,14.33336657
2538,14.42471342
2539,14.45918752
2540,14.44225142
2541,14.42337832
2542,14.39249776
2543,14.45774049
2544,14.45106856
2545,14.3284816
2546,14.43757187
2547,14.4102726
2548,14.38400847
2549,14.36493353
2550,14.28710356
2551,14.38881776
2552,14.36235121
2553,14.45471284
2554,14.31886707
2555,14.42257599
2556,14.35769714
2557,14.41077973
2558,14.4243464
2559,14.30138703
2560,14.35703804
2561,14.41471746
2562,14.34931958
2563,14.43821622
2564,14.41335183
2565,14.46003065
2566,14.38218812
2567,14.3708779
2568,14.45315025
2569,14.41161785
2570,14.42494669
2571,14.4622718
2572,14.4192935
2573,14.32918252
2574,14.34242193
2575,14.43486362
2576,14.38964223
2577,14.37788326
2578,14.34251113
2579,14.37850379
2580,14.37624063
2581,14.3913056
2582,14.4684681
2583,14.42842692
2584,14.33471678
2585,14.41467002
2586,14.32005361
2587,14.34059518
2588,14.49618719
2589,14.31862334
2590,14.40974614
2591,14.3608119
2592,14.29927124
2593,14.41128199
2594,14.47464848
2595,14.42834923
2596,14.40182897
2597,14.36894121
2598,14.34886095
2599,14.46456252
2600,14.38309708
2601,14.46169523
2602,14.38316487
2603,14.38520017
2604,14.44911445
2605,14.3643535
2606,14.519107
2607,14.50191722
2608,14.42764854
2609,14.3642834
2610,14.36652879
2611,14.32713398
2612,14.46179032
2613,14.35042879
2614,14.40608853
2615,14.48743282
2616,14.43328643
2617,14.36533892
2618,14.37813254
2619,14.32431693
2620,14.3065379
2621,14.40021431
2622,14.55441043
2623,14.35968885
2624,14.41098013
2625,14.38173304
2626,14.43214114
2627,14.4735712
2628,14.42154926
2629,14.32237243
2630,14.43832667
2631,14.44525811
2632,14.32533169
2633,14.36400205
2634,14.34528742
2635,14.31489274
2636,14.44666374
2637,14.42061939
2638,14.49089761
2639,14.36523162
2640,14.3560043
2641,14.45691492
2642,14.47009549
2643,14.3624934
2644,14.48265635
2645,14.5238361
2646,14.39997342
2647,14.43577823
2648,14.41555446
2649,14.38775672
2650,14.39953272
2651,14.3397596
2652,14.51784804
2653,14.4336942
2654,14.39724548
2655,14.40503521
2656,14.43374944
2657,14.41736198
2658,14.40429667
2659,14.48084933
2660,14.44684683
2661,14.25340061
2662,14.35571447
2663,14.37099565
2664,14.40785538
2665,14.52892858
2666,14.39608661
2667,14.3637876
2668,14.40973945
2669,14.29824365
2670,14.34920636
2671,14.3103943
2672,14.36822715
2673,14.30490086
2674,14.39531223
2675,14.47876254
2676,14.41801001
2677,14.30873047
2678,14.46326279
2679,14.38658873
2680,14.42319668
2681,14.41186834
2682,14.40228044
2683,14.41335834
2684,14.50523823
2685,14.3242589
2686,14.38202263
2687,14.46420201
2688,14.34366335
2689,14.40986727
2690,14.37639553
2691,14.34626453
2692,14.32594556
2693,14.47400775
2694,14.43947369
2695,14.39483426
2696,14.47228409
2697,14.33590768
2698,14.43282653
2699,14.41177085
2700,14.41794638
2701,14.39984324
2702,14.44189074
2703,14.34520729
2704,14.51805379
2705,14.38879372
2706,14.3452119
2707,14.40861768
2708,14.35778717
2709,14.26891906
2710,14.41489411
2711,14.3920454
2712,14.31586506
2713,14.48362561
2714,14.38820834
2715,14.45310066
2716,14.52246954
2717,14.30643109
2718,14.4375618
2719,14.44241548
2720,14.47522699
2721,14.29945091
2722,14.45655204
2723,14.36834135
2724,14.40767155
2725,14.45161742
2726,14.37154554
2727,14.37385789
2728,14.33493095
2729,14.37888566
2730,14.30736266
2731,14.41103758
2732,14.42905186
2733,14.42688499
2734,14.47740946
2735,14.41547793
2736,14.49158588
2737,14.36359363
2738,14.41864132
2739,14.3666416
2740,14.42469818
2741,14.33853192
2742,14.43707752
2743,14.36012658
2744,14.43223946
2745,14.47747677
2746,14.31458287
2747,14.460433
2748,14.34306329
2749,14.39929552
2750,14.38243763
2751,14.38638241
2752,14.32799202
2753,14.34673769
2754,14.40017684
2755,14.38302838
2756,14.29332364
2757,14.37278492
2758,14.31995051
2759,14.37326085
2760,14.44959492
2761,14.42204531
2762,14.31462737
2763,14.30254131
2764,14.34491338
2765,14.3653983
2766,14.34682971
2767,14.38419931
2768,14.38193883
2769,14.46798004
2770,14.51027616
2771,14.37510761
2772,14.32471306
2773,14.45679265
2774,14.3869206
2775,14.36522353
2776,14.51926903
2777,14.47224828
2778,14.44219562
2779,14.51779457
2780,14.32350723
2781,14.37900005
2782,14.44420158
2783,14.38078221
2784,14.3820102
2785,14.3466081
2786,14.34921666
2787,14.34253493
2788,14.42373312
2789,14.40306187
2790,14.37478767
2791,14.43131452
2792,14.43900986
2793,14.45024747
2794,14.39909608
2795,14.27944672
2796,14.43440774
2797,14.37913213
2798,14.40868857
2799,14.38940463
2800,14.35869497
2801,14.33894741
2802,14.44284916
2803,14.37056545
2804,14.40802372
2805,14.36437941
2806,14.39179844
2807,14.41687351
2808,14.34695418
2809,14.38229147
2810,14.41425088
2811,14.36618201
2812,14.41954527
2813,14.33706106
2814,14.35569739
2815,14.39598266
2816,14.39502232
2817,14.42797526
2818,14.39585282
2819,14.40804564
2820,14.49692879
2821,14.39595483
2822,14.45212767
2823,14.41055751
2824,14.3454323
2825,14.42419531
2826,14.3911248
2827,14.37358206
2828,14.41326259
2829,14.44043767
2830,14.37718253
2831,14.40762651
2832,14.45046056
2833,14.38497266
2834,14.38419259
2835,14.42138182
2836,14.38804678
2837,14.44792246
2838,14.3694702
2839,14.45396899
2840,14.40903956
2841,14.37298609
2842,14.49252256
2843,14.34174208
2844,14.46837538
2845,14.42033177
2846,14.4268824
2847,14.41691188
2848,14.34264174
2849,14.40158209
2850,14.39972979
2851,14.39104885
2852,14.49974395
2853,14.39011901
2854,14.43234882
2855,14.43400894
2856,14.45068062
2857,14.41170375
2858,14.35661263
2859,14.44329302
2860,14.45095232
2861,14.44275948
2862,14.41581929
2863,14.34428363
2864,14.3188681
2865,14.335816
2866,14.48275973
2867,14.36944113
2868,14.39388037
2869,14.3947672
2870,14.38840313
2871,14.38036904
2872,14.42158368
2873,14.30844673
2874,14.43219421
2875,14.33788274
2876,14.37519973
2877,14.34363848
2878,14.38120562
2879,14.45194239
2880,14.4039201
2881,14.43470558
2882,14.41214738
2883,14.36837427
2884,14.38630047
2885,14.32326162
2886,14.44163942
2887,14.37392706
2888,14.43492846
2889,14.39541734
2890,14.43344809
2891,14.39971011
2892,14.40638711
2893,14.35372105
2894,14.35486386
2895,14.40654888
2896,14.40192818
2897,14.43232424
2898,14.46646469
2899,14.40079809
2900,14.37300214
2901,14.36194982
2902,14.5159617
2903,14.40264969
2904,14.37804054
2905,14.35342929
2906,14.32953807
2907,14.43313992
2908,14.37215843
2909,14.315638
2910,14.36699505
2911,14.33543138
2912,14.29176212
2913,14.47704911
2914,14.43335483
2915,14.43241559
2916,14.42662791
2917,14.36160893
2918,14.42599606
2919,14.28808908
2920,14.476312
2921,14.39582303
2922,14.3618753
2923,14.33671849
2924,14.40795567
2925,14.33811645
2926,14.3522849
2927,14.46873461
2928,14.47977861
2929,14.38879356
2930,14.30357729
2931,14.39223819
2932,14.42269132
2933,14.43056387
2934,14.59404279
2935,14.43838248
2936,14.45662379
2937,14.34875395
2938,14.46083889
2939,14.43203821
2940,14.29837415
2941,14.34754027
2942,14.4518693
2943,14.43534993
2944,14.39985665
2945,14.39451221
2946,14.4853185
2947,14.49133814
2948,14.45999292
2949,14.40255581
2950,14.39778138
2951,14.47671003
2952,14.39825896
2953,14.40983147
2954,14.38229597
2955,14.38108175
2956,14.31284668
2957,14.37036026
2958,14.30396471
2959,14.41633355
2960,14.34247124
2961,14.39462252
2962,14.3727337
2963,14.30821889
2964,14.40385426
2965,14.41290755
2966,14.30859029
2967,14.35469324
2968,14.51915272
2969,14.35708163
2970,14.42705005
2971,14.37189782
2972,14.35906354
2973,14.3917941
2974,14.36650771
2975,14.42680276
2976,14.38250766
2977,14.42853812
2978,14.41875259
2979,14.44172354
2980,14.31130664
2981,14.2907459
2982,14.49167121
2983,14.35457126
2984,14.40891731
2985,14.41336139
2986,14.35790675
2987,14.41810327
2988,14.37630644
2989,14.35227239
2990,14.30914761
2991,14.46702059
2992,14.35330222
2993,14.40632698
2994,14.44214069
2995,14.40123711
2996,14.36938136
2997,14.42620996
2998,14.33179027
2999,14.44272752
3000,14.36300092
3001,14.44165632
3002,14.45450778
3003,14.42877985
3004,14.31421123
3005,14.38040676
3006,14.38545609
3007,14.33263753
3008,14.33520604
3009,14.38592941
3010,14.43794971
3011,14.47273653
3012,14.39595226
3013,14.38311466
3014,14.38314286
3015,14.35757366
3016,14.37894852
3017,14.39467442
3018,14.38711668
3019,14.35451707
3020,14.47704623
3021,14.36337351
3022,14.37217258
3023,14.50839082
3024,14.42513215
3025,14.45017724
3026,14.36044856
3027,14.52934223
3028,14.35252937
3029,14.35038763
3030,14.43200955
3031,14.46094596
3032,14.37202784
3033,14.41343372
3034,14.48376191
3035,14.36665365
3036,14.38612258
3037,14.34594512
3038,14.35454959
3039,14.4105903
3040,14.37759484
3041,14.38397016
3042,14.39703433
3043,14.46234616
3044,14.36587262
3045,14.40417311
3046,14.38210947
3047,14.44042208
3048,14.45117237
3049,14.37074912
3050,14.28649322
3051,14.41581685
3052,14.35014282
3053,14.34361222
3054,14.42825545
3055,14.44191879
3056,14.30130271
3057,14.43909238
3058,14.37803438
3059,14.39112353
3060,14.29231893
3061,14.39389061
3062,14.34821453
3063,14.47204713
3064,14.38866475
3065,14.37568192
3066,14.48233465
3067,14.41853475
3068,14.38551973
3069,14.38653151
3070,14.40739096
3071,14.39391195
3072,14.36634353
3073,14.39205397
3074,14.34035698
3075,14.41729814
3076,14.42808919
3077,14.47665316
3078,14.35282327
3079,14.46154094
3080,14.35461534
3081,14.2856787
3082,14.45348949
3083,14.33482626
3084,14.4629927
3085,14.29893281
3086,14.34330894
3087,14.28416566
3088,14.48892034
3089,14.35234338
3090,14.37268138
3091,14.43170248
3092,14.41243784
3093,14.33095905
3094,14.35073596
3095,14.39852273
3096,14.37695758
3097,14.45213154
3098,14.45283385
3099,14.38590774
3100,14.3712303
3101,14.4526892
3102,14.33040905
3103,14.38700336
3104,14.38288092
3105,14.42369825
3106,14.38053326
3107,14.41263295
3108,14.37689853
3109,14.4824087
3110,14.39588635
3111,14.43697918
3112,14.41994337
3113,14.44606032
3114,14.42714023
3115,14.37259175
3116,14.43203653
3117,14.35972579
3118,14.32120352
3119,14.36865442
3120,14.43189348
3121,14.37999722
3122,14.36992821
3123,14.37416119
3124,14.51514653
3125,14.36838654
3126,14.34270924
3127,14.345327
3128,14.35565231
3129,14.29017407
3130,14.32315054
3131,14.40198108
3132,14.30753513
3133,14.37708792
3134,14.38497547
3135,14.37899452
3136,14.40192912
3137,14.37482674
3138,14.37053676
3139,14.41353984
3140,14.4115364
3141,14.33714941
3142,14.35573949
3143,14.38373373
3144,14.29839421
3145,14.36814371
3146,14.4016111
3147,14.48752116
3148,14.40656002
3149,14.43991577
3150,14.37036446
3151,14.41312701
3152,14.32445132
3153,14.45170544
3154,14.40667602
3155,14.38897205
3156,14.39837841
3157,14.39346128
3158,14.39025275
3159,14.34409534
3160,14.42217032
3161,14.37110084
3162,14.41826095
3163,14.37366309
3164,14.4127524
3165,14.47368696
3166,14.41909536
3167,14.34978892
3168,14.42443963
3169,14.44430087
3170,14.37222254
3171,14.46317473
3172,14.32807882
3173,14.37683698
3174,14.36069314
3175,14.32700191
3176,14.43577408
3177,14.49441031
3178,14.34327713
3179,14.4320027
3180,14.47923979
3181,14.38815504
3182,14.4071179
3183,14.41498917
3184,14.40898572
3185,14.42176573
3186,14.42712582
3187,14.42193819
3188,14.34316767
3189,14.39646632
3190,14.41330425
3191,14.37883353
3192,14.40092388
3193,14.39703526
3194,14.42831766
3195,14.47722156
3196,14.36892089
3197,14.39914194
3198,14.41093069
3199,14.50558368
3200,14.48355716
3201,14.38680796
3202,14.4540519
3203,14.39472234
3204,14.35214599
3205,14.38063223
3206,14.34367739
3207,14.37206513
3208,14.42073255
3209,14.42644056
3210,14.45784831
3211,14.31994607
3212,14.41024521
3213,14.35117145
3214,14.32923628
3215,14.41099549
3216,14.41297606
3217,14.38300237
3218,14.44627516
3219,14.41136001
3220,14.41539739
3221,14.46979251
3222,14.52203663
3223,14.40779224
3224,14.37877333
3225,14.35840014
3226,14.47538545
3227,14.30167462
3228,14.39174006
3229,14.46360037
3230,14.46534997
3231,14.34334333
3232,14.43107942
3233,14.43837934
3234,14.42851184
3235,14.37068382
3236,14.45773135
3237,14.45120014
3238,14.44159926
3239,14.30171217
3240,14.3652556
3241,14.40330101
3242,14.42130233
3243,14.43190407
3244,14.4892713
3245,14.40599664
3246,14.42668741
3247,14.44167748
3248,14.41237199
3249,14.45198971
3250,14.39911943
3251,14.37978617
3252,14.41123568
3253,14.3740162
3254,14.37346406
3255,14.46585155
3256,14.36809223
3257,14.36602924
3258,14.39471531
3259,14.39639749
3260,14.40207139
3261,14.35866052
3262,14.43935511
3263,14.38110448
3264,14.39999099
3265,14.42268033
3266,14.30178633
3267,14.42180573
3268,14.48012172
3269,14.40673174
3270,14.39143072
3271,14.50302743
3272,14.38005786
3273,14.37702424
3274,14.43387176
3275,14.3695538
3276,14.35349889
3277,14.44939435
3278,14.44450462
3279,14.39183306
3280,14.41567195
3281,14.44319505
3282,14.32730806
3283,14.40098451
3284,14.4160984
3285,14.41993448
3286,14.38588494
3287,14.39862395
3288,14.46760463
3289,14.41435865
3290,14.46444336
3291,14.47535494
3292,14.32966637
3293,14.37561706
3294,14.41803255
3295,14.43756938
3296,14.33639037
3297,14.38742509
3298,14.43180427
3299,14.373086
3300,14.38581462
3301,14.35547085
3302,14.50594642
3303,14.41155127
3304,14.45783831
3305,14.35440259
3306,14.37010986
3307,14.36400328
3308,14.46356954
3309,14.39400734
3310,14.33751448
3311,14.36770225
3312,14.40828792
3313,14.36749227
3314,14.37321765
3315,14.4515311
3316,14.46943288
3317,14.413459
3318,14.39417126
3319,14.36003155
3320,14.37286555
3321,14.43475453
3322,14.3169574
3323,14.34998267
3324,14.39765462
3325,14.40034875
3326,14.37135464
3327,14.38694536
3328,14.36753808
3329,14.37557855
3330,14.52600872
3331,14.42278557
3332,14.37716405
3333,14.49238629
3334,14.406387
3335,14.39225714
3336,14.35212972
3337,14.36503079
3338,14.40023432
3339,14.34490691
3340,14.4074509
3341,14.43871558
3342,14.42813389
3343,14.36894346
3344,14.42906593
3345,14.3672429
3346,14.394945
3347,14.47780874
3348,14.36957463
3349,14.32823314
3350,14.43437796
3351,14.44593982
3352,14.47837684
3353,14.42215372
3354,14.49375732
3355,14.41049405
3356,14.4064142
3357,14.35064574
3358,14.37664351
3359,14.40529803
3360,14.36095801
3361,14.36794847
3362,14.42082692
3363,14.34850898
3364,14.37443428
3365,14.37911231
3366,14.38800175
3367,14.32428883
3368,14.36125665
3369,14.43201245
3370,14.38398565
3371,14.33332483
3372,14.41784375
3373,14.38563629
3374,14.46094546
3375,14.42153945
3376,14.46938272
3377,14.31916311
3378,14.40970672
3379,14.35622836
3380,14.40740533
3381,14.53566719
3382,14.35560986
3383,14.43599192
3384,14.40820361
3385,14.43184332
3386,14.38899474
3387,14.45513973
3388,14.46956468
3389,14.42818864
3390,14.41252437
3391,14.28827637
3392,14.33422235
3393,14.3697733
3394,14.33505114
3395,14.3972036
3396,14.39337221
3397,14.46158223
3398,14.31726496
3399,14.41460392
3400,14.43565571
3401,14.46745138
3402,14.39898114
3403,14.39878826
3404,14.40520875
3405,14.37055973
3406,14.35239106
3407,14.39206879
3408,14.39359956
3409,14.31741256
3410,14.41159574
3411,14.39116076
3412,14.42861102
3413,14.39813734
3414,14.48586606
3415,14.34583988
3416,14.47535449
3417,14.45201187
3418,14.3558674
3419,14.46239201
3420,14.42541832
3421,14.34822862
3422,14.4646106
3423,14.44390459
3424,14.41334773
3425,14.36725725
3426,14.43327126
3427,14.41820377
3428,14.40322031
3429,14.34914899
3430,14.39117691
3431,14.41817583
3432,14.41581355
3433,14.46193146
3434,14.31113274
3435,14.36897951
3436,14.38489275
3437,14.36739096
3438,14.39732972
3439,14.38803747
3440,14.4508482
3441,14.37661999
3442,14.40536654
3443,14.51745106
3444,14.39252927
3445,14.41485582
3446,14.37415252
3447,14.3683835
3448,14.38719841
3449,14.35033854
3450,14.43567739
3451,14.30473678
3452,14.3619488
3453,14.4553294
3454,14.40083916
3455,14.36807112
3456,14.40909522
3457,14.41457188
3458,14.34755431
3459,14.4056095
3460,14.41400397
3461,14.42588561
3462,14.36455854
3463,14.40142831
3464,14.34609632
3465,14.50730898
3466,14.42475926
3467,14.37799422
3468,14.3464297
3469,14.37751921
3470,14.41883126
3471,14.40164096
3472,14.29682155
3473,14.41896556
3474,14.38868783
3475,14.3836168
3476,14.56509845
3477,14.44583536
3478,14.44147256
3479,14.47144344
3480,14.34856145
3481,14.41614962
3482,14.35060081
3483,14.33536198
3484,14.33483621
3485,14.43413192
3486,14.36995652
3487,14.34181129
3488,14.49057883
3489,14.43293972
3490,14.44111643
3491,14.45607756
3492,14.38550613
3493,14.38601083
3494,14.32829539
3495,14.28765853
3496,14.39922361
3497,14.40148314
3498,14.37643616
3499,14.27713627
3500,14.41994362
3501,14.36446182
3502,14.43029603
3503,14.41464108
3504,14.39269294
3505,14.44006042
3506,14.46237008
3507,14.36075284
3508,14.37152724
3509,14.39286897
3510,14.45837581
3511,14.44890223
3512,14.42226735
3513,14.38292769
3514,14.40472705
3515,14.38528054
3516,14.42435644
3517,14.35665103
3518,14.30643605
3519,14.37944036
3520,14.4563835
3521,14.36572795
3522,14.34269453
3523,14.45323561
3524,14.44329883
3525,14.34641739
3526,14.40530593
3527,14.41294082
3528,14.35978459
3529,14.41172271
3530,14.32771023
3531,14.30614975
3532,14.34913827
3533,14.39581426
3534,14.36317409
3535,14.4439652
3536,14.36028178
3537,14.40880939
3538,14.43341016
3539,14.45694503
3540,14.42075011
3541,14.4087179
3542,14.35298966
3543,14.34253188
3544,14.36615646
3545,14.41385873
3546,14.42431891
3547,14.35009171
3548,14.41727396
3549,14.4600976
3550,14.4786006
3551,14.36633732
3552,14.42826353
3553,14.4212942
3554,14.33314964
3555,14.36664488
3556,14.39283586
3557,14.34740063
3558,14.34545552
3559,14.39011551
3560,14.41559189
3561,14.41593258
3562,14.34369663
3563,14.41343677
3564,14.3526848
3565,14.44753724
3566,14.38747594
3567,14.41324799
3568,14.41462396
3569,14.40898126
3570,14.36356144
3571,14.4216241
3572,14.44386712
3573,14.42552864
3574,14.39336792
3575,14.44563136
3576,14.39319454
3577,14.41525635
3578,14.4284795
3579,14.40124748
3580,14.42511118
3581,14.36741149
3582,14.3919719
3583,14.41537573
3584,14.47114958
3585,14.48354429
3586,14.39183194
3587,14.37880617
3588,14.36121078
3589,14.39281137
3590,14.39169277
3591,14.30578325
3592,14.35970782
3593,14.4463289
3594,14.46549866
3595,14.33460649
3596,14.4033025
3597,14.34304424
3598,14.45941314
3599,14.47916038
3600,14.33448222
3601,14.46041209
3602,14.32652229
3603,14.36394051
3604,14.42234481
3605,14.36452415
3606,14.57522459
3607,14.3227309
3608,14.41808311
3609,14.48494564
3610,14.44111536
3611,14.36573824
3612,14.45221262
3613,14.38267254
3614,14.38877647
3615,14.41135911
3616,14.42587596
3617,14.43068151
3618,14.33869705
3619,14.24770769
3620,14.32739895
3621,14.44155822
3622,14.4352838
3623,14.39497708
3624,14.34949069
3625,14.42410016
3626,14.39093802
3627,14.44868413
3628,14.42680365
3629,14.39322114
3630,14.42270203
3631,14.31142869
3632,14.40831112
3633,14.37508889
3634,14.38556449
3635,14.32276045
3636,14.36080847
3637,14.39988156
3638,14.35342177
3639,14.40138824
3640,14.4158659
3641,14.44003781
3642,14.46451216
3643,14.37876654
3644,14.41581143
3645,14.40543202
3646,14.39484417
3647,14.3457112
3648,14.45346312
3649,14.32179735
3650,14.35247145
3651,14.39007237
3652,14.33721459
3653,14.34938615
3654,14.33858149
3655,14.44152809
3656,14.38855145
3657,14.36145802
3658,14.43381728
3659,14.43780864
3660,14.54748371
3661,14.30246478
3662,14.446013
3663,14.44808657
3664,14.41645994
3665,14.37292217
3666,14.34876428
3667,14.37006228
3668,14.31681571
3669,14.44234146
3670,14.37995047
3671,14.3400541
3672,14.36531069
3673,14.40734047
3674,14.34204041
3675,14.49622109
3676,14.3685419
3677,14.47648372
3678,14.38438572
3679,14.39575467
3680,14.43796549
3681,14.42293843
3682,14.45438875
3683,14.38788305
3684,14.40403602
3685,14.38648409
3686,14.32373546
3687,14.35377629
3688,14.42448444
3689,14.40790899
3690,14.30981113
3691,14.42716958
3692,14.31151203
3693,14.41166867
3694,14.31512363
3695,14.34051755
3696,14.37211198
3697,14.39311344
3698,14.37131846
3699,14.34849317
3700,14.37234031
3701,14.37675686
3702,14.27097874
3703,14.37736811
3704,14.39388554
3705,14.40100865
3706,14.36606539
3707,14.38889869
3708,14.35114687
3709,14.42375339
3710,14.45554921
3711,14.46102723
3712,14.43413153
3713,14.33134082
3714,14.36442409
3715,14.4398878
3716,14.36103757
3717,14.39526121
3718,14.35674496
3719,14.37218294
3720,14.49953439
3721,14.35940763
3722,14.37175915
3723,14.37360678
3724,14.43917001
3725,14.36326978
3726,14.38146863
3727,14.31363618
3728,14.38028839
3729,14.42657066
3730,14.41706138
3731,14.4469964
3732,14.26474719
3733,14.32714843
3734,14.42020993
3735,14.40329673
3736,14.40759627
3737,14.45552071
3738,14.48314003
3739,14.43707045
3740,14.43573252
3741,14.3751297
3742,14.40875456
3743,14.47854697
3744,14.32572804
3745,14.2284278
3746,14.45210932
3747,14.3935923
3748,14.34516064
3749,14.35945219
3750,14.38544107
3751,14.46266452
3752,14.40809483
3753,14.41956135
3754,14.40957108
3755,14.30893116
3756,14.35792883
3757,14.46232873
3758,14.4837063
3759,14.41537096
3760,14.36601675
3761,14.40286686
3762,14.38020356
3763,14.49834827
3764,14.47834833
3765,14.29558597
3766,14.40191275
3767,14.40043543
3768,14.39811676
3769,14.42595956
3770,14.38114679
3771,14.43383099
3772,14.41537078
3773,14.38122535
3774,14.33595489
3775,14.41388701
3776,14.37547865
3777,14.33832852
3778,14.45338456
3779,14.33716599
3780,14.44774111
3781,14.42768314
3782,14.38942342
3783,14.45878478
3784,14.36410745
3785,14.43914868
3786,14.41410091
3787,14.39905534
3788,14.41414557
3789,14.49471325
3790,14.4053045
3791,14.31451286
3792,14.40866234
3793,14.35115748
3794,14.42347253
3795,14.4646668
3796,14.36059467
3797,14.38788629
3798,14.47213868
3799,14.50337229
3800,14.3262262
3801,14.32465625
3802,14.35124278
3803,14.3120136
3804,14.34553051
3805,14.4304297
3806,14.44512226
3807,14.44943263
3808,14.45011792
3809,14.51279827
3810,14.43375915
3811,14.38929248
3812,14.42556022
3813,14.48886616
3814,14.3197637
3815,14.47570253
3816,14.42784596
3817,14.37697873
3818,14.41073958
3819,14.35087659
3820,14.44419366
3821,14.44416917
3822,14.40208026
3823,14.36989887
3824,14.41715777
3825,14.37116736
3826,14.3429495
3827,14.34687723
3828,14.36117601
3829,14.31706143
3830,14.44005442
3831,14.40988514
3832,14.39968122
3833,14.391586
3834,14.41830369
3835,14.36493733
3836,14.46276009
3837,14.4048872
3838,14.365344
3839,14.42149685
3840,14.41022859
3841,14.43678478
3842,14.45169863
3843,14.31548347
3844,14.32732441
3845,14.26431679
3846,14.46007964
3847,14.27928717
3848,14.40065831
3849,14.36161359
3850,14.33105211
3851,14.29539858
3852,14.49113897
3853,14.41890142
3854,14.44180362
3855,14.35570254
3856,14.43840897
3857,14.46203513
3858,14.37021607
3859,14.42645288
3860,14.3307255
3861,14.38009243
3862,14.47772568
3863,14.45285143
3864,14.43157798
3865,14.38227391
3866,14.39532399
3867,14.4671004
3868,14.47016177
3869,14.37527573
3870,14.46582432
3871,14.34017734
3872,14.40235574
3873,14.27183502
3874,14.46284049
3875,14.38376566
3876,14.43437901
3877,14.46132719
3878,14.31871458
3879,14.42184812
3880,14.43343532
3881,14.54441277
3882,14.36985382
3883,14.31425069
3884,14.42712738
3885,14.44914951
3886,14.4391801
3887,14.44745809
3888,14.38418007
3889,14.40853359
3890,14.39467799
3891,14.41767444
3892,14.4654462
3893,14.42525872
3894,14.40028568
3895,14.46231078
3896,14.37264246
3897,14.43775157
3898,14.39950088
3899,14.48120645
3900,14.37339719
3901,14.35828426
3902,14.39471624
3903,14.38990385
3904,14.39994502
3905,14.41713506
3906,14.43107258
3907,14.35840721
3908,14.39850193
3909,14.42035116
3910,14.42099142
3911,14.39787423
3912,14.41270812
3913,14.36641261
3914,14.31935295
3915,14.45719768
3916,14.38861253
3917,14.41296312
3918,14.45764007
3919,14.37810137
3920,14.41491318
3921,14.44714071
3922,14.3719499
3923,14.34656458
3924,14.2904309
3925,14.4345099
3926,14.44400317
3927,14.41769315
3928,14.24522442
3929,14.35000682
3930,14.51119787
3931,14.39334874
3932,14.36315568
3933,14.40238841
3934,14.3863212
3935,14.39931158
3936,14.37564989
3937,14.45941224
3938,14.39851488
3939,14.34722066
3940,14.45144258
3941,14.47193465
3942,14.27567541
3943,14.48365584
3944,14.32499775
3945,14.45697603
3946,14.38753027
3947,14.47750706
3948,14.4474968
3949,14.42377523
3950,14.42469591
3951,14.48182836
3952,14.49200657
3953,14.33159155
3954,14.37352882
3955,14.43552127
3956,14.35992557
3957,14.41598341
3958,14.41177106
3959,14.33253555
3960,14.4479317
3961,14.4750837
3962,14.45615153
3963,14.40292464
3964,14.3663385
3965,14.45548311
3966,14.44302926
3967,14.35047806
3968,14.52582146
3969,14.39470724
3970,14.35791075
3971,14.47329098
3972,14.40405899
3973,14.35675518
3974,14.36622954
3975,14.43537464
3976,14.34030092
3977,14.40716369
3978,14.45068832
3979,14.41553186
3980,14.41988994
3981,14.4019561
3982,14.50316084
3983,14.32319142
3984,14.39047027
3985,14.30630863
3986,14.30654868
3987,14.43735221
3988,14.37630033
3989,14.51436271
3990,14.39826135
3991,14.35439
3992,14.38557463
3993,14.31709305
3994,14.40549517
3995,14.30647023
3996,14.39746408
3997,14.46886055
3998,14.44694984
3999,14.39242875
4000,14.42456725
