Wavenumber (cm⁻¹),Intensity
200.0,751.0527757104337
201.00097751710655,742.7463956206342
202.0019550342131,740.4382626533923
203.00293255131965,741.885020238862
204.0039100684262,740.3719371736863
205.00488758553274,740.0378363575535
206.0058651026393,746.4804460394133
207.00684261974584,753.1400225191803
208.0078201368524,759.2074885485523
209.00879765395894,768.664329782884
210.00977517106548,779.3453039320635
211.01075268817203,782.9832385412833
212.01173020527858,799.3495452548447
213.01270772238513,810.4693297487389
214.01368523949168,817.322188482026
215.01466275659823,828.3455773126004
216.01564027370478,838.1821954296968
217.01661779081132,849.5017566357106
218.01759530791787,863.6181759143916
219.01857282502445,879.6582186375945
220.019550342131,895.5264858567409
221.02052785923755,920.1527921660552
222.0215053763441,950.4437802625064
223.02248289345064,982.8524335680921
224.0234604105572,1015.0622486628337
225.02443792766374,1045.8592912092604
226.0254154447703,1100.016331394317
227.02639296187684,1166.3660703374362
228.02737047898339,1233.3423810560798
229.02834799608993,1292.6260000208847
230.02932551319648,1315.8031343456446
231.03030303030303,1289.8766010006727
232.03128054740958,1219.265181646036
233.03225806451613,1126.5745070558241
234.03323558162268,1049.8908572810838
235.03421309872923,991.4077695172014
236.03519061583577,949.0266990785667
237.03616813294232,919.6241745880226
238.03714565004887,901.4571214241093
239.03812316715542,883.872719438157
240.03910068426197,870.3163091962238
241.04007820136852,863.2438490873567
242.04105571847506,862.1800887261586
243.0420332355816,858.9109661837476
244.0430107526882,866.0489387554005
245.04398826979474,869.2579881830708
246.0449657869013,866.5353111761168
247.04594330400784,873.0791888483366
248.04692082111438,881.7310099973729
249.04789833822093,892.3176909566795
250.04887585532748,906.1951394273143
251.04985337243403,923.817091471883
252.05083088954058,943.1091393377135
253.05180840664713,960.9124995856961
254.05278592375367,975.3295992516247
255.05376344086022,976.3597145028582
256.05474095796677,951.6320601915334
257.0557184750733,918.3180636732252
258.05669599217987,891.378368472427
259.0576735092864,872.3530094120845
260.05865102639297,859.9622141522211
261.0596285434995,856.1405413552388
262.06060606060606,851.8021351894803
263.0615835777126,845.4124445895617
264.06256109481916,839.7024526277082
265.0635386119257,838.3220946890739
266.06451612903226,844.8902880000802
267.0654936461388,847.4941372356562
268.06647116324535,846.3130434010296
269.0674486803519,845.3472377753486
270.06842619745845,848.6031410531839
271.069403714565,849.1442952633599
272.07038123167155,846.228593234876
273.0713587487781,846.2822305059142
274.07233626588464,851.5077683095521
275.0733137829912,851.5300835729679
276.07429130009774,858.260667178763
277.0752688172043,867.1243926680137
278.07624633431084,872.580613032061
279.0772238514174,873.801728004253
280.07820136852393,883.5087363098231
281.0791788856305,885.2065509769392
282.08015640273703,888.8033494582089
283.0811339198436,901.90123858806
284.08211143695013,915.7929634215772
285.0830889540567,919.8208248712915
286.0840664711632,926.6047777442811
287.0850439882698,934.5116942222471
288.0860215053764,940.5161051425998
289.0869990224829,956.9445421246008
290.0879765395895,967.0853773390611
291.088954056696,990.3803639276734
292.0899315738026,1012.1922498370295
293.0909090909091,1007.7367490901554
294.09188660801567,1034.0005114719406
295.0928641251222,1052.8021329021801
296.09384164222877,1077.4606584292465
297.0948191593353,1116.1786781803673
298.09579667644186,1151.094718957244
299.0967741935484,1191.9057635746854
300.09775171065496,1244.7173868806751
301.0987292277615,1306.2329150480657
302.09970674486806,1362.1272487443455
303.1006842619746,1383.9527838746574
304.10166177908116,1384.4189039581838
305.1026392961877,1387.175182229992
306.10361681329425,1397.9822109849324
307.1045943304008,1415.1881232271733
308.10557184750735,1447.1433392252009
309.1065493646139,1499.1012100822356
310.10752688172045,1548.5383047799398
311.108504398827,1597.60702563747
312.10948191593354,1667.7539824874214
313.1104594330401,1743.335517799593
314.11143695014664,1816.4344126271865
315.1124144672532,1905.4710066550683
316.11339198435974,2019.476862205575
317.1143695014663,2146.162492228925
318.11534701857283,2318.639511908126
319.1163245356794,2533.929826743454
320.11730205278593,2775.495966067066
321.1182795698925,3022.615975318553
322.119257086999,3248.2680009081696
323.1202346041056,3409.6134596223797
324.1212121212121,3448.902279943178
325.1221896383187,3340.9082541447165
326.1231671554252,3097.1874655701927
327.12414467253177,2742.872970629675
328.1251221896383,2411.7915660558056
329.12609970674487,2136.242967563133
330.1270772238514,1915.3549458837508
331.12805474095796,1742.25005187329
332.1290322580645,1610.3504384580876
333.13000977517106,1514.5819983801307
334.1309872922776,1444.7586564348744
335.13196480938416,1393.4746823148494
336.1329423264907,1355.9954882177865
337.13391984359725,1333.9197029039412
338.1348973607038,1320.2150442273269
339.13587487781035,1307.9390187946474
340.1368523949169,1300.3349663442948
341.13782991202345,1310.8077930547015
342.13880742913,1312.5801156645443
343.13978494623655,1318.501212812226
344.1407624633431,1336.400005041652
345.14173998044964,1361.3014312764515
346.1427174975562,1375.9434056345208
347.14369501466274,1404.870221287208
348.1446725317693,1443.714805425027
349.14565004887584,1488.3359077366588
350.1466275659824,1542.0209210741086
351.14760508308893,1610.5214097856738
352.1485826001955,1680.5475307804334
353.14956011730203,1768.1781401956532
354.1505376344086,1867.1306348256844
355.1515151515151,1955.9583685580128
356.1524926686217,2040.4146590869527
357.1534701857282,2076.858190931131
358.1544477028348,2053.7159500426105
359.1554252199413,1987.1083659752298
360.15640273704787,1906.1842596578258
361.1573802541544,1836.1272083054314
362.15835777126097,1770.8688708077643
363.1593352883675,1718.918354282737
364.16031280547406,1689.204158138383
365.1612903225806,1682.707855350583
366.16226783968716,1689.4316980810368
367.1632453567937,1701.991451237995
368.16422287390026,1704.7754898662438
369.1652003910068,1689.326982156917
370.16617790811335,1653.8624347206303
371.1671554252199,1619.9191857428495
372.16813294232645,1610.2990075143712
373.169110459433,1618.0465668476143
374.17008797653955,1633.0913815437216
375.1710654936461,1655.7718024719957
376.1720430107527,1696.9081459774432
377.17302052785925,1748.742742537688
378.1739980449658,1807.195015782004
379.17497556207235,1874.012499359607
380.1759530791789,1955.0033644453856
381.17693059628544,2055.953569282361
382.177908113392,2181.18490470222
383.17888563049854,2326.089643966008
384.1798631476051,2494.9313216659853
385.18084066471164,2708.118319989145
386.1818181818182,2946.483093567917
387.18279569892474,3203.7882685071836
388.1837732160313,3456.2333599708336
389.18475073313783,3658.2776191101893
390.1857282502444,3755.4777262305292
391.18670576735093,3676.9449866631094
392.1876832844575,3417.332067432252
393.188660801564,3052.210637975385
394.1896383186706,2672.1166616773
395.1906158357771,2348.3722637641713
396.1915933528837,2071.4031924366755
397.1925708699902,1849.9839249627391
398.19354838709677,1683.6261518156473
399.1945259042033,1564.0436265823853
400.19550342130987,1472.6623761622086
401.1964809384164,1395.9333765910512
402.19745845552296,1343.9152547415258
403.1984359726295,1307.3310159377259
404.19941348973606,1271.9332813181093
405.2003910068426,1234.721808563755
406.20136852394916,1211.1003739766331
407.2023460410557,1191.590575497837
408.20332355816225,1177.0918434375199
409.20430107526886,1168.9800718340234
410.2052785923754,1158.0038376914042
411.20625610948196,1142.733319275822
412.2072336265885,1138.9564538248374
413.20821114369505,1140.2133935531317
414.2091886608016,1136.9512241133862
415.21016617790815,1132.710058796204
416.2111436950147,1132.986197024747
417.21212121212125,1129.0470353001072
418.2130987292278,1128.3382790350056
419.21407624633434,1130.47220295007
420.2150537634409,1122.6600679219273
421.21603128054744,1129.1604627394856
422.217008797654,1127.0859694830997
423.21798631476054,1124.8305987581216
424.2189638318671,1127.6667091425325
425.21994134897363,1127.2491024738765
426.2209188660802,1130.3540325782262
427.22189638318673,1134.6619391072336
428.2228739002933,1137.1122517031542
429.2238514173998,1136.7522687302192
430.2248289345064,1134.907952803625
431.2258064516129,1131.9886729238303
432.2267839687195,1136.8023633131606
433.227761485826,1136.4832630982933
434.22873900293257,1132.5852677269747
435.2297165200391,1137.9008519743877
436.23069403714567,1137.2756160758477
437.2316715542522,1135.6190395787978
438.23264907135876,1135.9250028352255
439.2336265884653,1138.195283439003
440.23460410557186,1141.3022027133704
441.2355816226784,1145.4417534093977
442.23655913978496,1148.5075087286134
443.2375366568915,1148.0008290928308
444.23851417399806,1147.9093663241808
445.2394916911046,1152.1437726069335
446.24046920821115,1157.6373315570984
447.2414467253177,1164.8278317589852
448.24242424242425,1163.9884493158092
449.2434017595308,1164.7524647810988
450.24437927663735,1173.0401386665092
451.2453567937439,1171.1075033627114
452.24633431085044,1172.9665049000555
453.247311827957,1181.0179258508363
454.24828934506354,1191.393696555656
455.2492668621701,1199.655791707346
456.25024437927664,1205.0121113280668
457.2512218963832,1210.1200495579478
458.25219941348973,1209.2913263471578
459.2531769305963,1212.733184112843
460.25415444770283,1222.6469210015728
461.2551319648094,1230.8768577843393
462.2561094819159,1247.5414108976227
463.2570869990225,1251.555851391857
464.258064516129,1248.0453649222825
465.2590420332356,1245.5506943573073
466.2600195503421,1247.6436442076943
467.26099706744867,1250.1197579741856
468.2619745845552,1241.2030565946113
469.26295210166177,1237.52795764525
470.2639296187683,1234.1556139239315
471.26490713587486,1223.5861406821696
472.2658846529814,1224.1732034828963
473.26686217008796,1223.4296057497713
474.2678396871945,1224.3219299121654
475.26881720430106,1227.7983730118904
476.2697947214076,1230.8119434639873
477.27077223851416,1228.1499524648093
478.2717497556207,1224.3894283428865
479.27272727272725,1227.4248375667062
480.2737047898338,1236.2109265678039
481.27468230694035,1239.6868503389076
482.2756598240469,1233.255557562497
483.27663734115345,1244.3334981938947
484.27761485826,1245.0670840015873
485.27859237536654,1245.4713656747329
486.2795698924731,1249.961493069077
487.28054740957964,1253.3285707452915
488.2815249266862,1254.294924223263
489.2825024437928,1260.9411604543043
490.28347996089934,1261.2587109132555
491.2844574780059,1261.432737824681
492.28543499511244,1268.2922523376687
493.286412512219,1273.7707578164368
494.28739002932554,1282.3335822309655
495.2883675464321,1282.2694615737657
496.28934506353863,1283.2758174315977
497.2903225806452,1288.2032471311668
498.29130009775173,1289.3166174368616
499.2922776148583,1298.0926692660794
500.2932551319648,1308.8162789981031
501.2942326490714,1311.1950649899845
502.2952101661779,1313.6179996360415
503.2961876832845,1326.014450632953
504.297165200391,1334.473439300973
505.29814271749757,1345.8107785229292
506.2991202346041,1355.4358308293201
507.30009775171067,1362.2450540391978
508.3010752688172,1371.3525684427227
509.30205278592376,1387.5354993159815
510.3030303030303,1392.4655028945335
511.30400782013686,1396.4628174826937
512.3049853372434,1407.2760750546995
513.3059628543499,1421.3563841583425
514.3069403714564,1431.0929623030388
515.307917888563,1438.0593913490345
516.3088954056695,1430.8457420399066
517.3098729227761,1430.997798092128
518.3108504398826,1434.4334202695127
519.3118279569892,1430.917013446994
520.3128054740957,1429.3408934461745
521.3137829912023,1440.5810970211062
522.3147605083088,1448.6307017433298
523.3157380254154,1462.1425021155194
524.3167155425219,1479.587427459797
525.3176930596285,1489.827313459787
526.318670576735,1514.2616359007284
527.3196480938416,1519.408811000991
528.3206256109481,1528.0375753382623
529.3216031280547,1536.7403899662665
530.3225806451612,1532.7143153341233
531.3235581622678,1525.9667576193522
532.3245356793743,1514.7678932695696
533.3255131964809,1496.8461975995792
534.3264907135874,1482.9573686058657
535.327468230694,1473.3760053200788
536.3284457478005,1458.6081508137977
537.3294232649071,1448.0908924810265
538.3304007820136,1448.9553347889635
539.3313782991202,1448.6406334298688
540.3323558162267,1449.2024470878562
541.3333333333333,1453.5977800359467
542.3343108504398,1449.9215996492612
543.3352883675464,1464.0466559948798
544.3362658846529,1469.8345307909779
545.3372434017595,1471.542877190517
546.338220918866,1477.4032204902257
547.3391984359725,1483.260879491926
548.3401759530791,1482.8244441565216
549.3411534701856,1505.3032895338322
550.3421309872922,1517.7030494309035
551.3431085043987,1529.7625105887525
552.3440860215054,1556.399833586482
553.345063538612,1580.792298645464
554.3460410557185,1594.1583660974927
555.347018572825,1624.9825810549441
556.3479960899316,1659.91905033392
557.3489736070381,1685.2807373544754
558.3499511241447,1702.0521316738461
559.3509286412512,1715.2476447654983
560.3519061583578,1693.407493405864
561.3528836754643,1656.9540698228225
562.3538611925709,1623.194772732038
563.3548387096774,1592.8108162541575
564.355816226784,1560.7751956796199
565.3567937438905,1540.4189243469484
566.3577712609971,1522.9886857255135
567.3587487781036,1515.9020445481833
568.3597262952102,1514.0110037425868
569.3607038123167,1509.3039251314358
570.3616813294233,1505.7298457898853
571.3626588465298,1507.6157513101994
572.3636363636364,1509.514105806038
573.3646138807429,1507.5207963577654
574.3655913978495,1505.8083757842594
575.366568914956,1507.8312235983701
576.3675464320626,1504.6906771821723
577.3685239491691,1500.9761009014203
578.3695014662757,1512.6970018011386
579.3704789833822,1517.9756756593376
580.3714565004888,1509.3145441136783
581.3724340175953,1510.6224360322412
582.3734115347019,1520.5164711662865
583.3743890518084,1530.827306588376
584.375366568915,1532.7745095321607
585.3763440860215,1534.8862345317195
586.377321603128,1537.8599298880367
587.3782991202346,1526.5673436340644
588.3792766373411,1534.667236417206
589.3802541544477,1544.322414927428
590.3812316715542,1546.4379826644306
591.3822091886608,1547.0708729752916
592.3831867057673,1553.398895923823
593.3841642228739,1558.959576489345
594.3851417399804,1556.1149030228414
595.386119257087,1557.4157442394721
596.3870967741935,1556.9410721239738
597.3880742913001,1558.4685793764777
598.3890518084066,1570.819881559842
599.3900293255132,1576.074179295616
600.3910068426197,1577.1628886102935
601.3919843597263,1576.9497732778739
602.3929618768328,1579.1908092174936
603.3939393939394,1585.7447291584165
604.3949169110459,1594.497485345658
605.3958944281525,1596.2497517623594
606.396871945259,1594.328982983661
607.3978494623656,1602.3792273498782
608.3988269794721,1609.4979197736443
609.3998044965787,1610.7030351739927
610.4007820136852,1620.532261518572
611.4017595307918,1625.67292668865
612.4027370478983,1629.0170187325684
613.4037145650049,1625.0572382897162
614.4046920821114,1629.1196309401496
615.405669599218,1644.9277978619498
616.4066471163245,1646.0117233620506
617.4076246334312,1647.8307848914908
618.4086021505377,1651.632069970521
619.4095796676443,1659.5948555010336
620.4105571847508,1667.9899049253606
621.4115347018574,1673.6832114239132
622.4125122189639,1681.200769921347
623.4134897360705,1686.896576030089
624.414467253177,1694.9692513944476
625.4154447702836,1698.0889264937955
626.4164222873901,1701.694350867205
627.4173998044967,1713.4623257597564
628.4183773216032,1723.5798688146097
629.4193548387098,1734.9653756816622
630.4203323558163,1737.4104532536558
631.4213098729228,1746.7531799612855
632.4222873900294,1759.200467765654
633.423264907136,1762.6061253776707
634.4242424242425,1770.8554571602779
635.425219941349,1780.0017193520416
636.4261974584556,1797.302458562177
637.4271749755621,1810.4312927585677
638.4281524926687,1823.4352797709919
639.4291300097752,1849.3041465113845
640.4301075268818,1875.8573117298208
641.4310850439883,1888.654251340691
642.4320625610949,1907.1741883988336
643.4330400782014,1942.1477867840754
644.434017595308,1979.2247973559615
645.4349951124145,2007.1408974412018
646.4359726295211,2047.3631081292901
647.4369501466276,2092.4625347894535
648.4379276637342,2154.7391347746934
649.4389051808407,2235.4693891061534
650.4398826979473,2320.0505780435237
651.4408602150538,2393.5330435572023
652.4418377321604,2470.1193794481806
653.4428152492669,2575.0045522813525
654.4437927663735,2684.3018043710786
655.44477028348,2800.97107178821
656.4457478005866,2933.5122450575186
657.4467253176931,3086.279249969434
658.4477028347997,3268.302736363108
659.4486803519062,3469.012296844029
660.4496578690128,3701.428591236252
661.4506353861193,3967.836033020501
662.4516129032259,4249.750549270339
663.4525904203324,4505.376754511216
664.453567937439,4696.076895069161
665.4545454545455,4805.736763327114
666.455522971652,4799.86738563749
667.4565004887586,4641.865140250984
668.4574780058651,4356.300177117316
669.4584555229717,4014.5120003675834
670.4594330400782,3679.1229584155903
671.4604105571848,3358.4046520337224
672.4613880742913,3085.9722464372944
673.4623655913979,2869.061313362462
674.4633431085044,2698.97035339707
675.464320625611,2561.5632398787648
676.4652981427175,2448.433281402862
677.4662756598241,2380.554636668387
678.4672531769306,2303.6147491317197
679.4682306940372,2248.359910842166
680.4692082111437,2208.586009865196
681.4701857282503,2171.121433349087
682.4711632453568,2144.1047967920153
683.4721407624634,2125.7007336378406
684.4731182795699,2106.7502503652245
685.4740957966765,2090.69667609856
686.475073313783,2072.5819548450345
687.4760508308896,2060.5622096459983
688.4770283479961,2065.1620310323665
689.4780058651027,2059.156581557591
690.4789833822092,2044.4544546089053
691.4799608993158,2042.3695838688793
692.4809384164223,2048.277619123568
693.4819159335289,2049.2951206789667
694.4828934506354,2046.8831875358762
695.483870967742,2052.9874647141874
696.4848484848485,2049.87537839825
697.485826001955,2045.84506534421
698.4868035190616,2049.446690293748
699.4877810361681,2056.7779679161085
700.4887585532747,2063.6806444806175
701.4897360703812,2072.3543483926933
702.4907135874878,2078.6848351033473
703.4916911045943,2086.106389368726
704.4926686217009,2096.089191190667
705.4936461388074,2097.129504059606
706.494623655914,2094.7319771318585
707.4956011730205,2099.8742905762365
708.4965786901271,2089.114127120615
709.4975562072336,2099.313391544974
710.4985337243402,2099.420984315321
711.4995112414467,2090.677007738221
712.5004887585533,2089.8768349249162
713.5014662756598,2098.447129881859
714.5024437927664,2097.4647718048054
715.5034213098729,2096.313458264521
716.5043988269795,2092.4968616190945
717.505376344086,2099.0296671685037
718.5063538611926,2112.53464981428
719.5073313782991,2117.048888170786
720.5083088954057,2110.443834715868
721.5092864125122,2116.54782212372
722.5102639296188,2118.8370377059687
723.5112414467253,2126.9928326722265
724.5122189638319,2134.843466906048
725.5131964809384,2136.972327735877
726.514173998045,2133.2546843629507
727.5151515151515,2126.5501672103737
728.516129032258,2138.877733946243
729.5171065493646,2148.066674511135
730.5180840664711,2155.67932007065
731.5190615835777,2161.5150201531546
732.5200391006842,2164.984269033957
733.5210166177908,2170.082108925536
734.5219941348973,2168.8445263074973
735.5229716520039,2182.53543758905
736.5239491691104,2190.960771400092
737.524926686217,2197.1513211992255
738.5259042033235,2200.60946263486
739.5268817204301,2198.734849154636
740.5278592375366,2206.082350639705
741.5288367546432,2211.028445997198
742.5298142717497,2209.9351879847295
743.5307917888563,2207.1308767197033
