Raman Shift,Intensity
214.3785040343428,-149.802
224.78145843945092,94.612
235.01908334044856,-42.05
245.41130867789616,-207.621
255.63837774522108,-18.397
265.8602158678186,391.589
276.23642015571386,63.075
286.44772684514464,-42.05
296.8132434111685,-26.281
307.0140349346475,-13.141
317.209615658554,2.628
327.399989574551,-94.612
337.7442627077253,-76.215
347.9241537664129,13.141
358.09885002992814,-7.884
368.2683554736213,444.151
378.5914504125685,44.678
388.7505051753542,28.909
398.90438108190574,241.786
409.0530820913264,362.679
419.196612158652,70.959
429.3349752349313,-5.256
439.626465572117,105.124
449.75442592354375,13.141
459.8772311743669,260.183
469.994885259468,-176.084
480.1073921097559,278.58
490.2147556521086,178.712
500.31697980943136,236.53
510.41406850063504,270.696
520.5060256406359,399.473
530.5928551403995,304.861
540.6745609068894,341.655
550.7511468431039,433.639
560.8226168481124,622.863
570.888974816975,247.043
580.9502246408374,197.108
590.8492821665859,373.192
600.9004070215597,375.82
610.9464353206786,349.539
620.9873709393651,567.672
631.0232177491416,793.69
641.0539796175653,1689.876
650.9230482019848,1873.844
660.9437310766662,1519.049
670.9593405290361,754.268
680.9698804110958,449.407
690.8190579752118,391.589
700.8195493193562,388.961
710.8149825658329,578.185
720.805361551138,467.804
730.6347081696804,457.292
740.6150689503047,378.448
750.4345613154874,262.811
760.404918953056,431.01
770.3702413346182,446.779
780.174941402227,785.806
790.1302832356378,365.308
799.925166080895,336.398
809.8705423523497,459.92
819.6556227125038,402.101
829.5910483782136,475.688
839.3663409610526,551.904
849.2918309472952,488.829
859.0573504311833,367.936
868.972919634427,257.555
878.7286806683987,247.043
888.6343439553166,402.101
898.3803611591502,252.299
908.12155022542,360.051
918.0124213310264,378.448
927.743888384779,375.82
937.4705381077074,388.961
947.3466501411676,391.589
957.0635996041163,344.283
966.7757425107702,565.044
976.6371284824854,751.64
986.3395928168538,754.268
996.0372613373548,854.136
1005.7301375988682,1524.305
1015.5719657306544,1377.131
1025.255192198514,1206.304
1034.9336371072422,830.483
1044.6073039976543,714.847
1054.2761964070742,394.217
1063.9403178693246,462.548
1073.5996719147442,483.573
1083.4074711432768,562.416
1093.057225399156,388.961
1102.70222286418,365.308
1112.3424670547538,396.845
1121.9779614837898,533.507
1131.6087096607444,538.763
1141.2347150916105,252.299
1150.855981278939,399.473
1160.4725117218331,162.943
1170.0843099159465,438.895
1179.6913793534914,170.827
1189.293723523253,725.359
1198.739039559725,157.687
1208.3320185130287,341.655
1217.9202825891407,312.745
1227.5038352631818,470.432
1237.0826800068826,336.398
1246.6568202885535,360.051
1256.226259573108,289.092
1265.639216696829,173.455
1275.1993388504195,423.126
1284.7547703264208,325.886
1294.3055145761757,181.34
1303.7000868433097,168.199
1313.241541245312,336.398
1322.778318700337,241.786
1332.310422646282,378.448
1341.686663866676,170.827
1351.2095051416618,170.827
1360.727683146746,268.067
1370.0902294598782,207.621
1379.5991650801443,336.398
1388.9526223370776,136.662
1398.4523290278594,86.728
1407.7967104575073,323.258
1417.287201648047,257.555
1426.7730533080105,575.557
1436.1038095471376,-21.025
1445.5804658554116,270.696
1454.9021792800197,157.687
1464.369653600741,249.671
1473.6823373500883,444.151
1482.9905472474493,183.968
1492.444310209452,252.299
1501.7435100404182,128.778
1511.1881242589734,113.009
1520.4783270994303,91.984
1529.764072276041,307.489
1539.1950247490097,136.662
1548.4717924494323,228.646
1557.7441121511074,99.868
1567.1614324998736,310.117
1576.4247941832873,212.877
1585.6837175051332,275.952
1594.9382056544855,275.952
1604.3374199708342,307.489
1613.5829759239496,223.39
1622.8241063047317,254.927
1632.0608142900164,220.761
1641.2931030535765,191.852
1650.6697762525291,223.39
1659.8931649322622,197.108
1669.1121439444323,226.018
1678.3267164506542,65.703
1687.53688560953,173.455
1696.7426545766284,155.059
1705.9440265045123,239.158
1715.1410045427183,215.505
1724.3335918377925,315.373
1733.5217915332687,197.108
1742.705606769683,268.067
1751.8850406845886,215.505
1761.0600964125188,81.471
1770.230777085024,157.687
1779.397085830693,270.696
1788.55902577511,328.514
1797.7166000408906,252.299
1806.8698117476447,654.4
1816.0186640120735,-34.165
1825.163159947857,344.283
1834.1559155330324,44.678
1843.29177827917,268.067
1852.4232939699289,323.258
1861.550465707216,252.299
1870.673296589972,294.349
1879.644751645923,318.002
1888.758979994156,173.455
1897.8688767172423,191.852
1906.974444902422,181.34
1915.9289277003045,218.133
1925.025917750907,73.587
1934.118588458099,-10.512
1943.060390766601,102.496
1952.144501554074,-155.059
1961.2243021666216,128.778
1970.153450902042,144.546
1979.224709758193,73.587
1988.1454604369865,39.422
1997.208189584475,210.249
2006.120554048888,215.505
2015.1747655127983,181.34
2024.0787555828572,173.455
2033.12446136566,63.075
2042.0200888391555,68.331
2051.057300920809,265.439
2059.9445775734057,207.621
2068.9733079113576,155.059
2077.852245496608,197.108
2086.8725060258803,-7.884
2095.743116275291,236.53
2104.6096010526526,173.455
2113.6172135316083,183.968
2122.4753884816528,223.39
2131.329446630596,328.514
2140.324437642892,223.39
2149.170203423979,352.167
2158.011861050589,36.794
2166.994257105456,55.19
2175.8276397748195,186.596
2184.656922912145,170.827
2193.48210937062,123.521
2202.303202000803,220.761
2211.2647105948345,157.687
2220.077557114586,15.769
2228.886318388424,186.596
2237.6909972563008,252.299
2246.4915965555265,84.1
2255.2881191208,191.852
2264.0805677841927,226.018
2272.8689453751285,304.861
2281.6532547204406,244.414
2290.5774032157133,160.315
2299.353517963282,-105.124
2308.125572976198,170.827
2316.893571070781,-15.769
2325.6575150607823,252.299
2334.273835606975,183.968
2343.029746164546,136.662
2351.781610997117,249.671
2360.5294329081007,139.29
2369.273214698267,286.464
2378.0129591658333,183.968
2386.7486691064114,307.489
2395.48034731306,147.174
2404.2079965762314,-323.258
2412.788641914361,178.712
2421.5083075861257,325.886
2430.2239526247795,239.158
2438.9355798105607,15.769
2447.64319192111,239.158
2456.204142101211,-5.256
2464.9037980916983,-10.512
2473.5994472792227,257.555
2482.148638712344,55.19
2490.836348166158,236.53
2499.5200590665554,310.117
2508.0575159626023,226.018
2516.7333034706826,128.778
2525.405100652257,315.373
2533.930847154741,55.19
2542.5947372405863,226.018
2551.112711590584,155.059
2559.768705390503,-134.034
2568.2789182109263,134.034
2576.927026515033,13.141
2585.5711635713087,239.158
2594.069721988235,-34.165
2602.5644435408976,254.927
2611.196813145194,291.72
2619.683804921093,438.895
2628.3083212822166,249.671
2636.7875938271245,152.431
2645.404267656864,147.174
2653.875831497382,478.316
2662.343576738021,141.918
2670.948539131641,197.108
2679.408591378582,76.215
2687.8648328054915,162.943
2696.4581076233444,68.331
2704.906671724595,89.356
2713.351432764532,55.19
2721.792393310454,81.471
2730.370143142005,78.843
2738.8034471581705,89.356
2747.232958411034,34.165
2755.658679458633,423.126
2764.220946338093,5.256
2772.639031576786,105.124
2781.053334313052,70.959
2789.463857095703,268.067
2797.8706024712737,302.233
2806.2735729839987,110.381
2814.672771175843,262.811
2823.0681995864725,136.662
2831.459860753297,107.753
2839.847757211428,97.24
2848.231891493713,94.612
2856.612266130724,-57.818
2864.988883650767,165.571
2873.3617465798743,147.174
2881.7308574418275,-57.818
2890.096218758139,147.174
2898.457833048058,49.934
2906.815702828586,31.537
2915.169830614461,-60.447
2923.5202189181878,115.637
2931.8668702499926,65.703
2940.209787117892,94.612
2948.41001618022,278.58
2956.7455337723804,113.009
2965.077324369493,233.902
2973.405390470638,173.455
2981.7297345726547,189.224
2989.9117125592966,231.274
2998.2286820744484,315.373
3006.5419370261297,278.58
3014.8514799023105,268.067
3023.0189130185245,-91.984
3031.3211009634906,307.489
3039.619584242202,247.043
3047.776149306213,357.423
3056.067292329164,126.149
3064.2166442633534,304.861
3072.500456765243,346.911
3080.780576892153,341.655
3088.919096831967,323.258
3097.1919010483834,354.795
3105.3232317767324,346.911
3113.588729774354,320.63
3121.712880813,441.523
3129.9710822664056,522.994
3138.0880631202745,574.388
3146.338977686973,601.443
3154.448797844241,609.015
3162.692435164703,601.948
3170.7951040967964,585.091
3178.894230970407,563.289
3187.127000956163,541.391
3195.218990740796,554.532
3203.3074454664093,675.425
3211.5293695924192,672.797
3219.610701328027,630.747
3227.688504985643,494.085
3235.899604670318,341.655
3243.9702993997853,651.772
3252.03747301393,588.697
3260.1011278165533,612.35
3268.297848330192,454.663
3276.354412870096,601.838
3284.407465536773,378.448
3292.4570086259846,302.233
3300.5030444314834,425.754
3308.545575245,444.151
3316.720827896272,898.814
3324.756296283769,559.788
3332.788266581294,473.06
3340.816741072602,517.738
3348.8417220394404,536.135
3356.8632117615925,183.968
3364.8812125168406,646.516
3372.895726580995,567.672
3380.906756227865,791.062
3388.91430372934,738.5
3396.918371355256,651.772
3404.9189613735507,630.747
3412.9160760501472,622.863
3420.909717649003,544.019
3428.8998884321263,536.135
3436.886590659553,436.267
3444.734546370892,446.779
3452.714376952972,449.407
3460.690745709508,459.92
3468.663654892749,310.117
3476.633106752961,247.043
3484.5991035384795,354.795
3492.4267178764712,470.432
3500.385869715596,268.067
3508.341573175334,197.108
3516.293830496281,257.555
3524.1079469444667,136.662
3532.0533770164475,349.539
3539.9953676218797,307.489
3547.7993978646555,241.786
3555.734574435446,244.414
3563.666318194715,136.662
3571.460281747888,123.521
3579.385224652753,113.009
3587.30674138396,231.274
3595.090657713052,328.514
3603.00538673612,-18.397
3610.782634691175,147.174
3618.6905847266535,152.431
3626.461172873067,91.984
3634.362352626544,49.934
3642.1262895150494,97.24
3650.020707677235,26.281
3657.778001843908,113.009
3665.665667090652,115.637
3673.416327056992,191.852
3681.163701429177,223.39
3689.041282322214,226.018
3696.782035212709,286.464
3704.6528847781447,141.918
3712.3870246721344,44.678
3720.117889469839,191.852
3727.845481251112,173.455
3735.702951367959,-7.884
3743.4239470074463,84.1
3751.141675895298,97.24
3758.989119491133,170.827
3766.700264858686,165.571
3774.408149723422,149.802
3782.1127761528696,91.984
3789.814146212797,197.108
3797.644959575024,28.909
3805.339767031168,360.051
3813.03132434014,128.778
3820.7196335607214,296.977
3828.404696749953,113.009
3836.086515963114,113.009
3843.76509325378,68.331
3851.4404306737633,134.034
3859.112530273167,-39.422
3866.7813941003615,183.968
3874.4470242019815,107.753
3882.109422622947,23.653
3889.7685914064414,191.852
3897.4245325939337,252.299
3905.0772482251705,181.34
3912.7267403381848,68.331
3920.373010969284,165.571
3928.016062153074,42.05
3935.655895922435,291.72
3943.292514308545,1077.526
3950.925919340858,52.562
3958.424585178429,233.902
3966.051624900327,128.778
3973.675457311714,76.215
3981.296084435249,120.893
3988.913508291902,44.678
3996.396478310664,149.802
4004.007556831755,176.084
4011.615438103967,134.034
4019.220124141517,44.678
4026.690583777876,202.365
4034.288940385857,118.265
4041.8841077570687,-115.637
4049.3452186808136,170.827
4056.934068499933,207.621
4064.519735065173,207.621
4071.971514814119,262.811
4079.550875675057,105.124
4086.996462302253,170.827
4094.5695253181984,128.778
4102.008926541021,155.059
4109.575699558212,170.827
4117.008923081237,44.678
4124.569413932906,70.959
4131.996467447912,65.703
4139.550683954272,105.124
4146.971575140262,99.868
4154.519525108568,-102.496
4161.93426163181,-7.884
4169.475952856366,265.439
4228.011654085007,165.571
4235.396210255021,97.24
4242.907210725418,147.174
4250.415076793586,10.512
4257.7904449892885,89.356
4265.292102093408,160.315
4272.790630641473,162.943
4280.156827999919,115.637
4287.649159161061,105.124
4295.138367597785,375.82
4302.4954112134365,118.265
4309.978433811593,265.439
4317.329402006981,226.018
4324.8062464273535,5.256
4332.151146724958,210.249
4339.621820615692,68.331
4346.960660525576,15.769
4354.425171522191,84.1
4361.757958542046,310.117
4369.216314267462,212.877
4376.543055882612,13.141
4383.9952639471885,168.199
4391.315967630617,197.108
4398.762035632179,168.199
4406.07670884455,52.562
4413.516644368407,63.075
4420.825294558097,262.811
4428.130962180556,210.249
4435.561739780205,47.306
4442.861395497304,86.728
4450.1580741507205,39.422
4457.579710724684,70.959
4464.870388562711,34.165
4472.158094827057,268.067
4479.570607232323,60.447
4486.852323743988,131.406
4494.131074158497,73.587
4501.534479210626,139.29
4508.807250907994,134.034
4516.077061971264,241.786
4523.3439142079005,-15.769
4530.735219799091,63.075
4537.996107969229,26.281
4545.254042757973,18.397
4552.509025966887,141.918
4559.888261734326,97.24
4567.13729547953,131.406
4574.383383072374,160.315
4581.626526308552,44.678
4588.866726982291,118.265
4596.103986886381,126.149
4603.338307812148,128.778
4610.69653172473,110.381
4617.92492857972,168.199
4625.150391852971,270.696
4632.372923329975,207.621
4639.592524794789,68.331
4646.809198030001,107.753
4654.022944816745,281.208
4661.233766934747,91.984
4668.441666162253,152.431
4675.646644276094,281.208
4682.8487030516335,210.249
4690.047844262837,176.084
4697.244069682201,270.696
4704.437381080781,128.778
4711.627780228235,220.761
4718.815268892759,102.496
4725.999848841122,2.628
4733.181521838655,168.199
4740.3602896492885,-7.884
4747.536154035501,134.034
4754.583300303697,131.406
4761.753413983191,105.124
4768.9206294863325,-21.025
4776.084948569973,144.546
4783.246372989488,94.612
4790.404904498872,86.728
4797.435032206777,49.934
4804.5878338284165,189.224
4811.73774776268,47.306
4818.884775757928,176.084
4826.028919561082,149.802
4833.044920461813,278.58
4840.183351639585,110.381
4847.3189038270575,118.265
4854.451578765569,107.753
4861.456318765864,136.662
4868.58329482688,275.952
4875.707398824052,223.39
4882.703723295803,115.637
4889.822138682386,49.934
4896.937687177771,34.165
4903.925611277555,26.281
4911.035481404608,-102.496
4918.142489800703,168.199
4925.122028648751,191.852
4932.223368894192,84.1
4939.197342363797,162.943
4946.293021236786,186.596
4953.385846941688,134.034
4960.35146024984,-5.256
4967.43863475923,157.687
4974.398699333346,183.968
4981.480229398396,110.381
4988.43475186592,134.034
4995.510644227063,91.984
5002.459631204903,296.977
5009.529892591847,123.521
5016.473350686378,144.546
5023.537987818112,149.802
5030.475923625207,-149.802
5037.534943210041,126.149
5044.467363315067,-26.281
5051.397052412052,115.637
5058.447683028528,-2.628
5065.371866252855,-99.868
5072.416896017057,73.587
5079.335579928018,97.24
5086.251540943114,107.753
5093.288206657562,354.795
5100.198678149784,31.537
5107.106431592307,86.728
5114.134748143202,126.149
5121.037021830118,7.884
5127.93658230202,76.215
5134.833431158368,28.909
5141.85065500065,-52.562
5148.742037069234,176.084
5155.630712341699,215.505
5162.516682412504,265.439
5169.522839786696,149.802
5176.403355996677,0.0
5183.281171809234,86.728
5190.156288813778,86.728
5197.028708598496,49.934
5204.021081907653,162.943
5210.888063918697,63.075
5217.752353495271,178.712
5224.613952220541,34.165
5231.472861676462,-94.612
5238.329083443728,147.174
5245.182619101804,128.778
5252.033470228904,141.918
5258.881638402017,228.646
5265.727125196914,26.281
5272.569932188097,-39.422
5279.532181775125,97.24
5286.369586094326,44.678
5293.204315354014,-28.909
5300.036371123795,131.406
5306.865754971979,36.794
5313.692468465706,78.843
5320.516513170878,21.025
5327.216103720151,147.174
5334.034863128356,-49.934
5340.850958410447,76.215
5347.664391127459,-18.397
5354.475162839211,134.034
5361.283275104273,65.703
5368.088729480027,34.165
5374.891527522632,10.512
5381.6916707870405,115.637
5388.489160826968,191.852
5395.162686039381,47.306
5401.954921596684,55.19
5408.744508555763,113.009
5415.531448465517,5.256
5422.31574287366,168.199
5428.976315601984,118.265
5435.7553708175255,-10.512
5442.531785139763,65.703
5449.305560111599,262.811
5456.076697274744,165.571
5462.724355191152,113.009
5469.490268392445,131.406
5476.253548375513,212.877
5482.893493883399,134.034
5489.651558992991,388.961
5496.406995464167,186.596
5503.039241977291,-68.646
5509.789472642318,-236.196
5516.5370792381145,-325.555
5523.161640139158,-346.209
5529.904049975114,-307.654
5536.643840300443,-219.384
5543.260728941095,-90.891
5549.995331531944,68.331
5556.607128017575,194.48
5563.336548861262,134.034
5569.943259067753,189.224
5576.667504142417,49.934
5583.269133936614,-149.802
5589.988209211173,13.141
5596.58476445092,99.868
5603.298675885118,136.662
5609.890162419251,18.397
5616.598915963696,126.149
5623.185339632037,-84.1
5629.888941228186,212.877
5636.470307861637,91.984
5643.16876344182,204.993
5649.745078862296,97.24
5656.438394349752,94.612
5663.009664370256,97.24
5669.578436568787,115.637
5676.264076103718,68.331
5682.827811578958,126.149
5689.3890535265455,81.471
5696.067030305661,26.281
5702.623244186747,-5.256
5709.176968824671,-141.918
5715.847296014435,81.471
5722.39600122282,-26.281
5728.942221462719,173.455
5735.4859581482815,247.043
5742.146121627004,-18.397
5748.684850350968,131.406
5755.221099782248,28.909
5761.754871330697,233.902
5768.404894310675,23.653
5774.933669330552,420.498
5781.459970716278,-165.571
5787.983799873429,73.587
5794.505158206499,-18.397
5801.142549523138,0.0
5807.658925557145,70.959
5814.172834999641,70.959
5820.684279250832,165.571
5827.193259709879,31.537
5833.699777774898,21.025
5840.203834842934,47.306
5846.7054323099655,218.133
5853.204571570954,91.984
5859.701254019747,194.48
5866.195481049195,89.356
5872.687254051074,-39.422
5879.176574416102,107.753
5885.663443533944,91.984
5892.14786279323,70.959
5898.629833581537,65.703
5905.109357285379,105.124
5911.586435290243,149.802
5918.061068980562,81.471
5924.533259739736,42.05
5931.003008950094,349.539
5937.470317992949,36.794
5943.935188248557,10.512
5950.397621096134,0.0
5956.857617913869,65.703
5963.315180078898,139.29
5969.7703089673305,97.24
5976.105705888956,131.406
5982.556016527509,-244.414
5989.003897986593,294.349
5995.449351638199,31.537
6001.8923788532775,28.909
6008.215900781644,34.165
6014.654123287393,63.075
6021.089923438405,144.546
6027.523302601519,-68.331
6033.954262142564,294.349
6040.265942433929,141.918
6046.692110755517,-52.562
6053.115863521547,118.265
6059.420472023492,76.215
6065.839441620141,160.315
6072.255999718647,99.868
6078.553548309683,155.059
6084.965331270854,65.703
6091.374706782226,42.05
6097.665207314269,215.505
6104.06981570238,315.373
6110.472020679961,39.422
6116.755484978421,226.018
6123.152930828903,-60.447
6129.431725134898,15.769
6135.824417162912,94.612
6142.098546680769,44.678
6148.486490183052,47.306
6154.872039648391,21.025
6161.139160374798,-73.587
6167.519969269015,-5.256
6173.782438208022,-26.281
6180.158511808193,73.587
6186.416334137088,-13.141
6192.787677712448,81.471
6199.040858600842,34.165
6205.291741972564,28.909
6211.656022022646,-23.653
6217.902271670246,78.843
6224.261834810408,73.587
6230.503455884398,-28.909
6236.742785809074,34.165
6243.095304999864,10.512
6249.330014038809,199.737
6255.677829386121,84.1
6261.907922670827,-15.769
6268.1357311500615,-55.19
6274.476522051649,105.124
6280.699722436162,36.794
6286.920641805642,34.165
6293.139281413962,383.704
6299.470738832184,99.868
6305.684780516531,-44.678
6311.896546218988,-131.406
6318.106037189755,49.934
6324.428181717434,134.034
6330.633084905065,194.48
6336.835717129172,139.29
6343.036079636258,128.778
6349.234173671932,-73.587
6355.544716640681,47.306
6361.738235515753,63.075
6367.929489673777,70.959
6374.118480356665,13.141
6380.305208805476,-78.843
6386.489676260331,160.315
6392.671883960451,118.265
6398.851833144166,-94.612
6405.143905470883,-28.909
6411.319299566196,23.653
6417.492438877496,231.274
6423.663324639478,-78.843
6429.831958085924,260.183
6435.998340449718,68.331
6442.162472962846,212.877
6448.324356856407,102.496
6454.483993360576,-113.009
6460.641383704664,139.29
6466.79652911704,60.447
6472.949430825232,102.496
6479.100090055821,70.959
6485.248508034543,-65.703
6491.280888225534,26.281
6497.424868822251,136.662
6503.5666118162335,-34.165
6509.706118429633,-21.025
6515.843389883739,68.331
6521.978427398899,-107.753
6528.111232194642,-155.059
6534.241805489546,-34.165
6540.256680928833,199.737
6546.382836142315,63.075
6552.506763482961,105.124
6558.628464165849,339.026
6564.747939405184,165.571
6570.751928194237,115.637
6576.866997341494,57.818
6582.979844660076,-10.512
6589.090471360658,223.39
6595.0857801617385,13.141
6601.192010321647,76.215
6607.296023467985,73.587
6613.39782080795,115.637
6619.384468430493,-94.612
6625.481878753591,165.571
6631.577076864334,70.959
6637.5572509579,113.009
6643.64806916556,105.124
6649.623946782151,55.19
6655.71038980603,57.818
6661.794626582923,42.05
6667.764048126817,91.984
6673.843916808139,39.422
6679.809053455574,115.637
6685.884558743659,81.471
6691.957863728712,204.993
6697.916561697035,123.521
6703.985510351609,126.149
6709.939934962422,-36.794
6716.004531971987,310.117
6721.954687820689,18.397
6728.014937863976,176.084
6733.960829539363,0.0
6739.904610751524,89.356
6745.95836937274,-115.637
6751.897893261092,-160.315
6757.947316561804,176.084
6763.8825876987685,120.893
6769.927680334353,-562.416
6775.858703285812,-47.306
6781.787623684751,52.562
6787.826249230238,34.165
6793.750928258974,149.802
6799.673508107371,10.512
6805.705676935038,165.571
6811.624022213946,147.174
6817.540271677499,115.637
6823.5659941374615,-78.843
6829.478015817709,5.256
6835.387945040406,26.281
6841.407231460638,-136.662
6847.312939671727,162.943
6853.216558775894,136.662
6859.118089881435,215.505
6865.017534095896,-60.447
6871.026143398485,26.281
6876.921377827312,42.05
6882.814528703813,-47.306
6888.705597132364,-28.909
6894.594584216582,186.596
6900.592544785228,123.521
6906.477333270021,2.628
6912.360043737404,249.671
6918.240677287846,278.58
6924.119235021055,-199.737
6929.995718035963,102.496
6935.870127430717,186.596
6941.742464302697,10.512
6947.6127297485,18.397
6953.480924863958,191.852
6959.347050744116,275.952
6965.21110848328,-26.281
6971.073099174937,70.959
6976.93302391185,212.877
6982.79088378598,36.794
6988.64667988853,105.124
6994.500413309928,49.934
7000.35208513985,86.728
7006.201696467178,13.141
7012.049248380063,262.811
7017.894741965851,160.315
7023.738178311156,18.397
7029.579558501813,215.505
7035.418883622879,218.133
7041.2561547586665,152.431
7047.091372992727,65.703
7052.924539407839,239.158
7058.645653010426,131.406
7064.474757695687,102.496
7070.301813785409,65.703
7076.126822359336,102.496
7081.949784496486,260.183
7087.660891581778,134.034
7093.479802640664,249.671
7099.296670474898,99.868
7105.111496160462,18.397
7110.814624476749,115.637
7116.625407570507,-52.562
7122.434151718757,149.802
7128.2408579944895,-139.29
7133.936024250346,218.133
7139.73869639702,162.943
7145.53933386541,28.909
7151.22854892195,128.778
7157.025158582874,131.406
7162.819736753059,49.934
7168.503009933542,44.678
7174.293566604632,-2.628
7180.082094965896,183.968
7185.759435574095,-23.653
7191.54394873148,126.149
7197.2173519438,467.804
7202.997854073568,10.512
7208.667323984642,107.753
7214.443819257263,136.662
7220.109359956041,134.034
7225.881852536215,39.422
7231.54346810597,15.769
7237.311962152613,120.893
7242.969656670975,118.265
7248.734156337254,65.703
7254.387933876205,134.034
7260.148443309525,26.281
7265.798307935409,-78.843
7271.554831277448,197.108
7277.20078705097,141.918
7282.953328437674,-76.215
7288.59537941395,-60.447
7294.235498085545,42.05
7299.982093204053,65.703
7305.618313131272,-26.281
7311.252603748333,102.496
7316.993261813666,-5.256
7322.623659726734,5.256
7328.252131317968,65.703
7333.9868615261075,-10.512
7339.611446441268,120.893
7345.234108016753,55.19
7350.962919544712,15.769
7356.581700459581,13.141
7362.198561010817,160.315
7367.813502182726,204.993
7373.426524958988,147.174
7379.145517410223,218.133
7384.7546694986595,63.075
7390.361906157261,107.753
7395.967228366993,68.331
7401.570637108154,23.653
7407.279835705631,-21.025
7412.879383697611,76.215
7418.477021176703,94.612
7424.072749120482,81.471
7429.666568505905,76.215
7435.258480309247,97.24
7440.848485506111,119.248
7446.436585071431,135.43
7452.022779979503,146.819
7457.607071203925,154.459
7463.296794702215,159.379
7468.877244915177,162.619
7474.455794380043,165.214
7480.032444067743,168.199
7485.607194948596,152.431
7491.18004799222,60.447
7496.751004167574,-15.769
7502.2129850032,120.893
7507.7801867781745,39.422
7513.345494569261,157.687
7518.908909342786,76.215
7524.470432064445,47.306
7530.03006369928,233.902
7535.587805211653,-28.909
7541.1436575652915,42.05
7546.697621723266,220.761
7552.249698647978,-34.165
7557.693172648,197.108
7563.241514237732,76.215
7568.787971459049,36.794
7574.332545271769,89.356
7579.87523663506,89.356
7585.416046507413,-68.331
7590.848475703144,173.455
7596.385561603231,141.918
7601.920768865631,165.571
7607.454098446255,-15.769
7612.879194899509,36.794
7618.4088080453,63.075
7623.936546354853,160.315
7629.462410781522,52.562
7634.880189328982,91.984
7640.402344837916,194.48
7645.9226293018255,228.646
7651.334937948188,36.794
7656.851519109852,-26.281
7662.260197498763,118.265
7667.773079083498,113.009
7673.284094334183,15.769
7678.687316594296,94.612
7684.194637864675,173.455
7689.7000956236625,73.587
7695.097870006797,-257.555
7700.599639370841,-21.025
7705.993798107356,105.124
7711.491882781789,102.496
7716.882429503323,73.587
7722.376833188511,-34.165
7727.763771521855,231.274
7733.254497913214,215.505
7738.637831480286,113.009
7744.124884268305,81.471
7749.504616686187,157.687
7754.987999556393,144.546
7760.364134437317,139.29
7765.738489349154,78.843
7771.216392021717,-15.769
7776.587154788423,113.009
7782.061396717661,60.447
7787.428570939446,68.331
7792.793969640064,39.422
7798.262745065967,-302.233
7803.624560595526,113.009
7808.984603262106,84.1
7814.447920368751,126.149
7819.804385227417,-26.281
7825.159079875983,23.653
7830.616946831127,70.959
7835.968069024231,-99.868
7841.317423654822,168.199
7846.665011598543,7.884
7852.115636126822,-26.281
7857.459658723532,-13.141
7862.801917273948,97.24
7868.142412651388,160.315
7873.481145728587,60.447
7878.922746278997,-13.141
7884.257922859626,44.678
7889.59133977185,31.537
7894.922997886111,36.794
7900.252898072242,26.281
7905.581041199541,157.687
7910.907428136696,110.381
7916.336446752692,-131.406
7921.65928952102,212.877
7926.980378718883,-2.628
7932.29971521271,76.215
7937.617299868325,-68.331
7942.933133550996,78.843
7948.247217125423,97.24
7953.559551455743,-10.512
7958.870137405502,5.256
7964.178975837705,-2.628
7969.486067614758,218.133
7974.791413598527,-81.471
7980.0950146503055,144.546
7985.396871630804,86.728
7990.696985400187,0.0
7995.995356818043,84.1
8001.291986743403,-55.19
8006.586876034729,18.397
8011.880025549901,281.208
8017.067699705829,97.24
8022.357406311574,202.365
8027.645375694708,220.761
8032.931608710882,60.447
8038.216106215201,-176.084
8043.498869062179,123.521
8048.779898105804,34.165
8053.955695240969,105.124
8059.233293192043,5.256
8064.509159881611,55.19
8069.783296161415,-21.025
8074.952338977277,73.587
8080.223050878609,84.1
8085.492034905405,73.587
8090.759291907168,-60.447
8095.921593616502,65.703
8101.185432936367,86.728
8106.447547759821,173.455
8111.604810570996,183.968
8116.863512715307,39.422
8122.120492886879,21.025
8127.272724173963,231.274
8132.526296659391,31.537
8137.778149690843,68.331
8142.925356813517,-97.24
8148.173807142077,144.546
8153.4205405305,-7.884
8158.562730834117,86.728
8163.806066493191,144.546
8168.944927307508,65.703
8174.184868536668,2.628
8179.32040309432,55.19
8184.55695318873,136.662
8189.689164718173,65.703
8194.922326968728,99.868
8200.051218694258,176.084
8205.280996387602,94.612
8210.406571529322,165.571
8215.632967947844,-144.546
8220.7552297217,10.512
8225.978248143558,18.397
8231.097199761349,-68.331
8236.316843460441,10.512
8241.43248812982,286.464
8246.546496881761,94.612
8251.76110130029,-57.818
8256.871807891675,307.489
8261.98088093357,18.397
8267.190453365733,7.884
8272.296229025691,13.141
8277.400373499535,65.703
8282.604921225458,-5.256
8287.705773086778,10.512
8292.804996120794,197.108
8298.004526406577,76.215
8303.100461588281,39.422
8308.194770296956,-57.818
8313.28745331115,55.19
8318.48031600209,0.0
8323.569717486189,-21.025
8328.657495624051,36.794
8333.743651192239,47.306
8338.828184966831,78.843
8344.012739449463,23.653
8349.093999566121,13.141
8354.17364022991,-44.678
8359.251662214898,28.909
8364.328066294685,-136.662
8369.402853242376,183.968
8374.476023830553,191.852
8379.547578831349,78.843
8384.718901354245,-2.628
8389.787195221597,-5.256
8394.853875830348,199.737
8399.91894395064,165.571
8404.98240035212,21.025
8410.044245803958,5.256
8415.104481074803,415.242
8420.163106932847,-78.843
8425.220124145773,47.306
8430.275533480788,91.984
8435.32933570461,65.703
8440.381531583458,2.628
8445.432121883085,199.737
8450.48110736873,91.984
8455.528488805172,10.512
8460.473367100913,94.612
8465.51757477424,105.124
8470.560180674485,84.1
8475.601185564497,47.306
8480.64059020661,178.712
8485.67839536271,44.678
8490.714601794163,176.084
8495.749210261878,162.943
8500.681576948675,-165.571
8505.713023691114,-97.24
8510.742874734438,99.868
8515.771130837642,36.794
8520.797792759218,-91.984
8525.722375497866,44.678
8530.745883175656,-18.397
8535.7677989293,52.562
8540.788123515384,-18.397
8545.706498587671,18.397
8550.723674892208,181.34
8555.739262280982,55.19
8560.652997083213,-257.555
8565.665440644778,49.934
8570.676297538128,-44.678
8575.585398634048,-28.909
8580.593116146138,78.843
8585.599249233324,-10.512
8590.503723174297,-307.489
8595.506721317797,-84.1
8600.508137275468,-21.025
8605.40799060051,0.0
8610.406276043708,70.959
8615.303062904772,120.893
8620.298220771765,7.884
8625.191944046568,36.794
8630.18397727198,-39.422
8635.074639834631,-134.034
8640.063551349394,5.256
8644.951156070434,233.902
8649.936948801806,68.331
8654.821498548154,-281.208
8659.804175419777,39.422
8664.685673054784,73.587
8669.665236986599,0.0
8674.543685370048,-44.678
8679.520139278378,-10.512
8684.395541266465,-257.555
8689.2694364983,-2.628
8694.241246509358,-28.909
8699.112099609058,-86.728
8703.981448060618,123.521
8708.948620671701,31.537
8713.81493124642,0.0
8718.779005433622,-13.141
8723.642280973501,-34.165
8728.504055374753,84.1
8733.364329332315,160.315
8738.32224658698,-44.678
8743.179491154478,131.406
8748.035237374625,28.909
8752.889485940628,10.512
8757.8412577103,-417.87
8762.692482517024,107.753
8767.542211760752,7.884
8772.39044613298,-5.256
8777.336083836857,-91.984
8782.18130006664,52.562
8787.02502351089,-73.587
8791.867254859393,10.512
8796.707994801498,26.281
8801.547244026118,-57.818
8806.385003221756,42.05
8811.319956958603,-86.728
8816.154707786565,52.562
8820.987970662514,28.909
8825.819746273257,-18.397
8830.650035305174,10.512
8835.478838444196,-42.05
8840.306156375878,-18.397
8845.131989785303,-149.802
8849.956339357173,0.0
8854.779205775758,-39.422
8859.60058972489,-36.794
8864.420491888006,52.562
8869.238912948098,42.05
8874.055853587757,15.769
8878.871314489159,-120.893
8883.685296334032,107.753
8888.497799803714,89.356
8893.308825579123,31.537
8898.118374340735,102.496
8902.926446768637,-89.356
8907.634964476681,2.628
8912.440116370435,2.628
8917.243793954342,5.256
8922.045997906822,136.662
8926.846728905857,2.628
8931.645987629043,-42.05
8936.443774753548,76.215
8941.142221650607,97.24
8945.937097605834,10.512
8950.73050397759,-10.512
8955.522441441404,5.256
8960.215160665939,-31.537
8965.004192282166,47.306
8969.791757000756,-168.199
8974.577855495572,249.671
8979.26485751475,-44.678
8984.048055470721,165.571
8988.829789208343,339.026
8993.51251749025,21.025
8998.291354655303,-42.05
9003.068729603765,49.934
9007.747189991118,13.141
9012.521672326067,68.331
9017.294694442531,97.24
9021.968892767374,-34.165
9026.739026222178,-52.562
9031.41039612206,155.059
9036.17764353675,76.215
9040.943434050514,-15.769
9045.610551571128,-265.439
9050.373459984672,86.728
9055.037755503963,-65.703
9059.797784430888,-7.884
9064.45926050758,162.943
9069.216412558366,34.165
9073.87507174812,15.769
9078.629349530078,-55.19
9083.285194385431,-118.265
9088.036600502714,-42.05
9092.689633573158,-136.662
9097.438170626783,76.215
9102.088394458704,42.05
9106.73722909284,10.512
9111.481482183284,10.512
9116.12751137963,-52.562
9120.868901881862,-5.256
9125.512128179163,-23.653
9130.153968412898,13.141
9134.891084617178,-105.124
9139.53012574118,-76.215
9144.167782675046,44.678
9148.9006303586,34.165
9153.535491965213,-91.984
9158.168971251744,99.868
9162.801068836525,68.331
9167.528243916331,-70.959
9172.157551197888,-81.471
9176.785478643267,-15.769
9181.412026869286,-26.281
9186.13353953768,-28.909
9190.757302472506,-49.934
9195.37968804908,-84.1
9200.000696882766,31.537
9204.620329588544,65.703
9209.334785850184,23.653
9213.951639506451,-13.141
9218.567118890363,70.959
9223.181224615444,21.025
9227.79395729483,36.794
9232.40531754132,262.811
9237.015305967328,-336.398
9241.623923184923,89.356
9246.23116980579,-212.877
9250.932987640888,-105.124
9255.537466379788,0.0
9260.140576367572,5.256
9264.742318214474,107.753
9269.342692530376,42.05
9273.941699924766,-228.646
9278.539341006806,44.678
9283.135616385269,107.753
9287.730526668583,99.868
9292.324072464791,783.177
9296.91625438162,26.281
9301.411444872112,-10.512
9306.00092923447,-86.728
9310.589051525738,-42.05
9315.175812352172,-126.149
9319.761212319692,-76.215
9324.345252033823,186.596
9328.927932099774,-123.521
9333.509253122353,42.05
9338.08921570604,-26.281
9342.572446701386,-5.256
9347.149722488744,291.72
9351.7256416359,26.281
9356.300204745894,47.306
9360.873412421412,-26.281
9365.350032145325,42.05
9369.920558965528,23.653
9374.489732144635,-10.512
9379.05755228394,-47.306
9383.528899030936,-42.05
9388.09404305015,0.0
9392.657835818722,7.884
9397.125240831178,55.19
9401.6863610176,-13.141
9406.246131739394,63.075
9410.80455359534,-199.737
9415.266701898625,-118.265
9419.822455888205,26.281
9424.281993052333,-126.149
9428.835081516963,191.852
9433.38682407955,73.587
9437.84243511156,36.794
9442.391515668474,-186.596
9446.84452129656,141.918
9451.390942182352,52.562
9455.93602012123,36.794
9460.385108237591,73.587
9464.927530014324,91.984
9469.374018445214,2.628
9473.913786387537,31.537
9478.35767741084,-128.778
9482.894793843763,42.05
9487.33608973474,5.256
9491.87055698055,-296.977
9496.30926001177,-70.959
9500.74668109923,31.537
9505.277192831463,105.124
9509.71202445114,165.571
9514.23989277796,36.794
9518.672137195834,-78.843
9523.103102466685,-47.306
9527.62702390948,52.562
9532.05540536064,-18.397
9536.57668916292,-55.19
9541.002489053764,-10.512
9545.42701258622,68.331
9549.850260312329,-39.422
9554.36630345335,-249.671
9558.78697410632,23.653
9563.206370618926,13.141
9567.718482324255,181.34
9572.13530512818,-73.587
9576.550855454823,31.537
9580.965133854,-42.05
9585.47202083257,34.165
9589.883729992052,31.537
9594.294168883298,31.537
9598.703338054846,123.521
9603.111238054931,-107.753
9607.611613766734,-94.612
9612.016950092931,-91.984
9616.421018902103,-99.868
9620.823820741218,-47.306
9625.225356156909,-99.868
9629.625625695517,-10.512
9634.02462990307,49.934
9638.422369325252,5.256
9642.81884450748,139.29
9647.21405599481,144.546
9651.701478874824,-47.306
9656.094137748323,21.025
9660.485534571855,-47.306
9664.875669889248,-84.1
9669.264544244,-131.406
9673.65215817932,63.075
9678.03851223808,26.281
9682.423606962846,-39.422
9686.807442895892,21.025
9691.19002057915,10.512
9695.478134071804,52.562
9699.858223622705,-70.959
9704.23705653629,44.678
9708.614633353289,-44.678
9712.990954614088,-34.165
9717.36602085878,-354.795
9721.739832627154,34.165
9726.112390458671,-191.852
9730.483694892511,-15.769
9734.760779687776,126.149
9739.129605581998,7.884
9743.497179682729,-60.447
9747.863502527893,-84.1
9752.228574655115,-49.934
9756.499562339395,-149.802
9760.862161224974,55.19
9765.223510992222,13.141
9769.583612177565,-107.753
9773.849736751828,26.281
9778.207368918504,-162.943
9782.563754099236,-84.1
9786.918892829211,199.737
9791.18016259473,55.19
9795.532836519418,-13.141
9799.884265585692,-94.612
9804.14190615754,-60.447
9808.490873566669,-97.24
9812.83859770701,-15.769
9817.09261371952,-265.439
9821.437879345483,-5.256
9825.689490172908,-31.537
9830.032299369228,55.19
9834.373867936378,223.39
9838.621861899856,173.455
9842.960977171238,-36.794
9847.206571054325,254.927
9851.543235108787,-63.075
9855.786430944943,52.562
9860.12064585897,-42.05
9864.361445679362,-2.628
9868.693213527116,97.24
9872.931619360628,44.678
9877.26094221391,0.0
9881.49695608711,-91.984
9885.823836015392,44.678
9890.057459952584,-260.183
9894.289902518456,-210.249
9898.613135046206,76.215
9902.843190697367,-115.637
9907.163985452502,-49.934
9911.391656207565,-254.927
9915.61814808206,-47.306
9919.935303126713,15.769
9924.15941311792,36.794
9928.38234571751,115.637
9932.695865648708,68.331
9936.91641937277,-31.537
9941.135797191648,-123.521
9945.445686598703,-155.059
9949.662688544726,226.018
9953.878516069532,-65.703
9958.09316966365,-110.381
9962.398234183594,-13.141
9966.61051589339,-60.447
9970.821625153134,0.0
9975.031562452265,10.512
9979.240328279942,-63.075
9983.53937957713,0.0
9987.745778488254,-160.315
9991.95100740443,170.827
9996.155066813732,-15.769
10000.357957203963,52.562
10004.55967906266,55.19
10008.760232877092,-31.537
10013.050897176752,-23.653
10017.249090997648,26.281
10021.446118245014,-28.909
10025.641979405023,13.141
10029.83667496358,36.794
10034.03020540632,73.587
10038.222571218605,-52.562
10042.413772885537,49.934
10046.603810891938,139.29
10050.79268572236,-65.703
10054.980397861098,-28.909
10059.16694779218,18.397
10063.352335999334,97.24
10067.536562966066,86.728
10071.719629175575,-44.678
10075.90153511081,60.447
10080.082281254454,21.025
10084.26186808891,49.934
10088.440296096323,86.728
10092.52676786215,107.753
10096.702904826674,170.827
10100.877884398516,10.512
10105.051707058765,97.24
10109.224373288234,-60.447
10113.395883567471,-39.422
10117.475590772649,115.637
10121.64481569536,-73.587
10125.812886097472,-81.471
10129.979802458443,65.703
10134.145565257517,89.356
10138.219652237512,49.934
10142.383134400929,73.587
10146.545464428116,-36.794
10150.706642797257,-2.628
10154.776246850048,26.667
10158.935148346747,30.045
10163.092899607942,18.547
10167.159152430871,3.217
10171.314629631466,-4.899
10175.468958016776,5.24
10179.531863747628,44.678
10183.683920879565,68.331
10187.834830614069,-76.215
10191.894393383842,-128.778
10196.043034667582,60.447
10200.190529969435,10.512
10204.246753902304,-120.893
10208.391983551395,49.934
10212.44599199288,78.843
10216.588957845182,60.447
10220.640752609928,-47.306
10224.781456519388,157.687
10228.831039420063,-18.397
10232.969483238625,-18.397
10237.016856085897,-28.909
10241.15304166346,0.0
10245.19820626604,-291.72
10249.332135450502,-13.141
10253.375093615126,-5.256
10257.506768252357,-51.684
10261.547521783785,-59.897
10265.58718577827,-40.897
10269.715494418666,-5.671
10273.752956473523,34.777
10277.87901516247,69.456
10281.91427707755,87.369
10285.948451675904,77.519
10290.0711512271,28.909
10294.10312837192,-36.794
10298.13401952729,-21.025
10302.253364041218,42.05
10306.282060424935,262.811
10310.309672144327,31.537
10314.425665714796,49.934
10318.451085340042,115.637
10322.475421623927,204.993
10326.498675003731,26.281
10330.610215200984,76.215
10334.631280043344,105.124
10338.651263301725,-44.678
10342.670165412448,44.678
10346.687986811625,78.843
10350.704727935088,-65.703
10354.80961387438,115.637
10358.824171771252,15.769
10362.837650708272,-23.653
10366.850051120337,-402.101
10370.86137344214,23.653
10374.871618108127,-36.794
10378.880785552512,-5.256
10382.888876209276,136.662
10386.984923052532,-63.075
10390.990837530662,-10.512
10394.995676531347,325.886
10398.999440487634,-97.24
10403.00212983234,176.084
10407.003744998048,-226.018
10411.004286417105,-118.265
10415.003754521616,52.562
10419.002149743475,189.224
10422.999472514348,-73.587
10426.995723265634,70.959
10430.990902428544,-23.653
10434.985010434026,52.562
10438.889325180557,-147.174
10442.881315942828,-105.124
10446.872236829608,131.406
10450.86208827093,-26.281
10454.85087069661,-57.818
10458.838584536235,-52.562
10462.82523021915,-186.596
10466.810808174472,-194.48
10470.706785742112,176.084
10474.690253232264,-68.331
10478.672654271297,42.05
10482.653989287404,-49.934
10486.634258708573,-28.909
10490.525047770485,15.769
10494.50321094102,147.174
10498.480309789697,-97.24
10502.45634474356,165.571
10506.342995080442,-36.794
10510.316927143493,-81.471
10514.2897965821,120.893
10518.261603822417,-5.256
10522.144122034457,-123.521
10526.113829736623,44.678
10530.082476508169,91.984
10533.961905709137,233.902
10537.92845544769,-183.968
10541.89394552126,144.546
10545.770289396216,-34.165
10549.733684937964,-126.149
10553.607981637546,-273.324
10557.569284306495,-21.025
10561.52952941227,47.306
10565.400746905443,-5.256
10569.35890163298,-31.537
10573.22807600992,-55.19
10577.184142013864,-2.628
10581.05127489159,-49.934
10585.005253824836,-26.281
10588.87034681866,-57.818
10592.822240332363,-73.587
10596.685295055897,15.769
10600.635104799476,78.843
10604.496122864624,144.546
10608.443850485746,0.0
10612.302833502728,49.934
10616.160811022752,-139.29
10620.10543022464,2.628
10623.9613750996,73.587
10627.903916281392,170.827
10631.757830117263,63.075
10635.61074043666,144.546
10639.550179321655,0.0
10643.401060998756,44.678
10647.250940343372,-134.034
10651.187280591832,99.868
10655.035133687184,-126.149
10658.881985632182,-152.431
10662.815230898605,-18.397
10666.660058983602,-7.884
10670.50388709854,-49.934
10674.346715633475,-10.512
10678.275847672114,-34.165
10682.116655520924,110.381
10685.956464967534,55.19
10689.795276401208,-170.827
10693.633090210977,18.397
10697.557095575656,105.124
10701.39289265285,-31.537
10705.227693280882,428.382
10709.061497847986,97.24
10712.894306742182,-13.141
10716.726120351308,136.662
10720.55693906298,2.628
10724.386763264632,60.447
10728.302600658342,152.431
10732.130414421008,42.05
10735.957234843503,-128.778
10739.783062312445,-84.1
10743.60789721425,65.703
10747.431739935131,-81.471
10751.254590861114,120.893
10755.076450378,-115.637
10758.897318871408,60.447
10762.717196726757,-60.447
10766.536084329256,7.884
10770.353982063916,-34.165
10774.170890315563,-31.537
10777.98680946881,76.215
10781.801739908076,-84.1
10785.615682017564,-23.653
10789.341989100834,81.471
10793.153978142976,10.512
10796.964979998098,-128.778
10800.774995049622,60.447
10804.58402368077,21.025
10808.392066274577,-13.141
10812.199123213884,23.653
10816.005194881312,73.587
10819.723813349112,-204.993
10823.52793799081,102.496
10827.331078498672,18.397
10831.133235254529,-44.678
10834.848029253728,60.447
10838.64824198676,94.612
10842.447472103491,-63.075
10846.24571998498,13.141
10849.956695412544,39.422
10853.753002267928,-2.628
10857.548328021428,-26.281
10861.342673053316,-55.19
10865.049835794096,65.703
10868.842242790466,-36.794
10872.63367019626,-31.537
10876.337982712816,-102.496
10880.12747431772,-42.05
10883.82989575329,97.24
10887.617453039476,-34.165
10891.404032613404,60.447
10895.103609289945,31.537
10898.88825677408,-173.455
10902.585945994537,70.959
10906.368662867266,78.843
10910.150403901262,-23.653
10913.845253813895,-52.562
10917.62506645972,223.39
10921.318032531915,21.025
10925.095918264182,-28.909
10928.787001936307,252.299
10932.562962228116,26.281
10936.252164939066,55.19
10939.940438510435,-189.224
10943.713524449233,-136.662
10947.399919206764,-91.984
10951.171083372872,-55.19
10954.855600751816,218.133
10958.62484461311,91.984
10962.307486047235,-123.521
10965.989200819247,-42.05
10969.755577991731,-65.703
10973.435418958636,10.512
10977.114334320191,141.918
10980.877848072992,-275.952
10984.554891765896,10.512
10988.231010908596,-78.843
10991.991664505884,-84.1
10995.665914113146,-91.984
10999.33924022374,7.884
11003.011643185791,49.934
11006.768495629847,-18.397
11010.439031890255,31.537
11014.108646053544,-134.034
11017.777338467138,-15.769
11021.530395518184,89.356
11025.197224058184,-226.018
11028.863131897786,-55.19
11032.528119383707,-57.818
11036.192186862492,-286.464
11039.855334680517,-120.893
11043.602720353196,18.397
11047.264008520897,-31.537
11050.924378073953,-212.877
11054.58382935806,247.043
11058.242362718707,34.165
11061.899978501227,194.48
11065.556677050785,-18.397
11069.21245871235,78.843
11072.867323830738,-23.653
11076.521272750586,63.075
11080.174305816368,34.165
11083.826423372368,-76.215
11087.477625762698,-162.943
11091.127913331318,-10.512
11094.777286422,-49.934
11098.425745378345,433.639
11102.073290543767,-113.009
11105.719922261547,-81.471
11109.36564087477,-228.646
11113.010446726335,10.512
11116.654340159006,-26.281
11120.29732151534,-39.422
11123.93939113774,47.306
11127.580549368427,70.959
11131.22079654947,-15.769
11134.77550763161,47.306
11138.413954906267,-57.818
11142.051492148485,-70.959
11145.688119699626,78.843
11149.323837900913,-34.165
11152.958647093375,18.397
11156.508048620988,42.05
11160.141061938251,-118.265
11163.773167260852,5.256
11167.40436492916,-18.397
11170.950240228543,36.794
11174.579644697213,-2.628
11178.208142523734,152.431
11181.751381744987,23.653
11185.378088371155,-42.05
11189.003889365817,21.025
11192.628785068173,-44.678
11196.16850723805,-15.769
11199.79161440632,-86.728
11203.413817290922,110.381
11206.950910239968,-328.514
11210.571326582844,252.299
11214.10667518314,63.075
11217.725306305692,26.281
11221.343034819707,-126.149
11224.875759069631,36.794
11228.49170435076,-34.165
11232.022687482247,-28.909
11235.636850848638,47.306
11239.166094148528,-34.165
11242.778476917028,-44.678
11246.305981670925,-49.934
11249.91658515709,215.505
11253.442352649325,-21.025
11257.05117816741,207.621
11260.575209681025,0.0
11264.182258544,39.422
11267.704555360804,-110.381
11271.309828880325,220.761
11274.83039228086,99.868
11278.350099642112,44.678
11281.952723030843,115.637
11285.470698886753,-102.496
11288.987819646914,63.075
11292.587795825824,-89.356
11296.103186988752,160.315
11299.70139304264,81.471
11303.215055883851,-5.256
11306.727865201254,-34.165
11310.23982130582,-136.662
11313.834511810855,-52.562
11317.34474212601,-36.794
11320.8541201677,194.48
11324.446172200132,-123.521
11327.953826352135,65.703
11331.460629168672,73.587
11334.96658095964,-102.496
11338.471682034791,-131.406
11342.059356881087,42.05
11345.562737216636,65.703
11349.06526777208,44.678
11352.566948856567,-7.884
11356.067780779093,-63.075
11359.56776384851,-186.596
11363.1502007606,99.868
11366.648466857394,13.141
11370.145885034064,89.356
11373.642455598843,13.141
11377.138178859836,-52.562
11380.633055125,323.258
11384.1270847021,-31.537
11387.620267898808,-31.537
11391.112605022612,81.471
11394.60409638087,-15.769
11398.094742280777,63.075
11401.584543029392,-97.24
11405.073498933603,70.959
11408.561610300185,-2.628
11412.048877435727,84.1
11415.5353006467,10.512
11419.020880239405,18.397
11422.505616520008,-236.53
11425.989509794525,-15.769
11429.472560368817,21.025
11432.954768548592,18.397
11436.43613463944,-23.653
11439.916658946764,-70.959
11443.313501961433,28.909
11446.79236364179,44.678
11450.270384446749,-286.464
11453.74756468115,168.199
11457.22390464968,-89.356
11460.699404656869,97.24
11464.091344754375,-44.678
11467.565185732994,31.537
11471.038187655771,-89.356
11474.51035082668,-28.909
11477.981675549512,-115.637
11481.369541233144,31.537
11484.839209915755,65.703
11488.30804105362,-39.422
11491.693473394258,-60.447
11495.16065027576,10.512
11498.626990514544,-44.678
11502.092494413417,42.05
11505.474679896604,26.281
11508.938531918346,36.794
11512.401548500471,-289.092
11515.78130675673,241.786
11519.242673239612,147.174
11522.620821260369,-60.447
11526.080538823127,-191.852
11529.5394224415,-10.512
11532.915147579475,147.174
11536.372384051368,-68.331
11539.74650183491,63.075
11543.202092336618,-65.703
11546.574603913472,-55.19
11550.028549620163,136.662
11553.399456136987,57.818
11556.85175822272,-28.909
11560.221060825072,-15.769
11563.67172046279,42.05
11567.039420295116,197.108
11570.488438656655,-57.818
11573.854536862347,-39.422
11577.301915118398,-197.108
11580.666412839755,-42.05
11584.030120381583,-123.521
11587.475050538147,73.587
11590.837159300165,-141.918
11594.280452266124,5.256
11597.64096338792,7.884
11601.000685734118,-131.406
11604.441534950183,370.564
11607.79966135666,126.149
11611.156999826935,73.587
11614.59540789372,60.447
11617.951152122365,55.19
11621.306109253032,60.447
11624.66027956261,-10.512
11628.09544335218,-34.165
11631.44802167594,-26.281
11634.799814015252,86.728
11638.15082064648,-44.678
11641.58274474832,-63.075
11644.932161645294,-68.331
11648.280793669244,-60.447
11651.62864109602,-15.769
11654.975704201344,102.496
11658.403590030808,63.075
11661.749066206958,-84.1
11665.093758894744,-68.331
11668.43766836938,-31.537
11671.780794905935,-186.596
11675.12313877933,-39.422
11678.4647002644,18.397
11681.805479635816,55.19
11685.145477168146,-36.794
11688.484693135812,-84.1
11691.904543291126,10.512
11695.24217790648,-134.034
11698.579031786354,102.496
11701.915105204676,-244.414
11705.25039843522,63.075
11708.584911751648,-415.242
11711.918645427471,-63.075
11715.251599736104,-47.306
11718.502511651865,91.984
11721.83392703817,-13.141
11725.164563870054,89.356
11728.4944224204,65.703
11731.823502961994,91.984
11735.15180576744,-147.174
11738.479331109273,18.397
11741.806079259855,-18.397
11745.132050491462,-226.018
11748.457245076206,15.769
11751.70058915004,26.281
11755.024250183047,152.431
11758.34713537819,-417.87
11761.669245007088,126.149
11764.990579341233,7.884
11768.230158619372,-97.24
11771.549962071174,110.381
11774.86899103535,-102.496
11778.187245782876,97.24
11781.423821624776,-36.794
11784.740547618409,-52.562
11788.05650020102,-70.959
11791.371679643096,-5.256
11794.605256223578,-57.818
11797.91890903626,-99.868
11801.231789512534,-194.48
11804.46312397414,-55.19
11807.774479408556,-47.306
11811.085063309589,-31.537
11814.314157983485,-44.678
11817.623218427994,-63.075
11820.850827315822,226.018
11824.158365355152,23.653
11827.4651331948,28.909
11830.690506166697,-94.612
11833.995753182851,-291.72
11837.219642936305,23.653
11840.52337017791,10.512
11843.745777735792,-296.977
11847.047986250807,-68.331
11850.26891263506,-81.471
11853.569603470474,-86.728
11856.789049702087,-63.075
11860.088223903953,-231.274
11863.30619100298,-397.578
11866.603849616356,-503.627
11869.820338601929,-554.802
11873.11648267094,-556.473
11876.331494561222,-514.022
11879.545777396996,-432.824
11882.839660941268,-318.254
11886.052468201013,-175.691
11889.26454715598,-10.512
11892.55617250015,68.331
11895.766777396242,-120.893
11899.056892350098,65.703
11902.26602420178,-134.034
11905.474428998024,-31.537
11908.682106985869,-2.628
11911.969222890988,423.126
11915.17542984806,42.05
11918.380910743392,136.662
11921.66577540321,-21.025
11924.869786778698,-84.1
11928.07307283808,-52.562
11931.27563382762,-44.678
11934.477469993468,21.025
11937.758600089848,-28.909
11940.95896924119,-49.934
11944.158614312782,-70.959
11947.35753555032,-52.562
11950.55573319941,52.562
11953.753207505528,168.199
11957.029868231695,-155.059
11960.225878519712,44.678
11963.42116620667,-204.993
11966.615731537608,-7.884
11969.809574757444,-28.909
11973.002696111003,-94.612
11976.195095842992,-78.843
11979.386774197992,47.306
11982.577731420495,26.281
11985.767967754866,-2.628
11988.957483445382,-31.537
11992.146278736183,-105.124
11995.334353871312,-91.984
11998.521709094712,-63.075
12001.708344650193,86.728
12004.894260781464,155.059
12008.079457732136,26.281
12011.2639357457,-189.224
12014.44769506553,-157.687
12017.630735934905,181.34
12020.81305859698,110.381
12023.994663294816,-102.496
12027.175550271351,94.612
12030.27622427429,-152.431
12033.455694464548,244.414
12036.634447655608,-21.025
12039.812484089987,-105.124
12042.989804010074,425.754
12046.166407658158,-28.909
12049.26290681064,115.637
12052.4380965329,-2.628
12055.612570703324,-39.422
12058.786329563762,-7.884
12061.880055974125,-13.141
12065.052402807443,10.512
12068.224035049663,-65.703
12071.394952942192,-31.537
12074.485910333004,-118.265
12077.655418093736,-73.587
12080.824212222367,-31.537
12083.913099633974,323.258
12087.080485047096,504.566
12090.247157544738,476.527
12093.333977055809,315.873
