Raman Shift,Intensity
92.04205,545.088
92.52417,543.2388
93.00629,541.151
93.4884,536.2153
93.97052,525.3978
94.45264,508.2885
94.93475,491.963
95.41687,476.9222
95.89898,463.53
96.3811,451.4287
96.86321,440.3111
97.34533,429.7114
97.82745,418.8356
98.30956,409.1589
98.79168,400.8618
99.2738,393.1985
99.75591,385.8908
100.238,378.9052
100.7201,372.3975
101.2023,366.4846
101.6844,361.0941
102.1665,355.7902
102.6486,349.7362
103.1307,344.1942
103.6128,340.4588
104.095,338.6414
104.5771,337.7124
105.0592,337.1373
105.5413,336.8351
106.0234,336.768
106.5055,336.6038
106.9877,336.5849
107.4698,337.8841
107.9519,341.6756
108.434,345.3765
108.9161,348.3865
109.3982,350.5206
109.8804,351.4238
110.3625,350.3454
110.8446,346.604
111.3267,344.4871
111.8088,344.6664
112.2909,345.7278
112.7731,347.1172
113.2552,348.7159
113.7373,350.6897
114.2194,353.2049
114.7015,355.9156
115.1836,360.1543
115.6658,366.4798
116.1479,373.9896
116.63,381.8929
117.1121,389.9399
117.5942,398.1896
118.0763,406.5929
118.5584,414.2357
119.0406,423.6398
119.5227,435.3107
120.0048,449.235
120.4869,465.4116
120.969,483.4322
121.4511,504.4801
121.9333,529.0
122.4154,556.309
122.8975,588.154
123.3796,625.1185
123.8617,667.0674
124.3438,715.8891
124.826,771.7473
125.3081,835.2278
125.7902,909.708
126.2723,997.5908
126.7544,1094.709
127.2365,1193.405
127.7187,1305.505
128.2008,1397.557
128.6829,1478.11
129.165,1533.753
129.6471,1544.964
130.1292,1496.811
130.6114,1392.291
131.0935,1274.473
131.5756,1117.955
132.0577,971.0978
132.5398,843.5109
133.0219,735.578
133.5041,645.3682
133.9862,571.2957
134.4683,514.5994
134.9504,468.716
135.4325,435.1794
135.9146,408.6129
136.3968,387.3167
136.8789,370.617
137.361,357.239
137.8431,346.2853
138.3252,338.1221
138.8073,331.1566
139.2895,325.6124
139.7716,321.0829
140.2537,317.1451
140.7358,313.7508
141.2179,310.8612
141.7,308.6466
142.1821,307.0429
142.6643,305.4469
143.1464,303.6381
143.6285,301.6477
144.1106,299.5315
144.5927,297.0965
145.0748,294.7999
145.557,293.0996
146.0391,291.997
146.5212,290.9321
147.0033,289.5065
147.4854,287.7179
147.9675,285.5557
148.4497,282.4573
148.9318,279.301
149.4139,276.606
149.896,274.4802
150.3781,272.5713
150.8602,270.3936
151.3424,267.8369
151.8245,265.183
152.3066,262.4344
152.7887,259.6317
153.2708,256.6828
153.7529,253.5866
154.2351,250.5379
154.7172,248.0511
155.1993,247.0182
155.6814,245.5113
156.1635,243.1942
156.6456,240.4315
157.1278,237.517
157.6099,234.5515
158.092,231.7384
158.5741,230.0382
159.0562,230.1643
159.5383,230.4107
160.0205,230.1728
160.5026,229.7357
160.9847,229.8356
161.4668,231.0094
161.9489,232.9937
162.431,234.4844
162.9131,234.9061
163.3953,235.4134
163.8774,236.8011
164.3595,238.989
164.8416,241.1345
165.3237,242.514
165.8058,243.5547
166.288,245.2409
166.7701,248.0415
167.2522,251.2514
167.7343,254.0221
168.2164,256.2393
168.6985,258.5404
169.1807,261.2951
169.6628,264.3391
170.1449,267.5457
170.627,270.9038
171.1091,274.3603
171.5912,277.824
172.0734,281.3997
172.5555,284.7669
173.0376,287.4572
173.5197,289.9774
174.0018,293.0521
174.4839,297.0787
174.9661,301.9984
175.4482,307.4596
175.9303,314.179
176.4124,320.6702
176.8945,326.08
177.3766,330.9973
177.8588,336.3851
178.3409,342.9824
178.823,350.812
179.3051,358.9976
179.7872,367.699
180.2693,376.6028
180.7515,385.4528
181.2336,394.4033
181.7157,403.779
182.1978,413.932
182.6799,424.9772
183.162,435.6212
183.6441,445.1869
184.1263,455.0234
184.6084,465.4261
185.0905,476.5667
185.5726,488.8315
186.0547,502.5333
186.5368,517.8817
187.019,534.153
187.5011,551.7396
187.9832,569.7816
188.4653,587.3588
188.9474,604.3568
189.4296,622.0406
189.9117,641.8698
190.3938,663.7721
190.8759,685.8294
191.358,707.3531
191.8401,729.0566
192.3223,751.7697
192.8044,775.6278
193.2865,800.5128
193.7686,826.5392
194.2507,853.5548
194.7328,881.4742
195.215,911.0765
195.6971,941.5268
196.1792,971.0162
196.6613,998.7087
197.1434,1026.994
197.6255,1057.942
198.1077,1090.967
198.5898,1124.101
199.0719,1157.079
199.554,1189.689
200.0361,1220.539
200.5182,1248.953
201.0004,1276.499
201.4825,1304.429
201.9646,1332.26
202.4467,1358.482
202.9288,1382.166
203.4109,1403.391
203.893,1422.598
204.3752,1440.506
204.8573,1455.078
205.3394,1465.766
205.8215,1472.587
206.3036,1475.77
206.7857,1475.375
207.2679,1471.379
207.75,1464.261
208.2321,1453.556
208.7142,1439.867
209.1963,1422.509
209.6784,1402.096
210.1606,1380.064
210.6427,1357.764
211.1248,1335.623
211.6069,1310.437
212.089,1281.387
212.5711,1250.499
213.0533,1217.757
213.5354,1183.688
214.0175,1148.916
214.4996,1113.958
214.9817,1078.626
215.4638,1044.229
215.946,1011.322
216.4281,978.5572
216.9102,944.5777
217.3923,909.8307
217.8744,875.7054
218.3565,843.658
218.8387,813.9547
219.3208,785.095
219.8029,756.4565
220.285,728.9002
220.7671,702.982
221.2492,678.6808
221.7314,655.5183
222.2135,633.0281
222.6956,611.3633
223.1777,591.2518
223.6598,573.3141
224.1419,556.4092
224.624,539.6234
225.1062,522.9115
225.5883,507.2623
226.0704,493.9082
226.5525,482.6158
227.0346,470.587
227.5167,456.8736
227.9989,442.8696
228.481,429.9025
228.9631,418.0612
229.4452,406.9716
229.9273,396.6601
230.4094,386.999
230.8916,377.5512
231.3737,368.1089
231.8558,358.9652
232.3379,350.5381
232.82,342.8947
233.3021,335.5059
233.7843,327.9423
234.2664,320.4127
234.7485,313.2744
235.2306,306.7365
235.7127,300.5292
236.1948,294.1312
236.677,287.3417
237.1591,281.0566
237.6412,275.9203
238.1233,271.466
238.6054,267.2822
239.0875,263.3699
239.5697,259.4874
240.0518,255.1646
240.5339,250.149
241.016,245.4531
241.4981,241.5698
241.9802,238.1333
242.4624,234.7962
242.9445,231.4052
243.4266,228.216
243.9087,225.7092
244.3908,224.0518
244.8729,222.6566
245.355,221.7409
245.8372,220.8078
246.3193,219.3262
246.8014,217.0876
247.2835,214.5674
247.7656,212.6059
248.2477,211.5216
248.7299,210.2482
249.212,208.6076
249.6941,206.7354
250.1762,204.6103
250.6583,202.2415
251.1404,199.9108
251.6226,198.1239
252.1047,197.2079
252.5868,196.1264
253.0689,194.3556
253.551,192.6844
254.0331,191.7375
254.5153,191.6464
254.9974,191.9982
255.4795,192.1619
255.9616,191.9707
256.4437,191.9583
256.9258,191.7714
257.408,191.9735
257.8901,192.9892
258.3722,194.8665
258.8543,197.2975
259.3364,199.8188
259.8185,202.0993
260.3007,205.4169
260.7828,209.5772
261.2649,214.6942
261.747,220.8291
262.2291,228.0044
262.7112,236.1572
263.1934,245.3543
263.6755,255.938
264.1576,266.3855
264.6397,279.3242
265.1218,290.0131
265.6039,296.5482
266.0861,298.4384
266.5682,295.4303
267.0503,286.9647
267.5324,272.4103
268.0145,255.8051
268.4966,234.7882
268.9788,214.2923
269.4609,196.3443
269.943,181.1093
270.4251,168.1528
270.9072,157.204
271.3893,148.3691
271.8715,140.7991
272.3536,134.5629
272.8357,129.2202
273.3178,124.7876
273.7999,121.1322
274.282,118.016
274.7642,115.3002
275.2463,112.9751
275.7284,111.0233
276.2105,109.6236
276.6926,108.2972
277.1747,106.9388
277.6568,105.5262
278.1389,103.9846
278.6211,102.2224
279.1032,100.3723
279.5853,99.03318
280.0674,98.59654
280.5495,98.09386
281.0316,97.15154
281.5138,95.99648
281.9959,95.08047
282.478,94.6355
282.9601,94.41811
283.4422,93.7803
283.9243,92.45374
284.4065,91.27984
284.8886,90.56581
285.3707,90.07076
285.8528,89.38746
286.3349,88.35475
286.817,87.2689
287.2992,86.7094
287.7813,86.92536
288.2634,86.78711
288.7455,85.74741
289.2276,84.41122
289.7097,83.57982
290.1919,83.44788
290.674,83.52013
291.1561,83.15329
291.6382,82.26603
292.1203,81.59521
292.6024,81.43221
293.0846,81.3934
293.5667,81.02097
294.0488,80.26327
294.5309,79.58684
295.013,79.533
295.4951,80.09978
295.9773,80.19197
296.4594,79.31391
296.9415,78.27892
297.4236,77.73424
297.9057,77.68216
298.3878,77.74219
298.87,77.69695
299.3521,77.5332
299.8342,77.26752
300.3163,76.83506
300.7984,76.36459
301.2805,75.88232
301.7627,75.4083
302.2448,75.03255
302.7269,74.83289
303.209,74.74152
303.6911,74.55404
304.1732,74.27209
304.6554,73.90812
305.1375,73.32201
305.6196,72.64764
306.1017,72.28471
306.5838,72.46523
307.0659,72.87657
307.5481,72.85811
308.0302,72.28698
308.5123,71.86696
308.9944,72.04996
309.4765,72.48592
309.9586,72.4965
310.4408,71.84418
310.9229,71.02743
311.405,70.7473
311.8871,71.00661
312.3692,71.25542
312.8513,71.406
313.3335,71.4815
313.8156,71.47262
314.2977,71.37255
314.7798,71.31591
315.2619,71.51295
315.744,71.92486
316.2262,72.02117
316.7083,71.47215
317.1904,70.79418
317.6725,70.39443
318.1546,70.27942
318.6367,70.29176
319.1188,70.3554
319.601,70.46489
320.0831,70.57956
320.5652,70.84362
321.0473,70.97314
321.5294,70.66528
322.0115,70.05586
322.4937,69.65475
322.9758,69.7686
323.4579,70.15554
323.94,70.1658
324.4221,69.59233
324.9042,69.15805
325.3864,69.33118
325.8685,69.78756
326.3506,69.8531
326.8327,69.25889
327.3148,68.43173
327.7969,68.05202
328.2791,68.17184
328.7612,68.30457
329.2433,68.23193
329.7254,68.18755
330.2075,68.55783
330.6896,69.40966
331.1718,70.23331
331.6539,70.45721
332.136,70.02213
332.6181,69.85995
333.1002,70.11452
333.5823,70.56345
334.0645,71.03638
334.5466,71.53757
335.0287,72.20896
335.5108,73.18887
335.9929,74.42783
336.475,75.5062
336.9572,76.1144
337.4393,76.91209
337.9214,78.29031
338.4035,80.07694
338.8856,81.89624
339.3677,83.61478
339.8499,85.16414
340.332,86.28799
340.8141,86.69486
341.2962,87.26805
341.7783,88.24745
342.2604,89.45911
342.7426,90.62163
343.2247,91.64915
343.7068,92.78771
344.1889,94.37071
344.671,96.50792
345.1531,98.90971
345.6353,101.4822
346.1174,104.3666
346.5995,107.6936
347.0816,111.4412
347.5637,115.4871
348.0458,119.5777
348.528,123.6992
349.0101,129.1552
349.4922,135.8244
349.9743,143.6702
350.4564,152.2671
350.9385,161.9582
351.4207,173.3978
351.9028,186.8161
352.3849,202.442
352.867,221.6545
353.3491,245.5571
353.8312,271.5788
354.3134,302.1069
354.7955,333.5063
355.2776,364.2361
355.7597,393.3076
356.2418,415.507
356.7239,422.1908
357.2061,409.7485
357.6882,386.4443
358.1703,345.2466
358.6524,299.509
359.1345,255.9155
359.6166,216.356
360.0987,182.2798
360.5808,155.0517
361.063,134.9952
361.5451,119.0008
362.0272,108.7316
362.5093,100.5065
362.9914,93.62894
363.4735,87.85007
363.9557,83.17623
364.4378,79.63306
364.9199,77.0662
365.402,74.81994
365.8841,72.82518
366.3662,71.31557
366.8484,70.61716
367.3305,70.23924
367.8126,69.69836
368.2947,68.84636
368.7768,67.88876
369.2589,67.12237
369.7411,66.55052
370.2232,66.18169
370.7053,66.25381
371.1874,66.31524
371.6695,65.99597
372.1516,65.38807
372.6338,64.95064
373.1159,65.19749
373.598,66.09588
374.0801,66.52694
374.5622,65.98647
375.0443,65.58633
375.5265,65.6918
376.0086,66.1663
376.4907,66.81999
376.9728,67.60413
377.4549,68.42008
377.937,69.03245
378.4192,69.36846
378.9013,69.70544
379.3834,70.23792
379.8655,70.73087
380.3476,70.86741
380.8297,70.59507
381.3119,70.45774
381.794,71.10812
382.2761,72.52971
382.7582,73.8487
383.2403,74.93456
383.7224,75.91066
384.2046,76.65765
384.6867,77.32067
385.1688,78.43708
385.6509,80.58208
386.133,83.32076
386.6151,85.57152
387.0973,87.12048
387.5794,88.92103
388.0615,91.18192
388.5436,94.16323
389.0257,98.35546
389.5078,103.9029
389.99,110.5888
390.4721,117.962
390.9542,126.173
391.4363,136.2457
391.9184,148.788
392.4005,163.101
392.8827,178.7298
393.3648,195.8888
393.8469,211.7417
394.329,228.5628
394.8111,242.2842
395.2932,245.7919
395.7754,237.796
396.2575,222.6345
396.7396,201.493
397.2217,175.1496
397.7038,152.8766
398.1859,135.007
398.6681,121.1358
399.1501,111.6709
399.6323,106.094
400.1144,102.8559
400.5965,101.397
401.0786,101.4333
401.5607,102.3164
402.0428,104.3593
402.525,106.5395
403.0071,109.2655
403.4892,111.7737
403.9713,113.4005
404.4534,113.9322
404.9355,113.0232
405.4177,110.0895
405.8998,104.6622
406.3819,99.49717
406.864,94.26442
407.3461,89.58251
407.8282,85.75306
408.3104,82.71335
408.7925,80.228
409.2746,78.12086
409.7567,76.45195
410.2388,75.46349
410.7209,75.81621
411.2031,76.03665
411.6852,75.89874
412.1673,75.63398
412.6494,75.46636
413.1315,75.45397
413.6136,75.50515
414.0958,75.49216
414.5779,75.38441
415.06,75.33585
415.5421,75.20664
416.0242,75.27336
416.5063,75.70589
416.9885,76.43182
417.4706,77.29695
417.9527,78.28857
418.4348,79.27486
418.9169,79.72758
419.399,79.28844
419.8812,79.11065
420.3633,79.72137
420.8454,80.64212
421.3275,81.48239
421.8096,82.15071
422.2917,82.68697
422.7739,83.05064
423.256,83.25603
423.7381,83.64193
424.2202,84.37192
424.7023,85.13644
425.1844,85.68106
425.6666,86.05692
426.1487,86.45356
426.6308,86.85261
427.1129,87.36288
427.595,88.19082
428.0771,89.35715
428.5593,90.58228
429.0414,91.76756
429.5235,92.88596
430.0056,93.8393
430.4877,94.42469
430.9698,95.30972
431.452,97.00999
431.9341,99.20908
432.4162,101.3184
432.8983,103.19
433.3804,104.8935
433.8625,106.4102
434.3447,107.6787
434.8268,109.4012
435.3089,111.6583
435.791,114.3264
436.2731,117.5113
436.7552,121.0637
437.2374,124.4986
437.7195,127.4788
438.2016,130.2341
438.6837,133.5984
439.1658,137.7964
439.6479,142.3501
440.1301,147.0052
440.6122,152.1156
441.0943,157.8926
441.5764,164.406
442.0585,171.8042
442.5406,180.1907
443.0227,189.5808
443.5049,200.0098
443.987,211.5062
444.4691,224.0176
444.9512,237.0491
445.4333,251.1145
445.9154,267.2496
446.3976,285.9087
446.8797,306.6833
447.3618,328.7115
447.8439,351.9812
448.326,376.518
448.8081,402.9217
449.2903,430.3385
449.7724,458.2734
450.2545,486.7298
450.7366,516.1778
451.2187,546.4642
451.7008,577.9437
452.183,611.2462
452.6651,645.9091
453.1472,683.195
453.6293,722.3206
454.1114,764.9501
454.5935,814.3807
455.0757,871.3978
455.5578,934.7747
456.0399,1002.637
456.522,1075.697
457.0041,1157.773
457.4862,1249.208
457.9684,1351.932
458.4505,1469.08
458.9326,1599.204
459.4147,1745.287
459.8968,1906.802
460.3789,2084.837
460.8611,2281.306
461.3432,2495.625
461.8253,2725.722
462.3074,2974.178
462.7895,3235.426
463.2716,3492.586
463.7538,3774.897
464.2359,4015.737
464.718,4225.637
465.2001,4382.898
465.6822,4467.904
466.1643,4476.052
466.6465,4407.972
467.1286,4260.599
467.6107,4027.082
468.0928,3766.554
468.5749,3450.695
469.057,3137.298
469.5392,2832.789
470.0213,2543.532
470.5034,2278.126
470.9855,2040.018
471.4676,1828.176
471.9497,1642.274
472.4319,1484.58
472.914,1343.901
473.3961,1223.792
473.8782,1118.191
474.3603,1025.675
474.8424,945.6435
475.3246,874.33
475.8067,810.8886
476.2888,754.7986
476.7709,704.624
477.253,660.795
477.7351,621.4758
478.2173,586.6805
478.6994,555.7833
479.1815,527.6654
479.6636,502.5502
480.1457,479.41
480.6278,457.8598
481.11,437.9263
481.592,419.8091
482.0742,403.581
482.5563,388.3408
483.0384,373.1129
483.5205,358.0238
484.0026,344.4517
484.4847,333.0398
484.9669,322.3674
485.449,311.7963
485.9311,301.5296
486.4132,291.9684
486.8953,283.2294
487.3774,275.2368
487.8596,267.9875
488.3417,261.7216
488.8238,255.4202
489.3059,248.8133
489.788,242.4467
490.2701,236.6874
490.7523,231.4032
491.2344,226.2381
491.7165,220.9652
492.1986,215.7716
492.6807,211.2448
493.1628,207.6655
493.645,204.0098
494.1271,199.9193
494.6092,195.8154
495.0913,191.8921
495.5734,188.204
496.0555,184.8311
496.5377,182.032
497.0198,179.6003
497.5019,176.9599
497.984,174.0419
498.4661,171.1601
498.9482,168.3169
499.4304,165.671
499.9125,163.5454
500.3946,162.1341
500.8767,160.7886
501.3588,159.0031
501.8409,157.1045
502.3231,155.6311
502.8052,154.6971
503.2873,154.1616
503.7694,153.8603
504.2515,153.8008
504.7336,154.3964
505.2158,155.3445
505.6979,157.1927
506.18,159.9553
506.6621,163.7985
507.1442,169.1377
507.6263,176.0803
508.1085,183.9928
508.5906,192.2826
509.0727,202.0313
509.5548,208.2471
510.0369,211.0186
510.519,210.1128
511.0012,204.2342
511.4833,194.7145
511.9654,183.5782
512.4475,171.4696
512.9296,159.3583
513.4117,148.8683
513.8939,139.9966
514.376,132.4916
514.8581,126.4929
515.3402,121.7249
515.8223,118.1219
516.3044,115.5515
516.7866,113.199
517.2687,110.6238
517.7508,108.1258
518.2329,106.0944
518.715,104.5197
519.1971,103.196
519.6793,102.0536
520.1614,101.0709
520.6435,100.2596
521.1256,99.68925
521.6077,99.03931
522.0898,98.35829
522.572,97.50853
523.0541,96.25766
523.5362,94.68258
524.0183,93.11514
524.5004,91.77843
524.9825,90.68604
525.4647,89.89881
525.9468,89.71629
526.4289,89.43082
526.911,88.99483
527.3931,88.42737
527.8752,87.69498
528.3574,86.8272
528.8395,85.95153
529.3216,85.13358
529.8037,84.39853
530.2858,83.96849
530.7679,84.08032
531.2501,83.94804
531.7322,82.74963
532.2143,81.36623
532.6964,80.84787
533.1785,81.48347
533.6606,82.04418
534.1428,81.48016
534.6249,80.31576
535.107,79.82291
535.5891,80.22339
536.0712,80.45802
536.5533,79.63313
537.0355,77.93951
537.5176,76.66686
537.9997,75.84644
538.4818,75.35854
538.9639,75.42382
539.446,75.68371
539.9282,75.68208
540.4103,75.3326
540.8924,74.85564
541.3745,74.47715
541.8566,74.20029
542.3387,73.91499
542.8209,73.77844
543.3029,73.43543
543.785,72.55502
544.2672,71.5586
544.7493,70.98563
545.2314,70.96128
545.7135,71.04176
546.1956,70.71502
546.6777,70.01942
547.1599,69.40622
547.642,68.86494
548.1241,68.48077
548.6062,68.49207
549.0883,68.65857
549.5704,68.56367
550.0526,68.02566
550.5347,67.46257
551.0168,67.24622
551.4989,67.17274
551.981,66.75826
552.4631,65.89485
552.9453,64.94808
553.4274,64.22776
553.9095,63.7342
554.3916,63.4643
554.8737,63.91689
555.3558,63.96537
555.838,62.84157
556.3201,61.34936
556.8022,60.56409
557.2843,60.71698
557.7664,61.15057
558.2485,61.12644
558.7307,60.63234
559.2128,60.03669
559.6949,59.16219
560.177,58.45622
560.6591,58.12537
561.1412,57.99724
561.6234,57.88918
562.1055,57.76342
562.5876,57.57598
563.0697,57.26085
563.5518,56.85138
564.0339,56.45278
564.5161,56.07217
564.9982,55.7119
565.4803,55.31641
565.9624,54.95132
566.4445,54.86164
566.9266,55.38623
567.4088,55.70323
567.8909,55.32817
568.373,54.68777
568.8551,54.32255
569.3372,54.32018
569.8193,54.43271
570.3015,54.44164
570.7836,54.35008
571.2657,54.21628
571.7478,53.92448
572.2299,53.75012
572.712,53.93102
573.1942,54.12071
573.6763,53.9062
574.1584,53.27208
574.6405,52.67676
575.1226,52.57929
575.6047,52.8596
576.0869,53.01855
576.569,53.03445
577.0511,53.02107
577.5332,53.0559
578.0153,53.07457
578.4974,52.95089
578.9796,52.63222
579.4617,52.40166
579.9438,52.42954
580.4259,52.56374
580.908,52.64806
581.3901,52.66703
581.8723,52.64034
582.3544,52.57084
582.8365,52.48355
583.3186,52.46468
583.8007,52.5887
584.2828,52.66951
584.765,52.71303
585.2471,52.70868
585.7292,52.64671
586.2113,52.53058
586.6934,52.35238
587.1755,52.07326
587.6577,51.79319
588.1398,51.75243
588.6219,51.97233
589.104,52.31702
589.5861,52.97691
590.0682,53.49933
590.5504,53.34133
591.0325,52.61889
591.5146,52.08738
591.9967,52.06919
592.4788,52.25386
592.9609,52.47934
593.4431,52.69696
593.9252,52.77122
594.4073,52.64904
594.8894,52.39793
595.3715,52.08305
595.8536,51.64004
596.3358,51.43541
596.8179,51.70973
597.3,51.91918
597.7821,51.81901
598.2642,51.55373
598.7463,51.35492
599.2285,51.29848
599.7106,51.25154
600.1927,51.01421
600.6748,50.59608
601.1569,50.30958
601.639,50.22712
602.1212,50.15086
602.6033,49.88308
603.0854,49.57683
603.5675,49.52037
604.0496,49.8707
604.5317,50.10148
605.0139,49.83934
605.496,49.34216
605.9781,48.94257
606.4602,48.69361
606.9423,48.60302
607.4244,48.70601
607.9066,48.9425
608.3887,49.04183
608.8708,48.99179
609.3529,48.80651
609.835,48.36358
610.3171,47.89124
610.7993,47.48859
611.2814,47.19915
611.7635,47.09943
612.2456,47.28974
612.7277,47.61297
613.2098,47.76874
613.692,47.7581
614.1741,47.53025
614.6562,46.88525
615.1383,46.26482
615.6204,46.18113
616.1025,46.54504
616.5847,46.85324
617.0668,47.08435
617.5489,47.15044
618.031,46.80599
618.5131,46.28928
618.9952,46.13341
619.4774,46.48585
619.9595,46.96679
620.4416,47.1189
620.9237,46.91469
621.4058,46.811
621.8879,46.89412
622.3701,46.97646
622.8522,47.09148
623.3343,47.14677
623.8164,47.03025
624.2985,46.72868
624.7806,46.35462
625.2628,45.97122
625.7448,45.58992
626.2269,45.1833
626.709,44.72806
627.1912,44.55727
627.6733,44.94904
628.1554,45.59163
628.6375,45.86421
629.1196,45.68841
629.6017,45.60089
630.0839,45.79535
630.566,45.99962
631.0481,45.97451
631.5302,45.8083
632.0123,45.77818
632.4944,46.01197
632.9766,46.28059
633.4587,46.10454
633.9408,45.3107
634.4229,44.97506
634.905,45.40221
635.3871,45.92293
635.8693,46.36541
636.3514,46.66563
636.8335,46.67938
637.3156,46.31192
637.7977,45.93563
638.2798,45.81812
638.762,45.87468
639.2441,46.00381
639.7262,46.18339
640.2083,46.21783
640.6904,45.92791
641.1725,45.45827
641.6547,45.2971
642.1368,45.90419
642.6189,46.13824
643.101,45.6216
643.5831,45.06932
644.0652,44.96792
644.5474,45.21417
645.0295,45.45453
645.5116,45.51056
645.9937,45.44206
646.4758,45.34057
646.9579,45.20588
647.4401,44.9907
647.9222,44.64399
648.4043,44.3113
648.8864,44.122
649.3685,44.0371
649.8506,43.93974
650.3328,43.80152
650.8149,43.6811
651.297,43.55874
651.7791,43.49068
652.2612,43.59166
652.7433,43.8412
653.2255,44.07739
653.7076,44.18654
654.1897,44.17599
654.6718,44.06161
655.1539,43.80035
655.636,43.53939
656.1182,43.20033
656.6003,42.95371
657.0824,42.95041
657.5645,43.12498
658.0466,43.28532
658.5287,43.42028
659.0109,43.41668
659.493,43.04738
659.9751,42.45722
660.4572,42.05135
660.9393,41.9195
661.4214,41.92015
661.9036,41.94152
662.3857,41.98385
662.8678,42.04759
663.3499,42.34016
663.832,42.37448
664.3141,41.85604
664.7963,41.25784
665.2784,40.92425
665.7605,40.86933
666.2426,40.95685
666.7247,41.13493
667.2068,41.35387
667.689,41.51934
668.1711,41.63344
668.6532,41.77828
669.1353,41.99618
669.6174,42.18947
670.0995,42.26217
670.5817,42.21879
671.0638,42.14692
671.5459,41.75743
672.028,41.69642
672.5101,42.61332
672.9922,43.69839
673.4744,43.89144
673.9565,43.22294
674.4386,42.69357
674.9207,43.13034
675.4028,44.16168
675.8849,44.49409
676.3671,43.91475
676.8492,43.59579
677.3313,43.97267
677.8134,44.44092
678.2955,44.38722
678.7776,44.00042
679.2598,43.97527
679.7419,44.73438
680.224,45.55218
680.7061,45.99874
681.1882,46.22927
681.6703,46.45785
682.1525,46.73506
682.6346,47.09113
683.1167,47.58055
683.5988,48.13319
684.0809,48.35997
684.563,47.95889
685.0452,47.89252
685.5273,48.50093
686.0094,49.29401
686.4915,50.08456
686.9736,50.83017
687.4557,51.45243
687.9379,51.81857
688.42,52.2316
688.9021,52.97567
689.3842,53.96645
689.8663,54.99577
690.3484,56.03345
690.8306,57.17413
691.3127,58.49669
691.7948,59.99017
692.2769,61.63985
692.759,63.68725
693.2411,65.50269
693.7233,66.77713
694.2054,68.07342
694.6875,69.78951
695.1696,71.81626
695.6517,73.9052
696.1339,76.11076
696.616,77.83378
697.0981,78.38089
697.5802,77.89031
698.0623,76.74984
698.5444,74.99538
699.0266,72.97176
699.5087,70.90986
699.9908,68.77097
700.4729,66.4312
700.955,63.48775
701.4371,60.98202
701.9193,59.19354
702.4014,57.59874
702.8835,55.81154
703.3656,53.97794
703.8477,52.44002
704.3298,51.35859
704.812,50.57464
705.2941,49.9621
705.7762,49.50311
706.2583,49.14362
706.7404,48.90639
707.2225,48.56495
707.7046,47.90876
708.1867,47.11561
708.6688,46.65522
709.1509,46.66945
709.6331,46.63266
710.1152,46.5021
710.5973,46.31823
711.0794,46.02966
711.5615,45.72557
712.0436,45.59149
712.5258,45.6884
713.0079,45.80128
713.49,45.68153
713.9721,45.35822
714.4542,44.92649
714.9363,44.34103
715.4185,43.98454
715.9006,44.13732
716.3827,44.51095
716.8648,44.59998
717.3469,44.34884
717.829,44.18339
718.3112,44.30046
718.7933,44.33839
719.2754,44.02827
719.7575,43.56307
720.2396,43.21637
720.7217,43.06201
721.2039,43.00463
721.686,42.97443
722.1681,42.9608
722.6502,42.8994
723.1323,42.77296
723.6144,42.74819
724.0966,42.91481
724.5787,43.14949
725.0608,43.31858
725.5429,43.42419
726.025,43.50075
726.5071,43.6209
726.9893,43.62856
727.4714,43.35476
727.9535,43.00582
728.4356,42.81723
728.9177,42.81048
729.3998,42.8693
729.882,42.92799
730.3641,42.96143
730.8462,42.87821
731.3283,42.67126
731.8104,42.56062
732.2925,42.60784
732.7747,42.71517
733.2568,42.82188
733.7389,42.9234
734.221,43.00265
734.7031,43.08418
735.1852,43.10478
735.6674,42.96495
736.1495,42.82841
736.6316,42.87667
737.1137,43.04777
737.5958,43.15098
738.0779,43.09376
738.5601,42.91541
739.0422,42.57082
739.5243,42.10553
740.0064,42.01739
740.4885,42.42834
740.9706,42.84495
741.4528,43.02127
741.9349,43.00902
742.417,42.89975
742.8991,42.66235
743.3812,42.4464
743.8633,42.19518
744.3455,42.03988
744.8276,42.08099
745.3097,42.25184
745.7918,42.47388
746.2739,42.71409
746.756,42.92615
747.2382,43.14281
747.7203,43.28279
748.2024,42.94117
748.6845,42.09779
749.1666,41.6664
749.6487,42.0702
750.1309,42.70682
750.613,42.85457
751.0951,42.47543
751.5772,42.28971
752.0593,42.41296
752.5414,42.56158
753.0236,42.70644
753.5057,42.82615
753.9878,42.94444
754.4699,43.02757
754.952,42.93383
755.4341,42.47808
755.9163,42.02938
756.3984,42.24809
756.8805,42.95238
757.3626,43.33203
757.8447,43.24786
758.3268,42.97095
758.809,42.64979
759.2911,42.32053
759.7732,42.09623
760.2553,41.91457
760.7374,41.96283
761.2195,42.51125
761.7017,42.98946
762.1838,43.01164
762.6659,42.82795
763.148,42.90048
763.6301,43.36857
764.1122,43.77207
764.5944,43.6301
765.0765,43.28163
765.5586,43.31783
766.0407,43.68313
766.5228,43.9152
767.0049,43.82586
767.4871,43.68708
767.9692,43.89695
768.4513,44.48399
768.9334,44.67939
769.4155,44.07364
769.8976,43.74679
770.3798,44.24692
770.8619,44.85492
771.344,44.94754
771.8261,44.60243
772.3082,44.37757
772.7903,44.47399
773.2725,44.73768
773.7546,45.25163
774.2367,45.78102
774.7188,45.87471
775.2009,45.54462
775.683,45.21887
776.1652,45.17382
776.6473,45.33752
777.1294,45.56237
777.6115,45.86462
778.0936,46.13601
778.5757,46.42609
779.0579,46.57691
779.54,46.34068
780.0221,45.9798
780.5042,45.97713
780.9863,46.44318
781.4684,46.77956
781.9506,46.68502
782.4327,46.57366
782.9148,46.71783
783.3969,47.02763
783.879,47.32151
784.3611,47.55793
784.8433,47.84371
785.3254,48.29586
785.8075,48.86098
786.2896,49.40527
786.7717,49.92824
787.2538,50.28013
787.736,50.34148
788.2181,50.48096
788.7002,51.11049
789.1823,52.14543
789.6644,52.84284
790.1465,52.99522
790.6286,53.12898
791.1107,53.10605
791.5928,53.23916
792.075,53.74258
792.5571,54.55812
793.0392,55.57616
793.5213,56.77611
794.0034,57.98626
794.4855,59.10444
794.9677,60.11168
795.4498,60.94147
795.9319,61.60887
796.414,62.15581
796.8961,62.58599
797.3782,63.07876
797.8604,63.91228
798.3425,65.11227
798.8246,66.12169
799.3067,66.82396
799.7888,67.55185
800.2709,68.19754
800.7531,69.04945
801.2352,70.36499
801.7173,72.0966
802.1994,73.95292
802.6815,75.70199
803.1636,77.78422
803.6458,80.27267
804.1279,83.29885
804.61,87.16824
805.0921,91.73174
805.5742,96.49894
806.0563,101.1662
806.5385,106.0018
807.0206,111.5771
807.5027,117.8202
807.9848,123.7563
808.4669,129.5472
808.949,134.1639
809.4312,137.29
809.9133,138.8111
810.3954,138.5312
810.8775,136.365
811.3596,132.5767
811.8417,126.2435
812.3239,119.5185
812.806,112.5954
813.2881,105.8353
813.7702,99.58797
814.2523,93.87638
814.7344,88.55656
815.2166,83.49058
815.6987,78.94625
816.1808,75.40123
816.6629,72.59883
817.145,69.98075
817.6271,67.48787
818.1093,65.30948
818.5914,63.55757
819.0735,62.15836
819.5556,61.00431
820.0377,60.13287
820.5198,59.25554
821.002,58.32308
821.4841,57.46487
821.9662,56.80051
822.4483,56.18657
822.9304,55.3755
823.4125,54.38375
823.8947,53.7531
824.3768,53.93675
824.8589,54.09095
825.341,53.81078
825.8231,53.3339
826.3052,52.89109
826.7874,52.52252
827.2695,52.20572
827.7516,51.93377
828.2337,51.67367
828.7158,51.33993
829.1979,50.97294
829.6801,50.74521
830.1622,50.67284
830.6443,50.70473
831.1264,50.84057
831.6085,50.99734
832.0906,51.0456
832.5728,50.98436
833.0549,50.81462
833.537,50.40597
834.0191,50.07861
834.5012,49.95219
834.9833,49.89273
835.4655,49.77292
835.9476,49.61283
836.4297,49.53956
836.9118,49.62993
837.3939,49.75335
837.876,49.83975
838.3582,49.92113
838.8403,50.09492
839.3224,50.30227
839.8045,50.32284
840.2866,50.05157
840.7687,49.70358
841.2509,49.62268
841.733,49.7405
842.2151,49.60198
842.6972,49.17636
843.1793,48.93896
843.6614,49.13928
844.1436,49.35472
844.6257,49.00703
845.1078,48.12041
845.5899,47.81408
846.072,48.79496
846.5541,49.31978
847.0363,48.8357
847.5184,48.24482
848.0005,48.07476
848.4826,48.24184
848.9647,48.50838
849.4468,48.85061
849.929,49.12487
850.4111,49.26952
850.8932,49.29712
851.3753,49.16545
851.8574,48.93939
852.3395,48.78558
852.8217,48.74198
853.3038,48.63298
853.7859,48.21819
854.268,47.66824
854.7501,47.6088
855.2322,48.03913
855.7144,48.27375
856.1965,48.15839
856.6786,47.8998
857.1607,47.61768
857.6428,47.33408
858.1249,47.11563
858.6071,46.94471
859.0892,46.88039
859.5713,47.0493
860.0534,47.17332
860.5355,47.23376
861.0176,47.15071
861.4998,46.71527
861.9819,45.9417
862.464,45.40962
862.9461,45.56047
863.4282,45.79858
863.9103,45.6853
864.3925,45.42301
864.8746,45.33041
865.3567,45.40154
865.8388,45.37114
866.3209,45.06622
866.803,44.73362
867.2852,44.87548
867.7673,45.35541
868.2494,45.36711
868.7315,44.84851
869.2136,44.4323
869.6957,44.41097
870.1779,44.48703
870.66,44.23478
871.1421,43.64882
871.6242,43.33595
872.1063,43.46942
872.5884,43.57081
873.0705,43.59273
873.5526,43.53169
874.0347,43.30518
874.5168,43.00311
874.999,42.84837
875.4811,42.92455
875.9632,43.00423
876.4453,43.07447
876.9274,43.05651
877.4095,42.75415
877.8917,42.37477
878.3738,42.31555
878.8559,42.6298
879.338,42.95333
879.8201,43.01532
880.3022,42.90866
880.7844,42.66661
881.2665,42.38272
881.7486,42.50668
882.2307,43.07817
882.7128,43.49117
883.1949,43.33138
883.6771,42.91101
884.1592,42.91241
884.6413,43.41393
885.1234,43.73064
885.6055,43.77203
886.0876,43.86644
886.5698,44.27505
887.0519,44.62934
887.534,44.2009
888.0161,43.10789
888.4982,43.16241
888.9803,46.19318
889.4625,47.86203
889.9446,46.2925
890.4267,44.20284
890.9088,43.38858
891.3909,43.50079
891.873,43.62976
892.3552,43.53333
892.8373,43.26323
893.3194,42.63705
893.8015,42.0343
894.2836,41.97402
894.7657,42.22301
895.2479,42.23035
895.73,41.92192
896.2121,41.71334
896.6942,41.95325
897.1763,42.34393
897.6584,42.21467
898.1406,41.62963
898.6227,41.21863
899.1048,41.03996
899.5869,41.03899
900.069,41.22179
900.5511,41.48542
901.0333,41.7005
901.5154,41.87343
901.9975,41.83692
902.4796,41.44617
902.9617,41.11555
903.4438,41.01604
903.926,40.90623
904.4081,40.55312
904.8902,40.07219
905.3723,39.77179
905.8544,39.73045
906.3365,39.74065
906.8187,39.80743
907.3008,39.85384
907.7829,39.85182
908.265,39.79067
908.7471,39.58031
909.2292,39.26307
909.7114,39.15054
910.1935,39.60511
910.6756,40.05619
911.1577,39.7401
911.6398,39.08038
912.1219,38.91312
912.6041,39.22729
913.0862,39.47851
913.5683,39.40929
914.0504,39.2557
914.5325,39.38173
915.0146,39.70744
915.4968,39.72865
915.9789,39.43308
916.461,39.18749
916.9431,39.07034
917.4252,39.09273
917.9073,39.30558
918.3895,39.62856
918.8716,39.75547
919.3537,39.56688
919.8358,39.49766
920.3179,39.72578
920.8,39.81738
921.2822,39.43069
921.7643,38.93147
922.2464,38.72112
922.7285,38.79669
923.2106,38.91122
923.6927,39.09618
924.1749,39.22736
924.657,39.32249
925.1391,39.30338
925.6212,39.02434
926.1033,38.60561
926.5854,38.28524
927.0676,38.13346
927.5497,38.06161
928.0318,38.09994
928.5139,38.11318
928.996,37.94466
929.4781,37.65405
929.9603,37.33966
930.4424,37.03014
930.9245,36.72942
931.4066,36.42815
931.8887,36.20468
932.3708,36.25222
932.853,36.48924
933.3351,36.58626
933.8172,36.52749
934.2993,36.36096
934.7814,36.09895
935.2635,35.79432
935.7457,35.49846
936.2278,35.21457
936.7099,34.93754
937.192,34.61874
937.6741,34.56129
938.1563,34.97773
938.6384,35.2393
939.1205,34.81224
939.6026,34.17683
940.0847,34.29015
940.5668,35.38205
941.049,35.8606
941.5311,35.25592
942.0132,34.70795
942.4953,34.43311
942.9774,34.28365
943.4595,34.19405
943.9417,34.13369
944.4238,34.02949
944.9059,33.82723
945.388,33.73595
945.8701,33.91933
946.3522,34.14197
946.8344,34.2919
947.3165,34.35939
947.7986,34.29049
948.2807,34.12384
948.7628,34.05064
949.2449,34.21696
949.7271,34.39724
950.2092,34.3265
950.6913,34.15923
951.1734,34.16061
951.6555,34.2901
952.1376,34.37328
952.6198,34.3435
953.1019,34.17485
953.584,33.76695
954.0661,33.29608
954.5482,33.2628
955.0303,33.59029
955.5124,33.76493
955.9945,33.71489
956.4766,33.59561
956.9587,33.47505
957.4409,33.4229
957.923,33.60379
958.4051,34.00849
958.8872,34.00214
959.3693,33.46404
959.8514,33.03283
960.3336,32.86457
960.8157,32.79508
961.2978,32.74168
961.7799,32.67391
962.262,32.47971
962.7441,32.01803
963.2263,31.86968
963.7084,32.29276
964.1905,32.68143
964.6726,32.97079
965.1547,33.08419
965.6368,32.85831
966.119,32.37936
966.6011,32.04623
967.0832,32.03281
967.5653,31.91048
968.0474,31.42068
968.5295,30.97862
969.0117,30.82891
969.4938,30.86811
969.9759,30.97895
970.458,31.12829
970.9401,31.27482
971.4222,31.49119
971.9044,31.55173
972.3865,31.10246
972.8686,30.5912
973.3507,30.56729
973.8328,30.87155
974.3149,31.0744
974.7971,31.04345
975.2792,30.90299
975.7613,30.66547
976.2434,30.46679
976.7255,30.56426
977.2076,30.81471
977.6898,30.89613
978.1719,30.8004
978.654,30.71853
979.1361,30.74095
979.6182,30.78328
980.1003,30.7145
980.5825,30.59017
981.0646,30.6641
981.5467,30.89188
982.0288,30.85846
982.5109,30.48315
982.993,30.14148
983.4752,30.08332
983.9573,30.18159
984.4394,30.18559
984.9215,30.09394
985.4036,30.13743
985.8857,30.3523
986.3679,30.50012
986.85,30.54185
987.3321,30.40903
987.8142,29.9711
988.2963,29.38473
988.7784,29.16237
989.2606,29.42723
989.7427,29.62125
990.2248,29.70371
990.7069,29.80131
991.189,30.05541
991.6711,30.22502
992.1533,29.97828
992.6354,29.41687
993.1175,29.15454
993.5996,29.39474
994.0817,29.56715
994.5638,29.62355
995.046,29.66022
995.5281,29.629
996.0102,29.65502
996.4923,30.016
996.9744,30.62368
997.4565,30.80097
997.9387,30.12208
998.4208,29.50295
998.9029,29.0551
999.385,28.86055
999.8671,29.22984
1000.349,29.75311
1000.831,29.78606
1001.313,29.30198
1001.796,28.93431
1002.278,28.95727
1002.76,29.13666
1003.242,29.5018
1003.724,29.82898
1004.206,29.81901
1004.688,29.63819
1005.17,29.70278
1005.653,30.07447
1006.135,30.28483
1006.617,29.92523
1007.099,29.43404
1007.581,29.179
1008.063,29.07873
1008.545,29.03262
1009.027,29.03341
1009.509,29.14912
1009.992,29.38519
1010.474,29.52082
1010.956,29.23124
1011.438,28.87282
1011.92,29.12073
1012.402,29.68126
1012.884,29.85718
1013.366,29.6221
1013.849,29.2795
1014.331,28.96668
1014.813,28.73993
1015.295,28.64807
1015.777,28.69896
1016.259,29.06103
1016.741,29.60662
1017.223,29.59519
1017.705,28.98446
1018.188,28.62381
1018.67,28.96394
1019.152,29.49774
1019.634,29.49078
1020.116,29.08337
1020.598,29.01071
1021.08,29.25528
1021.562,29.28211
1022.044,28.9809
1022.527,28.82267
1023.009,29.09832
1023.491,29.57332
1023.973,29.90279
1024.455,30.08363
1024.937,30.02098
1025.419,29.68004
1025.901,29.37506
1026.384,29.14054
1026.866,29.07201
1027.348,29.28397
1027.83,29.57322
1028.312,29.52347
1028.794,29.10872
1029.276,29.02264
1029.758,29.35599
1030.24,29.70703
1030.723,30.02365
1031.205,30.2992
1031.687,30.55601
1032.169,30.73593
1032.651,30.68591
1033.133,30.35062
1033.615,30.28089
1034.097,30.74838
1034.579,30.8526
1035.062,30.08235
1035.544,29.44171
1036.026,29.76443
1036.508,30.56647
1036.99,30.80598
1037.472,30.35466
1037.954,30.05555
1038.436,29.89564
1038.919,29.91862
1039.401,30.40005
1039.883,30.77322
1040.365,30.49687
1040.847,29.91155
1041.329,29.75223
1041.811,30.10089
1042.293,30.43489
1042.776,30.98065
1043.258,31.18112
1043.74,30.54795
1044.222,29.92462
1044.704,29.94252
1045.186,30.32677
1045.668,30.53512
1046.15,30.51392
1046.632,30.45374
1047.115,30.35969
1047.597,30.24957
1048.079,30.08042
1048.561,29.94304
1049.043,29.9373
1049.525,29.99335
1050.007,29.93417
1050.489,29.71435
1050.971,29.70625
1051.454,30.2156
1051.936,30.62607
1052.418,30.64702
1052.9,30.61057
1053.382,30.83087
1053.864,31.14141
1054.346,31.16598
1054.828,30.84259
1055.311,30.66586
1055.793,30.90415
1056.275,31.12238
1056.757,31.05981
1057.239,31.03202
1057.721,31.40239
1058.203,31.92335
1058.685,32.09687
1059.167,31.85685
1059.65,31.74693
1060.132,32.12363
1060.614,32.41798
1061.096,32.21085
1061.578,32.03947
1062.06,32.398
1062.542,33.04152
1063.024,33.49146
1063.506,33.69419
1063.989,34.04907
1064.471,34.93653
1064.953,35.67006
1065.435,35.83635
1065.917,35.87208
1066.399,36.14254
1066.881,36.49336
1067.363,36.61028
1067.846,36.48034
1068.328,36.43739
1068.81,36.75602
1069.292,36.91999
1069.774,36.59882
1070.256,36.13826
1070.738,35.65473
1071.22,35.28
1071.703,35.15773
1072.185,35.3022
1072.667,35.65162
1073.149,36.26439
1073.631,36.88965
1074.113,37.38942
1074.595,37.88246
1075.077,38.30864
1075.559,38.87136
1076.042,39.92491
1076.524,41.39491
1077.006,42.77662
1077.488,43.85569
1077.97,44.97905
1078.452,46.26423
1078.934,47.70513
1079.416,49.1614
1079.898,50.87387
1080.38,53.28939
1080.863,56.23882
1081.345,59.15911
1081.827,61.98435
1082.309,64.1871
1082.791,65.59782
1083.273,66.25011
1083.755,66.20921
1084.237,65.37763
1084.72,63.4027
1085.202,60.58868
1085.684,57.65773
1086.166,54.79783
1086.648,51.88676
1087.13,48.59748
1087.612,45.59021
1088.094,43.18645
1088.577,41.20371
1089.059,39.50085
1089.541,38.06601
1090.023,37.00243
1090.505,36.32279
1090.987,35.62666
1091.469,34.58345
1091.951,33.72711
1092.433,33.52361
1092.916,33.36448
1093.398,32.67175
1093.88,31.73416
1094.362,31.03747
1094.844,30.66004
1095.326,30.51068
1095.808,30.77751
1096.29,30.95011
1096.772,30.84541
1097.255,30.61244
1097.737,30.22118
1098.219,29.83504
1098.701,29.74664
1099.183,29.90346
1099.665,29.79848
1100.147,29.10043
1100.629,28.58458
1101.112,28.58638
1101.594,28.65568
1102.076,28.62806
1102.558,28.51197
1103.04,28.2272
1103.522,27.86866
1104.004,27.79209
1104.486,28.17092
1104.969,28.43868
1105.451,28.37897
1105.933,28.34466
1106.415,28.61184
1106.897,28.81237
1107.379,28.50528
1107.861,27.93052
1108.343,27.72567
1108.825,28.02643
1109.307,28.17394
1109.79,28.03264
1110.272,27.84506
1110.754,27.54022
1111.236,27.32847
1111.718,27.35739
1112.2,27.54893
1112.682,27.83315
1113.164,28.2228
1113.647,28.38712
1114.129,28.20606
1114.611,27.9925
1115.093,27.5678
1115.575,27.39489
1116.057,27.91138
1116.539,28.55593
1117.021,28.67777
1117.504,28.33455
1117.986,27.9329
1118.468,27.32003
1118.95,27.00735
1119.432,26.95998
1119.914,27.36192
1120.396,28.72776
1120.878,29.79037
1121.36,29.27308
1121.843,27.75907
1122.325,26.99314
1122.807,27.12868
1123.289,27.04998
1123.771,26.61835
1124.253,26.48935
1124.735,26.92785
1125.217,27.29995
1125.699,27.17214
1126.182,26.80365
1126.664,26.62099
1127.146,26.62073
1127.628,26.80235
1128.11,27.2175
1128.592,27.27313
1129.074,26.82605
1129.556,26.52548
1130.039,26.67162
1130.521,27.07063
1131.003,27.56184
1131.485,28.03626
1131.967,28.02259
1132.449,27.55823
1132.931,27.34118
1133.413,27.4034
1133.896,27.35754
1134.378,27.08574
1134.86,27.02232
1135.342,27.53801
1135.824,28.28442
1136.306,28.6407
1136.788,28.68552
1137.27,28.6602
1137.752,28.60129
1138.234,28.69291
1138.717,28.94011
1139.199,29.10438
1139.681,29.06362
1140.163,29.00765
1140.645,29.16315
1141.127,29.43302
1141.609,29.63782
1142.091,29.81855
1142.574,30.10838
1143.056,30.46088
1143.538,30.61987
1144.02,30.5486
1144.502,30.65082
1144.984,31.28212
1145.466,32.03835
1145.948,32.59308
1146.431,32.95073
1146.913,32.90577
1147.395,32.76478
1147.877,33.07307
1148.359,33.86815
1148.841,34.87599
1149.323,36.03249
1149.805,37.08062
1150.287,37.69164
1150.77,38.32758
1151.252,39.37862
1151.734,40.58538
1152.216,41.612
1152.698,42.56273
1153.18,43.76599
1153.662,45.28937
1154.144,46.81466
1154.626,47.86948
1155.109,49.44126
1155.591,52.42134
1156.073,55.39248
1156.555,57.13885
1157.037,58.5854
1157.519,61.00392
1158.001,64.36425
1158.483,67.85055
1158.966,71.77943
1159.448,75.0436
1159.93,77.39857
1160.412,79.33479
1160.894,81.01289
1161.376,82.31756
1161.858,83.39564
1162.34,83.90407
1162.822,83.04176
1163.305,80.72322
1163.787,77.91783
1164.269,74.54743
1164.751,70.88177
1165.233,66.82581
1165.715,62.89943
1166.197,59.32414
1166.679,56.00706
1167.161,52.82243
1167.644,49.80645
1168.126,47.05114
1168.608,44.55568
1169.09,42.34826
1169.572,40.4383
1170.054,38.79635
1170.536,37.42304
1171.018,36.26789
1171.5,35.30506
1171.983,34.48206
1172.465,33.71671
1172.947,33.01908
1173.429,32.42596
1173.911,31.92596
1174.393,31.47338
1174.875,31.06333
1175.357,30.69748
1175.84,30.3788
1176.322,30.18149
1176.804,30.27205
1177.286,30.2692
1177.768,29.42512
1178.25,28.38716
1178.732,28.21243
1179.214,28.54369
1179.697,28.55297
1180.179,28.18256
1180.661,27.90615
1181.143,27.92808
1181.625,27.98752
1182.107,27.87585
1182.589,27.81053
1183.071,28.0282
1183.553,28.27541
1184.036,28.2955
1184.518,28.16495
1185.0,28.07616
1185.482,28.04924
1185.964,27.91443
1186.446,27.46275
1186.928,27.17659
1187.41,27.27702
1187.892,27.38249
1188.375,27.36066
1188.857,27.24603
1189.339,26.96257
1189.821,26.64524
1190.303,26.74125
1190.785,27.38207
1191.267,27.63153
1191.749,27.29579
1192.232,27.12666
1192.714,27.3066
1193.196,27.46974
1193.678,27.42197
1194.16,27.30065
1194.642,27.26342
1195.124,27.30473
1195.606,27.43421
1196.089,27.64459
1196.571,27.74544
1197.053,27.72739
1197.535,27.5556
1198.017,27.23549
1198.499,27.03436
1198.981,27.12893
1199.463,27.26588
1199.945,27.09926
1200.427,26.74767
1200.91,26.32979
1201.392,25.96043
1201.874,25.89792
1202.356,26.12059
1202.838,26.61201
1203.32,27.27685
1203.802,27.55462
1204.284,26.97305
1204.767,26.3583
1205.249,26.34905
1205.731,26.55228
1206.213,26.7418
1206.695,26.87916
1207.177,26.91068
1207.659,26.87728
1208.141,26.90058
1208.624,27.01159
1209.106,27.04579
1209.588,26.85917
1210.07,26.74925
1210.552,26.87774
1211.034,26.97736
1211.516,26.83768
1211.998,26.67354
1212.48,26.73915
1212.963,26.95175
1213.445,26.97621
1213.927,26.73595
1214.409,26.70428
1214.891,26.93134
1215.373,27.18632
1215.855,27.45335
1216.337,27.59833
1216.819,27.53185
1217.302,27.39784
1217.784,27.34912
1218.266,27.41172
1218.748,27.78308
1219.23,28.34604
1219.712,28.42326
1220.194,28.08996
1220.676,27.90645
1221.159,27.99444
1221.641,28.20065
1222.123,28.44721
1222.605,28.67944
1223.087,28.8137
1223.569,28.93369
1224.051,29.09023
1224.533,29.32547
1225.016,29.76844
1225.498,30.29924
1225.98,30.70543
1226.462,30.94449
1226.944,31.04197
1227.426,30.89938
1227.908,30.92863
1228.39,31.57472
1228.872,32.02024
1229.354,31.63561
1229.837,31.19846
1230.319,31.39371
1230.801,31.92318
1231.283,32.29523
1231.765,32.5057
1232.247,32.34493
1232.729,31.65052
1233.211,31.06777
1233.694,30.59498
1234.176,30.35541
1234.658,30.42662
1235.14,30.57502
1235.622,30.65386
1236.104,30.61787
1236.586,30.36445
1237.068,29.9425
1237.551,29.49478
1238.033,29.06236
1238.515,28.84951
1238.997,28.83726
1239.479,28.88312
1239.961,28.91364
1240.443,28.72661
1240.925,28.12336
1241.407,27.63503
1241.89,27.97465
1242.372,28.46333
1242.854,28.46007
1243.336,28.19036
1243.818,27.82679
1244.3,27.49454
1244.782,27.4342
1245.264,27.65129
1245.746,27.70513
1246.229,27.31506
1246.711,27.06382
1247.193,27.12722
1247.675,27.23873
1248.157,27.30125
1248.639,27.39583
1249.121,27.64279
1249.603,27.89705
1250.085,27.88574
1250.568,27.6224
1251.05,27.3382
1251.532,27.02855
1252.014,26.72149
1252.496,26.41285
1252.978,26.28684
1253.46,26.39773
1253.942,26.54272
1254.425,26.57731
1254.907,26.62409
1255.389,26.96217
1255.871,27.34544
1256.353,27.25255
1256.835,26.89057
1257.317,26.57545
1257.799,26.35823
1258.281,26.27285
1258.764,26.30267
1259.246,26.32582
1259.728,26.27873
1260.21,26.26669
1260.692,26.41516
1261.174,26.50954
1261.656,26.37406
1262.138,26.22101
1262.62,26.25441
1263.103,26.35336
1263.585,26.2558
1264.067,26.0122
1264.549,26.09245
1265.031,26.68302
1265.513,26.91788
1265.995,26.66655
1266.477,26.67034
1266.96,27.14854
1267.442,27.51555
1267.924,27.4424
1268.406,27.1257
1268.888,26.74703
1269.37,26.39095
1269.852,26.28251
1270.334,26.33644
1270.817,26.36981
1271.299,26.36505
1271.781,26.32191
1272.263,26.23474
1272.745,26.02535
1273.227,25.66365
1273.709,25.52554
1274.191,26.09023
1274.673,26.57835
1275.156,26.56542
1275.638,26.38745
1276.12,26.12335
1276.602,25.9313
1277.084,26.04968
1277.566,26.36681
1278.048,26.47016
1278.53,26.30568
1279.012,26.46266
1279.495,27.1145
1279.977,27.44736
1280.459,27.35232
1280.941,27.01206
1281.423,26.45358
1281.905,26.02361
1282.387,26.00775
1282.869,26.20033
1283.352,26.25744
1283.834,26.25353
1284.316,26.34575
1284.798,26.53552
