Raman Shift,Intensity 
400,7.19777566
401,7.194809782
402,7.195106584
403,7.195776684
404,7.19621899
405,7.199188446
406,7.208105632
407,7.204227871
408,7.185035935
409,7.196146348
410,7.215304449
411,7.189886146
412,7.187631142
413,7.175914863
414,7.208219931
415,7.203892347
416,7.205696487
417,7.204614503
418,7.187690016
419,7.191424809
420,7.209063684
421,7.208528304
422,7.190458232
423,7.178467468
424,7.206792231
425,7.195284499
426,7.192647653
427,7.197241055
428,7.200549951
429,7.198949112
430,7.200766241
431,7.203661233
432,7.19361069
433,7.204418924
434,7.175921185
435,7.202616096
436,7.204947851
437,7.175933148
438,7.208075786
439,7.195922207
440,7.207632973
441,7.214266136
442,7.203664466
443,7.195921775
444,7.181770493
445,7.218917021
446,7.19487938
447,7.196301086
448,7.196199648
449,7.196616881
450,7.202370625
451,7.184767867
452,7.190544164
453,7.197334657
454,7.202410103
455,7.190569288
456,7.211476797
457,7.205241655
458,7.194199342
459,7.202273884
460,7.197885807
461,7.198660105
462,7.202155899
463,7.194196947
464,7.212389702
465,7.203642784
466,7.18552556
467,7.204928319
468,7.189741954
469,7.205582456
470,7.197046897
471,7.216464962
472,7.189872607
473,7.200701459
474,7.201320423
475,7.191498306
476,7.204322708
477,7.216528998
478,7.200344215
479,7.205873643
480,7.177643256
481,7.217700054
482,7.199178855
483,7.205710472
484,7.202541546
485,7.200540027
486,7.19291525
487,7.205270436
488,7.19957714
489,7.214054812
490,7.195421523
491,7.194268122
492,7.220737845
493,7.193426283
494,7.197655504
495,7.190751085
496,7.206787586
497,7.196932005
498,7.175820693
499,7.204399852
500,7.208182214
501,7.193101957
502,7.173782076
503,7.187957938
504,7.21860752
505,7.187422732
506,7.181233152
507,7.210490462
508,7.201352524
509,7.203796147
510,7.199770824
511,7.201500385
512,7.191580125
513,7.211019346
514,7.182909606
515,7.196735707
516,7.193806717
517,7.211760452
518,7.202437408
519,7.194705692
520,7.184638418
521,7.19164904
522,7.182322067
523,7.191115163
524,7.195465469
525,7.218036343
526,7.188093901
527,7.212278071
528,7.208995784
529,7.195456741
530,7.205946815
531,7.190419837
532,7.199052903
533,7.190400237
534,7.198087833
535,7.217359292
536,7.205895531
537,7.210562547
538,7.204211971
539,7.198607871
540,7.196705755
541,7.195427675
542,7.177321702
543,7.191494191
544,7.195043591
545,7.212064937
546,7.210575881
547,7.176052931
548,7.204110637
549,7.208943513
550,7.194005368
551,7.200361705
552,7.198338935
553,7.202120054
554,7.202620431
555,7.188358456
556,7.185115374
557,7.210602131
558,7.196994656
559,7.186968921
560,7.207477255
561,7.193936755
562,7.204499939
563,7.188603053
564,7.201392787
565,7.202328661
566,7.20574075
567,7.20313972
568,7.191537303
569,7.207022606
570,7.210197311
571,7.208606699
572,7.21067175
573,7.209483479
574,7.186651701
575,7.194464863
576,7.214431787
577,7.195946671
578,7.199167655
579,7.194917632
580,7.212138431
581,7.196834112
582,7.207589557
583,7.213219422
584,7.206306477
585,7.202945918
586,7.176674865
587,7.197599712
588,7.196841764
589,7.180306242
590,7.201125166
591,7.179504225
592,7.210976688
593,7.191832378
594,7.205074282
595,7.206493794
596,7.197887723
597,7.188406596
598,7.214495105
599,7.194613349
600,7.193976096
601,7.194475414
602,7.201734582
603,7.207229864
604,7.192979218
605,7.180630648
606,7.200756708
607,7.207734819
608,7.212205581
609,7.205941166
610,7.183569908
611,7.188362265
612,7.199410519
613,7.216708184
614,7.19878858
615,7.225118745
616,7.204882005
617,7.212354142
618,7.217695711
619,7.176819479
620,7.196688056
621,7.192728074
622,7.204338832
623,7.189590664
624,7.206502567
625,7.205893054
626,7.186123295
627,7.203038683
628,7.200897698
629,7.196643039
630,7.202259361
631,7.201778846
632,7.171425879
633,7.207396593
634,7.208006221
635,7.193980121
636,7.20543162
637,7.185048993
638,7.201546346
639,7.201586656
640,7.203891277
641,7.208474678
642,7.209572958
643,7.195038792
644,7.198917175
645,7.15452165
646,7.204630311
647,7.198129833
648,7.191403231
649,7.211147242
650,7.193302623
651,7.201941814
652,7.215713861
653,7.210237042
654,7.198224907
655,7.220843198
656,7.211114856
657,7.209200043
658,7.19547567
659,7.18578376
660,7.183462972
661,7.190435072
662,7.201759438
663,7.195570769
664,7.210155693
665,7.191193774
666,7.226444685
667,7.20017268
668,7.19808777
669,7.197769732
670,7.198441852
671,7.198342792
672,7.195695643
673,7.203051987
674,7.205025065
675,7.201670824
676,7.202061041
677,7.199563339
678,7.200072318
679,7.19367303
680,7.202413785
681,7.201038236
682,7.220812721
683,7.208840463
684,7.204477088
685,7.200840498
686,7.179519564
687,7.18482582
688,7.21535324
689,7.20932836
690,7.183328018
691,7.181796473
692,7.213823483
693,7.191463757
694,7.205963511
695,7.188976686
696,7.194000467
697,7.210417294
698,7.209757791
699,7.218027973
700,7.205598361
701,7.191238698
702,7.194971334
703,7.206160785
704,7.197097781
705,7.204686531
706,7.187854033
707,7.174352572
708,7.199638948
709,7.203430972
710,7.196442322
711,7.22009387
712,7.20794735
713,7.200046276
714,7.19813577
715,7.190353464
716,7.212255864
717,7.189573949
718,7.210317237
719,7.201080633
720,7.181710181
721,7.205664871
722,7.19930629
723,7.199898214
724,7.198993062
725,7.192146806
726,7.198421634
727,7.214398241
728,7.189611913
729,7.18934621
730,7.192298053
731,7.210321862
732,7.20114924
733,7.20457032
734,7.203667666
735,7.189421964
736,7.194557055
737,7.205288599
738,7.202545527
739,7.205860337
740,7.20931365
741,7.196614449
742,7.186383912
743,7.195389667
744,7.204646561
745,7.195852932
746,7.211537459
747,7.20303037
748,7.195786737
749,7.200766642
750,7.192707795
751,7.218348869
752,7.207332885
753,7.214780322
754,7.211726142
755,7.2073649
756,7.204678627
757,7.206772619
758,7.200214759
759,7.207345728
760,7.204068137
761,7.21927588
762,7.206124163
763,7.207889742
764,7.200467004
765,7.202680028
766,7.198328893
767,7.193690025
768,7.205267672
769,7.201847267
770,7.199975301
771,7.20209724
772,7.214730734
773,7.215255255
774,7.187304826
775,7.204320763
776,7.211659349
777,7.209863529
778,7.183338326
779,7.20881402
780,7.217079689
781,7.192902115
782,7.222718207
783,7.219063608
784,7.179739484
785,7.199567718
786,7.187826862
787,7.217129269
788,7.21992019
789,7.192682171
790,7.206983397
791,7.204668679
792,7.215644924
793,7.201112438
794,7.194074471
795,7.19415748
796,7.189028954
797,7.189947676
798,7.193812449
799,7.191606569
800,7.197950897
801,7.199210324
802,7.211990936
803,7.198710113
804,7.184374493
805,7.198401774
806,7.213092049
807,7.190932618
808,7.196041388
809,7.199458204
810,7.204085639
811,7.209164571
812,7.203279268
813,7.203555946
814,7.203633477
815,7.200348854
816,7.212176038
817,7.205253857
818,7.194707695
819,7.217487297
820,7.208564407
821,7.227461776
822,7.19371718
823,7.187563385
824,7.200057778
825,7.194727475
826,7.211759519
827,7.201988761
828,7.183611644
829,7.189967702
830,7.200364648
831,7.205391451
832,7.204320762
833,7.188818692
834,7.194402171
835,7.200933449
836,7.19449043
837,7.204983321
838,7.198584077
839,7.204892399
840,7.203627594
841,7.200439568
842,7.201596004
843,7.227780251
844,7.190204438
845,7.201304728
846,7.183238174
847,7.196677994
848,7.189330885
849,7.182328466
850,7.201841918
851,7.211102046
852,7.20141348
853,7.198124704
854,7.196965705
855,7.19833313
856,7.210433796
857,7.219011112
858,7.211278404
859,7.208521067
860,7.199148098
861,7.211261431
862,7.191872564
863,7.194234376
864,7.198458026
865,7.201427608
866,7.204140279
867,7.196021833
868,7.20027764
869,7.200851255
870,7.212733831
871,7.194227224
872,7.20304186
873,7.191123933
874,7.190714852
875,7.204747323
876,7.186482425
877,7.206736349
878,7.188949149
879,7.193410434
880,7.215715196
881,7.193065977
882,7.207325871
883,7.204676557
884,7.219312127
885,7.20041918
886,7.198969872
887,7.202502897
888,7.183356219
889,7.193923826
890,7.186135157
891,7.185497666
892,7.180103626
893,7.182594832
894,7.200016219
895,7.200885851
896,7.195695854
897,7.188811428
898,7.196283058
899,7.213301399
900,7.195249818
901,7.207988256
902,7.196425416
903,7.195325362
904,7.200667335
905,7.199931299
906,7.21008158
907,7.188744922
908,7.203814433
909,7.179989067
910,7.210843366
911,7.195288353
912,7.19621676
913,7.207467954
914,7.207974155
915,7.204105572
916,7.196294203
917,7.192078685
918,7.212024641
919,7.209137563
920,7.21619432
921,7.18634264
922,7.197432223
923,7.197248569
924,7.215401422
925,7.199102699
926,7.196144318
927,7.191265206
928,7.187027252
929,7.193144207
930,7.213737679
931,7.206206987
932,7.19544575
933,7.205387484
934,7.215742909
935,7.203694158
936,7.202878351
937,7.20037845
938,7.204705863
939,7.198286147
940,7.194934509
941,7.209463745
942,7.214866309
943,7.199332391
944,7.194700215
945,7.201297853
946,7.178086032
947,7.200992054
948,7.188984527
949,7.196269478
950,7.176914966
951,7.195546077
952,7.197765364
953,7.207403884
954,7.196715221
955,7.206839601
956,7.182427993
957,7.206700431
958,7.178089101
959,7.187133167
960,7.201062258
961,7.18986541
962,7.217372802
963,7.209711797
964,7.199538313
965,7.19792568
966,7.177619518
967,7.203431718
968,7.196847815
969,7.209157892
970,7.192169376
971,7.197892431
972,7.176289964
973,7.198740102
974,7.201400301
975,7.197761736
976,7.205101135
977,7.195957537
978,7.20461492
979,7.196718522
980,7.202795031
981,7.201001453
982,7.207142974
983,7.199583383
984,7.205666198
985,7.204788697
986,7.200305183
987,7.215089287
988,7.191903148
989,7.187831152
990,7.19761295
991,7.200964091
992,7.183391821
993,7.202163915
994,7.188264835
995,7.203683916
996,7.183245711
997,7.192922763
998,7.218296805
999,7.198303168
1000,7.219180281
1001,7.195424112
1002,7.20283116
1003,7.230511905
1004,7.183762731
1005,7.210838136
1006,7.188807546
1007,7.206579336
1008,7.190232099
1009,7.193956572
1010,7.189080757
1011,7.211848562
1012,7.218609443
1013,7.203010525
1014,7.200823654
1015,7.207404276
1016,7.204759986
1017,7.20372747
1018,7.20276328
1019,7.219831616
1020,7.193050121
1021,7.194377304
1022,7.184656149
1023,7.19873837
1024,7.208978062
1025,7.197349291
1026,7.196211323
1027,7.186578444
1028,7.206873615
1029,7.202202231
1030,7.193969949
1031,7.199159559
1032,7.193773347
1033,7.201242576
1034,7.204945226
1035,7.185319148
1036,7.216677114
1037,7.205219827
1038,7.192432341
1039,7.197303478
1040,7.216843621
1041,7.210650111
1042,7.212831523
1043,7.212328889
1044,7.186208949
1045,7.197631467
1046,7.207672875
1047,7.2064557
1048,7.195620966
1049,7.193043809
1050,7.190133858
1051,7.204352308
1052,7.203991446
1053,7.196039407
1054,7.228882941
1055,7.219287636
1056,7.222771897
1057,7.223961261
1058,7.208698621
1059,7.224605468
1060,7.245209061
1061,7.245476661
1062,7.255079078
1063,7.263824904
1064,7.300714426
1065,7.300105697
1066,7.339999513
1067,7.358753886
1068,7.402785843
1069,7.42855934
1070,7.460809569
1071,7.526106996
1072,7.57781594
1073,7.632370555
1074,7.686167598
1075,7.738748726
1076,7.814643622
1077,7.862392864
1078,7.912807135
1079,7.986799294
1080,8.04265933
1081,8.089868801
1082,8.126542531
1083,8.150464451
1084,8.182761038
1085,8.189696781
1086,8.196900263
1087,8.184129331
1088,8.167147194
1089,8.15029626
1090,8.119489117
1091,8.077461493
1092,8.013527606
1093,7.988596295
1094,7.926231382
1095,7.850457603
1096,7.806406774
1097,7.755611399
1098,7.675102875
1099,7.636890467
1100,7.586321223
1101,7.533118599
1102,7.465099842
1103,7.440654181
1104,7.399389766
1105,7.350219048
1106,7.337655759
1107,7.295962485
1108,7.280462725
1109,7.263503956
1110,7.266537832
1111,7.24377277
1112,7.226228402
1113,7.226971053
1114,7.210221269
1115,7.230106726
1116,7.214293123
1117,7.210518635
1118,7.201690309
1119,7.203476251
1120,7.220718073
1121,7.214216957
1122,7.194280345
1123,7.200167352
1124,7.205945311
1125,7.201141564
1126,7.183163666
1127,7.208216787
1128,7.199333835
1129,7.189117983
1130,7.206053057
1131,7.199914807
1132,7.206258729
1133,7.201161778
1134,7.182335685
1135,7.200568483
1136,7.192538639
1137,7.200727131
1138,7.1798749
1139,7.187029326
1140,7.193257532
1141,7.193374868
1142,7.205865966
1143,7.202349168
1144,7.197458678
1145,7.198366377
1146,7.208440259
1147,7.197224686
1148,7.187662201
1149,7.199793793
1150,7.200143553
1151,7.207017145
1152,7.197652739
1153,7.207377795
1154,7.206847532
1155,7.195898515
1156,7.223946554
1157,7.187780535
1158,7.202190131
1159,7.199513892
1160,7.184391623
1161,7.186853963
1162,7.189838065
1163,7.190485942
1164,7.185768086
1165,7.209908074
1166,7.219343609
1167,7.213484381
1168,7.20363988
1169,7.19027919
1170,7.21216899
1171,7.203117758
1172,7.21305548
1173,7.206741515
1174,7.204768593
1175,7.187920258
1176,7.196249539
1177,7.205735813
1178,7.188986651
1179,7.189181416
1180,7.206757213
1181,7.182576652
1182,7.201836244
1183,7.190755876
1184,7.177703088
1185,7.197104015
1186,7.188951956
1187,7.204373221
1188,7.200578164
1189,7.211338211
1190,7.192146149
1191,7.211183289
1192,7.217600117
1193,7.219049256
1194,7.192383075
1195,7.176144607
1196,7.215581079
1197,7.191423365
1198,7.183304063
1199,7.201391945
1200,7.204851245
1201,7.211662565
1202,7.214519205
1203,7.199183891
1204,7.198968562
1205,7.195825887
1206,7.197184117
1207,7.19536075
1208,7.194765129
1209,7.189659483
1210,7.216721198
1211,7.190021203
1212,7.190672211
1213,7.185654006
1214,7.193476685
1215,7.184635484
1216,7.211055686
1217,7.202047777
1218,7.205238774
1219,7.199282108
1220,7.196298542
1221,7.197939111
1222,7.215214305
1223,7.211902579
1224,7.203448081
1225,7.203115714
1226,7.199129089
1227,7.178235785
1228,7.206657823
1229,7.179990601
1230,7.203858829
1231,7.180197581
1232,7.198583491
1233,7.196601216
1234,7.192989998
1235,7.208024071
1236,7.191271232
1237,7.184780472
1238,7.212407958
1239,7.188715334
1240,7.205659367
1241,7.1948447
1242,7.209546519
1243,7.198954596
1244,7.215366362
1245,7.215981237
1246,7.184028786
1247,7.205223948
1248,7.208992533
1249,7.210205799
1250,7.20472787
1251,7.205659328
1252,7.208231941
1253,7.211114605
1254,7.188100647
1255,7.184153606
1256,7.203097606
1257,7.208070764
1258,7.192759838
1259,7.212404406
1260,7.207487839
1261,7.205374459
1262,7.207952192
1263,7.176119808
1264,7.197825448
1265,7.200852851
1266,7.19121655
1267,7.205669946
1268,7.191129357
1269,7.192249055
1270,7.208889307
1271,7.20906509
1272,7.207971805
1273,7.204977262
1274,7.205516096
1275,7.196773774
1276,7.191488937
1277,7.189741623
1278,7.201112676
1279,7.199757915
1280,7.198353208
1281,7.200652138
1282,7.210042141
1283,7.190193881
1284,7.199351525
1285,7.210129052
1286,7.210419719
1287,7.201135595
1288,7.196241001
1289,7.202696582
1290,7.207545646
1291,7.203115665
1292,7.19537653
1293,7.197575831
1294,7.188691531
1295,7.195027826
1296,7.204819851
1297,7.18328128
1298,7.20294642
1299,7.193067225
1300,7.198082051
1301,7.215226174
1302,7.190988108
1303,7.202030749
1304,7.187076787
1305,7.206542953
1306,7.208911963
1307,7.20796315
1308,7.192916229
1309,7.192291932
1310,7.22025203
1311,7.200052335
1312,7.202562103
1313,7.202389138
1314,7.20596541
1315,7.196125342
1316,7.197656993
1317,7.19448673
1318,7.215209653
1319,7.201631579
1320,7.200332074
1321,7.205677379
1322,7.211610382
1323,7.176894466
1324,7.192704959
1325,7.1775186
1326,7.198416894
1327,7.188622535
1328,7.174578323
1329,7.20340783
1330,7.20395871
1331,7.218910723
1332,7.206905599
1333,7.194493632
1334,7.213265671
1335,7.222754742
1336,7.197163588
1337,7.218595175
1338,7.197186261
1339,7.190061534
1340,7.197728911
1341,7.2017621
1342,7.209138988
1343,7.209358685
1344,7.20954132
1345,7.194609334
1346,7.212936264
1347,7.198031205
1348,7.194481537
1349,7.207662188
1350,7.190950252
1351,7.211883523
1352,7.201660453
1353,7.193868457
1354,7.206122969
1355,7.213277726
1356,7.182289494
1357,7.20695732
1358,7.181617865
1359,7.220190801
1360,7.189503613
1361,7.19957287
1362,7.197920215
1363,7.212669708
1364,7.211228287
1365,7.195402102
1366,7.193817673
1367,7.193752349
1368,7.200842388
1369,7.203110772
1370,7.20776269
1371,7.187929183
1372,7.194264482
1373,7.197033843
1374,7.199778531
1375,7.172810564
1376,7.229284204
1377,7.201154484
1378,7.211651322
1379,7.19735541
1380,7.197306042
1381,7.211917271
1382,7.18825871
1383,7.207608513
1384,7.208587508
1385,7.2044423
1386,7.202866466
1387,7.199815315
1388,7.208832301
1389,7.211366045
1390,7.210915451
1391,7.202255197
1392,7.203367312
1393,7.229695078
1394,7.248577667
1395,7.244957559
1396,7.234366906
1397,7.226387792
1398,7.258059115
1399,7.277145668
1400,7.289209886
1401,7.29742374
1402,7.29782663
1403,7.313845833
1404,7.309863933
1405,7.333837369
1406,7.360675029
1407,7.3681964
1408,7.385358809
1409,7.386139114
1410,7.443118995
1411,7.423012145
1412,7.443733629
1413,7.442620487
1414,7.458868149
1415,7.478140426
1416,7.502871658
1417,7.485749006
1418,7.49698632
1419,7.50722052
1420,7.498348463
1421,7.49233316
1422,7.505865888
1423,7.478981659
1424,7.480556033
1425,7.459091979
1426,7.455180286
1427,7.447730943
1428,7.439038254
1429,7.430739592
1430,7.410619135
1431,7.397261986
1432,7.385735118
1433,7.377542761
1434,7.349917734
1435,7.325718984
1436,7.312766755
1437,7.317049964
1438,7.32127158
1439,7.278429989
1440,7.280764467
1441,7.255632437
1442,7.264116232
1443,7.243974098
1444,7.236394543
1445,7.235493209
1446,7.239183501
1447,7.207437315
1448,7.22059035
1449,7.220789567
1450,7.209506494
1451,7.223430479
1452,7.204679223
1453,7.225422816
1454,7.196157417
1455,7.205116706
1456,7.216498022
1457,7.188840698
1458,7.193907654
1459,7.212559665
1460,7.192713634
1461,7.210796452
1462,7.194310574
1463,7.200477206
1464,7.19649184
1465,7.18323174
1466,7.203740472
1467,7.208880558
1468,7.19675357
1469,7.199046838
1470,7.197523565
1471,7.198164399
1472,7.205620825
1473,7.204490426
1474,7.2033246
1475,7.209254139
1476,7.201937551
1477,7.193392043
1478,7.202740904
1479,7.203380254
1480,7.195540323
1481,7.199817466
1482,7.189937632
1483,7.202117106
1484,7.193461702
1485,7.193505787
1486,7.20326679
1487,7.203030542
1488,7.206856255
1489,7.188215307
1490,7.201394489
1491,7.194990614
1492,7.182096671
1493,7.185249787
1494,7.213117338
1495,7.198987988
1496,7.206648057
1497,7.210731017
1498,7.207572395
1499,7.199256534
1500,7.183715517
1501,7.197467638
1502,7.214972924
1503,7.198786227
1504,7.200659115
1505,7.19664854
1506,7.231150688
1507,7.192461602
1508,7.191205713
1509,7.217450651
1510,7.198532846
1511,7.217394947
1512,7.185097459
1513,7.204081785
1514,7.207883665
1515,7.182404435
1516,7.206674857
1517,7.186806666
1518,7.198311433
1519,7.20149431
1520,7.198574743
1521,7.193617273
1522,7.196119953
1523,7.194482462
1524,7.205594224
1525,7.20857967
1526,7.19371502
1527,7.191522401
1528,7.187990333
1529,7.190020187
1530,7.191991331
1531,7.197655892
1532,7.215163352
1533,7.207998093
1534,7.1954099
1535,7.204854413
1536,7.192911448
1537,7.176267711
1538,7.212037524
1539,7.192527199
1540,7.220311529
1541,7.181852391
1542,7.207943984
1543,7.194837697
1544,7.214772526
1545,7.182429858
1546,7.179100076
1547,7.206282808
1548,7.197553486
1549,7.21433817
1550,7.203750973
1551,7.21561981
1552,7.20027386
1553,7.195869189
1554,7.191440552
1555,7.201283892
1556,7.212748804
1557,7.20041637
1558,7.194488681
1559,7.206637632
1560,7.202883032
1561,7.198504581
1562,7.183403645
1563,7.207292557
1564,7.195293502
1565,7.203955089
1566,7.185709662
1567,7.202823156
1568,7.201408947
1569,7.197007388
1570,7.194983226
1571,7.205187059
1572,7.189947722
1573,7.185915735
1574,7.205585672
1575,7.190267007
1576,7.187848137
1577,7.195808082
1578,7.21261376
1579,7.195753363
1580,7.199516835
1581,7.205963698
1582,7.186101995
1583,7.204282217
1584,7.180560338
1585,7.199148881
1586,7.215187688
1587,7.186368187
1588,7.2160389
1589,7.203556032
1590,7.208348766
1591,7.206036511
1592,7.198265843
1593,7.206392344
1594,7.198323433
1595,7.208972804
1596,7.193217313
1597,7.187373841
1598,7.182426351
1599,7.204500771
1600,7.201721746
1601,7.186604312
1602,7.21146429
1603,7.193832036
1604,7.200850468
1605,7.192790336
1606,7.197973877
1607,7.203464091
1608,7.204575672
1609,7.175890166
1610,7.206912373
1611,7.184780532
1612,7.197882124
1613,7.207114247
1614,7.19250603
1615,7.199046956
1616,7.210706732
1617,7.20610589
1618,7.191051342
1619,7.221803704
1620,7.199748111
1621,7.207351453
1622,7.1978106
1623,7.210460578
1624,7.209647138
1625,7.19028246
1626,7.204216366
1627,7.197189899
1628,7.202052343
1629,7.201531161
1630,7.211004849
1631,7.182580861
1632,7.199354186
1633,7.197290566
1634,7.206284736
1635,7.20493714
1636,7.20318055
1637,7.203811698
1638,7.180033132
1639,7.202564321
1640,7.210041001
1641,7.191579538
1642,7.207769207
1643,7.20536987
1644,7.212085412
1645,7.204881246
1646,7.198492241
1647,7.204366369
1648,7.186548293
1649,7.199696493
1650,7.19387452
1651,7.213574497
1652,7.207600457
1653,7.202993931
1654,7.216748958
1655,7.19569011
1656,7.201619726
1657,7.208152178
1658,7.203550069
1659,7.186602164
1660,7.18660343
1661,7.204007106
1662,7.188045853
1663,7.200918048
1664,7.194365815
1665,7.207644065
1666,7.201704978
1667,7.203679896
1668,7.211158476
1669,7.209030135
1670,7.194441217
1671,7.200926173
1672,7.192333925
1673,7.198336651
1674,7.195308092
1675,7.199986417
1676,7.204916557
1677,7.199147556
1678,7.204402945
1679,7.202182316
1680,7.19409667
1681,7.202382023
1682,7.205681158
1683,7.207877656
1684,7.213121274
1685,7.210377945
1686,7.203937504
1687,7.200647428
1688,7.212766663
1689,7.190190255
1690,7.210016525
1691,7.21037632
1692,7.198922846
1693,7.194808302
1694,7.195988607
1695,7.200975145
1696,7.1981709
1697,7.183937215
1698,7.205600858
1699,7.210132423
1700,7.208650317
1701,7.199192405
1702,7.211645478
1703,7.228309282
1704,7.22654458
1705,7.19477538
1706,7.218592929
1707,7.210163211
1708,7.218519651
1709,7.221842564
1710,7.247814207
1711,7.233671102
1712,7.238446883
1713,7.233693453
1714,7.242564687
1715,7.243771792
1716,7.243783058
1717,7.245998022
1718,7.26695805
1719,7.264129318
1720,7.252423353
1721,7.284807124
1722,7.273003965
1723,7.279267724
1724,7.298263518
1725,7.28840882
1726,7.279813995
1727,7.290402351
1728,7.284107101
1729,7.322045629
1730,7.309115348
1731,7.297781709
1732,7.315087395
1733,7.302473278
1734,7.297118282
1735,7.277243761
1736,7.297588119
1737,7.294253026
1738,7.289134069
1739,7.274145851
1740,7.284988175
1741,7.273875921
1742,7.26259232
1743,7.244686056
1744,7.238843138
1745,7.245218166
1746,7.248587261
1747,7.246458346
1748,7.235679318
1749,7.211958505
1750,7.225319734
1751,7.224678496
1752,7.201003796
1753,7.213369308
1754,7.21274089
1755,7.207056235
1756,7.217326862
1757,7.19956238
1758,7.205294003
1759,7.204904596
1760,7.211087237
1761,7.187106746
1762,7.190209031
1763,7.195944841
1764,7.207990393
1765,7.204518577
1766,7.204360223
1767,7.20125028
1768,7.212617138
1769,7.193579798
1770,7.1970613
1771,7.199821936
1772,7.190397112
1773,7.218244021
1774,7.204847261
1775,7.209163365
1776,7.214016403
1777,7.220152847
1778,7.193706284
1779,7.190370575
1780,7.190693978
1781,7.201041837
1782,7.207664208
1783,7.20649797
1784,7.185843228
1785,7.194328809
1786,7.19428604
1787,7.211777565
1788,7.204994822
1789,7.197994405
1790,7.188026559
1791,7.205915445
1792,7.197242341
1793,7.186519632
1794,7.188557206
1795,7.186667781
1796,7.196017389
1797,7.205055741
1798,7.205614383
1799,7.200339226
1800,7.205184449
1801,7.202225684
1802,7.213200956
1803,7.190352991
1804,7.187204651
1805,7.177095723
1806,7.203174493
1807,7.193940445
1808,7.199065091
1809,7.197052958
1810,7.220144652
1811,7.215843849
1812,7.200895532
1813,7.20453797
1814,7.205341717
1815,7.190811485
1816,7.210023298
1817,7.200774184
1818,7.199423989
1819,7.202697062
1820,7.198125016
1821,7.1981551
1822,7.176733203
1823,7.211618271
1824,7.202257432
1825,7.194164784
1826,7.199997872
1827,7.200550798
1828,7.198811892
1829,7.200505506
1830,7.192466455
1831,7.219018308
1832,7.199376091
1833,7.210894036
1834,7.195370324
1835,7.203931494
1836,7.211074787
1837,7.196411598
1838,7.202284709
1839,7.207248504
1840,7.207318026
1841,7.203839854
1842,7.208584834
1843,7.200004202
1844,7.202987826
1845,7.191305923
1846,7.198206633
1847,7.187535995
1848,7.203642353
1849,7.218992375
1850,7.199748064
1851,7.201224481
1852,7.196271651
1853,7.198208679
1854,7.203909953
1855,7.187048022
1856,7.195530131
1857,7.204463349
1858,7.200057359
1859,7.19039597
1860,7.195423807
1861,7.207355588
1862,7.186846909
1863,7.209098872
1864,7.19308104
1865,7.189601144
1866,7.208610141
1867,7.198753995
1868,7.195122441
1869,7.190232388
1870,7.202047019
1871,7.197386961
1872,7.198238286
1873,7.202023575
1874,7.187466345
1875,7.202426457
1876,7.201604877
1877,7.186292837
1878,7.205459795
1879,7.20569141
1880,7.195356608
1881,7.199502052
1882,7.198369304
1883,7.213394948
1884,7.209218719
1885,7.211124887
1886,7.194568023
1887,7.20268562
1888,7.209580803
1889,7.202694563
1890,7.192982661
1891,7.202720431
1892,7.205562717
1893,7.200891084
1894,7.186257532
1895,7.222267972
1896,7.194605469
1897,7.18642069
1898,7.201306397
1899,7.197278851
1900,7.180211898
1901,7.19221773
1902,7.193442895
1903,7.184006378
1904,7.212609246
1905,7.208340029
1906,7.187212067
1907,7.190658076
1908,7.20047579
1909,7.190241115
1910,7.191334032
1911,7.178831866
1912,7.206913179
1913,7.187087668
1914,7.205979018
1915,7.202684459
1916,7.207245142
1917,7.215258926
1918,7.184501705
1919,7.216686262
1920,7.198799848
1921,7.184800015
1922,7.188587885
1923,7.198050704
1924,7.202307752
1925,7.219298693
1926,7.192380002
1927,7.196045239
1928,7.183585174
1929,7.208781092
1930,7.205669583
1931,7.178203014
1932,7.214632081
1933,7.189691821
1934,7.198388532
1935,7.215057308
1936,7.186695831
1937,7.198632086
1938,7.216114784
1939,7.208370428
1940,7.205623727
1941,7.185239179
1942,7.20781682
1943,7.213599469
1944,7.202677484
1945,7.198146439
1946,7.189330681
1947,7.183407563
1948,7.186026507
1949,7.196483978
1950,7.1986284
1951,7.191581186
1952,7.203673199
1953,7.191451982
1954,7.201918842
1955,7.225733426
1956,7.202031356
1957,7.185881605
1958,7.212328206
1959,7.201447684
1960,7.197699156
1961,7.195317461
1962,7.217849487
1963,7.191873868
1964,7.200044617
1965,7.195083071
1966,7.212373215
1967,7.21708849
1968,7.199229294
1969,7.196717516
1970,7.208326668
1971,7.214536825
1972,7.210817961
1973,7.198605414
1974,7.21111682
1975,7.23009185
1976,7.19199851
1977,7.199225214
1978,7.22364207
1979,7.200003033
1980,7.202118301
1981,7.180606054
1982,7.184324642
1983,7.182558098
1984,7.197003825
1985,7.174158442
1986,7.188573883
1987,7.184319287
1988,7.19581343
1989,7.191436462
1990,7.184224392
1991,7.199274146
1992,7.202688474
1993,7.211575543
1994,7.183207448
1995,7.182625523
1996,7.206989554
1997,7.198708004
1998,7.194921087
1999,7.218982919
2000,7.207439593
2001,7.191288659
2002,7.195145082
2003,7.208842867
2004,7.209435339
2005,7.200274386
2006,7.216060907
2007,7.202397263
2008,7.19129145
2009,7.19949621
2010,7.22413128
2011,7.190578516
2012,7.192178791
2013,7.191454
2014,7.192183771
2015,7.212998529
2016,7.210398142
2017,7.194877726
2018,7.203799179
2019,7.216014666
2020,7.18704819
2021,7.190081681
2022,7.206532466
2023,7.194291918
2024,7.183335168
2025,7.204982851
2026,7.203634396
2027,7.208570309
2028,7.21038025
2029,7.213960986
2030,7.202924131
2031,7.212026919
2032,7.202164545
2033,7.184450425
2034,7.209939565
2035,7.204309453
2036,7.19315861
2037,7.197138122
2038,7.203272557
2039,7.185019916
2040,7.204892854
2041,7.203402289
2042,7.1968409
2043,7.21300256
2044,7.19295642
2045,7.210679118
2046,7.199837795
2047,7.203629886
2048,7.200786127
2049,7.209741054
2050,7.203719331
2051,7.207814158
2052,7.19136229
2053,7.1927039
2054,7.190846103
2055,7.19466276
2056,7.203240532
2057,7.189536634
2058,7.192710663
2059,7.200878612
2060,7.211591056
2061,7.193631324
2062,7.205406474
2063,7.209480457
2064,7.197025312
2065,7.206588649
2066,7.205227337
2067,7.190125676
2068,7.210036748
2069,7.20090742
2070,7.207635954
2071,7.195485549
2072,7.185369167
2073,7.19962328
2074,7.203160104
2075,7.185697011
2076,7.216749351
2077,7.200332089
2078,7.209951275
2079,7.20405689
2080,7.20808786
2081,7.210418707
2082,7.222843898
2083,7.186521919
2084,7.208408935
2085,7.195527482
2086,7.193051183
2087,7.192788269
2088,7.198809546
2089,7.201059524
2090,7.210168483
2091,7.208919616
2092,7.193209144
2093,7.189742464
2094,7.199485027
2095,7.208158037
2096,7.200022569
2097,7.187920312
2098,7.201245104
2099,7.185356358
2100,7.198272729
2101,7.190159971
2102,7.215160138
2103,7.201941347
2104,7.197362776
2105,7.181082268
2106,7.20945538
2107,7.21953795
2108,7.212262311
2109,7.209808584
2110,7.199448105
2111,7.185768252
2112,7.20730152
2113,7.205354491
2114,7.195958661
2115,7.182559709
2116,7.210263709
2117,7.200879836
2118,7.186736323
2119,7.203038906
2120,7.207638553
2121,7.198106319
2122,7.2094568
2123,7.21133958
2124,7.214013373
2125,7.190181497
2126,7.205800899
2127,7.203671462
2128,7.198438757
2129,7.205108732
2130,7.197676966
2131,7.210592568
2132,7.192700931
2133,7.192706405
2134,7.207712916
2135,7.201322852
2136,7.209543557
2137,7.198483012
2138,7.205578647
2139,7.198815788
2140,7.204097101
2141,7.195549832
2142,7.197767921
2143,7.202974377
2144,7.199166093
2145,7.20324504
2146,7.187808894
2147,7.188541702
2148,7.205537171
2149,7.200010939
2150,7.200939416
2151,7.188506619
2152,7.19896759
2153,7.200185343
2154,7.211936043
2155,7.200735997
2156,7.20350877
2157,7.18574695
2158,7.202477291
2159,7.197419882
2160,7.195709346
2161,7.177731286
2162,7.174132409
2163,7.20705619
2164,7.200981169
2165,7.19875012
2166,7.217755878
2167,7.21096062
2168,7.18041748
2169,7.180718991
2170,7.194979574
2171,7.21020339
2172,7.196283295
2173,7.188708196
2174,7.21188314
2175,7.198337565
2176,7.209404685
2177,7.201266381
2178,7.203204705
2179,7.197604236
2180,7.217173312
2181,7.202458619
2182,7.195985417
2183,7.196058622
2184,7.200144835
2185,7.186753093
2186,7.191606428
2187,7.204369166
2188,7.194470131
2189,7.195138772
2190,7.199160844
2191,7.191557786
2192,7.216702407
2193,7.191425185
2194,7.204642924
2195,7.204673926
2196,7.202008805
2197,7.198351542
2198,7.207789649
2199,7.210341707
2200,7.197025888
2201,7.195970595
2202,7.212063868
2203,7.198556127
2204,7.201020774
2205,7.195469949
2206,7.191433366
2207,7.220540569
2208,7.208163809
2209,7.192921325
2210,7.204024781
2211,7.204621213
2212,7.197950143
2213,7.228900675
2214,7.204245274
2215,7.200940524
2216,7.199435726
2217,7.205613285
2218,7.183698612
2219,7.205867936
2220,7.196913577
2221,7.19531088
2222,7.198713841
2223,7.208956498
2224,7.215163875
2225,7.184323656
2226,7.187493032
2227,7.186517861
2228,7.201595404
2229,7.205134219
2230,7.209517066
2231,7.203759824
2232,7.201575284
2233,7.220331243
2234,7.20225156
2235,7.210741788
2236,7.191484113
2237,7.192655084
2238,7.185003141
2239,7.203497461
2240,7.199600061
2241,7.203184651
2242,7.20679838
2243,7.212140123
2244,7.192051934
2245,7.191661403
2246,7.185702731
2247,7.193985507
2248,7.204070937
2249,7.201732304
2250,7.205553634
2251,7.187390068
2252,7.192466065
2253,7.202289981
2254,7.199487101
2255,7.212720584
2256,7.191582116
2257,7.191832774
2258,7.20117988
2259,7.205788775
2260,7.208904131
2261,7.20006592
2262,7.212331503
2263,7.190267995
2264,7.211635296
2265,7.179874834
2266,7.193427424
2267,7.200339769
2268,7.199587708
2269,7.198871296
2270,7.225076761
2271,7.196215862
2272,7.202187105
2273,7.190304612
2274,7.190432848
2275,7.192046861
2276,7.195413132
2277,7.200527752
2278,7.21016529
2279,7.203394131
2280,7.193264175
2281,7.204635246
2282,7.198424252
2283,7.19998136
2284,7.194149925
2285,7.198475009
2286,7.222775822
2287,7.21373228
2288,7.200021652
2289,7.207990015
2290,7.208937356
2291,7.203446609
2292,7.194048988
2293,7.214576477
2294,7.203250068
2295,7.196834195
2296,7.19312435
2297,7.188404385
2298,7.224761876
2299,7.181996283
2300,7.202357619
2301,7.211333354
2302,7.192962183
2303,7.183970133
2304,7.203391463
2305,7.190920252
2306,7.19628084
2307,7.198895309
2308,7.218300137
2309,7.211496082
2310,7.199964388
2311,7.214003281
2312,7.183641544
2313,7.18349139
2314,7.219098054
2315,7.198071092
2316,7.199984658
2317,7.198256667
2318,7.191887345
2319,7.208645185
2320,7.202014446
2321,7.20665637
2322,7.2048962
2323,7.200759309
2324,7.200063547
2325,7.201067422
2326,7.192674532
2327,7.19563355
2328,7.200763504
2329,7.202979184
2330,7.209248632
2331,7.209348299
2332,7.204591959
2333,7.192873226
2334,7.20714349
2335,7.197400716
2336,7.208230567
2337,7.202854536
2338,7.19949662
2339,7.195160064
2340,7.202876684
2341,7.192467825
2342,7.208738042
2343,7.213791167
2344,7.193504852
2345,7.198944396
2346,7.191352469
2347,7.204958974
2348,7.205737341
2349,7.200429375
2350,7.192172953
2351,7.2137807
2352,7.206671002
2353,7.210108505
2354,7.209501275
2355,7.198735667
2356,7.196516169
2357,7.209680679
2358,7.204901122
2359,7.208104793
2360,7.210922771
2361,7.20685611
2362,7.215215537
2363,7.186324331
2364,7.193230159
2365,7.198124951
2366,7.193548927
2367,7.204316419
2368,7.192001559
2369,7.206836675
2370,7.193666686
2371,7.20074149
2372,7.203901523
2373,7.202381722
2374,7.195092664
2375,7.19604297
2376,7.193324953
2377,7.211367013
2378,7.194433275
2379,7.183739825
2380,7.194111446
2381,7.195217719
2382,7.192323096
2383,7.200762557
2384,7.203152406
2385,7.195292622
2386,7.192478835
2387,7.213280102
2388,7.203249839
2389,7.201876493
2390,7.196683962
2391,7.201479211
2392,7.212942759
2393,7.183922907
2394,7.196504923
2395,7.192272297
2396,7.209113727
2397,7.197255964
2398,7.21435926
2399,7.198681905
2400,7.187615258
2401,7.191448293
2402,7.190902395
2403,7.201519185
2404,7.19793275
2405,7.203902375
2406,7.201397187
2407,7.202481372
2408,7.196440215
2409,7.211134996
2410,7.196416231
2411,7.211183291
2412,7.211258216
2413,7.197631518
2414,7.205667991
2415,7.198577667
2416,7.208935932
2417,7.199205429
2418,7.210954538
2419,7.197176735
2420,7.194256013
2421,7.221894003
2422,7.185515364
2423,7.205637153
2424,7.208317749
2425,7.187649494
2426,7.207503622
2427,7.21165501
2428,7.212251484
2429,7.218137863
2430,7.190887928
2431,7.182590896
2432,7.201676869
2433,7.210476599
2434,7.195174317
2435,7.200531813
2436,7.198334416
2437,7.223842655
2438,7.201465932
2439,7.182161745
2440,7.217602632
2441,7.214003023
2442,7.196314285
2443,7.214952045
2444,7.192507121
2445,7.188612138
2446,7.211619087
2447,7.206343826
2448,7.191024801
2449,7.202917434
2450,7.205718057
2451,7.192051726
2452,7.200194904
2453,7.193819749
2454,7.196517508
2455,7.205971515
2456,7.212779122
2457,7.193511363
2458,7.205541944
2459,7.209778675
2460,7.216814168
2461,7.202529166
2462,7.214035115
2463,7.205967623
2464,7.216023273
2465,7.199776423
2466,7.188387679
2467,7.192581126
2468,7.197188377
2469,7.204600902
2470,7.182021524
2471,7.214069425
2472,7.216316591
2473,7.204230519
2474,7.198857823
2475,7.186296622
2476,7.194880372
2477,7.185708311
2478,7.207839632
2479,7.205390666
2480,7.210944104
2481,7.200369231
2482,7.202152694
2483,7.183218837
2484,7.206414847
2485,7.193922489
2486,7.214615468
2487,7.194624816
2488,7.218395658
2489,7.196473619
2490,7.212863232
2491,7.182408623
2492,7.189671234
2493,7.19025244
2494,7.206671121
2495,7.200759756
2496,7.184141784
2497,7.188073979
2498,7.192448513
2499,7.203969457
2500,7.202539058
2501,7.185897405
2502,7.205595371
2503,7.186655909
2504,7.203315193
2505,7.207217391
2506,7.204142981
2507,7.207658504
2508,7.19964907
2509,7.19540937
2510,7.176978285
2511,7.2024113
2512,7.198820817
2513,7.201430389
2514,7.199540237
2515,7.188523637
2516,7.193214877
2517,7.192993472
2518,7.199471095
2519,7.197344991
2520,7.197327623
2521,7.201171984
2522,7.198293718
2523,7.198718035
2524,7.198459813
2525,7.189390718
2526,7.20492687
2527,7.190984424
2528,7.204195587
2529,7.208003152
2530,7.196516646
2531,7.193326497
2532,7.208951749
2533,7.202505321
2534,7.192907304
2535,7.213367345
2536,7.209209037
2537,7.183473843
2538,7.189075966
2539,7.202572943
2540,7.220204989
2541,7.201482299
2542,7.198037319
2543,7.193671551
2544,7.200321023
2545,7.210644407
2546,7.179149378
2547,7.199477677
2548,7.207260982
2549,7.178160726
2550,7.194350801
2551,7.21952414
2552,7.192210652
2553,7.206648416
2554,7.216974287
2555,7.213166877
2556,7.191734328
2557,7.208168079
2558,7.209387024
2559,7.186895722
2560,7.199395291
2561,7.203240853
2562,7.20838779
2563,7.19504676
2564,7.206103918
2565,7.210184995
2566,7.199583744
2567,7.203998305
2568,7.198440414
2569,7.205632303
2570,7.193239175
2571,7.2150259
2572,7.219372243
2573,7.214443382
2574,7.197182332
2575,7.191058942
2576,7.216864681
2577,7.196179121
2578,7.205222815
2579,7.201322857
2580,7.212720097
2581,7.210414749
2582,7.207144508
2583,7.196344949
2584,7.186339416
2585,7.202549742
2586,7.202264042
2587,7.199950547
2588,7.2008105
2589,7.197452905
2590,7.184298836
2591,7.197562607
2592,7.193631839
2593,7.197789356
2594,7.210975476
2595,7.196373779
2596,7.208329953
2597,7.199429584
2598,7.2025155
2599,7.200991477
2600,7.196410814
2601,7.193084274
2602,7.190357183
2603,7.185336882
2604,7.194225796
2605,7.200243505
2606,7.186864598
2607,7.188051605
2608,7.204190457
2609,7.193720673
2610,7.209493237
2611,7.194755259
2612,7.20731598
2613,7.216416038
2614,7.197496763
2615,7.206890448
2616,7.20217483
2617,7.220601912
2618,7.199106722
2619,7.200670867
2620,7.202579074
2621,7.215680626
2622,7.187924233
2623,7.192353373
2624,7.204695377
2625,7.196352293
2626,7.218886946
2627,7.200914584
2628,7.204366381
2629,7.188259037
2630,7.194425848
2631,7.191656292
2632,7.197439089
2633,7.184019019
2634,7.19919472
2635,7.194992056
2636,7.186135186
2637,7.195903404
2638,7.19666188
2639,7.199535234
2640,7.201612683
2641,7.196382355
2642,7.202666663
2643,7.195575475
2644,7.201780246
2645,7.218117426
2646,7.208214911
2647,7.190527798
2648,7.208645214
2649,7.193845594
2650,7.176988396
2651,7.174878706
2652,7.218903123
2653,7.203881464
2654,7.205315996
2655,7.182190223
2656,7.207695157
2657,7.196345664
2658,7.212134322
2659,7.21655784
2660,7.215939796
2661,7.203028875
2662,7.200634376
2663,7.186801425
2664,7.18170649
2665,7.192809807
2666,7.188338375
2667,7.198185841
2668,7.200993496
2669,7.187627149
2670,7.195506146
2671,7.20470241
2672,7.198353506
2673,7.193360187
2674,7.186574071
2675,7.199368266
2676,7.193805023
2677,7.186171056
2678,7.198300338
2679,7.198947406
2680,7.214798858
2681,7.20533135
2682,7.20313411
2683,7.203754155
2684,7.197450909
2685,7.201528421
2686,7.185671312
2687,7.188080418
2688,7.197176113
2689,7.198421116
2690,7.192388217
2691,7.188874536
2692,7.209299022
2693,7.205866869
2694,7.204464512
2695,7.202149276
2696,7.18520866
2697,7.193721665
2698,7.205120535
2699,7.205708229
2700,7.201657795
2701,7.192895792
2702,7.187699513
2703,7.181673985
2704,7.208728436
2705,7.185588424
2706,7.201789838
2707,7.182799165
2708,7.202105741
2709,7.190560943
2710,7.201112592
2711,7.198868831
2712,7.209976285
2713,7.20571962
2714,7.218820217
2715,7.202546347
2716,7.202783042
2717,7.187344711
2718,7.196836934
2719,7.222305997
2720,7.212062783
2721,7.205679714
2722,7.209811107
2723,7.200700976
2724,7.189754726
2725,7.206041613
2726,7.197639182
2727,7.196202494
2728,7.205138656
2729,7.209294823
2730,7.200117059
2731,7.213944274
2732,7.188121748
2733,7.194708313
2734,7.187501983
2735,7.199739095
2736,7.202828307
2737,7.207767902
2738,7.188358202
2739,7.187756752
2740,7.197044923
2741,7.204534748
2742,7.18003523
2743,7.204114435
2744,7.215467101
2745,7.216290337
2746,7.209877254
2747,7.201862242
2748,7.181376399
2749,7.197092475
2750,7.202308782
2751,7.184394669
2752,7.17746842
2753,7.20801447
2754,7.211827732
2755,7.223387024
2756,7.20768735
2757,7.201187575
2758,7.193018416
2759,7.179342166
2760,7.19662436
2761,7.194586985
2762,7.205204552
2763,7.181329911
2764,7.195456605
2765,7.197647579
2766,7.20707087
2767,7.190807235
2768,7.199365231
2769,7.195122548
2770,7.196255903
2771,7.202300507
2772,7.201246182
2773,7.211991905
2774,7.197457292
2775,7.213489433
2776,7.190111177
2777,7.218322589
2778,7.219562135
2779,7.188397454
2780,7.207726033
2781,7.216454895
2782,7.203081726
2783,7.203734901
2784,7.182787474
2785,7.209832249
2786,7.200087546
2787,7.182038901
2788,7.213047537
2789,7.195477768
2790,7.21728812
2791,7.192561641
2792,7.191827221
2793,7.188391223
2794,7.19142314
2795,7.206739122
2796,7.21916669
2797,7.205611013
2798,7.204137925
2799,7.202568286
2800,7.196021832
2801,7.194635743
2802,7.19290896
2803,7.214764542
2804,7.218349966
2805,7.18283643
2806,7.221560751
2807,7.181549503
2808,7.190442459
2809,7.188939734
2810,7.192583014
2811,7.199842945
2812,7.192304417
2813,7.197455841
2814,7.197130192
2815,7.191503668
2816,7.198574914
2817,7.196875425
2818,7.200953725
2819,7.200972632
2820,7.209119711
2821,7.184300149
2822,7.213407381
2823,7.188814675
2824,7.204966808
2825,7.194000566
2826,7.20771826
2827,7.205168285
2828,7.195673293
2829,7.204203457
2830,7.185603361
2831,7.209175026
2832,7.187939722
2833,7.185114405
2834,7.182650283
2835,7.181698331
2836,7.190969948
2837,7.200601167
2838,7.20852189
2839,7.191621634
2840,7.178124599
2841,7.203565629
2842,7.203252779
2843,7.1979044
2844,7.198892528
2845,7.206101658
2846,7.174117765
2847,7.196359855
2848,7.192531268
2849,7.190100907
2850,7.202187604
2851,7.223334163
2852,7.194154551
2853,7.214320817
2854,7.204600393
2855,7.203917152
2856,7.189504435
2857,7.189329043
2858,7.213403349
2859,7.200685685
2860,7.203973273
2861,7.193391499
2862,7.193384792
2863,7.186773376
2864,7.199686253
2865,7.180402001
2866,7.192910965
2867,7.196076047
2868,7.191102732
2869,7.197521916
2870,7.198293039
2871,7.203215736
2872,7.193737236
2873,7.199072319
2874,7.210236798
2875,7.190157335
2876,7.204858159
2877,7.19078709
2878,7.200773677
2879,7.19642381
2880,7.215425258
2881,7.203754568
2882,7.228730095
2883,7.202238164
2884,7.191665775
2885,7.20099874
2886,7.221860737
2887,7.200566136
2888,7.205493815
2889,7.186947671
2890,7.220778899
2891,7.192701622
2892,7.210990559
2893,7.173529221
2894,7.209005181
2895,7.198591447
2896,7.203470559
2897,7.197729595
2898,7.210030327
2899,7.193912027
2900,7.207256767
2901,7.198597772
2902,7.212042853
2903,7.20001571
2904,7.1861456
2905,7.203126719
2906,7.219975829
2907,7.181672006
2908,7.208656074
2909,7.196656205
2910,7.186528838
2911,7.211006677
2912,7.196073068
2913,7.208121649
2914,7.200628622
2915,7.189448147
2916,7.198400851
2917,7.200248722
2918,7.200026112
2919,7.19021819
2920,7.197292608
2921,7.192757913
2922,7.208456846
2923,7.212530866
2924,7.194165918
2925,7.187630884
2926,7.201795687
2927,7.210157263
2928,7.207608344
2929,7.211364364
2930,7.199409026
2931,7.208545705
2932,7.198512135
2933,7.193863876
2934,7.200553019
2935,7.219038744
2936,7.184569589
2937,7.209681257
2938,7.19768576
2939,7.198493038
2940,7.179809781
2941,7.201807509
2942,7.19523745
2943,7.196738914
2944,7.214103091
2945,7.198018213
2946,7.196566621
2947,7.190636427
2948,7.204587353
2949,7.203826152
2950,7.205034884
2951,7.17640432
2952,7.186218707
2953,7.19472728
2954,7.202644344
2955,7.203702428
2956,7.194483055
2957,7.204295383
2958,7.196934907
2959,7.198829607
2960,7.202215312
2961,7.186796691
2962,7.192292138
2963,7.19253454
2964,7.193014158
2965,7.203174827
2966,7.208905827
2967,7.197437515
2968,7.210327543
2969,7.185535325
2970,7.205005038
2971,7.209837839
2972,7.178696303
2973,7.21178656
2974,7.202369254
2975,7.195942431
2976,7.216253524
2977,7.193032309
2978,7.212885292
2979,7.187701014
2980,7.208705772
2981,7.21253215
2982,7.198500873
2983,7.195246568
2984,7.1834295
2985,7.214908198
2986,7.206413153
2987,7.214015217
2988,7.19418439
2989,7.187864721
2990,7.206670293
2991,7.196801942
2992,7.201087639
2993,7.203158217
2994,7.185337669
2995,7.204364299
2996,7.187767305
2997,7.200679463
2998,7.204009329
2999,7.201013722
3000,7.195480079
3001,7.215745578
3002,7.185285149
3003,7.181639922
3004,7.221245263
3005,7.184392968
3006,7.19050802
3007,7.183682513
3008,7.18627338
3009,7.19530269
3010,7.204213135
3011,7.177902128
3012,7.199800327
3013,7.201257074
3014,7.187014019
3015,7.184758407
3016,7.208587954
3017,7.207323315
3018,7.192855471
3019,7.210786383
3020,7.209542879
3021,7.194576699
3022,7.205146822
3023,7.185609807
3024,7.192911902
3025,7.203788431
3026,7.208284684
3027,7.184201822
3028,7.193776277
3029,7.201061857
3030,7.197805532
3031,7.193532179
3032,7.196706925
3033,7.191075064
3034,7.200100472
3035,7.201574348
3036,7.212669831
3037,7.197650766
3038,7.204078954
3039,7.206750741
3040,7.198661785
3041,7.20956863
3042,7.211728434
3043,7.200008159
3044,7.188891654
3045,7.202920753
3046,7.202711055
3047,7.19938535
3048,7.194208156
3049,7.202113234
3050,7.212613205
3051,7.202665496
3052,7.207143756
3053,7.210717759
3054,7.193317076
3055,7.201842111
3056,7.203616556
3057,7.205752751
3058,7.192072961
3059,7.190018579
3060,7.194586866
3061,7.211061346
3062,7.191161443
3063,7.194826722
3064,7.184178505
3065,7.197010291
3066,7.178048015
3067,7.206830063
3068,7.209922124
3069,7.199477567
3070,7.189035887
3071,7.19199784
3072,7.196015015
3073,7.185703578
3074,7.207658483
3075,7.215830033
3076,7.220137599
3077,7.199392947
3078,7.195912477
3079,7.204816872
3080,7.205576715
3081,7.199479565
3082,7.181155642
3083,7.203263639
3084,7.192187209
3085,7.205488064
3086,7.208507421
3087,7.212183145
3088,7.194606953
3089,7.194782631
3090,7.213980967
3091,7.177800067
3092,7.201275767
3093,7.186572651
3094,7.189873945
3095,7.209412329
3096,7.201794211
3097,7.189795474
3098,7.202748966
3099,7.202150289
3100,7.178108982
3101,7.193012866
3102,7.215379038
3103,7.199709284
3104,7.198416893
3105,7.206128531
3106,7.210629001
3107,7.206370158
3108,7.182634371
3109,7.192037351
3110,7.198357224
3111,7.176458683
3112,7.194583923
3113,7.182131384
3114,7.19716371
3115,7.180985872
3116,7.198664266
3117,7.209164524
3118,7.180219425
3119,7.205562219
3120,7.204654365
3121,7.203520316
3122,7.201726614
3123,7.213038793
3124,7.17498932
3125,7.200852996
3126,7.218291062
3127,7.206065474
3128,7.180059572
3129,7.181131544
3130,7.199808049
3131,7.195823078
3132,7.183957868
3133,7.19195172
3134,7.189789776
3135,7.199538576
3136,7.194593814
3137,7.185109207
3138,7.204522066
3139,7.191693375
3140,7.20872088
3141,7.213848028
3142,7.226219599
3143,7.200627788
3144,7.196095905
3145,7.20352345
3146,7.216301341
3147,7.195068368
3148,7.219772
3149,7.210964982
3150,7.193808356
3151,7.19254653
3152,7.199963814
3153,7.206578532
3154,7.190799988
3155,7.19187353
3156,7.216686767
3157,7.202590684
3158,7.196305606
3159,7.197235806
3160,7.194122102
3161,7.203949382
3162,7.201184516
3163,7.203245603
3164,7.202179796
3165,7.207844749
3166,7.196619523
3167,7.199412317
3168,7.191604534
3169,7.210325957
3170,7.184286704
3171,7.202786845
3172,7.202258736
3173,7.198655212
3174,7.195073765
3175,7.188659437
3176,7.204637654
3177,7.193924433
3178,7.203712522
3179,7.19587734
3180,7.187421934
3181,7.193537166
3182,7.207973009
3183,7.193273656
3184,7.200302027
3185,7.18684002
3186,7.195116685
3187,7.2130906
3188,7.21039957
3189,7.190456185
3190,7.201027347
3191,7.197651551
3192,7.194759698
3193,7.203059328
3194,7.212404183
3195,7.175598726
3196,7.190345859
3197,7.190864982
3198,7.191216599
3199,7.190521676
3200,7.214611382
3201,7.188649753
3202,7.215915431
3203,7.192143079
3204,7.187785503
3205,7.190986598
3206,7.200754105
3207,7.211831367
3208,7.198488964
3209,7.198370743
3210,7.207210322
3211,7.193898664
3212,7.193222737
3213,7.205354049
3214,7.209817478
3215,7.216663558
3216,7.21625022
3217,7.189647802
3218,7.189762817
3219,7.191289609
3220,7.195372847
3221,7.192329106
3222,7.190788884
3223,7.210134584
3224,7.201860461
3225,7.211715195
3226,7.208458469
3227,7.194090803
3228,7.190145785
3229,7.185538715
3230,7.218748519
3231,7.192148344
3232,7.201428439
3233,7.186339602
3234,7.208865898
3235,7.195355043
3236,7.203481657
3237,7.210628044
3238,7.199771462
3239,7.198355809
3240,7.202429984
3241,7.203153196
3242,7.212990651
3243,7.184999164
3244,7.208111518
3245,7.214947604
3246,7.199345775
3247,7.189639958
3248,7.189211493
3249,7.200054699
3250,7.195336743
3251,7.209314408
3252,7.217945989
3253,7.179102017
3254,7.196565461
3255,7.194913874
3256,7.207520975
3257,7.202463679
3258,7.192253412
3259,7.206970013
3260,7.197525389
3261,7.196607815
3262,7.196283775
3263,7.198104888
3264,7.184928228
3265,7.179141177
3266,7.185975851
3267,7.197732553
3268,7.198354731
3269,7.195631836
3270,7.200417252
3271,7.210847159
3272,7.200313531
3273,7.19524153
3274,7.191511251
3275,7.1857953
3276,7.199809449
3277,7.202869943
3278,7.200616147
3279,7.212339051
3280,7.201045958
3281,7.19179769
3282,7.213195003
3283,7.207866445
3284,7.200425106
3285,7.186510984
3286,7.190474087
3287,7.19031429
3288,7.207839568
3289,7.195251468
3290,7.193876701
3291,7.18777584
3292,7.204897327
3293,7.216541356
3294,7.199405579
3295,7.190944178
3296,7.206899875
3297,7.209285783
3298,7.207330155
3299,7.201859944
3300,7.197727975
3301,7.190664924
3302,7.202050621
3303,7.205832948
3304,7.197772391
3305,7.213930075
3306,7.197252503
3307,7.174229437
3308,7.193051651
3309,7.19681044
3310,7.194097808
3311,7.207314617
3312,7.205104117
3313,7.202506408
3314,7.208977916
3315,7.18950802
3316,7.214084456
3317,7.187572335
3318,7.194169563
3319,7.17503926
3320,7.208818075
3321,7.198046288
3322,7.199533976
3323,7.194532333
3324,7.202188745
3325,7.191719581
3326,7.201218488
3327,7.209981767
3328,7.212498209
3329,7.207913416
3330,7.187537437
3331,7.198368629
3332,7.197103257
3333,7.203613606
3334,7.199424282
3335,7.18184001
3336,7.202403984
3337,7.195326049
3338,7.206520027
3339,7.201301525
3340,7.199014978
3341,7.19471801
3342,7.199000204
3343,7.19823227
3344,7.192947352
3345,7.212078616
3346,7.210982098
3347,7.201141846
3348,7.203815024
3349,7.191387149
3350,7.199973323
3351,7.203585417
3352,7.195746616
3353,7.185915288
3354,7.211582991
3355,7.190876678
3356,7.200405733
3357,7.20475304
3358,7.203037893
3359,7.18804428
3360,7.19173317
3361,7.20378141
3362,7.190751239
3363,7.204627722
3364,7.215586737
3365,7.171410706
3366,7.193045478
3367,7.213171072
3368,7.18816863
3369,7.179857482
3370,7.198755021
3371,7.192972772
3372,7.198232521
3373,7.204383061
3374,7.201162143
3375,7.203850094
3376,7.212856012
3377,7.203715874
3378,7.204058099
3379,7.203013045
3380,7.205876127
3381,7.201567664
3382,7.199024484
3383,7.204615701
3384,7.203705217
3385,7.198207901
3386,7.215570753
3387,7.209690954
3388,7.199023495
3389,7.195409375
3390,7.218384438
3391,7.209568738
3392,7.203414626
3393,7.212004356
3394,7.175494039
3395,7.20191848
3396,7.196074694
3397,7.209030493
3398,7.205176662
3399,7.205319705
3400,7.187285086
3401,7.194105185
3402,7.196612992
3403,7.216668086
3404,7.218739889
3405,7.208215709
3406,7.186326241
3407,7.206056352
3408,7.195994295
3409,7.20303974
3410,7.18866473
3411,7.20060918
3412,7.191902813
3413,7.186562654
3414,7.196439041
3415,7.193415471
3416,7.199998459
3417,7.195554961
3418,7.213779792
3419,7.190665998
3420,7.202931473
3421,7.211380998
3422,7.184827489
3423,7.202189911
3424,7.202429376
3425,7.202191371
3426,7.195448788
3427,7.200407207
3428,7.214429289
3429,7.195043092
3430,7.205903664
3431,7.204118621
3432,7.195877184
3433,7.203771622
3434,7.194267435
3435,7.21087313
3436,7.22117494
3437,7.209379314
3438,7.191923915
3439,7.197745904
3440,7.199375438
3441,7.202036194
3442,7.192518735
3443,7.195253615
3444,7.199624233
3445,7.203868331
3446,7.207240735
3447,7.208721537
3448,7.197693838
3449,7.214262543
3450,7.210999514
3451,7.204831763
3452,7.207943849
3453,7.183256762
3454,7.207356403
3455,7.197633659
3456,7.197920901
3457,7.203269857
3458,7.199826475
3459,7.205120299
3460,7.194686299
3461,7.193305941
3462,7.191197448
3463,7.189182087
3464,7.208447603
3465,7.193289226
3466,7.186663654
3467,7.20301767
3468,7.207564992
3469,7.184997271
3470,7.196664704
3471,7.191636441
3472,7.192139843
3473,7.200785552
3474,7.198950566
3475,7.201628292
3476,7.198439828
3477,7.18492629
3478,7.207392849
3479,7.20322579
3480,7.190496403
3481,7.207271556
3482,7.207011139
3483,7.190886725
3484,7.184674877
3485,7.193955731
3486,7.187790442
3487,7.197705051
3488,7.204953689
3489,7.188397994
3490,7.196955173
3491,7.2013243
3492,7.202090809
3493,7.18984627
3494,7.210279236
3495,7.210942585
3496,7.197380859
3497,7.196447403
3498,7.209388845
3499,7.212730892
3500,7.199731621
3501,7.196132727
3502,7.208251499
3503,7.178134393
3504,7.198523101
3505,7.181227226
3506,7.20064288
3507,7.210550411
3508,7.215278926
3509,7.203632141
3510,7.202648143
3511,7.206135649
3512,7.198434371
3513,7.194812337
3514,7.20949912
3515,7.210101083
3516,7.209333898
3517,7.201355079
3518,7.199483775
3519,7.198679854
3520,7.195601559
3521,7.210003278
3522,7.186452271
3523,7.204763233
3524,7.202029891
3525,7.197362308
3526,7.20434005
3527,7.185833664
3528,7.206623034
3529,7.195457726
3530,7.200029928
3531,7.208210381
3532,7.192885613
3533,7.209503394
3534,7.200228391
3535,7.203988034
3536,7.205586847
3537,7.191696292
3538,7.189671986
3539,7.207338031
3540,7.192114251
3541,7.2037424
3542,7.193912536
3543,7.192487199
3544,7.215512688
3545,7.197609617
3546,7.192804446
3547,7.177069204
3548,7.194452143
3549,7.180516901
3550,7.214544862
3551,7.194933577
3552,7.208582841
3553,7.214766775
3554,7.208042989
3555,7.216359103
3556,7.204124983
3557,7.204582402
3558,7.21978461
3559,7.20164525
3560,7.203755088
3561,7.203253645
3562,7.206953532
3563,7.196245497
3564,7.195220411
3565,7.217455128
3566,7.197431777
3567,7.225178691
3568,7.207368923
3569,7.20579355
3570,7.197553303
3571,7.21619669
3572,7.191919874
3573,7.197330665
3574,7.200347101
3575,7.203883494
3576,7.203920083
3577,7.193418437
3578,7.203827189
3579,7.191205343
3580,7.202170546
3581,7.193286765
3582,7.199732844
3583,7.196408356
3584,7.198368298
3585,7.195310227
3586,7.187930749
3587,7.193521692
3588,7.202548794
3589,7.178602088
3590,7.195795337
3591,7.222657175
3592,7.184263072
3593,7.191867475
3594,7.20417406
3595,7.182842475
3596,7.185868811
3597,7.184494696
3598,7.174121553
3599,7.198318521
3600,7.211127751
3601,7.20781635
3602,7.218493698
3603,7.202871353
3604,7.226843759
3605,7.206350496
3606,7.21474012
3607,7.192276239
3608,7.215595645
3609,7.213963835
3610,7.193057252
3611,7.19107139
3612,7.18101337
3613,7.182704352
3614,7.203271171
3615,7.21419445
3616,7.201589573
3617,7.210228826
3618,7.20404934
3619,7.204960705
3620,7.214549702
3621,7.191593609
3622,7.184198943
3623,7.208289724
3624,7.198157978
3625,7.204039571
3626,7.190388455
3627,7.190145658
3628,7.216197928
3629,7.192062617
3630,7.186485231
3631,7.197009495
3632,7.191245966
3633,7.194396644
3634,7.205482019
3635,7.197837619
3636,7.21474256
3637,7.207943168
3638,7.19607122
3639,7.192649681
3640,7.208606417
3641,7.207519488
3642,7.200971616
3643,7.191272823
3644,7.193441212
3645,7.193854293
3646,7.197044139
3647,7.196158994
3648,7.221229995
3649,7.190795644
3650,7.202914889
3651,7.198907379
3652,7.186130844
3653,7.212901137
3654,7.201941967
3655,7.196487752
3656,7.206322523
3657,7.198811672
3658,7.198410079
3659,7.196445498
3660,7.194420455
3661,7.204370129
3662,7.206227754
3663,7.189339507
3664,7.202079637
3665,7.201649728
3666,7.216478751
3667,7.209626019
3668,7.198649672
3669,7.210888128
3670,7.194981296
3671,7.206974035
3672,7.204911349
3673,7.219988592
3674,7.218724135
3675,7.202691668
3676,7.199201003
3677,7.193808836
3678,7.193106662
3679,7.217955419
3680,7.174794341
3681,7.205836494
3682,7.208211711
3683,7.189147494
3684,7.201257389
3685,7.187604554
3686,7.206604762
3687,7.209982637
3688,7.212075132
3689,7.205514427
3690,7.224806552
3691,7.191591867
3692,7.198231329
3693,7.208495954
3694,7.190115238
3695,7.204083157
3696,7.200862802
3697,7.214390472
3698,7.195461007
3699,7.205587887
3700,7.199884724
3701,7.202375966
3702,7.20743736
3703,7.198809225
3704,7.193943846
3705,7.194063123
3706,7.193697863
3707,7.198123492
3708,7.206457536
3709,7.193318165
3710,7.194012353
3711,7.216259531
3712,7.19215932
3713,7.204131372
3714,7.198157207
3715,7.207569217
3716,7.214224972
3717,7.18290158
3718,7.195233206
3719,7.203787362
3720,7.194509921
3721,7.200879498
3722,7.198229353
3723,7.194676328
3724,7.195302351
3725,7.200788309
3726,7.20125833
3727,7.205080857
3728,7.205982324
3729,7.204934663
3730,7.20471514
3731,7.200181732
3732,7.21471436
3733,7.189417486
3734,7.194903605
3735,7.190230628
3736,7.216099145
3737,7.206910526
3738,7.20870537
3739,7.206582248
3740,7.205494289
3741,7.209049771
3742,7.192496556
3743,7.186939627
3744,7.217975995
3745,7.211741542
3746,7.2053653
3747,7.197988583
3748,7.205430409
3749,7.209581567
3750,7.188860823
3751,7.211553553
3752,7.205523689
3753,7.199209641
3754,7.191089169
3755,7.199428222
3756,7.190518499
3757,7.178736398
3758,7.193808885
3759,7.204695539
3760,7.205944821
3761,7.201436341
3762,7.19522272
3763,7.196245169
3764,7.207891608
3765,7.18402138
3766,7.201331353
3767,7.185097458
3768,7.193330401
3769,7.210016558
3770,7.20056949
3771,7.20244591
3772,7.205572459
3773,7.202132636
3774,7.196676103
3775,7.199513244
3776,7.207136334
3777,7.206180223
3778,7.187608101
3779,7.170251653
3780,7.201191312
3781,7.190854947
3782,7.207018037
3783,7.196859413
3784,7.178213065
3785,7.208446662
3786,7.193808604
3787,7.207531727
3788,7.191410049
3789,7.210661904
3790,7.207388216
3791,7.192114879
3792,7.223356222
3793,7.203321516
3794,7.189019021
3795,7.206773471
3796,7.196100219
3797,7.200421616
3798,7.192132645
3799,7.219918408
3800,7.211188622
3801,7.18793006
3802,7.188259041
3803,7.201831644
3804,7.204707891
3805,7.181509696
3806,7.188048756
3807,7.202293517
3808,7.197666297
3809,7.202155195
3810,7.204118985
3811,7.204069552
3812,7.196169103
3813,7.188741676
3814,7.192360498
3815,7.182909259
3816,7.189673017
3817,7.202542339
3818,7.196897372
3819,7.199033493
3820,7.186463466
3821,7.199892084
3822,7.191704445
3823,7.199032333
3824,7.207271027
3825,7.183931156
3826,7.213396394
3827,7.18426686
3828,7.179829308
3829,7.19448147
3830,7.208355605
3831,7.208862402
3832,7.192835875
3833,7.191978398
3834,7.21258225
3835,7.201529285
3836,7.201060738
3837,7.185243493
3838,7.1992633
3839,7.216941904
3840,7.224709775
3841,7.199595498
3842,7.203871442
3843,7.196472793
3844,7.200961113
3845,7.194129016
3846,7.211982212
3847,7.188905457
3848,7.205065404
3849,7.209970936
3850,7.189031256
3851,7.205136674
3852,7.205468872
3853,7.196602445
3854,7.199607384
3855,7.197225576
3856,7.200082513
3857,7.206954073
3858,7.20439069
3859,7.203190661
3860,7.212653801
3861,7.205925619
3862,7.187384766
3863,7.197617584
3864,7.191737586
3865,7.193379507
3866,7.200598129
3867,7.203238343
3868,7.187389063
3869,7.200931039
3870,7.195678791
3871,7.196449642
3872,7.202065298
3873,7.201425497
3874,7.199248047
3875,7.193528842
3876,7.207826897
3877,7.188717403
3878,7.2086941
3879,7.207434928
3880,7.20511201
3881,7.183957988
3882,7.20131473
3883,7.196868363
3884,7.195890919
3885,7.191896511
3886,7.210285831
3887,7.209853673
3888,7.22120267
3889,7.207302896
3890,7.186558055
3891,7.186028864
3892,7.223699789
3893,7.195418147
3894,7.206903826
3895,7.18903105
3896,7.191057576
3897,7.185735601
3898,7.198762367
3899,7.198541574
3900,7.214874557
3901,7.190186552
3902,7.204592074
3903,7.214264647
3904,7.211341988
3905,7.20300011
3906,7.194851489
3907,7.19445644
3908,7.182359391
3909,7.19868164
3910,7.193226444
3911,7.203747613
3912,7.215101328
3913,7.180766651
3914,7.195684003
3915,7.212108835
3916,7.208829528
3917,7.199153366
3918,7.197063426
3919,7.207046359
3920,7.18739089
3921,7.216654429
3922,7.200321282
3923,7.189969543
3924,7.200106333
3925,7.196984564
3926,7.203570601
3927,7.180928315
3928,7.205605544
3929,7.194005846
3930,7.199913596
3931,7.168995627
3932,7.199211
3933,7.223102415
3934,7.200701857
3935,7.195372591
3936,7.198347992
3937,7.195084488
3938,7.206030956
3939,7.192587574
3940,7.212822541
3941,7.201120953
3942,7.206125335
3943,7.198541265
3944,7.21428875
3945,7.20452261
3946,7.186133394
3947,7.210170463
3948,7.183160279
3949,7.198339171
3950,7.20965662
3951,7.194232859
3952,7.190806903
3953,7.186194426
3954,7.205531382
3955,7.190617477
3956,7.213135796
3957,7.219487814
3958,7.189877746
3959,7.179798845
3960,7.210474085
3961,7.188765448
3962,7.205021438
3963,7.189010689
3964,7.195776442
3965,7.207312144
3966,7.195590967
3967,7.215185983
3968,7.191994766
3969,7.210590384
3970,7.195859374
3971,7.202411517
3972,7.181403536
3973,7.202616252
3974,7.20208846
3975,7.181485999
3976,7.192249067
3977,7.198016457
3978,7.187835456
3979,7.196610822
3980,7.212398683
3981,7.191740362
3982,7.196427125
3983,7.201453297
3984,7.186678798
3985,7.21512579
3986,7.196972923
3987,7.206501785
3988,7.193957441
3989,7.197753379
3990,7.209353274
3991,7.199322827
3992,7.197886869
3993,7.219933629
3994,7.205429589
3995,7.202961082
3996,7.196984328
3997,7.191511201
3998,7.187975162
3999,7.207920351
4000,7.190394325
