Raman Shift,Intensity
214.3785040343428,-13.316
224.78145843945092,79.895
235.01908334044856,-260.989
245.41130867789616,-69.242
255.63837774522108,-159.789
265.8602158678186,221.042
276.23642015571386,199.737
286.44772684514464,-1608.546
296.8132434111685,-218.379
307.0140349346475,202.4
317.209615658554,-55.926
327.399989574551,37.284
337.7442627077253,407.463
347.9241537664129,125.168
358.09885002992814,-7.989
368.2683554736213,229.031
378.5914504125685,58.589
388.7505051753542,295.61
398.90438108190574,263.652
409.0530820913264,-2.663
419.196612158652,218.379
429.3349752349313,306.263
439.626465572117,500.673
449.75442592354375,412.789
459.8772311743669,-255.663
469.994885259468,-271.642
480.1073921097559,-956.073
490.2147556521086,-122.505
500.31697980943136,266.315
510.41406850063504,-604.536
520.5060256406359,-58.589
530.5928551403995,-237.021
540.6745609068894,-154.463
550.7511468431039,-159.789
560.8226168481124,162.452
570.888974816975,101.2
580.9502246408374,-198.264
590.8492821665859,-610.047
600.9004070215597,-1013.105
610.9464353206786,-1286.391
620.9873709393651,-1308.864
631.0232177491416,-959.473
641.0539796175653,-117.179
650.9230482019848,758.999
660.9437310766662,71.905
670.9593405290361,372.842
680.9698804110958,271.642
690.8190579752118,135.821
700.8195493193562,77.231
710.8149825658329,-370.179
720.805361551138,-178.431
730.6347081696804,-580.568
740.6150689503047,-628.505
750.4345613154874,-415.452
760.404918953056,-143.81
770.3702413346182,-23.968
780.174941402227,292.947
790.1302832356378,-300.936
799.925166080895,210.389
809.8705423523497,-31.958
819.6556227125038,95.874
829.5910483782136,314.252
839.3663409610526,-34.621
849.2918309472952,-125.168
859.0573504311833,255.663
868.972919634427,-77.231
878.7286806683987,82.558
888.6343439553166,151.8
898.3803611591502,-63.916
908.12155022542,364.852
918.0124213310264,79.895
927.743888384779,-85.221
937.4705381077074,-15.979
947.3466501411676,95.874
957.0635996041163,474.042
966.7757425107702,-101.2
976.6371284824854,109.189
986.3395928168538,138.484
996.0372613373548,-253.0
1005.7301375988682,66.579
1015.5719657306544,69.242
1025.255192198514,-47.937
1034.9336371072422,-21.305
1044.6073039976543,114.516
1054.2761964070742,181.095
1063.9403178693246,-10.653
1073.5996719147442,90.547
1083.4074711432768,157.126
1093.057225399156,-234.358
1102.70222286418,-215.716
1112.3424670547538,-103.863
1121.9779614837898,74.568
1131.6087096607444,-197.073
1141.2347150916105,306.263
1150.855981278939,268.979
1160.4725117218331,82.558
1170.0843099159465,-74.568
1179.6913793534914,793.62
1189.293723523253,10.653
1198.739039559725,-391.484
1208.3320185130287,-466.052
1217.9202825891407,79.895
1227.5038352631818,-2.663
1237.0826800068826,-298.273
1246.6568202885535,-386.157
1256.226259573108,-463.389
1265.639216696829,-476.705
1275.1993388504195,154.463
1284.7547703264208,-601.873
1294.3055145761757,151.8
1303.7000868433097,-247.673
1313.241541245312,-213.052
1322.778318700337,79.895
1332.310422646282,444.747
1341.686663866676,-263.652
1351.2095051416618,-50.6
1360.727683146746,609.862
1370.0902294598782,577.905
1379.5991650801443,-77.231
1388.9526223370776,135.821
1398.4523290278594,484.694
1407.7967104575073,66.579
1417.287201648047,532.631
1426.7730533080105,-98.537
1436.1038095471376,-375.505
1445.5804658554116,748.347
1454.9021792800197,71.905
1464.369653600741,-324.905
1473.6823373500883,111.853
1482.9905472474493,-375.505
1492.444310209452,98.537
1501.7435100404182,130.495
1511.1881242589734,-274.305
1520.4783270994303,-239.684
1529.764072276041,495.347
1539.1950247490097,175.768
1548.4717924494323,111.853
1557.7441121511074,164.601
1567.1614324998736,275.846
1576.4247941832873,407.622
1585.6837175051332,521.973
1594.9382056544855,580.932
1604.3374199708342,546.538
1613.5829759239496,380.831
1622.8241063047317,199.737
1632.0608142900164,410.126
1641.2931030535765,274.305
1650.6697762525291,-237.021
1659.8931649322622,-253.0
1669.1121439444323,39.947
1678.3267164506542,-559.263
1687.53688560953,-215.716
1696.7426545766284,-953.409
1705.9440265045123,181.095
1715.1410045427183,165.116
1724.3335918377925,-229.031
1733.5217915332687,5.326
1742.705606769683,26.632
1751.8850406845886,-77.231
1761.0600964125188,524.642
1770.230777085024,-849.546
1779.397085830693,-53.263
1788.55902577511,50.6
1797.7166000408906,-170.442
1806.8698117476447,306.263
1816.0186640120735,-247.673
1825.163159947857,-396.81
1834.1559155330324,-167.779
1843.29177827917,-213.052
1852.4232939699289,-380.831
1861.550465707216,-308.926
1870.673296589972,98.537
1879.644751645923,-63.916
1888.758979994156,13.316
1897.8688767172423,442.084
1906.974444902422,231.694
1915.9289277003045,122.505
1925.025917750907,394.147
1934.118588458099,26.632
1943.060390766601,-207.726
1952.144501554074,50.6
1961.2243021666216,-274.305
1970.153450902042,340.884
1979.224709758193,684.431
1988.1454604369865,492.684
1997.208189584475,511.326
2006.120554048888,-460.726
2015.1747655127983,-87.884
2024.0787555828572,-183.758
2033.12446136566,-71.905
2042.0200888391555,-111.853
2051.057300920809,-5.326
2059.9445775734057,-135.821
2068.9733079113576,39.947
2077.852245496608,274.305
2086.8725060258803,93.21
2095.743116275291,292.947
2104.6096010526526,133.158
2113.6172135316083,197.073
2122.4753884816528,-231.694
2131.329446630596,7.989
2140.324437642892,615.189
2149.170203423979,85.221
2158.011861050589,479.368
2166.994257105456,-138.484
2175.8276397748195,-458.063
2184.656922912145,-87.884
2193.48210937062,58.589
2202.303202000803,87.884
2211.2647105948345,111.853
2220.077557114586,386.157
2228.886318388424,-141.147
2237.6909972563008,284.958
2246.4915965555265,90.547
2255.2881191208,476.705
2264.0805677841927,308.926
2272.8689453751285,-82.558
2281.6532547204406,-189.084
2290.5774032157133,-55.926
2299.353517963282,101.2
2308.125572976198,-263.652
2316.893571070781,-484.694
2325.6575150607823,324.905
2334.273835606975,-535.294
2343.029746164546,274.305
2351.781610997117,-399.473
2360.5294329081007,-71.905
2369.273214698267,-167.779
2378.0129591658333,194.41
2386.7486691064114,-284.958
2395.48034731306,29.295
2404.2079965762314,-103.863
2412.788641914361,-87.884
2421.5083075861257,335.558
2430.2239526247795,23.968
2438.9355798105607,-7.989
2447.64319192111,39.947
2456.204142101211,-202.4
2464.9037980916983,42.61
2473.5994472792227,151.8
2482.148638712344,-466.052
2490.836348166158,-101.2
2499.5200590665554,-119.842
2508.0575159626023,-10.653
2516.7333034706826,367.515
2525.405100652257,-157.126
2533.930847154741,-26.632
2542.5947372405863,79.895
2551.112711590584,23.968
2559.768705390503,-2.663
2568.2789182109263,186.421
2576.927026515033,117.179
2585.5711635713087,-34.621
2594.069721988235,364.852
2602.5644435408976,402.136
2611.196813145194,-31.958
2619.683804921093,-239.684
2628.3083212822166,53.263
2636.7875938271245,370.179
2645.404267656864,-34.621
2653.875831497382,-359.526
2662.343576738021,260.989
2670.948539131641,575.241
2679.408591378582,146.474
2687.8648328054915,250.337
2696.4581076233444,175.768
2704.906671724595,66.579
2713.351432764532,37.284
2721.792393310454,215.716
2730.370143142005,-300.936
2738.8034471581705,-50.6
2747.232958411034,194.41
2755.658679458633,-412.789
2764.220946338093,-487.357
2772.639031576786,23.968
2781.053334313052,-141.147
2789.463857095703,-665.789
2797.8706024712737,189.084
2806.2735729839987,15.979
2814.672771175843,103.863
2823.0681995864725,141.147
2831.459860753297,154.463
2839.847757211428,-95.874
2848.231891493713,-157.126
2856.612266130724,-260.989
2864.988883650767,82.558
2873.3617465798743,31.958
2881.7308574418275,-186.421
2890.096218758139,-133.158
2898.457833048058,308.926
2906.815702828586,10.653
2915.169830614461,-199.737
2923.5202189181878,199.737
2931.8668702499926,274.305
2940.209787117892,-183.758
2948.41001618022,157.126
2956.7455337723804,311.589
2965.077324369493,127.831
2973.405390470638,-146.474
2981.7297345726547,-39.947
2989.9117125592966,-279.631
2998.2286820744484,186.421
3006.5419370261297,50.6
3014.8514799023105,183.758
3023.0189130185245,205.063
3031.3211009634906,197.073
3039.619584242202,45.274
3047.776149306213,146.474
3056.067292329164,-111.853
3064.2166442633534,-103.863
3072.500456765243,-463.389
3080.780576892153,657.799
3088.919096831967,-175.768
3097.1919010483834,-127.831
3105.3232317767324,-740.357
3113.588729774354,388.821
3121.712880813,-255.663
3129.9710822664056,-101.2
3138.0880631202745,346.21
3146.338977686973,-314.252
3154.448797844241,399.473
3162.692435164703,77.231
3170.7951040967964,-188.109
3178.894230970407,-237.274
3187.127000956163,-144.391
3195.218990740796,16.416
3203.3074454664093,171.019
3211.5293695924192,245.296
3219.610701328027,165.116
3227.688504985643,-101.2
3235.899604670318,-311.589
3243.9702993997853,234.358
3252.03747301393,77.231
3260.1011278165533,13.316
3268.297848330192,-181.095
3276.354412870096,42.61
3284.407465536773,-141.147
3292.4570086259846,-55.926
3300.5030444314834,215.716
3308.545575245,529.968
3316.720827896272,-226.368
3324.756296283769,268.979
3332.788266581294,263.652
3340.816741072602,458.063
3348.8417220394404,-314.252
3356.8632117615925,308.926
3364.8812125168406,135.821
3372.895726580995,0.0
3380.906756227865,-23.968
3388.91430372934,61.253
3396.918371355256,237.021
3404.9189613735507,-266.315
3412.9160760501472,316.915
3420.909717649003,647.147
3428.8998884321263,865.525
3436.886590659553,-708.399
3444.734546370892,308.926
3452.714376952972,607.199
3460.690745709508,-23.968
3468.663654892749,-63.916
3476.633106752961,141.147
3484.5991035384795,-154.463
3492.4267178764712,-474.042
3500.385869715596,-287.621
3508.341573175334,372.842
3516.293830496281,90.547
3524.1079469444667,-167.779
3532.0533770164475,119.842
3539.9953676218797,527.305
3547.7993978646555,202.4
3555.734574435446,-134.055
3563.666318194715,-283.211
3571.460281747888,-290.268
3579.385224652753,-200.434
3587.30674138396,-58.914
3595.090657713052,89.085
3603.00538673612,198.36
3610.782634691175,223.705
3618.6905847266535,234.358
3626.461172873067,434.094
3634.362352626544,-151.8
3642.1262895150494,308.926
3650.020707677235,229.031
3657.778001843908,-468.715
3665.665667090652,74.568
3673.416327056992,415.452
3681.163701429177,93.21
3689.041282322214,306.263
3696.782035212709,-39.947
3704.6528847781447,271.642
3712.3870246721344,10.653
3720.117889469839,271.642
3727.845481251112,-55.926
3735.702951367959,-10.653
3743.4239470074463,391.484
3751.141675895298,258.326
3758.989119491133,-527.305
3766.700264858686,29.295
3774.408149723422,-348.873
3782.1127761528696,452.736
3789.814146212797,-583.231
3797.644959575024,53.263
3805.339767031168,0.0
3813.03132434014,-202.4
3820.7196335607214,53.263
3828.404696749953,-114.516
3836.086515963114,513.989
3843.76509325378,-412.789
3851.4404306737633,125.168
3859.112530273167,540.62
3866.7813941003615,63.916
3874.4470242019815,-311.589
3882.109422622947,274.305
3889.7685914064414,-162.452
3897.4245325939337,-588.557
3905.0772482251705,-85.221
3912.7267403381848,2892.186
3920.373010969284,-71.905
3928.016062153074,162.452
3935.655895922435,-513.989
3943.292514308545,-268.979
3950.925919340858,556.599
3958.424585178429,-101.2
3966.051624900327,-537.957
3973.675457311714,154.463
3981.296084435249,817.589
3988.913508291902,149.137
3996.396478310664,-2.663
4004.007556831755,-87.884
4011.615438103967,-143.81
4019.220124141517,-852.21
4026.690583777876,1011.999
4034.288940385857,535.294
4041.8841077570687,-167.779
4049.3452186808136,-316.915
4056.934068499933,-340.884
4064.519735065173,-154.463
4071.971514814119,-263.652
4079.550875675057,-165.116
4086.996462302253,452.736
4094.5695253181984,181.095
4102.008926541021,82.558
4109.575699558212,-61.253
4117.008923081237,-77.231
4124.569413932906,-276.968
4131.996467447912,-143.81
4139.550683954272,-103.863
4146.971575140262,519.315
4154.519525108568,194.41
4161.93426163181,-260.989
4169.475952856366,-596.547
4228.011654085007,-141.147
4235.396210255021,-130.495
4242.907210725418,-354.2
4250.415076793586,545.947
4257.7904449892885,287.621
4265.292102093408,-122.505
4272.790630641473,-165.116
4280.156827999919,311.589
4287.649159161061,231.694
4295.138367597785,439.421
4302.4954112134365,508.663
4309.978433811593,165.116
4317.329402006981,13.316
4324.8062464273535,-279.631
4332.151146724958,0.0
4339.621820615692,-87.884
4346.960660525576,-18.642
4354.425171522191,-149.137
4361.757958542046,303.6
4369.216314267462,-308.926
4376.543055882612,412.789
4383.9952639471885,-93.21
4391.315967630617,-223.705
4398.762035632179,-660.462
4406.07670884455,-183.758
4413.516644368407,90.547
4420.825294558097,74.568
4428.130962180556,-394.147
4435.561739780205,159.789
4442.861395497304,-127.831
4450.1580741507205,55.926
4457.579710724684,133.158
4464.870388562711,15.979
4472.158094827057,617.852
4479.570607232323,122.505
4486.852323743988,410.126
4494.131074158497,-282.294
4501.534479210626,-343.547
4508.807250907994,-87.671
4516.077061971264,260.055
4523.3439142079005,626.379
4530.735219799091,938.05
4537.996107969229,1121.811
4545.254042757973,1104.41
4552.509025966887,812.592
4559.888261734326,173.105
4567.13729547953,-519.315
4574.383383072374,-167.779
4581.626526308552,13.316
4588.866726982291,-39.947
4596.103986886381,45.274
4603.338307812148,23.968
4610.69653172473,-226.368
4617.92492857972,245.01
4625.150391852971,-194.41
4632.372923329975,117.179
4639.592524794789,162.452
4646.809198030001,838.894
4654.022944816745,-45.274
4661.233766934747,242.347
4668.441666162253,101.2
4675.646644276094,34.621
4682.8487030516335,370.179
4690.047844262837,2516.681
4697.244069682201,3829.617
4704.437381080781,-274.305
4711.627780228235,119.842
4718.815268892759,527.305
4725.999848841122,321.773
4733.181521838655,321.773
4740.3602896492885,321.773
4747.536154035501,321.773
4754.583300303697,321.773
4761.753413983191,321.773
4768.9206294863325,321.773
4776.084948569973,321.773
4783.246372989488,321.773
4790.404904498872,321.773
4797.435032206777,321.773
4804.5878338284165,321.773
4811.73774776268,321.773
4818.884775757928,321.773
4826.028919561082,321.773
4833.044920461813,321.773
4840.183351639585,321.773
4847.3189038270575,321.773
4854.451578765569,321.773
4861.456318765864,321.773
4868.58329482688,321.773
4875.707398824052,321.773
4882.703723295803,321.773
4889.822138682386,321.773
4896.937687177771,321.773
4903.925611277555,321.773
4911.035481404608,321.773
4918.142489800703,321.773
4925.122028648751,321.773
4932.223368894192,321.773
4939.197342363797,321.773
4946.293021236786,321.773
4953.385846941688,321.773
4960.35146024984,-250.337
4967.43863475923,93.21
4974.398699333346,237.021
4981.480229398396,322.242
4988.43475186592,521.978
4995.510644227063,-47.937
5002.459631204903,210.389
5009.529892591847,663.126
5016.473350686378,61.253
5023.537987818112,29.295
5030.475923625207,114.516
5037.534943210041,308.926
5044.467363315067,577.905
5051.397052412052,10.653
5058.447683028528,-10.653
5065.371866252855,-319.579
5072.416896017057,29.295
5079.335579928018,271.642
5086.251540943114,77.231
5093.288206657562,-245.01
5100.198678149784,119.842
5107.106431592307,-117.179
5114.134748143202,69.242
5121.037021830118,330.231
5127.93658230202,234.358
5134.833431158368,-553.936
5141.85065500065,-492.684
5148.742037069234,607.199
5155.630712341699,-103.863
5162.516682412504,327.568
5169.522839786696,-343.547
5176.403355996677,394.147
5183.281171809234,26.632
5190.156288813778,300.936
5197.028708598496,633.831
5204.021081907653,37.284
5210.888063918697,-39.947
5217.752353495271,-29.295
5224.613952220541,364.852
5231.472861676462,-1837.577
5238.329083443728,399.473
5245.182619101804,-42.61
5252.033470228904,364.852
5258.881638402017,-114.516
5265.727125196914,-298.273
5272.569932188097,117.179
5279.532181775125,-442.084
5286.369586094326,476.705
5293.204315354014,-609.862
5300.036371123795,77.231
5306.865754971979,-215.716
5313.692468465706,-117.179
5320.516513170878,213.052
5327.216103720151,-223.705
5334.034863128356,146.474
5340.850958410447,90.547
5347.664391127459,362.189
5354.475162839211,69.242
5361.283275104273,-215.716
5368.088729480027,-93.21
5374.891527522632,258.326
5381.6916707870405,23.968
5388.489160826968,290.284
5395.162686039381,-340.884
5401.954921596684,300.936
5408.744508555763,138.484
5415.531448465517,-23.968
5422.31574287366,159.789
5428.976315601984,-45.274
5435.7553708175255,463.389
5442.531785139763,229.031
5449.305560111599,109.189
5456.076697274744,687.094
5462.724355191152,-253.0
5469.490268392445,436.757
5476.253548375513,-372.842
5482.893493883399,924.115
5489.651558992991,-87.884
5496.406995464167,402.136
5503.039241977291,58.589
5509.789472642318,266.315
5516.5370792381145,13.316
5523.161640139158,-13.316
5529.904049975114,338.221
5536.643840300443,910.799
5543.260728941095,146.474
5549.995331531944,-311.589
5556.607128017575,114.516
5563.336548861262,-199.737
5569.943259067753,588.557
5576.667504142417,215.716
5583.269133936614,553.936
5589.988209211173,-141.147
5596.58476445092,-404.8
5603.298675885118,58.589
5609.890162419251,202.4
5616.598915963696,-93.21
5623.185339632037,260.989
5629.888941228186,-735.031
5636.470307861637,106.526
5643.16876344182,751.01
5649.745078862296,-93.21
5656.438394349752,63.916
5663.009664370256,135.821
5669.578436568787,394.147
5676.264076103718,-335.558
5682.827811578958,290.284
5689.3890535265455,601.873
5696.067030305661,61.253
5702.623244186747,-253.0
5709.176968824671,189.084
5715.847296014435,-268.979
5722.39600122282,-1065.262
5728.942221462719,-1030.641
5735.4859581482815,-189.084
5742.146121627004,263.652
5748.684850350968,162.452
5755.221099782248,247.673
5761.754871330697,-61.253
5768.404894310675,553.936
5774.933669330552,479.368
5781.459970716278,247.673
5787.983799873429,-58.589
5794.505158206499,-197.073
5801.142549523138,367.515
5807.658925557145,279.631
5814.172834999641,111.853
5820.684279250832,50.6
5827.193259709879,-55.926
5833.699777774898,713.725
5840.203834842934,138.484
5846.7054323099655,306.263
5853.204571570954,508.663
5859.701254019747,332.894
5866.195481049195,26.632
5872.687254051074,-375.505
5879.176574416102,346.21
5885.663443533944,1119.446
5892.14786279323,1698.049
5898.629833581537,2042.398
5905.109357285379,2112.878
5911.586435290243,1869.876
5918.061068980562,1273.773
5924.533259739736,284.958
5931.003008950094,-758.999
5937.470317992949,-519.315
5943.935188248557,689.757
5950.397621096134,-492.684
5956.857617913869,0.0
5963.315180078898,226.368
5969.7703089673305,386.157
5976.105705888956,324.905
5982.556016527509,-181.095
5989.003897986593,106.526
5995.449351638199,-367.515
6001.8923788532775,-740.76
6008.215900781644,-878.798
6014.654123287393,-829.237
6021.089923438405,-639.679
6027.523302601519,-357.726
6033.954262142564,-30.98
6040.265942433929,292.947
6046.692110755517,479.368
6053.115863521547,229.031
6059.420472023492,-109.189
6065.839441620141,636.494
6072.255999718647,-407.463
6078.553548309683,-178.431
6084.965331270854,420.778
6091.374706782226,1190.43
6097.665207314269,2442.113
6104.06981570238,103.863
6110.472020679961,39.947
6116.755484978421,407.463
6123.152930828903,186.421
6129.431725134898,-45.274
6135.824417162912,61.253
6142.098546680769,58.589
6148.486490183052,90.547
6154.872039648391,394.147
6161.139160374798,215.716
6167.519969269015,103.863
6173.782438208022,-660.462
6180.158511808193,306.263
6186.416334137088,82.558
6192.787677712448,545.947
6199.040858600842,-7.989
6205.291741972564,410.126
6211.656022022646,-540.62
6217.902271670246,394.147
6224.261834810408,330.231
6230.503455884398,-167.779
6236.742785809074,175.768
6243.095304999864,223.705
6249.330014038809,-7.989
6255.677829386121,143.81
6261.907922670827,-117.179
6268.1357311500615,-21.305
6274.476522051649,322.242
6280.699722436162,173.105
6286.920641805642,79.895
6293.139281413962,21.305
6299.470738832184,372.842
6305.684780516531,-167.779
6311.896546218988,93.21
6318.106037189755,-71.905
6324.428181717434,559.263
6330.633084905065,7.989
6336.835717129172,122.505
6343.036079636258,-711.062
6349.234173671932,766.989
6355.544716640681,69.242
6361.738235515753,471.378
6367.929489673777,242.347
6374.118480356665,343.547
6380.305208805476,-607.199
6386.489676260331,138.484
6392.671883960451,34.621
6398.851833144166,90.547
6405.143905470883,719.052
6411.319299566196,-29.295
6417.492438877496,439.421
6423.663324639478,194.41
6429.831958085924,125.168
6435.998340449718,-87.884
6442.162472962846,479.368
6448.324356856407,-26.632
6454.483993360576,-625.841
6460.641383704664,167.779
6466.79652911704,189.084
6472.949430825232,260.989
6479.100090055821,-119.842
6485.248508034543,391.484
6491.280888225534,119.842
6497.424868822251,199.737
6503.5666118162335,279.631
6509.706118429633,423.442
6515.843389883739,466.052
6521.978427398899,10.653
6528.111232194642,412.789
6534.241805489546,197.073
6540.256680928833,205.063
6546.382836142315,410.126
6552.506763482961,287.621
6558.628464165849,-77.231
6564.747939405184,306.263
6570.751928194237,-343.547
6576.866997341494,689.757
6582.979844660076,-532.631
6589.090471360658,519.315
6595.0857801617385,604.536
6601.192010321647,-458.063
6607.296023467985,189.084
6613.39782080795,-223.705
6619.384468430493,-111.853
6625.481878753591,50.6
6631.577076864334,-26.632
6637.5572509579,207.726
6643.64806916556,255.663
6649.623946782151,-426.105
6655.71038980603,95.874
6661.794626582923,370.179
6667.764048126817,-55.926
6673.843916808139,260.989
6679.809053455574,271.642
6685.884558743659,487.357
6691.957863728712,271.642
6697.916561697035,-110.354
6703.985510351609,-534.559
6709.939934962422,-912.192
6716.004531971987,-1154.451
6721.954687820689,-1172.55
6728.014937863976,-877.696
6733.960829539363,-181.095
6739.904610751524,625.841
6745.95836937274,394.147
6751.897893261092,247.673
6757.947316561804,564.589
6763.8825876987685,138.484
6769.927680334353,47.937
6775.858703285812,63.916
6781.787623684751,178.431
6787.826249230238,316.915
6793.750928258974,-101.2
6799.673508107371,210.389
6805.705676935038,39.947
6811.624022213946,-109.189
6817.540271677499,-47.937
6823.5659941374615,354.2
6829.478015817709,47.937
6835.387945040406,218.379
6841.407231460638,351.536
6847.312939671727,-402.136
6853.216558775894,199.737
6859.118089881435,117.179
6865.017534095896,452.736
6871.026143398485,-284.958
6876.921377827312,-5.326
6882.814528703813,130.495
6888.705597132364,-428.768
6894.594584216582,234.358
6900.592544785228,101.2
6906.477333270021,316.915
6912.360043737404,631.168
6918.240677287846,247.673
6924.119235021055,338.221
6929.995718035963,63.916
6935.870127430717,-279.631
6941.742464302697,175.768
6947.6127297485,-191.747
6953.480924863958,-263.652
6959.347050744116,-372.842
6965.21110848328,830.904
6971.073099174937,266.315
6976.93302391185,205.063
6982.79088378598,383.494
6988.64667988853,55.926
6994.500413309928,340.884
7000.35208513985,314.252
7006.201696467178,5.326
7012.049248380063,23.968
7017.894741965851,-39.947
7023.738178311156,316.915
7029.579558501813,327.568
7035.418883622879,572.578
7041.2561547586665,-82.558
7047.091372992727,394.147
7052.924539407839,-117.179
7058.645653010426,130.495
7064.474757695687,157.126
7070.301813785409,303.6
7076.126822359336,234.358
7081.949784496486,106.526
7087.660891581778,-31.958
7093.479802640664,47.937
7099.296670474898,-338.221
7105.111496160462,519.315
7110.814624476749,109.189
7116.625407570507,31.958
7122.434151718757,45.274
7128.2408579944895,-98.537
7133.936024250346,31.958
7139.73869639702,-114.516
7145.53933386541,-106.526
7151.22854892195,420.778
7157.025158582874,460.726
7162.819736753059,-181.095
7168.503009933542,-119.842
7174.293566604632,308.926
7180.082094965896,181.095
7185.759435574095,711.062
7191.54394873148,42.61
7197.2173519438,426.105
7202.997854073568,-165.116
7208.667323984642,268.979
7214.443819257263,245.01
7220.109359956041,505.999
7225.881852536215,295.61
7231.54346810597,2.663
7237.311962152613,165.116
7242.969656670975,540.62
7248.734156337254,-125.168
7254.387933876205,1019.988
7260.148443309525,234.358
7265.798307935409,532.631
7271.554831277448,458.063
7277.20078705097,210.389
7282.953328437674,474.042
7288.59537941395,202.4
7294.235498085545,276.968
7299.982093204053,-348.873
7305.618313131272,109.189
7311.252603748333,-154.463
7316.993261813666,-183.758
7322.623659726734,-308.926
7328.252131317968,423.442
7333.9868615261075,737.694
7339.611446441268,-77.231
7345.234108016753,-499.568
7350.962919544712,-395.713
7356.581700459581,20.893
7362.198561010817,536.801
7367.813502182726,938.576
7373.426524958988,1012.771
7379.145517410223,545.947
7384.7546694986595,-175.768
7390.361906157261,327.568
7395.967228366993,817.589
7401.570637108154,133.158
7407.279835705631,-419.564
7412.879383697611,-531.454
7418.477021176703,-323.754
7424.072749120482,82.289
7429.666568505905,565.439
7435.258480309247,1004.449
7440.848485506111,1278.077
7446.436585071431,1265.082
7452.022779979503,844.22
7457.607071203925,253.0
7463.296794702215,-183.866
7468.877244915177,-420.333
7474.455794380043,-490.484
7480.032444067743,-428.397
7485.607194948596,-268.15
7491.18004799222,-43.83
7496.751004167574,210.49
7502.2129850032,460.726
7507.7801867781745,495.347
7513.345494569261,-66.579
7518.908909342786,378.168
7524.470432064445,-71.905
7530.03006369928,705.736
7535.587805211653,-61.253
7541.1436575652915,282.294
7546.697621723266,146.474
7552.249698647978,697.747
7557.693172648,239.684
7563.241514237732,415.452
7568.787971459049,1086.567
7574.332545271769,143.81
7579.87523663506,591.22
7585.416046507413,663.126
7590.848475703144,463.389
7596.385561603231,-47.937
7601.920768865631,503.336
7607.454098446255,103.863
7612.879194899509,-26.632
7618.4088080453,378.168
7623.936546354853,447.41
7629.462410781522,197.073
7634.880189328982,53.263
7640.402344837916,332.894
7645.9226293018255,-237.021
7651.334937948188,559.263
7656.851519109852,356.863
7662.260197498763,737.694
7667.773079083498,567.252
7673.284094334183,-55.926
7678.687316594296,130.495
7684.194637864675,532.631
7689.7000956236625,106.526
7695.097870006797,697.747
7700.599639370841,45.274
7705.993798107356,-95.874
7711.491882781789,466.052
7716.882429503323,375.505
7722.376833188511,1134.504
7727.763771521855,372.842
7733.254497913214,380.831
7738.637831480286,340.884
7744.124884268305,-197.073
7749.504616686187,-415.452
7754.987999556393,335.558
7760.364134437317,154.463
7765.738489349154,343.547
7771.216392021717,588.557
7776.587154788423,351.536
7782.061396717661,727.041
7787.428570939446,644.483
7792.793969640064,649.81
7798.262745065967,98.537
7803.624560595526,-311.589
7808.984603262106,556.599
7814.447920368751,503.336
7819.804385227417,234.358
7825.159079875983,335.558
7830.616946831127,1006.673
7835.968069024231,306.263
7841.317423654822,213.052
7846.665011598543,119.842
7852.115636126822,55.926
7857.459658723532,85.221
7862.801917273948,-157.126
7868.142412651388,-74.568
7873.481145728587,111.853
7878.922746278997,50.6
7884.257922859626,-322.242
7889.59133977185,559.263
7894.922997886111,-10.653
7900.252898072242,29.295
7905.581041199541,668.452
7910.907428136696,300.936
7916.336446752692,753.673
7921.65928952102,1270.325
7926.980378718883,-69.242
7932.29971521271,436.757
7937.617299868325,1400.819
7942.933133550996,426.105
7948.247217125423,553.936
7953.559551455743,-58.589
7958.870137405502,173.105
7964.178975837705,286.873
7969.486067614758,286.873
7974.791413598527,286.873
7980.0950146503055,286.873
7985.396871630804,286.873
7990.696985400187,286.873
7995.995356818043,286.873
8001.291986743403,286.873
8006.586876034729,286.873
8011.880025549901,286.873
8017.067699705829,286.873
8022.357406311574,286.873
8027.645375694708,286.873
8032.931608710882,286.873
8038.216106215201,286.873
8043.498869062179,286.873
8048.779898105804,286.873
8053.955695240969,286.873
8059.233293192043,286.873
8064.509159881611,286.873
8069.783296161415,286.873
8074.952338977277,286.873
8080.223050878609,286.873
8085.492034905405,286.873
8090.759291907168,286.873
8095.921593616502,286.873
8101.185432936367,286.873
8106.447547759821,286.873
8111.604810570996,286.873
8116.863512715307,286.873
8122.120492886879,286.873
8127.272724173963,966.725
8132.526296659391,276.968
8137.778149690843,671.115
8142.925356813517,394.147
8148.173807142077,-141.147
8153.4205405305,127.831
8158.562730834117,524.817
8163.806066493191,814.947
8168.944927307508,996.977
8174.184868536668,1069.669
8179.32040309432,1031.791
8184.55695318873,882.103
8189.689164718173,619.37
8194.922326968728,242.347
8200.051218694258,2.663
8205.280996387602,532.631
8210.406571529322,194.41
8215.632967947844,229.031
8220.7552297217,-106.526
8225.978248143558,-524.642
8231.097199761349,186.421
8236.316843460441,593.884
8241.43248812982,173.105
8246.546496881761,1041.294
8251.76110130029,1815.776
8256.871807891675,2249.787
8261.98088093357,2380.541
8267.190453365733,2245.245
8272.296229025691,1881.114
8277.400373499535,1325.359
8282.604921225458,615.189
8287.705773086778,111.589
8292.804996120794,-154.356
8298.004526406577,-234.031
8303.100461588281,-178.817
8308.194770296956,-40.102
8313.28745331115,130.729
8318.48031600209,282.294
8323.569717486189,420.778
8328.657495624051,511.326
8333.743651192239,-508.663
8338.828184966831,207.726
8344.012739449463,431.431
8349.093999566121,-53.263
8354.17364022991,729.704
8359.251662214898,490.02
8364.328066294685,-122.505
8369.402853242376,644.483
8374.476023830553,253.0
8379.547578831349,-125.168
8384.718901354245,854.873
8389.787195221597,316.915
8394.853875830348,434.094
8399.91894395064,-58.589
8404.98240035212,561.926
8410.044245803958,471.378
8415.104481074803,-42.61
8420.163106932847,471.378
8425.220124145773,458.063
8430.275533480788,125.168
8435.32933570461,612.526
8440.381531583458,402.136
8445.432121883085,258.326
8450.48110736873,-141.147
8455.528488805172,-199.737
8460.473367100913,772.315
8465.51757477424,330.231
8470.560180674485,58.589
8475.601185564497,444.747
8480.64059020661,647.147
8485.67839536271,189.084
8490.714601794163,175.768
8495.749210261878,364.852
8500.681576948675,663.126
8505.713023691114,633.831
8510.742874734438,548.61
8515.771130837642,133.158
8520.797792759218,-503.336
8525.722375497866,300.936
8530.745883175656,444.747
8535.7677989293,828.241
8540.788123515384,418.115
8545.706498587671,1315.598
8550.723674892208,223.705
8555.739262280982,567.252
8560.652997083213,167.779
8565.665440644778,322.242
8570.676297538128,673.778
8575.585398634048,21.305
8580.593116146138,183.758
8585.599249233324,623.178
8590.503723174297,487.357
8595.506721317797,737.694
8600.508137275468,436.757
8605.40799060051,1347.556
8610.406276043708,-487.357
8615.303062904772,-26.632
8620.298220771765,-85.221
8625.191944046568,370.179
8630.18397727198,719.052
8635.074639834631,407.463
8640.063551349394,442.084
8644.951156070434,721.715
8649.936948801806,420.778
8654.821498548154,229.031
8659.804175419777,466.052
8664.685673054784,897.483
8669.665236986599,564.589
8674.543685370048,1304.946
8679.520139278378,367.515
8684.395541266465,508.663
8689.2694364983,231.694
8694.241246509358,202.4
8699.112099609058,684.431
8703.981448060618,745.683
8708.948620671701,537.957
8713.81493124642,101.2
8718.779005433622,897.483
8723.642280973501,191.747
8728.504055374753,359.526
8733.364329332315,735.031
8738.32224658698,-5.326
8743.179491154478,684.431
8748.035237374625,412.789
8752.889485940628,508.663
8757.8412577103,-119.842
8762.692482517024,817.589
8767.542211760752,69.242
8772.39044613298,386.157
8777.336083836857,311.589
8782.18130006664,380.831
8787.02502351089,394.147
8791.867254859393,388.821
8796.707994801498,348.873
8801.547244026118,729.704
8806.385003221756,897.483
8811.319956958603,-26.632
8816.154707786565,351.536
8820.987970662514,332.894
8825.819746273257,426.105
8830.650035305174,697.747
8835.478838444196,218.379
8840.306156375878,332.894
8845.131989785303,-149.137
8849.956339357173,247.673
8854.779205775758,-82.558
8859.60058972489,601.873
8864.420491888006,444.747
8869.238912948098,1009.336
8874.055853587757,508.663
8878.871314489159,1709.745
8883.685296334032,332.894
8888.497799803714,-90.547
8893.308825579123,649.81
8898.118374340735,335.558
8902.926446768637,74.568
8907.634964476681,396.81
8912.440116370435,194.41
8917.243793954342,833.567
8922.045997906822,644.483
8926.846728905857,450.073
8931.645987629043,628.505
8936.443774753548,751.01
8941.142221650607,593.884
8945.937097605834,266.315
8950.73050397759,146.474
8955.522441441404,314.252
8960.215160665939,308.926
8965.004192282166,577.905
8969.791757000756,737.694
8974.577855495572,268.979
8979.26485751475,13.316
8984.048055470721,101.2
8988.829789208343,-15.979
8993.51251749025,375.505
8998.291354655303,-79.895
9003.068729603765,420.778
9007.747189991118,359.526
9012.521672326067,519.315
9017.294694442531,282.294
9021.968892767374,303.6
9026.739026222178,119.842
9031.41039612206,0.0
9036.17764353675,391.484
9040.943434050514,764.475
9045.610551571128,1012.187
9050.373459984672,1133.593
9055.037755503963,1127.662
9059.797784430888,993.365
9064.45926050758,729.672
9069.216412558366,335.558
9073.87507174812,42.61
9078.629349530078,553.936
9083.285194385431,969.388
9088.036600502714,596.547
9092.689633573158,628.505
9097.438170626783,300.936
9102.088394458704,764.325
9106.73722909284,561.926
9111.481482183284,-466.052
9116.12751137963,380.831
9120.868901881862,162.452
9125.512128179163,191.747
9130.153968412898,450.073
9134.891084617178,490.02
9139.53012574118,905.473
9144.167782675046,268.979
9148.9006303586,450.073
9153.535491965213,186.421
9158.168971251744,87.884
9162.801068836525,306.263
9167.528243916331,210.389
9172.157551197888,649.81
9176.785478643267,298.273
9181.412026869286,237.021
9186.13353953768,-679.104
9190.757302472506,551.273
9195.37968804908,391.484
9200.000696882766,556.599
9204.620329588544,758.999
9209.334785850184,532.631
9213.951639506451,242.347
9218.567118890363,964.062
9223.181224615444,535.294
9227.79395729483,125.168
9232.40531754132,1014.662
9237.015305967328,516.652
9241.623923184923,505.999
9246.23116980579,620.515
9250.932987640888,916.125
9255.537466379788,556.599
9260.140576367572,63.916
9264.742318214474,897.483
9269.342692530376,513.989
9273.941699924766,484.694
9278.539341006806,1158.472
9283.135616385269,655.136
9287.730526668583,290.284
9292.324072464791,993.357
9296.91625438162,274.305
9301.411444872112,-122.505
9306.00092923447,599.21
9310.589051525738,-87.884
9315.175812352172,567.252
9319.761212319692,782.968
9324.345252033823,292.947
9328.927932099774,-45.274
9333.509253122353,1089.23
9338.08921570604,234.358
9342.572446701386,692.42
9347.149722488744,412.789
9351.7256416359,764.325
9356.300204745894,615.189
9360.873412421412,218.379
9365.350032145325,87.884
9369.920558965528,471.378
9374.489732144635,234.358
9379.05755228394,471.378
9383.528899030936,487.357
9388.09404305015,553.936
9392.657835818722,420.778
9397.125240831178,687.094
9401.6863610176,426.105
9406.246131739394,484.694
9410.80455359534,575.241
9415.266701898625,-639.157
9419.822455888205,1296.956
9424.281993052333,221.042
9428.835081516963,319.579
9433.38682407955,1179.778
9437.84243511156,1718.395
9442.391515668474,1777.94
9446.84452129656,1492.48
9451.390942182352,996.089
9455.93602012123,422.834
9460.385108237591,-93.21
9464.927530014324,-417.977
9469.374018445214,-417.393
9473.913786387537,42.61
9478.35767741084,591.22
9482.894793843763,106.526
9487.33608973474,753.673
9491.87055698055,838.894
9496.30926001177,253.0
9500.74668109923,141.147
9505.277192831463,239.684
9509.71202445114,631.168
9514.23989277796,402.136
9518.672137195834,540.62
9523.103102466685,229.031
9527.62702390948,769.652
9532.05540536064,1320.451
9536.57668916292,1706.235
9541.002489053764,1918.515
9545.42701258622,1948.806
9549.850260312329,1788.617
9554.36630345335,1429.466
9558.78697410632,862.862
9563.206370618926,295.61
9567.718482324255,306.263
9572.13530512818,-268.979
9576.550855454823,860.199
9580.965133854,260.989
9585.47202083257,47.937
9589.883729992052,689.757
9594.294168883298,1105.209
9598.703338054846,298.273
9603.111238054931,676.441
9607.611613766734,276.968
9612.016950092931,753.673
9616.421018902103,511.326
9620.823820741218,998.683
9625.225356156909,676.441
9629.625625695517,412.789
9634.02462990307,604.536
9638.422369325252,324.905
9642.81884450748,378.168
9647.21405599481,-213.052
9651.701478874824,287.621
9656.094137748323,215.716
9660.485534571855,758.999
9664.875669889248,-21.305
9669.264544244,213.052
9673.65215817932,268.979
9678.03851223808,519.315
9682.423606962846,109.189
9686.807442895892,165.116
9691.19002057915,-15.979
9695.478134071804,934.767
9699.858223622705,231.694
9704.23705653629,199.737
9708.614633353289,311.589
9712.990954614088,133.158
9717.36602085878,748.347
9721.739832627154,580.568
9726.112390458671,-18.642
9730.483694892511,237.021
9734.760779687776,418.115
9739.129605581998,737.694
9743.497179682729,-53.263
9747.863502527893,657.799
9752.228574655115,322.242
9756.499562339395,359.526
9760.862161224974,668.452
9765.223510992222,1078.578
9769.583612177565,969.388
9773.849736751828,531.433
9778.207368918504,531.433
9782.563754099236,531.433
9786.918892829211,531.433
9791.18016259473,531.433
9795.532836519418,531.433
9799.884265585692,531.433
9804.14190615754,531.433
9808.490873566669,531.433
9812.83859770701,531.433
9817.09261371952,531.433
9821.437879345483,531.433
9825.689490172908,531.433
9830.032299369228,531.433
9834.373867936378,531.433
9838.621861899856,531.433
9842.960977171238,531.433
9847.206571054325,531.433
9851.543235108787,531.433
9855.786430944943,13.316
9860.12064585897,641.82
9864.361445679362,210.389
9868.693213527116,407.463
9872.931619360628,1038.63
9877.26094221391,327.568
9881.49695608711,676.441
9885.823836015392,-226.368
9890.057459952584,631.168
9894.289902518456,1512.672
9898.613135046206,993.357
9902.843190697367,412.789
9907.163985452502,207.726
9911.391656207565,15.979
9915.61814808206,593.884
9919.935303126713,735.031
9924.15941311792,245.01
9928.38234571751,452.736
9932.695865648708,-21.305
9936.91641937277,15.979
9941.135797191648,239.684
9945.445686598703,442.084
9949.662688544726,961.399
9953.878516069532,356.863
9958.09316966365,529.968
9962.398234183594,468.715
9966.61051589339,679.104
9970.821625153134,1057.272
9975.031562452265,889.494
9979.240328279942,399.473
9983.53937957713,-53.263
9987.745778488254,727.041
9991.95100740443,-61.253
9996.155066813732,332.894
10000.357957203963,-290.284
10004.55967906266,751.01
10008.760232877092,703.073
10013.050897176752,370.179
10017.249090997648,607.199
10021.446118245014,324.905
10025.641979405023,719.052
10029.83667496358,354.2
10034.03020540632,378.168
10038.222571218605,844.22
10042.413772885537,-138.484
10046.603810891938,588.557
10050.79268572236,543.284
10054.980397861098,-63.916
10059.16694779218,194.41
10063.352335999334,697.747
10067.536562966066,545.947
10071.719629175575,343.547
10075.90153511081,340.884
10080.082281254454,766.989
10084.26186808891,327.568
10088.440296096323,519.315
10092.52676786215,591.22
10096.702904826674,189.084
10100.877884398516,330.231
10105.051707058765,330.231
10109.224373288234,191.747
10113.395883567471,513.989
10117.475590772649,644.483
10121.64481569536,146.474
10125.812886097472,340.884
10129.979802458443,673.778
10134.145565257517,221.042
10138.219652237512,370.179
10142.383134400929,415.452
10146.545464428116,491.265
10150.706642797257,600.185
10154.776246850048,711.829
10158.935148346747,795.809
10163.092899607942,821.741
10167.159152430871,759.233
10171.314629631466,577.905
10175.468958016776,340.884
10179.531863747628,380.831
10183.683920879565,380.796
10187.834830614069,315.115
10191.894393383842,230.941
10196.043034667582,175.436
10200.190529969435,195.749
10204.246753902304,339.043
10208.391983551395,652.473
10212.44599199288,769.652
10216.588957845182,-229.031
10220.640752609928,727.041
10224.781456519388,394.147
10228.831039420063,250.337
10232.969483238625,271.642
10237.016856085897,-324.905
10241.15304166346,362.189
10245.19820626604,474.042
10249.332135450502,852.21
10253.375093615126,53.263
10257.506768252357,138.484
10261.547521783785,292.947
10265.58718577827,428.768
10269.715494418666,777.641
10273.752956473523,63.916
10277.87901516247,516.652
10281.91427707755,1230.378
10285.948451675904,378.168
10290.0711512271,157.126
10294.10312837192,266.315
10298.13401952729,977.378
10302.253364041218,881.504
10306.282060424935,324.905
10310.309672144327,79.895
10314.425665714796,537.957
10318.451085340042,-138.484
10322.475421623927,194.41
10326.498675003731,245.01
10330.610215200984,7.989
10334.631280043344,500.673
10338.651263301725,428.768
10342.670165412448,-85.221
10346.687986811625,415.452
10350.704727935088,125.168
10354.80961387438,359.526
10358.824171771252,474.042
10362.837650708272,527.305
10366.850051120337,332.894
10370.86137344214,551.273
10374.871618108127,45.274
10378.880785552512,484.694
10382.888876209276,-173.105
10386.984923052532,495.347
10390.990837530662,178.431
10394.995676531347,-103.863
10398.999440487634,207.726
10403.00212983234,125.168
10407.003744998048,636.494
10411.004286417105,809.599
10415.003754521616,732.368
10419.002149743475,135.821
10422.999472514348,764.325
10426.995723265634,239.684
10430.990902428544,732.368
10434.985010434026,415.452
10438.889325180557,290.284
10442.881315942828,407.463
10446.872236829608,122.505
10450.86208827093,543.284
10454.85087069661,663.126
10458.838584536235,681.768
10462.82523021915,388.821
10466.810808174472,260.989
10470.706785742112,324.905
10474.690253232264,-66.579
10478.672654271297,-133.158
10482.653989287404,186.421
10486.634258708573,319.579
10490.525047770485,700.41
10494.50321094102,111.853
10498.480309789697,426.105
10502.45634474356,-18.642
10506.342995080442,258.326
10510.316927143493,490.02
10514.2897965821,-452.736
10518.261603822417,10.653
10522.144122034457,870.852
10526.113829736623,109.189
10530.082476508169,-413.572
10533.961905709137,-468.303
10537.92845544769,-233.777
10541.89394552126,111.222
10545.770289396216,387.92
10549.733684937964,417.54
10553.607981637546,21.305
10557.569284306495,-407.463
10561.52952941227,657.799
10565.400746905443,695.083
10569.35890163298,-87.884
10573.22807600992,-63.916
10577.184142013864,330.231
10581.05127489159,93.21
10585.005253824836,135.821
10588.87034681866,346.21
10592.822240332363,487.357
10596.685295055897,492.684
10600.635104799476,418.115
10604.496122864624,348.873
10608.443850485746,548.61
10612.302833502728,402.136
10616.160811022752,218.379
10620.10543022464,165.116
10623.9613750996,245.01
10627.903916281392,703.073
10631.757830117263,-15.979
10635.61074043666,985.367
10639.550179321655,260.989
10643.401060998756,213.052
10647.250940343372,463.389
10651.187280591832,260.989
10655.035133687184,213.859
10658.881985632182,362.807
10662.815230898605,606.84
10666.660058983602,844.968
10670.50388709854,976.195
10674.346715633475,899.534
10678.275847672114,513.989
10682.116655520924,-39.947
10685.956464967534,13.316
10689.795276401208,367.515
10693.633090210977,-61.253
10697.557095575656,695.083
10701.39289265285,279.631
10705.227693280882,290.284
10709.061497847986,-13.316
10712.894306742182,-29.295
10716.726120351308,55.926
10720.55693906298,279.631
10724.386763264632,492.684
10728.302600658342,143.81
10732.130414421008,194.41
10735.957234843503,199.737
10739.783062312445,612.526
10743.60789721425,460.726
10747.431739935131,-98.537
10751.254590861114,569.915
10755.076450378,253.0
10758.897318871408,-66.579
10762.717196726757,-274.305
10766.536084329256,-13.316
10770.353982063916,237.021
10774.170890315563,-748.347
10777.98680946881,213.052
10781.801739908076,191.747
10785.615682017564,439.421
10789.341989100834,-2.663
10793.153978142976,223.705
10796.964979998098,53.263
10800.774995049622,117.179
10804.58402368077,633.831
10808.392066274577,82.558
10812.199123213884,197.073
10816.005194881312,-460.726
10819.723813349112,98.537
10823.52793799081,482.031
10827.331078498672,564.589
10831.133235254529,-135.821
10834.848029253728,53.263
10838.64824198676,402.136
10842.447472103491,215.716
10846.24571998498,378.168
10849.956695412544,266.315
10853.753002267928,-247.673
10857.548328021428,-215.716
10861.342673053316,-29.295
10865.049835794096,218.379
10868.842242790466,593.884
10872.63367019626,-66.579
10876.337982712816,213.052
10880.12747431772,-268.979
10883.82989575329,-71.905
10887.617453039476,21.305
10891.404032613404,-79.895
10895.103609289945,-31.958
10898.88825677408,-298.273
10902.585945994537,308.926
10906.368662867266,295.61
10910.150403901262,-290.284
10913.845253813895,615.189
10917.62506645972,-213.052
10921.318032531915,-10.653
10925.095918264182,-34.621
10928.787001936307,87.884
10932.562962228116,-85.221
10936.252164939066,-101.2
10939.940438510435,-165.116
10943.713524449233,-34.621
10947.399919206764,34.621
10951.171083372872,-631.168
10954.855600751816,114.516
10958.62484461311,487.357
10962.307486047235,-98.537
10965.989200819247,-5.326
10969.755577991731,106.526
10973.435418958636,-194.41
10977.114334320191,0.0
10980.877848072992,-255.663
10984.554891765896,90.547
10988.231010908596,181.095
10991.991664505884,-42.61
10995.665914113146,2.663
10999.33924022374,-263.652
11003.011643185791,154.463
11006.768495629847,274.305
11010.439031890255,157.126
11014.108646053544,-37.284
11017.777338467138,452.736
11021.530395518184,106.526
11025.197224058184,-186.421
11028.863131897786,71.905
11032.528119383707,-42.61
11036.192186862492,-146.474
11039.855334680517,-197.073
11043.602720353196,-95.874
11047.264008520897,-95.874
11050.924378073953,-2.663
11054.58382935806,-279.631
11058.242362718707,-66.579
11061.899978501227,77.231
11065.556677050785,569.915
11069.21245871235,-66.579
11072.867323830738,303.6
11076.521272750586,194.41
11080.174305816368,-436.757
11083.826423372368,117.179
11087.477625762698,375.505
11091.127913331318,66.579
11094.777286422,-74.568
11098.425745378345,-45.274
11102.073290543767,-79.895
11105.719922261547,-218.379
11109.36564087477,173.105
11113.010446726335,247.673
11116.654340159006,167.779
11120.29732151534,-655.136
11123.93939113774,452.736
11127.580549368427,-5.326
11131.22079654947,85.221
11134.77550763161,-215.716
11138.413954906267,61.253
11142.051492148485,348.873
11145.688119699626,476.705
11149.323837900913,388.821
11152.958647093375,-26.632
11156.508048620988,173.105
11160.141061938251,458.063
11163.773167260852,159.789
11167.40436492916,191.747
11170.950240228543,428.768
11174.579644697213,335.558
11178.208142523734,61.253
11181.751381744987,239.684
11185.378088371155,921.452
11189.003889365817,58.589
11192.628785068173,-479.368
11196.16850723805,-194.41
11199.79161440632,284.958
11203.413817290922,854.873
11206.950910239968,330.231
11210.571326582844,-639.157
11214.10667518314,-202.4
11217.725306305692,-45.274
11221.343034819707,61.253
11224.875759069631,388.821
11228.49170435076,564.589
11232.022687482247,407.463
11235.636850848638,287.621
11239.166094148528,439.421
11242.778476917028,-665.789
11246.305981670925,34.621
11249.91658515709,-253.0
11253.442352649325,380.831
11257.05117816741,-159.789
11260.575209681025,-98.537
11264.182258544,793.62
11267.704555360804,391.484
11271.309828880325,215.716
11274.83039228086,234.358
11278.350099642112,-367.515
11281.952723030843,-854.574
11285.470698886753,-1028.217
11288.987819646914,-958.31
11292.587795825824,-714.727
11296.103186988752,-367.342
11299.70139304264,13.976
11303.215055883851,359.352
11306.727865201254,598.917
11310.23982130582,662.797
11313.834511810855,481.123
11317.34474212601,-15.979
11320.8541201677,-527.305
11324.446172200132,-93.21
11327.953826352135,5.326
11331.460629168672,85.221
11334.96658095964,-218.379
11338.471682034791,-98.537
11342.059356881087,420.778
11345.562737216636,895.787
11349.06526777208,1216.095
11352.566948856567,1388.201
11356.067780779093,1418.597
11359.56776384851,1313.777
11363.1502007606,1080.242
11366.648466857394,724.485
11370.145885034064,253.0
11373.642455598843,-74.568
11377.138178859836,431.431
11380.633055125,383.494
11384.1270847021,492.684
11387.620267898808,82.558
11391.112605022612,82.558
11394.60409638087,207.726
11398.094742280777,-111.853
11401.584543029392,268.979
11405.073498933603,183.758
11408.561610300185,-122.505
11412.048877435727,178.431
11415.5353006467,215.716
11419.020880239405,420.778
11422.505616520008,-77.231
11425.989509794525,-207.726
11429.472560368817,463.389
11432.954768548592,-23.968
11436.43613463944,-221.042
11439.916658946764,-306.263
11443.313501961433,383.494
11446.79236364179,141.147
11450.270384446749,85.221
11453.74756468115,442.084
11457.22390464968,-386.157
11460.699404656869,359.526
11464.091344754375,-218.379
11467.565185732994,-61.253
11471.038187655771,266.315
11474.51035082668,-372.842
11477.981675549512,45.274
11481.369541233144,149.137
11484.839209915755,535.294
11488.30804105362,-98.537
11491.693473394258,284.958
11495.16065027576,114.516
11498.626990514544,106.526
11502.092494413417,234.358
11505.474679896604,378.168
11508.938531918346,-122.505
11512.401548500471,-226.368
11515.78130675673,13.316
11519.242673239612,10.653
11522.620821260369,516.652
11526.080538823127,840.657
11529.5394224415,839.496
11532.915147579475,612.11
11536.372384051368,257.434
11539.74650183491,-125.591
11543.202092336618,-438.034
11546.574603913472,-580.948
11550.028549620163,-455.399
11553.399456136987,-170.442
11556.85175822272,-271.642
11560.221060825072,69.242
11563.67172046279,101.2
11567.039420295116,330.231
11570.488438656655,434.094
11573.854536862347,-245.01
11577.301915118398,-119.842
11580.666412839755,346.21
11584.030120381583,69.242
11587.475050538147,237.021
11590.837159300165,247.673
11594.280452266124,-415.452
11597.64096338792,258.326
11601.000685734118,-95.874
11604.441534950183,58.589
11607.79966135666,292.947
11611.156999826935,250.337
11614.59540789372,181.095
11617.951152122365,-303.6
11621.306109253032,-210.389
11624.66027956261,-202.4
11628.09544335218,-186.421
11631.44802167594,31.958
11634.799814015252,183.758
11638.15082064648,26.632
11641.58274474832,69.242
11644.932161645294,23.968
11648.280793669244,23.968
11651.62864109602,-31.958
11654.975704201344,-124.293
11658.403590030808,-229.324
11661.749066206958,-330.274
11665.093758894744,-410.358
11668.43766836938,-452.798
11671.780794905935,-440.808
11675.12313877933,-357.608
11678.4647002644,-186.421
11681.805479635816,45.274
11685.145477168146,103.863
11688.484693135812,-404.8
11691.904543291126,338.221
11695.24217790648,223.705
11698.579031786354,-90.547
11701.915105204676,-167.779
11705.25039843522,138.484
11708.584911751648,173.105
11711.918645427471,-316.915
11715.251599736104,-58.589
11718.502511651865,-138.484
11721.83392703817,-130.495
11725.164563870054,665.789
11728.4944224204,-143.81
11731.823502961994,-130.495
11735.15180576744,628.505
11738.479331109273,420.778
11741.806079259855,71.905
11745.132050491462,165.116
11748.457245076206,-151.8
11751.70058915004,-87.884
11755.024250183047,-231.694
11758.34713537819,-106.526
11761.669245007088,157.126
11764.990579341233,-58.589
11768.230158619372,-380.831
11771.549962071174,-255.663
11774.86899103535,300.936
11778.187245782876,-492.684
11781.423821624776,407.463
11784.740547618409,-26.632
11788.05650020102,55.926
11791.371679643096,138.484
11794.605256223578,-311.589
11797.91890903626,-628.505
11801.231789512534,-114.516
11804.46312397414,460.284
11807.774479408556,864.769
11811.085063309589,1109.396
11814.314157983485,1204.617
11817.623218427994,1160.89
11820.850827315822,988.67
11824.158365355152,698.407
11827.4651331948,300.564
11830.690506166697,-194.41
11833.995753182851,-308.926
11837.219642936305,729.704
11840.52337017791,-223.705
11843.745777735792,-253.0
11847.047986250807,-29.295
11850.26891263506,308.926
11853.569603470474,111.853
11856.789049702087,183.758
11860.088223903953,-359.526
11863.30619100298,372.842
11866.603849616356,-452.736
11869.820338601929,343.547
11873.11648267094,-191.747
11876.331494561222,-338.221
11879.545777396996,146.474
11882.839660941268,-181.095
11886.052468201013,-10.653
11889.26454715598,-223.705
11892.55617250015,-66.579
11895.766777396242,260.989
11899.056892350098,122.505
11902.26602420178,170.442
11905.474428998024,-127.831
11908.682106985869,-796.283
11911.969222890988,524.642
11915.17542984806,21.305
11918.380910743392,-250.337
11921.66577540321,-98.537
11924.869786778698,205.063
11928.07307283808,410.126
11931.27563382762,-66.579
11934.477469993468,-391.484
11937.758600089848,-141.147
11940.95896924119,-47.937
11944.158614312782,-207.726
11947.35753555032,647.147
11950.55573319941,122.505
11953.753207505528,-207.726
11957.029868231695,-165.116
11960.225878519712,-338.221
11963.42116620667,253.0
11966.615731537608,7.989
11969.809574757444,199.737
11973.002696111003,1624.524
11976.195095842992,-47.937
11979.386774197992,-61.253
11982.577731420495,362.173
11985.767967754866,660.244
11988.957483445382,845.536
11992.146278736183,930.615
11995.334353871312,928.062
11998.521709094712,850.447
12001.708344650193,710.338
12004.894260781464,520.314
12008.079457732136,292.947
12011.2639357457,285.075
12014.44769506553,494.31
12017.630735934905,832.862
12020.81305859698,1212.929
12023.994663294816,1546.715
12027.175550271351,1746.422
12030.27622427429,1724.26
12033.455694464548,1392.425
12036.634447655608,663.126
12039.812484089987,-162.452
12042.989804010074,15.979
12046.166407658158,125.168
12049.26290681064,194.41
12052.4380965329,34.621
12055.612570703324,-63.916
12058.786329563762,10.653
12061.880055974125,-42.61
12065.052402807443,-226.368
12068.224035049663,697.747
12071.394952942192,-418.115
12074.485910333004,-266.315
12077.655418093736,109.189
12080.824212222367,157.126
12083.913099633974,18.642
12087.080485047096,-205.063
12090.247157544738,-7.989
12093.333977055809,-314.252
